PPG GREEN,time
1694148.0,1677486192.365
1694195.0,1677486192.405
1694322.0,1677486192.446
1694616.0,1677486192.486
1694615.0,1677486192.525
1694082.0,1677486192.566
1693856.0,1677486192.605
1693807.0,1677486192.645
1693831.0,1677486192.687
1694135.0,1677486192.726
1694767.0,1677486192.766
1695156.0,1677486192.807
1695242.0,1677486192.846
1692608.0,1677486192.887
1692185.0,1677486192.927
1695114.0,1677486192.966
1697056.0,1677486193.006
1698828.0,1677486193.047
1700495.0,1677486193.087
1701970.0,1677486193.126
1703322.0,1677486193.167
1705025.0,1677486193.206
1705911.0,1677486193.246
1707357.0,1677486193.288
1708918.0,1677486193.326
1709921.0,1677486193.367
1711592.0,1677486193.408
1713116.0,1677486193.447
1714512.0,1677486193.487
1715539.0,1677486193.528
1716092.0,1677486193.567
1716507.0,1677486193.607
1716418.0,1677486193.648
1716072.0,1677486193.688
1715482.0,1677486193.727
1715096.0,1677486193.768
1714752.0,1677486193.807
1714796.0,1677486193.847
1716144.0,1677486193.889
1718485.0,1677486193.927
1720612.0,1677486193.967
1722104.0,1677486194.008
1722833.0,1677486194.047
1722903.0,1677486194.088
1722564.0,1677486194.129
1722117.0,1677486194.168
1721893.0,1677486194.208
1721564.0,1677486194.249
1721531.0,1677486194.289
1721137.0,1677486194.328
1721005.0,1677486194.369
1720842.0,1677486194.408
1720505.0,1677486194.448
1720455.0,1677486194.49
1720297.0,1677486194.528
1720213.0,1677486194.568
1720075.0,1677486194.609
1719974.0,1677486194.648
1720156.0,1677486194.689
1719863.0,1677486194.729
1719962.0,1677486194.768
1719982.0,1677486194.809
1720161.0,1677486194.85
1720037.0,1677486194.889
1719925.0,1677486194.929
1719701.0,1677486194.97
1719758.0,1677486195.049
1719876.0,1677486195.091
1719583.0,1677486195.009
1719900.0,1677486195.129
1720119.0,1677486195.249
1720159.0,1677486195.29
1720097.0,1677486195.21
1720028.0,1677486195.169
1720220.0,1677486195.33
1720382.0,1677486195.369
1720545.0,1677486195.409
1720639.0,1677486195.45
1721012.0,1677486195.49
1721062.0,1677486195.529
1721105.0,1677486195.57
1721217.0,1677486195.609
1721607.0,1677486195.649
1721204.0,1677486195.73
1721037.0,1677486195.77
1721295.0,1677486195.691
1720734.0,1677486195.811
1720309.0,1677486195.89
1720526.0,1677486195.85
1720035.0,1677486195.931
1719750.0,1677486195.97
1719173.0,1677486196.051
1719379.0,1677486196.01
1718781.0,1677486196.13
1719008.0,1677486196.091
1718327.0,1677486196.25
1718098.0,1677486196.292
1717908.0,1677486196.33
1717610.0,1677486196.37
1718550.0,1677486196.171
1718389.0,1677486196.21
1717437.0,1677486196.411
1717202.0,1677486196.45
1716547.0,1677486196.491
1714963.0,1677486196.571
1713800.0,1677486196.611
1715808.0,1677486196.532
1712988.0,1677486196.652
1712173.0,1677486196.691
1711298.0,1677486196.731
1710440.0,1677486196.772
1709769.0,1677486196.811
1709164.0,1677486196.851
1708477.0,1677486196.893
1707996.0,1677486196.931
1707610.0,1677486196.971
1707147.0,1677486197.012
1706609.0,1677486197.051
1706097.0,1677486197.092
1705529.0,1677486197.133
1705134.0,1677486197.172
1704845.0,1677486197.212
1704381.0,1677486197.253
1703113.0,1677486197.292
1701871.0,1677486197.332
1700226.0,1677486197.373
1698904.0,1677486197.412
1697480.0,1677486197.452
1696367.0,1677486197.494
1695239.0,1677486197.532
1694350.0,1677486197.572
1693188.0,1677486197.613
1692063.0,1677486197.652
1691291.0,1677486197.693
1690459.0,1677486197.733
1689983.0,1677486197.772
1689346.0,1677486197.812
1688939.0,1677486197.854
1688090.0,1677486197.893
1687671.0,1677486197.933
1687224.0,1677486197.974
1686986.0,1677486198.013
1686538.0,1677486198.053
1685848.0,1677486198.095
1684616.0,1677486198.133
1682955.0,1677486198.173
1681107.0,1677486198.214
1679664.0,1677486198.253
1678472.0,1677486198.294
1677349.0,1677486198.334
1676297.0,1677486198.373
1675219.0,1677486198.413
1674470.0,1677486198.454
1673568.0,1677486198.494
1673038.0,1677486198.533
1672648.0,1677486198.574
1672132.0,1677486198.613
1671755.0,1677486198.653
1671595.0,1677486198.695
1671161.0,1677486198.734
1670976.0,1677486198.774
1671092.0,1677486198.815
1671009.0,1677486198.854
1671194.0,1677486198.894
1671179.0,1677486198.935
1670550.0,1677486198.975
1669469.0,1677486199.01
1668126.0,1677486199.049
1667067.0,1677486199.089
1666222.0,1677486199.129
1665784.0,1677486199.169
1665659.0,1677486199.208
1665167.0,1677486199.249
1665040.0,1677486199.291
1665001.0,1677486199.329
1665113.0,1677486199.369
1665390.0,1677486199.411
1665709.0,1677486199.45
1666172.0,1677486199.491
1666521.0,1677486199.529
1667051.0,1677486199.568
1667274.0,1677486199.609
1667740.0,1677486199.649
1668019.0,1677486199.689
1668811.0,1677486199.729
1668826.0,1677486199.769
1668316.0,1677486199.808
1667549.0,1677486199.849
1667316.0,1677486199.891
1667137.0,1677486199.929
1667057.0,1677486199.969
1667308.0,1677486200.011
1667478.0,1677486200.05
1667899.0,1677486200.091
1668207.0,1677486200.132
1668523.0,1677486200.169
1669084.0,1677486200.209
1669746.0,1677486200.25
1670506.0,1677486200.29
1671127.0,1677486200.329
1671758.0,1677486200.37
1672562.0,1677486200.409
1673154.0,1677486200.449
1673890.0,1677486200.492
1674367.0,1677486200.53
1674288.0,1677486200.57
1674151.0,1677486200.612
1673900.0,1677486200.651
1674021.0,1677486200.689
1674344.0,1677486200.73
1674570.0,1677486200.769
1675061.0,1677486200.81
1675535.0,1677486200.85
1676138.0,1677486200.89
1676707.0,1677486200.929
1677386.0,1677486200.97
1678076.0,1677486201.009
1678989.0,1677486201.049
1679581.0,1677486201.091
1680217.0,1677486201.129
1680799.0,1677486201.17
1681385.0,1677486201.211
1681567.0,1677486201.25
1681677.0,1677486201.291
1681627.0,1677486201.332
1681490.0,1677486201.369
1681788.0,1677486201.409
1681870.0,1677486201.45
1682183.0,1677486201.49
1682612.0,1677486201.529
1682950.0,1677486201.57
1683386.0,1677486201.609
1683913.0,1677486201.65
1684398.0,1677486201.692
1685049.0,1677486201.73
1685716.0,1677486201.77
1686395.0,1677486201.812
1687154.0,1677486201.851
1687664.0,1677486201.892
1688244.0,1677486201.933
1688465.0,1677486201.969
1688641.0,1677486202.01
1688540.0,1677486202.051
1688548.0,1677486202.091
1688537.0,1677486202.131
1688829.0,1677486202.171
1689103.0,1677486202.21
1689428.0,1677486202.251
1689687.0,1677486202.293
1690120.0,1677486202.331
1690448.0,1677486202.371
1690976.0,1677486202.413
1691555.0,1677486202.45
1692063.0,1677486202.491
1692742.0,1677486202.531
1693269.0,1677486202.57
1693812.0,1677486202.611
1694285.0,1677486202.651
1694971.0,1677486202.691
1695648.0,1677486202.731
1695839.0,1677486202.771
1695879.0,1677486202.81
1695796.0,1677486202.851
1695576.0,1677486202.893
1695576.0,1677486202.931
1695891.0,1677486202.971
1695905.0,1677486203.013
1696213.0,1677486203.051
1696443.0,1677486203.083
1696690.0,1677486203.123
1696965.0,1677486203.162
1697342.0,1677486203.202
1697821.0,1677486203.243
1698386.0,1677486203.283
1698866.0,1677486203.322
1699752.0,1677486203.402
1700423.0,1677486203.442
1699409.0,1677486203.363
1700939.0,1677486203.484
1701590.0,1677486203.523
1702221.0,1677486203.563
1702781.0,1677486203.604
1703307.0,1677486203.643
1703378.0,1677486203.724
1703294.0,1677486203.758
1703430.0,1677486203.683
1703305.0,1677486203.831
1703117.0,1677486203.792
1703815.0,1677486203.91
1703442.0,1677486203.871
1703843.0,1677486203.951
1704110.0,1677486203.991
1704183.0,1677486204.031
1704556.0,1677486204.073
1704945.0,1677486204.112
1705061.0,1677486204.152
1705591.0,1677486204.191
1705966.0,1677486204.23
1706540.0,1677486204.271
1706972.0,1677486204.312
1706972.0,1677486204.344
1707370.0,1677486204.384
1707706.0,1677486204.425
1708090.0,1677486204.465
1708693.0,1677486204.504
1709124.0,1677486204.545
1709070.0,1677486204.584
1708874.0,1677486204.624
1708755.0,1677486204.666
1708408.0,1677486204.704
1708104.0,1677486204.744
1707926.0,1677486204.785
1707897.0,1677486204.824
1707829.0,1677486204.865
1707767.0,1677486204.907
1707590.0,1677486204.946
1707663.0,1677486204.986
1707751.0,1677486205.024
1708017.0,1677486205.064
1708083.0,1677486205.104
1708222.0,1677486205.145
1708311.0,1677486205.184
1708502.0,1677486205.224
1708731.0,1677486205.266
1708640.0,1677486205.304
1708877.0,1677486205.344
1709298.0,1677486205.385
1709259.0,1677486205.424
1709177.0,1677486205.465
1708435.0,1677486205.505
1708096.0,1677486205.544
1707647.0,1677486205.584
1707110.0,1677486205.625
1706836.0,1677486205.665
1706402.0,1677486205.704
1706175.0,1677486205.745
1705966.0,1677486205.785
1705806.0,1677486205.825
1705681.0,1677486205.867
1705866.0,1677486205.906
1705986.0,1677486205.947
1705867.0,1677486205.988
1706235.0,1677486206.027
1706219.0,1677486206.068
1706366.0,1677486206.108
1706493.0,1677486206.147
1706935.0,1677486206.187
1707220.0,1677486206.268
1707354.0,1677486206.308
1707123.0,1677486206.228
1706973.0,1677486206.349
1706552.0,1677486206.388
1705798.0,1677486206.428
1704734.0,1677486206.508
1705334.0,1677486206.47
1704275.0,1677486206.548
1703998.0,1677486206.59
1703770.0,1677486206.629
1703297.0,1677486206.71
1703423.0,1677486206.67
1703282.0,1677486206.747
1703189.0,1677486206.788
1703218.0,1677486206.869
1702979.0,1677486206.829
1703003.0,1677486206.908
1703211.0,1677486206.95
1703246.0,1677486206.989
1703264.0,1677486207.029
1703386.0,1677486207.071
1703513.0,1677486207.108
1703452.0,1677486207.148
1703004.0,1677486207.189
1701391.0,1677486207.269
1702347.0,1677486207.228
1700626.0,1677486207.31
1699357.0,1677486207.389
1700062.0,1677486207.349
1698558.0,1677486207.468
1699116.0,1677486207.431
1698253.0,1677486207.508
1697873.0,1677486207.549
1697659.0,1677486207.589
1697619.0,1677486207.629
1697493.0,1677486207.67
1697538.0,1677486207.708
1697396.0,1677486207.749
1697483.0,1677486207.79
1697361.0,1677486207.829
1697588.0,1677486207.87
1697644.0,1677486207.911
1697753.0,1677486207.95
1697622.0,1677486207.988
1696992.0,1677486208.029
1696268.0,1677486208.069
1695369.0,1677486208.109
1694356.0,1677486208.15
1693819.0,1677486208.189
1693231.0,1677486208.23
1692761.0,1677486208.271
1692203.0,1677486208.309
1692008.0,1677486208.35
1691654.0,1677486208.391
1691730.0,1677486208.43
1691573.0,1677486208.469
1691548.0,1677486208.51
1691450.0,1677486208.549
1691596.0,1677486208.589
1691631.0,1677486208.63
1691625.0,1677486208.67
1691966.0,1677486208.71
1691959.0,1677486208.751
1692217.0,1677486208.79
1691472.0,1677486208.83
1690700.0,1677486208.87
1689611.0,1677486208.909
1688891.0,1677486208.949
1688208.0,1677486208.99
1687769.0,1677486209.03
1687370.0,1677486209.071
1687128.0,1677486209.111
1686978.0,1677486209.15
1687013.0,1677486209.191
1686930.0,1677486209.23
1687121.0,1677486209.27
1687250.0,1677486209.309
1687474.0,1677486209.351
1687659.0,1677486209.39
1687871.0,1677486209.43
1688160.0,1677486209.471
1688204.0,1677486209.51
1688616.0,1677486209.55
1689007.0,1677486209.591
1688738.0,1677486209.63
1688130.0,1677486209.671
1687424.0,1677486209.712
1686582.0,1677486209.749
1685859.0,1677486209.789
1685783.0,1677486209.831
1685622.0,1677486209.871
1685743.0,1677486209.91
1685563.0,1677486209.951
1685716.0,1677486209.991
1685913.0,1677486210.031
1686216.0,1677486210.073
1686521.0,1677486210.109
1686806.0,1677486210.15
1687218.0,1677486210.191
1687610.0,1677486210.23
1688048.0,1677486210.271
1688501.0,1677486210.312
1688846.0,1677486210.351
1689389.0,1677486210.391
1689433.0,1677486210.432
1688934.0,1677486210.47
1688449.0,1677486210.51
1687820.0,1677486210.551
1687352.0,1677486210.59
1687016.0,1677486210.631
1686895.0,1677486210.673
1687119.0,1677486210.711
1687176.0,1677486210.751
1687192.0,1677486210.793
1687538.0,1677486210.83
1687766.0,1677486210.871
1688246.0,1677486210.911
1688744.0,1677486210.95
1689156.0,1677486210.991
1689662.0,1677486211.032
1690177.0,1677486211.072
1690406.0,1677486211.112
1690879.0,1677486211.151
1691394.0,1677486211.19
1691779.0,1677486211.23
1691645.0,1677486211.272
1691233.0,1677486211.31
1691026.0,1677486211.35
1690590.0,1677486211.391
1690390.0,1677486211.431
1690341.0,1677486211.472
1690414.0,1677486211.512
1690453.0,1677486211.551
1690708.0,1677486211.592
1690523.0,1677486211.633
1690934.0,1677486211.673
1691044.0,1677486211.71
1691418.0,1677486211.752
1691772.0,1677486211.791
1692096.0,1677486211.831
1692474.0,1677486211.873
1692750.0,1677486211.911
1693096.0,1677486211.952
1693409.0,1677486211.993
1693147.0,1677486212.032
1693065.0,1677486212.071
1692649.0,1677486212.112
1692058.0,1677486212.151
1691985.0,1677486212.191
1691729.0,1677486212.233
1691635.0,1677486212.272
1691413.0,1677486212.312
1691611.0,1677486212.353
1691467.0,1677486212.393
1691414.0,1677486212.431
1691473.0,1677486212.473
1691721.0,1677486212.511
1691930.0,1677486212.551
1691820.0,1677486212.592
1692095.0,1677486212.631
1692066.0,1677486212.672
1692053.0,1677486212.713
1691691.0,1677486212.752
1691138.0,1677486212.792
1690422.0,1677486212.833
1689917.0,1677486212.873
1689447.0,1677486212.911
1689148.0,1677486212.952
1689099.0,1677486212.991
1688686.0,1677486213.032
1688453.0,1677486213.074
1688196.0,1677486213.112
1688017.0,1677486213.153
1688034.0,1677486213.194
1688334.0,1677486213.231
1688430.0,1677486213.272
1688602.0,1677486213.313
1688609.0,1677486213.352
1688133.0,1677486213.392
1687525.0,1677486213.433
1686691.0,1677486213.473
1686000.0,1677486213.513
1685467.0,1677486213.554
1685075.0,1677486213.591
1684918.0,1677486213.632
1684829.0,1677486213.673
1684553.0,1677486213.711
1684518.0,1677486213.752
1684634.0,1677486213.793
1684807.0,1677486213.832
1684812.0,1677486213.873
1685117.0,1677486213.913
1685441.0,1677486213.953
1685583.0,1677486213.993
1685716.0,1677486214.034
1685392.0,1677486214.074
1684827.0,1677486214.112
1683937.0,1677486214.153
1683447.0,1677486214.192
1683060.0,1677486214.232
1682570.0,1677486214.274
1682342.0,1677486214.312
1682147.0,1677486214.352
1682273.0,1677486214.394
1682177.0,1677486214.433
1682397.0,1677486214.474
1682480.0,1677486214.514
1682819.0,1677486214.553
1683155.0,1677486214.594
1683645.0,1677486214.633
1684094.0,1677486214.673
1684156.0,1677486214.712
1684660.0,1677486214.754
1684777.0,1677486214.793
1684508.0,1677486214.833
1683929.0,1677486214.875
1683111.0,1677486214.914
1682532.0,1677486214.954
1682054.0,1677486214.993
1681660.0,1677486215.032
1681482.0,1677486215.073
1681715.0,1677486215.153
1681551.0,1677486215.114
1681771.0,1677486215.194
1681863.0,1677486215.235
1682306.0,1677486215.275
1682621.0,1677486215.314
1683284.0,1677486215.353
1683541.0,1677486215.393
1683940.0,1677486215.433
1684583.0,1677486215.474
1684924.0,1677486215.512
1685661.0,1677486215.553
1686165.0,1677486215.594
1686788.0,1677486215.633
1687069.0,1677486215.674
1687125.0,1677486215.715
1686951.0,1677486215.754
1686365.0,1677486215.794
1685815.0,1677486215.835
1685403.0,1677486215.875
1685472.0,1677486215.913
1685400.0,1677486215.954
1685530.0,1677486215.993
1685754.0,1677486216.033
1685923.0,1677486216.075
1686173.0,1677486216.114
1686698.0,1677486216.154
1687376.0,1677486216.196
1687970.0,1677486216.233
1688534.0,1677486216.274
1689229.0,1677486216.314
1689785.0,1677486216.355
1690387.0,1677486216.395
1691177.0,1677486216.437
1691797.0,1677486216.476
1692438.0,1677486216.516
1692957.0,1677486216.557
1693023.0,1677486216.596
1692869.0,1677486216.636
1692394.0,1677486216.678
1691917.0,1677486216.716
1691518.0,1677486216.756
1691181.0,1677486216.797
1691411.0,1677486216.836
1691429.0,1677486216.877
1691613.0,1677486216.918
1692199.0,1677486216.957
1692849.0,1677486216.995
1693662.0,1677486217.037
1694452.0,1677486217.076
1695210.0,1677486217.116
1696117.0,1677486217.157
1696787.0,1677486217.197
1697575.0,1677486217.237
1698357.0,1677486217.278
1698887.0,1677486217.317
1699577.0,1677486217.357
1700294.0,1677486217.398
1701006.0,1677486217.437
1701405.0,1677486217.476
1701096.0,1677486217.517
1700625.0,1677486217.556
1700382.0,1677486217.596
1699982.0,1677486217.638
1699737.0,1677486217.677
1699836.0,1677486217.717
1699934.0,1677486217.758
1700064.0,1677486217.798
1700139.0,1677486217.836
1700391.0,1677486217.878
1700698.0,1677486217.916
1701092.0,1677486217.956
1701614.0,1677486217.998
1701864.0,1677486218.037
1702315.0,1677486218.078
1702921.0,1677486218.119
1702991.0,1677486218.158
1703682.0,1677486218.196
1704048.0,1677486218.237
1704578.0,1677486218.277
1704990.0,1677486218.317
1704925.0,1677486218.358
1704958.0,1677486218.397
1704699.0,1677486218.438
1704773.0,1677486218.479
1704564.0,1677486218.517
1704814.0,1677486218.557
1705237.0,1677486218.599
1705556.0,1677486218.638
1705704.0,1677486218.679
1705917.0,1677486218.717
1706036.0,1677486218.756
1706460.0,1677486218.797
1706587.0,1677486218.838
1706898.0,1677486218.878
1707314.0,1677486218.917
1707481.0,1677486218.959
1707872.0,1677486218.998
1708063.0,1677486219.038
1708477.0,1677486219.08
1708424.0,1677486219.117
1707760.0,1677486219.198
1708226.0,1677486219.157
1707366.0,1677486219.237
1706742.0,1677486219.278
1706382.0,1677486219.319
1706034.0,1677486219.358
1705790.0,1677486219.398
1705818.0,1677486219.44
1705729.0,1677486219.477
1705564.0,1677486219.517
1705521.0,1677486219.558
1705693.0,1677486219.597
1705931.0,1677486219.638
1706165.0,1677486219.679
1706436.0,1677486219.717
1706570.0,1677486219.758
1706758.0,1677486219.799
1707089.0,1677486219.838
1707534.0,1677486219.879
1707267.0,1677486219.92
1706190.0,1677486219.997
1706795.0,1677486219.959
1705726.0,1677486220.038
1705023.0,1677486220.078
1704843.0,1677486220.118
1704522.0,1677486220.159
1704475.0,1677486220.198
1704211.0,1677486220.239
1704158.0,1677486220.28
1704078.0,1677486220.318
1704129.0,1677486220.359
1704256.0,1677486220.4
1704319.0,1677486220.439
1704471.0,1677486220.478
1704772.0,1677486220.519
1704883.0,1677486220.558
1704994.0,1677486220.598
1705063.0,1677486220.639
1705064.0,1677486220.679
1704669.0,1677486220.719
1703966.0,1677486220.76
1703144.0,1677486220.799
1702635.0,1677486220.837
1702211.0,1677486220.879
1701715.0,1677486220.918
1701447.0,1677486220.958
1701160.0,1677486221.0
1701127.0,1677486221.039
1700843.0,1677486221.08
1700699.0,1677486221.12
1700977.0,1677486221.16
1700849.0,1677486221.198
1700871.0,1677486221.239
1700839.0,1677486221.279
1700935.0,1677486221.318
1700671.0,1677486221.36
1700902.0,1677486221.399
1701013.0,1677486221.437
1700655.0,1677486221.479
1699933.0,1677486221.517
1699275.0,1677486221.558
1698324.0,1677486221.599
1697721.0,1677486221.638
1697157.0,1677486221.679
1696833.0,1677486221.719
1696436.0,1677486221.758
1696282.0,1677486221.799
1695846.0,1677486221.84
1695693.0,1677486221.88
1695829.0,1677486221.919
1695925.0,1677486221.961
1695903.0,1677486222.0
1696159.0,1677486222.038
1696318.0,1677486222.08
1696472.0,1677486222.119
1696566.0,1677486222.159
1696924.0,1677486222.2
1696819.0,1677486222.24
1696215.0,1677486222.281
1695478.0,1677486222.321
1694949.0,1677486222.36
1694415.0,1677486222.398
1694500.0,1677486222.44
1694434.0,1677486222.48
1694419.0,1677486222.519
1694395.0,1677486222.56
1694196.0,1677486222.6
1694025.0,1677486222.64
1693898.0,1677486222.681
1693933.0,1677486222.719
1694004.0,1677486222.76
1694332.0,1677486222.801
1695090.0,1677486222.84
1696768.0,1677486222.881
1698262.0,1677486222.92
1698793.0,1677486222.959
1699200.0,1677486222.999
1699317.0,1677486223.041
1699213.0,1677486223.08
1699177.0,1677486223.12
1698765.0,1677486223.161
1698458.0,1677486223.201
1697972.0,1677486223.239
1697617.0,1677486223.281
1697468.0,1677486223.319
1697231.0,1677486223.359
1697468.0,1677486223.4
1697394.0,1677486223.439
1697498.0,1677486223.48
1698000.0,1677486223.521
1698004.0,1677486223.56
1697470.0,1677486223.6
1696377.0,1677486223.642
1695146.0,1677486223.682
1694158.0,1677486223.719
1693738.0,1677486223.76
1693165.0,1677486223.8
1692964.0,1677486223.84
1692804.0,1677486223.882
1692834.0,1677486223.92
1692738.0,1677486223.961
1692928.0,1677486224.0
1693295.0,1677486224.04
1693595.0,1677486224.08
1694268.0,1677486224.12
1694763.0,1677486224.16
1695464.0,1677486224.2
1695695.0,1677486224.241
1695082.0,1677486224.281
1693952.0,1677486224.321
1692438.0,1677486224.362
1691265.0,1677486224.401
1690193.0,1677486224.442
1689717.0,1677486224.483
1689308.0,1677486224.521
1688891.0,1677486224.561
1688545.0,1677486224.603
1688414.0,1677486224.64
1688320.0,1677486224.681
1688450.0,1677486224.721
1688702.0,1677486224.76
1688928.0,1677486224.801
1689004.0,1677486224.842
1689442.0,1677486224.882
1689272.0,1677486224.921
1689569.0,1677486224.963
1689381.0,1677486225.0
1688381.0,1677486225.04
1687144.0,1677486225.082
1685678.0,1677486225.121
1684291.0,1677486225.161
1683264.0,1677486225.202
1682533.0,1677486225.242
1681952.0,1677486225.283
1681512.0,1677486225.321
1681293.0,1677486225.36
1680937.0,1677486225.401
1680853.0,1677486225.442
1680832.0,1677486225.482
1680935.0,1677486225.521
1681007.0,1677486225.563
1680974.0,1677486225.602
1681108.0,1677486225.642
1681236.0,1677486225.683
1681420.0,1677486225.722
1681667.0,1677486225.762
1682065.0,1677486225.803
1682420.0,1677486225.84
1682125.0,1677486225.881
1680906.0,1677486225.922
1679681.0,1677486225.961
1678250.0,1677486226.002
1677178.0,1677486226.043
1676103.0,1677486226.083
1675340.0,1677486226.122
1675136.0,1677486226.162
1674637.0,1677486226.201
1674430.0,1677486226.241
1674358.0,1677486226.282
1674262.0,1677486226.321
1674516.0,1677486226.361
1674742.0,1677486226.402
1675160.0,1677486226.441
1675641.0,1677486226.482
1675975.0,1677486226.523
1676156.0,1677486226.56
1676602.0,1677486226.6
1677130.0,1677486226.641
1677814.0,1677486226.681
1678407.0,1677486226.721
1678729.0,1677486226.762
1678199.0,1677486226.801
1677390.0,1677486226.841
1676431.0,1677486226.883
1675446.0,1677486226.922
1674840.0,1677486226.962
1674458.0,1677486227.003
1674318.0,1677486227.042
1674148.0,1677486227.083
1674221.0,1677486227.124
1674253.0,1677486227.161
1674495.0,1677486227.201
1675002.0,1677486227.243
1675516.0,1677486227.283
1676099.0,1677486227.322
1676596.0,1677486227.364
1677207.0,1677486227.403
1677725.0,1677486227.443
1678494.0,1677486227.484
1678998.0,1677486227.523
1679810.0,1677486227.563
1680558.0,1677486227.604
1681187.0,1677486227.643
1681143.0,1677486227.684
1680543.0,1677486227.724
1679688.0,1677486227.763
1679090.0,1677486227.802
1678650.0,1677486227.843
1678421.0,1677486227.883
1678591.0,1677486227.922
1678745.0,1677486227.964
1679027.0,1677486228.003
1679868.0,1677486228.043
1680583.0,1677486228.085
1681244.0,1677486228.124
1682155.0,1677486228.162
1683030.0,1677486228.203
1684002.0,1677486228.242
1684625.0,1677486228.283
1685344.0,1677486228.324
1686144.0,1677486228.364
1686851.0,1677486228.404
1687473.0,1677486228.445
1688322.0,1677486228.485
1688500.0,1677486228.524
1688059.0,1677486228.565
1687604.0,1677486228.604
1687129.0,1677486228.644
1686840.0,1677486228.686
1686506.0,1677486228.724
1686483.0,1677486228.764
1686818.0,1677486228.805
1686896.0,1677486228.845
1687109.0,1677486228.887
1687214.0,1677486228.927
1687578.0,1677486228.967
1688042.0,1677486229.006
1688516.0,1677486229.048
1689050.0,1677486229.087
1689482.0,1677486229.126
1690093.0,1677486229.168
1690440.0,1677486229.206
1691069.0,1677486229.246
1691529.0,1677486229.289
1691839.0,1677486229.326
1691333.0,1677486229.367
1691070.0,1677486229.408
1690430.0,1677486229.447
1690235.0,1677486229.488
1690118.0,1677486229.529
1690115.0,1677486229.568
1690021.0,1677486229.608
1690303.0,1677486229.649
1690223.0,1677486229.689
1690401.0,1677486229.727
1690790.0,1677486229.768
1691106.0,1677486229.807
1691559.0,1677486229.848
1692058.0,1677486229.889
1692617.0,1677486229.928
1693122.0,1677486229.968
1693527.0,1677486230.01
1694008.0,1677486230.049
1694248.0,1677486230.088
1693990.0,1677486230.128
1693277.0,1677486230.167
1692729.0,1677486230.208
1692253.0,1677486230.249
1691928.0,1677486230.289
1691687.0,1677486230.329
1691442.0,1677486230.37
1691399.0,1677486230.409
1691290.0,1677486230.447
1691495.0,1677486230.489
1691756.0,1677486230.527
1691931.0,1677486230.567
1692328.0,1677486230.609
1692558.0,1677486230.648
1693060.0,1677486230.689
1693232.0,1677486230.729
1693494.0,1677486230.768
1694020.0,1677486230.809
1694276.0,1677486230.85
1693839.0,1677486230.89
1692905.0,1677486230.927
1692217.0,1677486230.969
1691707.0,1677486231.008
1691395.0,1677486231.048
1690895.0,1677486231.09
1690712.0,1677486231.129
1690432.0,1677486231.169
1690358.0,1677486231.209
1690520.0,1677486231.248
1690557.0,1677486231.289
1691031.0,1677486231.329
1691393.0,1677486231.368
1691537.0,1677486231.409
1691936.0,1677486231.45
1692312.0,1677486231.49
1692583.0,1677486231.53
1692931.0,1677486231.569
1693329.0,1677486231.608
1692744.0,1677486231.648
1691949.0,1677486231.69
1690797.0,1677486231.728
1689903.0,1677486231.769
1689385.0,1677486231.81
1688649.0,1677486231.849
1688516.0,1677486231.89
1688109.0,1677486231.931
1688100.0,1677486231.97
1687886.0,1677486232.008
1687998.0,1677486232.049
1688120.0,1677486232.089
1688287.0,1677486232.129
1688558.0,1677486232.17
1688839.0,1677486232.209
1689046.0,1677486232.25
1689302.0,1677486232.291
1689585.0,1677486232.329
1689972.0,1677486232.37
1690129.0,1677486232.411
1689488.0,1677486232.45
1688587.0,1677486232.489
1687628.0,1677486232.53
1686857.0,1677486232.569
1686152.0,1677486232.609
1685624.0,1677486232.65
1685373.0,1677486232.69
1685156.0,1677486232.73
1685038.0,1677486232.771
1684993.0,1677486232.81
1685166.0,1677486232.849
1685264.0,1677486232.891
1685440.0,1677486232.929
1685931.0,1677486232.969
1686263.0,1677486233.011
1686392.0,1677486233.05
1686883.0,1677486233.091
1687085.0,1677486233.131
1687432.0,1677486233.171
1687961.0,1677486233.209
1687895.0,1677486233.25
1687464.0,1677486233.29
1686587.0,1677486233.33
1685964.0,1677486233.371
1685311.0,1677486233.41
1684878.0,1677486233.45
1684938.0,1677486233.491
1684831.0,1677486233.53
1684731.0,1677486233.57
1685267.0,1677486233.612
1685365.0,1677486233.651
1685703.0,1677486233.692
1686092.0,1677486233.73
1686601.0,1677486233.769
1687206.0,1677486233.81
1687645.0,1677486233.851
1688003.0,1677486233.891
1688570.0,1677486233.93
1689029.0,1677486233.972
1689672.0,1677486234.011
1690235.0,1677486234.051
1689949.0,1677486234.091
1689697.0,1677486234.13
1689150.0,1677486234.17
1688687.0,1677486234.211
1688291.0,1677486234.248
1688331.0,1677486234.29
1688426.0,1677486234.331
1688404.0,1677486234.369
1688521.0,1677486234.409
1688853.0,1677486234.451
1688683.0,1677486234.491
1689114.0,1677486234.53
1689503.0,1677486234.572
1689706.0,1677486234.611
1690242.0,1677486234.651
1690531.0,1677486234.692
1691037.0,1677486234.731
1691219.0,1677486234.771
1691270.0,1677486234.812
1690830.0,1677486234.851
1690299.0,1677486234.892
1689723.0,1677486234.931
1689349.0,1677486234.97
1689285.0,1677486235.01
1689232.0,1677486235.052
1689349.0,1677486235.091
1689199.0,1677486235.131
1689016.0,1677486235.173
1688982.0,1677486235.212
1689071.0,1677486235.25
1689134.0,1677486235.292
1689172.0,1677486235.33
1689089.0,1677486235.371
1689315.0,1677486235.412
1689149.0,1677486235.451
1688650.0,1677486235.492
1687856.0,1677486235.533
1687006.0,1677486235.572
1686321.0,1677486235.61
1685919.0,1677486235.651
1685426.0,1677486235.691
1685133.0,1677486235.731
1684970.0,1677486235.772
1684689.0,1677486235.811
1684625.0,1677486235.852
1684341.0,1677486235.894
1684365.0,1677486235.932
1684057.0,1677486235.97
1684218.0,1677486236.012
1684154.0,1677486236.051
1684294.0,1677486236.092
1683794.0,1677486236.133
1683029.0,1677486236.172
1682245.0,1677486236.212
1681703.0,1677486236.253
1681209.0,1677486236.293
1681152.0,1677486236.331
1680814.0,1677486236.372
1680936.0,1677486236.451
1680773.0,1677486236.411
1681063.0,1677486236.531
1681591.0,1677486236.571
1680923.0,1677486236.493
1681990.0,1677486236.613
1682178.0,1677486236.652
1682591.0,1677486236.693
1683133.0,1677486236.733
1682972.0,1677486236.772
1682346.0,1677486236.81
1681859.0,1677486236.852
1681287.0,1677486236.892
1681038.0,1677486236.931
1680933.0,1677486236.972
1680771.0,1677486237.011
1680967.0,1677486237.051
1681427.0,1677486237.093
1681689.0,1677486237.132
1682219.0,1677486237.172
1682516.0,1677486237.214
1683058.0,1677486237.253
1683696.0,1677486237.294
1684419.0,1677486237.332
1685109.0,1677486237.371
1685755.0,1677486237.412
1686145.0,1677486237.453
1686442.0,1677486237.493
1686138.0,1677486237.532
1685624.0,1677486237.574
1685241.0,1677486237.613
1685281.0,1677486237.653
1685243.0,1677486237.694
1685642.0,1677486237.733
1686025.0,1677486237.773
1686502.0,1677486237.814
1686942.0,1677486237.851
1687501.0,1677486237.892
1688209.0,1677486237.933
1689024.0,1677486237.972
1689858.0,1677486238.013
1690705.0,1677486238.054
1691637.0,1677486238.094
1692571.0,1677486238.133
1693415.0,1677486238.173
1694323.0,1677486238.212
1695159.0,1677486238.252
1695957.0,1677486238.294
1696255.0,1677486238.332
1696566.0,1677486238.372
1696308.0,1677486238.413
1696138.0,1677486238.452
1696101.0,1677486238.493
1696360.0,1677486238.534
1696593.0,1677486238.573
1697126.0,1677486238.613
1697660.0,1677486238.655
1698355.0,1677486238.695
1699051.0,1677486238.732
1699641.0,1677486238.773
1700512.0,1677486238.813
1701314.0,1677486238.853
1702356.0,1677486238.895
1703356.0,1677486238.933
1704348.0,1677486238.974
1705226.0,1677486239.015
1706205.0,1677486239.054
1707561.0,1677486239.093
1708432.0,1677486239.134
1709675.0,1677486239.173
1710521.0,1677486239.213
1710900.0,1677486239.254
1711411.0,1677486239.294
1711544.0,1677486239.334
1711568.0,1677486239.372
1711840.0,1677486239.411
1712640.0,1677486239.451
1713341.0,1677486239.494
1713846.0,1677486239.533
1714687.0,1677486239.572
1715350.0,1677486239.614
1715980.0,1677486239.653
1716758.0,1677486239.694
1717689.0,1677486239.734
1718466.0,1677486239.773
1719249.0,1677486239.814
1720259.0,1677486239.855
1721146.0,1677486239.895
1721851.0,1677486239.934
1722788.0,1677486239.976
1723907.0,1677486240.013
1724752.0,1677486240.053
1725445.0,1677486240.095
1725780.0,1677486240.134
1725797.0,1677486240.174
1726175.0,1677486240.215
1726354.0,1677486240.254
1726431.0,1677486240.295
1726501.0,1677486240.334
1726896.0,1677486240.375
1727079.0,1677486240.415
1727459.0,1677486240.456
1727842.0,1677486240.496
1728189.0,1677486240.535
1728534.0,1677486240.576
1729117.0,1677486240.615
1729499.0,1677486240.655
1730142.0,1677486240.697
1730537.0,1677486240.735
1731247.0,1677486240.776
1731772.0,1677486240.817
1732438.0,1677486240.856
1732923.0,1677486240.897
1733596.0,1677486240.937
1734147.0,1677486240.976
1734516.0,1677486241.017
1734388.0,1677486241.058
1734260.0,1677486241.098
1734128.0,1677486241.135
1734071.0,1677486241.177
1734037.0,1677486241.216
1733942.0,1677486241.256
1734058.0,1677486241.297
1733979.0,1677486241.336
1734333.0,1677486241.376
1734570.0,1677486241.417
1734546.0,1677486241.457
1734835.0,1677486241.498
1734945.0,1677486241.538
1735262.0,1677486241.577
1735368.0,1677486241.618
1735602.0,1677486241.657
1735941.0,1677486241.697
1736219.0,1677486241.736
1736569.0,1677486241.778
1736735.0,1677486241.817
1736750.0,1677486241.857
1736444.0,1677486241.899
1736228.0,1677486241.935
1736014.0,1677486241.975
1735553.0,1677486242.016
1735240.0,1677486242.056
1735349.0,1677486242.097
1735189.0,1677486242.137
1735199.0,1677486242.176
1734982.0,1677486242.216
1735053.0,1677486242.258
1735249.0,1677486242.298
1735184.0,1677486242.337
1735736.0,1677486242.379
1735713.0,1677486242.418
1736134.0,1677486242.458
1736189.0,1677486242.499
1736589.0,1677486242.538
1736658.0,1677486242.578
1737048.0,1677486242.619
1737080.0,1677486242.656
1736751.0,1677486242.697
1736354.0,1677486242.738
1735700.0,1677486242.777
1735197.0,1677486242.817
1734922.0,1677486242.859
1734697.0,1677486242.899
1734301.0,1677486242.938
1734187.0,1677486242.979
1734069.0,1677486243.017
1733816.0,1677486243.057
1733767.0,1677486243.099
1733810.0,1677486243.137
1733755.0,1677486243.178
1733998.0,1677486243.219
1733917.0,1677486243.258
1734101.0,1677486243.299
1734104.0,1677486243.338
1734615.0,1677486243.377
1734397.0,1677486243.417
1733999.0,1677486243.458
1733255.0,1677486243.498
1732503.0,1677486243.538
1731665.0,1677486243.579
1731135.0,1677486243.618
1730497.0,1677486243.659
1730042.0,1677486243.7
1729551.0,1677486243.738
1729109.0,1677486243.779
1728812.0,1677486243.82
1728667.0,1677486243.857
1728551.0,1677486243.898
1728506.0,1677486243.939
1728371.0,1677486243.978
1728387.0,1677486244.018
1728335.0,1677486244.059
1728242.0,1677486244.099
1728375.0,1677486244.139
1728124.0,1677486244.178
1727257.0,1677486244.218
1726116.0,1677486244.258
1724950.0,1677486244.299
1724125.0,1677486244.337
1723347.0,1677486244.378
1722737.0,1677486244.419
1722166.0,1677486244.458
1721644.0,1677486244.499
1720993.0,1677486244.539
1720765.0,1677486244.578
1720484.0,1677486244.619
1720601.0,1677486244.66
1720435.0,1677486244.7
1720428.0,1677486244.739
1720415.0,1677486244.779
1720517.0,1677486244.818
1720815.0,1677486244.858
1720388.0,1677486244.9
1719580.0,1677486244.939
1718468.0,1677486244.979
1717095.0,1677486245.02
1716062.0,1677486245.059
1715306.0,1677486245.1
1714678.0,1677486245.139
1714105.0,1677486245.178
1713639.0,1677486245.218
1713227.0,1677486245.26
1713060.0,1677486245.3
1712720.0,1677486245.339
1712759.0,1677486245.38
1712781.0,1677486245.42
1712684.0,1677486245.46
1713057.0,1677486245.501
1713038.0,1677486245.539
1713159.0,1677486245.58
1713475.0,1677486245.621
1713366.0,1677486245.658
1712357.0,1677486245.699
1711488.0,1677486245.74
1710288.0,1677486245.779
1709552.0,1677486245.819
1708890.0,1677486245.86
1708586.0,1677486245.9
1708226.0,1677486245.94
1707943.0,1677486245.981
1707695.0,1677486246.018
1707771.0,1677486246.059
1707890.0,1677486246.101
1708046.0,1677486246.139
1708315.0,1677486246.18
1708605.0,1677486246.221
1708952.0,1677486246.26
1709188.0,1677486246.301
1709643.0,1677486246.34
1709800.0,1677486246.379
1710060.0,1677486246.419
1709518.0,1677486246.46
1708628.0,1677486246.5
1707851.0,1677486246.54
1707286.0,1677486246.581
1706921.0,1677486246.62
1706513.0,1677486246.661
1706339.0,1677486246.702
1706399.0,1677486246.74
1706490.0,1677486246.78
1706478.0,1677486246.822
1706924.0,1677486246.859
1707390.0,1677486246.9
1707705.0,1677486246.94
1708155.0,1677486246.98
1708701.0,1677486247.02
1709218.0,1677486247.061
1709798.0,1677486247.099
1710251.0,1677486247.138
1710966.0,1677486247.179
1710840.0,1677486247.218
1710464.0,1677486247.259
1710001.0,1677486247.301
1709526.0,1677486247.339
1709481.0,1677486247.379
1709107.0,1677486247.42
1709485.0,1677486247.459
1709541.0,1677486247.5
1709788.0,1677486247.541
1709945.0,1677486247.58
1710345.0,1677486247.62
1710918.0,1677486247.662
1711438.0,1677486247.701
1711894.0,1677486247.741
1712538.0,1677486247.782
1713134.0,1677486247.819
1713665.0,1677486247.86
1714375.0,1677486247.902
1714998.0,1677486247.94
1715482.0,1677486247.98
1715266.0,1677486248.022
1715193.0,1677486248.061
1714804.0,1677486248.102
1714601.0,1677486248.143
1714461.0,1677486248.18
1714766.0,1677486248.301
1714548.0,1677486248.22
1715021.0,1677486248.341
1715160.0,1677486248.382
1714671.0,1677486248.261
1715254.0,1677486248.421
1715808.0,1677486248.461
1716123.0,1677486248.503
1716893.0,1677486248.581
1717418.0,1677486248.623
1716792.0,1677486248.541
1718011.0,1677486248.662
1718531.0,1677486248.701
1719150.0,1677486248.741
1719245.0,1677486248.78
1719194.0,1677486248.821
1718961.0,1677486248.862
1718753.0,1677486248.902
1718458.0,1677486248.941
1718505.0,1677486248.983
1718636.0,1677486249.022
1718578.0,1677486249.06
1718908.0,1677486249.102
1719002.0,1677486249.141
1719548.0,1677486249.222
1719337.0,1677486249.181
1720280.0,1677486249.302
1719981.0,1677486249.261
1720567.0,1677486249.343
1721110.0,1677486249.382
1721353.0,1677486249.42
1721834.0,1677486249.462
1722026.0,1677486249.501
1721933.0,1677486249.541
1721669.0,1677486249.582
1721445.0,1677486249.621
1720961.0,1677486249.662
1720805.0,1677486249.703
1720741.0,1677486249.741
1720777.0,1677486249.781
1720845.0,1677486249.823
1720771.0,1677486249.862
1720728.0,1677486249.903
1721018.0,1677486249.943
1721103.0,1677486249.981
1721204.0,1677486250.021
1721443.0,1677486250.062
1721693.0,1677486250.102
1721902.0,1677486250.142
1722058.0,1677486250.183
1721838.0,1677486250.222
1721521.0,1677486250.263
1720794.0,1677486250.304
1720501.0,1677486250.342
1720172.0,1677486250.383
1720162.0,1677486250.424
1719926.0,1677486250.461
1719808.0,1677486250.502
1719955.0,1677486250.542
1719883.0,1677486250.582
1719969.0,1677486250.622
1720092.0,1677486250.663
1720333.0,1677486250.703
1720356.0,1677486250.743
1720614.0,1677486250.784
1720871.0,1677486250.821
1720891.0,1677486250.861
1720408.0,1677486250.903
1719891.0,1677486250.942
1719163.0,1677486250.982
1718761.0,1677486251.023
1718362.0,1677486251.063
1717920.0,1677486251.104
1717906.0,1677486251.144
1717891.0,1677486251.181
1717657.0,1677486251.222
1717749.0,1677486251.263
1717858.0,1677486251.303
1717934.0,1677486251.342
1718289.0,1677486251.384
1718550.0,1677486251.423
1718947.0,1677486251.463
1719193.0,1677486251.504
1718881.0,1677486251.543
1718355.0,1677486251.583
1717627.0,1677486251.624
1716870.0,1677486251.664
1716360.0,1677486251.702
1715919.0,1677486251.743
1715656.0,1677486251.782
1715603.0,1677486251.822
1715499.0,1677486251.864
1715501.0,1677486251.904
1715804.0,1677486251.943
1715863.0,1677486251.984
1716046.0,1677486252.024
1716433.0,1677486252.062
1716799.0,1677486252.104
1717312.0,1677486252.142
1717727.0,1677486252.182
1717951.0,1677486252.224
1717718.0,1677486252.263
1716893.0,1677486252.304
1715977.0,1677486252.344
1715353.0,1677486252.382
1714704.0,1677486252.422
1714300.0,1677486252.463
1714150.0,1677486252.503
1713995.0,1677486252.542
1713989.0,1677486252.583
1714138.0,1677486252.623
1714262.0,1677486252.663
1714578.0,1677486252.704
1714934.0,1677486252.743
1715308.0,1677486252.783
1715694.0,1677486252.824
1716103.0,1677486252.863
1716612.0,1677486252.905
1717247.0,1677486252.946
1717797.0,1677486252.984
1718275.0,1677486253.024
1718395.0,1677486253.066
1717310.0,1677486253.145
1716771.0,1677486253.187
1717953.0,1677486253.106
1716390.0,1677486253.226
1716294.0,1677486253.266
1716389.0,1677486253.346
1716226.0,1677486253.307
1716549.0,1677486253.386
1716948.0,1677486253.427
1717290.0,1677486253.466
1717763.0,1677486253.505
1718156.0,1677486253.546
1718557.0,1677486253.585
1718911.0,1677486253.626
1719422.0,1677486253.667
1719882.0,1677486253.707
1720389.0,1677486253.746
1720897.0,1677486253.788
1721356.0,1677486253.827
1722042.0,1677486253.865
1722234.0,1677486253.907
1721789.0,1677486253.945
1721150.0,1677486253.986
1720752.0,1677486254.027
1720218.0,1677486254.066
1719992.0,1677486254.107
1719757.0,1677486254.148
1719837.0,1677486254.187
1719728.0,1677486254.227
1719747.0,1677486254.268
1719704.0,1677486254.308
1720092.0,1677486254.347
1720308.0,1677486254.389
1720587.0,1677486254.428
1720834.0,1677486254.468
1721371.0,1677486254.509
1721743.0,1677486254.548
1721931.0,1677486254.588
1722273.0,1677486254.629
1722597.0,1677486254.668
1723325.0,1677486254.709
1723273.0,1677486254.749
1723017.0,1677486254.788
1722375.0,1677486254.828
1722127.0,1677486254.869
1721627.0,1677486254.909
1721535.0,1677486254.948
1721438.0,1677486254.989
1721505.0,1677486255.028
1721324.0,1677486255.068
1721496.0,1677486255.11
1721446.0,1677486255.148
1721752.0,1677486255.189
1721878.0,1677486255.23
1722457.0,1677486255.269
1722630.0,1677486255.309
1723152.0,1677486255.35
1723284.0,1677486255.389
1723695.0,1677486255.429
1723991.0,1677486255.47
1724717.0,1677486255.51
1724816.0,1677486255.549
1724691.0,1677486255.59
1724489.0,1677486255.629
1724356.0,1677486255.669
1724133.0,1677486255.711
1724150.0,1677486255.749
1724274.0,1677486255.789
1724603.0,1677486255.83
1724579.0,1677486255.869
1724771.0,1677486255.91
1725066.0,1677486255.951
1725527.0,1677486255.99
1725826.0,1677486256.03
1726357.0,1677486256.071
1726577.0,1677486256.11
1727190.0,1677486256.15
1727400.0,1677486256.191
1728022.0,1677486256.23
1728343.0,1677486256.27
1728955.0,1677486256.312
1728730.0,1677486256.35
1728562.0,1677486256.39
1728282.0,1677486256.431
1727997.0,1677486256.47
1728152.0,1677486256.511
1728022.0,1677486256.551
1728020.0,1677486256.59
1727992.0,1677486256.63
1728196.0,1677486256.672
1728149.0,1677486256.711
1728580.0,1677486256.751
1728722.0,1677486256.792
1728953.0,1677486256.831
1729087.0,1677486256.871
1729497.0,1677486256.912
1729800.0,1677486256.951
1730097.0,1677486256.991
1730339.0,1677486257.032
1730002.0,1677486257.071
1729440.0,1677486257.152
1729802.0,1677486257.112
1729189.0,1677486257.191
1728917.0,1677486257.231
1728843.0,1677486257.272
1728652.0,1677486257.351
1728739.0,1677486257.312
1728718.0,1677486257.392
1728780.0,1677486257.431
1728704.0,1677486257.471
1729008.0,1677486257.513
1729168.0,1677486257.551
1729442.0,1677486257.592
1729520.0,1677486257.633
1729883.0,1677486257.672
1729924.0,1677486257.712
1729916.0,1677486257.753
1729840.0,1677486257.792
1729291.0,1677486257.832
1728837.0,1677486257.913
1729088.0,1677486257.873
1728542.0,1677486257.952
1728241.0,1677486257.993
1728268.0,1677486258.032
1728130.0,1677486258.072
1728254.0,1677486258.114
1728201.0,1677486258.152
1728553.0,1677486258.192
1728824.0,1677486258.234
1728972.0,1677486258.273
1729359.0,1677486258.313
1729558.0,1677486258.354
1729855.0,1677486258.393
1729974.0,1677486258.433
1729964.0,1677486258.474
1729738.0,1677486258.514
1729229.0,1677486258.553
1729021.0,1677486258.594
1728627.0,1677486258.633
1728411.0,1677486258.673
1728580.0,1677486258.715
1728264.0,1677486258.753
1728231.0,1677486258.793
1728358.0,1677486258.834
1728213.0,1677486258.873
1728422.0,1677486258.914
1728391.0,1677486258.955
1728852.0,1677486258.994
1728965.0,1677486259.034
1729137.0,1677486259.075
1729322.0,1677486259.115
1729567.0,1677486259.154
1729328.0,1677486259.195
1728916.0,1677486259.234
1728619.0,1677486259.274
1728087.0,1677486259.316
1727822.0,1677486259.354
1727772.0,1677486259.394
1727576.0,1677486259.435
1727489.0,1677486259.474
1727764.0,1677486259.515
1727751.0,1677486259.556
1727940.0,1677486259.595
1728097.0,1677486259.635
1728412.0,1677486259.676
1729087.0,1677486259.715
1729438.0,1677486259.755
1729673.0,1677486259.796
1729851.0,1677486259.835
1729905.0,1677486259.875
1729686.0,1677486259.917
1729388.0,1677486259.955
1728932.0,1677486259.995
1728465.0,1677486260.036
1728364.0,1677486260.075
1728228.0,1677486260.116
1728381.0,1677486260.156
1728262.0,1677486260.195
1728562.0,1677486260.235
1728676.0,1677486260.277
1728788.0,1677486260.316
1729078.0,1677486260.356
1729349.0,1677486260.397
1729768.0,1677486260.436
1730263.0,1677486260.476
1730458.0,1677486260.518
1730241.0,1677486260.556
1729981.0,1677486260.596
1729518.0,1677486260.637
1728888.0,1677486260.676
1728364.0,1677486260.717
1728181.0,1677486260.757
1728154.0,1677486260.796
1727671.0,1677486260.836
1727629.0,1677486260.877
1727700.0,1677486260.917
1727739.0,1677486260.956
1727626.0,1677486260.998
1727938.0,1677486261.037
1728005.0,1677486261.077
1728139.0,1677486261.118
1728532.0,1677486261.157
1727697.0,1677486261.197
1727019.0,1677486261.238
1725921.0,1677486261.277
1725031.0,1677486261.318
1724296.0,1677486261.358
1723975.0,1677486261.397
1723458.0,1677486261.437
1723211.0,1677486261.478
1722866.0,1677486261.518
1722719.0,1677486261.557
1722644.0,1677486261.593
1722619.0,1677486261.63
1722681.0,1677486261.67
1722739.0,1677486261.711
1723061.0,1677486261.75
1723257.0,1677486261.79
1723100.0,1677486261.831
1722242.0,1677486261.87
1721010.0,1677486261.911
1720154.0,1677486261.952
1719161.0,1677486261.991
1718709.0,1677486262.031
1718431.0,1677486262.073
1718000.0,1677486262.11
1717930.0,1677486262.15
1718053.0,1677486262.192
1717846.0,1677486262.231
1718057.0,1677486262.271
1718478.0,1677486262.312
1718906.0,1677486262.351
1719391.0,1677486262.391
1719777.0,1677486262.432
1720262.0,1677486262.471
1720894.0,1677486262.512
1721140.0,1677486262.552
1720513.0,1677486262.592
1719532.0,1677486262.632
1718738.0,1677486262.673
1718077.0,1677486262.711
1717160.0,1677486262.792
1717572.0,1677486262.75
1716964.0,1677486262.831
1717010.0,1677486262.871
1717389.0,1677486262.952
1717226.0,1677486262.913
1717894.0,1677486262.992
1717941.0,1677486263.033
1718570.0,1677486263.07
1718914.0,1677486263.111
1719276.0,1677486263.152
1719594.0,1677486263.191
1720101.0,1677486263.232
1720406.0,1677486263.273
1720890.0,1677486263.313
1721871.0,1677486263.392
1721370.0,1677486263.352
1721426.0,1677486263.431
1720408.0,1677486263.471
1719555.0,1677486263.513
1718775.0,1677486263.552
1718272.0,1677486263.592
1717921.0,1677486263.633
1717652.0,1677486263.672
1717691.0,1677486263.713
1717652.0,1677486263.752
1717611.0,1677486263.791
1717643.0,1677486263.831
1717836.0,1677486263.873
1718153.0,1677486263.912
1718323.0,1677486263.952
1718636.0,1677486263.993
1718897.0,1677486264.032
1719132.0,1677486264.073
1719604.0,1677486264.113
1719917.0,1677486264.151
1720325.0,1677486264.192
1720810.0,1677486264.233
1721237.0,1677486264.272
1720623.0,1677486264.313
1720138.0,1677486264.354
1719311.0,1677486264.384
1718630.0,1677486264.424
1718171.0,1677486264.465
1717816.0,1677486264.504
1718017.0,1677486264.544
1718165.0,1677486264.585
1718192.0,1677486264.624
1718246.0,1677486264.664
1718390.0,1677486264.706
1718617.0,1677486264.744
1719072.0,1677486264.784
1719588.0,1677486264.825
1720029.0,1677486264.864
1720286.0,1677486264.906
1720860.0,1677486264.948
1721271.0,1677486264.986
1721731.0,1677486265.027
1722604.0,1677486265.068
1723220.0,1677486265.108
1723050.0,1677486265.147
1722580.0,1677486265.187
1722219.0,1677486265.226
1721503.0,1677486265.307
1721286.0,1677486265.386
1721377.0,1677486265.346
1721661.0,1677486265.266
1721061.0,1677486265.427
1721186.0,1677486265.466
1721319.0,1677486265.507
1721515.0,1677486265.548
1721765.0,1677486265.587
1722050.0,1677486265.627
1722452.0,1677486265.669
1722870.0,1677486265.709
1723787.0,1677486265.787
1723222.0,1677486265.746
1724658.0,1677486265.867
1724306.0,1677486265.826
1725434.0,1677486265.909
1725615.0,1677486265.947
1725317.0,1677486265.987
1725028.0,1677486266.029
1724632.0,1677486266.068
1724341.0,1677486266.107
1724302.0,1677486266.147
1724343.0,1677486266.187
1724556.0,1677486266.227
1724656.0,1677486266.308
1724568.0,1677486266.268
1724930.0,1677486266.348
1725315.0,1677486266.389
1725807.0,1677486266.428
1725989.0,1677486266.466
1726506.0,1677486266.509
1727214.0,1677486266.546
1727494.0,1677486266.586
1727947.0,1677486266.628
1728404.0,1677486266.667
1728850.0,1677486266.708
1728790.0,1677486266.748
1728593.0,1677486266.788
1728325.0,1677486266.828
1727834.0,1677486266.869
1727700.0,1677486266.909
1727562.0,1677486266.947
1727825.0,1677486266.988
1727798.0,1677486267.027
1728052.0,1677486267.067
1728160.0,1677486267.109
1728225.0,1677486267.148
1728717.0,1677486267.188
1728930.0,1677486267.23
1729204.0,1677486267.269
1729526.0,1677486267.307
1730011.0,1677486267.348
1730287.0,1677486267.387
1730695.0,1677486267.427
1730708.0,1677486267.469
1730361.0,1677486267.507
1729826.0,1677486267.546
1729329.0,1677486267.587
1728824.0,1677486267.626
1728632.0,1677486267.666
1728415.0,1677486267.709
1728189.0,1677486267.747
1728118.0,1677486267.787
1728029.0,1677486267.828
1727935.0,1677486267.867
1728211.0,1677486267.908
1728475.0,1677486267.949
1728561.0,1677486267.988
1728682.0,1677486268.028
1728878.0,1677486268.07
1729376.0,1677486268.149
1728984.0,1677486268.109
1728750.0,1677486268.228
1727893.0,1677486268.268
1729186.0,1677486268.188
1726686.0,1677486268.347
1725934.0,1677486268.429
1726141.0,1677486268.388
1727226.0,1677486268.309
1725774.0,1677486268.468
1725410.0,1677486268.509
1725265.0,1677486268.55
1725384.0,1677486268.629
1725459.0,1677486268.589
1725535.0,1677486268.67
1725508.0,1677486268.708
1725872.0,1677486268.748
1725729.0,1677486268.789
1725838.0,1677486268.828
1725502.0,1677486268.869
1724669.0,1677486268.911
1723941.0,1677486268.949
1722911.0,1677486268.989
1722088.0,1677486269.031
1721529.0,1677486269.068
1721191.0,1677486269.109
1720802.0,1677486269.149
1720458.0,1677486269.189
1720382.0,1677486269.229
1720186.0,1677486269.27
1720344.0,1677486269.31
1720521.0,1677486269.35
1720519.0,1677486269.389
1720616.0,1677486269.428
1720697.0,1677486269.469
1720767.0,1677486269.51
1720646.0,1677486269.548
1719777.0,1677486269.588
1718889.0,1677486269.63
1718046.0,1677486269.669
1717035.0,1677486269.71
1716419.0,1677486269.75
1715917.0,1677486269.789
1715557.0,1677486269.83
1715082.0,1677486269.871
1714889.0,1677486269.911
1714663.0,1677486269.948
1714418.0,1677486269.99
1714297.0,1677486270.029
1714235.0,1677486270.069
1714305.0,1677486270.111
1714278.0,1677486270.149
1714431.0,1677486270.19
1714200.0,1677486270.231
1713392.0,1677486270.27
1712483.0,1677486270.309
1711522.0,1677486270.35
1710877.0,1677486270.389
1710377.0,1677486270.429
1709833.0,1677486270.471
1709355.0,1677486270.51
1709053.0,1677486270.55
1709028.0,1677486270.591
1708588.0,1677486270.631
1708709.0,1677486270.669
1708765.0,1677486270.711
1708889.0,1677486270.749
1709093.0,1677486270.789
1709591.0,1677486270.83
1709653.0,1677486270.869
1709173.0,1677486270.91
1708209.0,1677486270.951
1707156.0,1677486270.99
1705697.0,1677486271.072
1706356.0,1677486271.03
1705492.0,1677486271.111
1705233.0,1677486271.149
1705137.0,1677486271.19
1705180.0,1677486271.229
1705046.0,1677486271.27
1705295.0,1677486271.311
1705773.0,1677486271.349
1706096.0,1677486271.39
1706739.0,1677486271.431
1707431.0,1677486271.47
1707697.0,1677486271.511
1707572.0,1677486271.552
1706918.0,1677486271.591
1706108.0,1677486271.631
1705334.0,1677486271.67
1704850.0,1677486271.71
1704706.0,1677486271.75
1704696.0,1677486271.791
1704688.0,1677486271.83
1704976.0,1677486271.871
1705180.0,1677486271.913
1705413.0,1677486271.951
1705911.0,1677486271.991
1706503.0,1677486272.031
1706869.0,1677486272.07
1707625.0,1677486272.111
1708219.0,1677486272.151
1708862.0,1677486272.191
1708736.0,1677486272.231
1708430.0,1677486272.272
1708018.0,1677486272.312
1707438.0,1677486272.352
1707340.0,1677486272.391
1707322.0,1677486272.43
1707397.0,1677486272.47
1707845.0,1677486272.512
1708112.0,1677486272.55
1708799.0,1677486272.59
1709074.0,1677486272.631
1709821.0,1677486272.67
1710488.0,1677486272.711
1711428.0,1677486272.751
1712140.0,1677486272.791
1713255.0,1677486272.831
1713836.0,1677486272.872
1714971.0,1677486272.912
1715496.0,1677486272.952
1715666.0,1677486272.993
1715549.0,1677486273.03
1715485.0,1677486273.07
1715382.0,1677486273.112
1715361.0,1677486273.151
1715775.0,1677486273.191
1716308.0,1677486273.233
1716777.0,1677486273.272
1717267.0,1677486273.313
1718127.0,1677486273.351
1718786.0,1677486273.39
1719595.0,1677486273.431
1720477.0,1677486273.472
1721498.0,1677486273.512
1722428.0,1677486273.552
1723487.0,1677486273.593
1724512.0,1677486273.632
1725607.0,1677486273.672
1726514.0,1677486273.712
1727857.0,1677486273.751
1728660.0,1677486273.79
1729225.0,1677486273.832
1729343.0,1677486273.871
1729881.0,1677486273.912
1730022.0,1677486273.952
1730495.0,1677486273.992
1730804.0,1677486274.032
1731707.0,1677486274.073
1732271.0,1677486274.113
1733291.0,1677486274.151
1733947.0,1677486274.192
1734819.0,1677486274.231
1735767.0,1677486274.272
1736506.0,1677486274.313
1737668.0,1677486274.351
1738749.0,1677486274.391
1739784.0,1677486274.433
1740865.0,1677486274.472
1742101.0,1677486274.513
1743215.0,1677486274.553
1744435.0,1677486274.593
1745505.0,1677486274.633
1746601.0,1677486274.672
1747432.0,1677486274.712
1747725.0,1677486274.752
1748237.0,1677486274.793
1748624.0,1677486274.832
1749109.0,1677486274.872
1749678.0,1677486274.914
1750166.0,1677486274.953
1750804.0,1677486274.993
1751316.0,1677486275.032
1751960.0,1677486275.071
1752535.0,1677486275.112
1753207.0,1677486275.153
1753668.0,1677486275.19
1754353.0,1677486275.23
1754977.0,1677486275.273
1755594.0,1677486275.312
1755981.0,1677486275.351
1756623.0,1677486275.393
1757171.0,1677486275.432
1758009.0,1677486275.472
1758599.0,1677486275.513
1759315.0,1677486275.552
1759508.0,1677486275.592
1759592.0,1677486275.633
1759758.0,1677486275.672
1759747.0,1677486275.713
1759802.0,1677486275.754
1759838.0,1677486275.793
1759737.0,1677486275.833
1759820.0,1677486275.875
1759821.0,1677486275.912
1760121.0,1677486275.952
1760001.0,1677486275.993
1760321.0,1677486276.033
1760591.0,1677486276.073
1760700.0,1677486276.115
1761015.0,1677486276.153
1761179.0,1677486276.194
1761450.0,1677486276.233
1761633.0,1677486276.272
1761799.0,1677486276.313
1761947.0,1677486276.354
1762398.0,1677486276.393
1761828.0,1677486276.474
1761422.0,1677486276.514
1762129.0,1677486276.433
1761054.0,1677486276.553
1760714.0,1677486276.594
1760704.0,1677486276.633
1760343.0,1677486276.673
1760051.0,1677486276.715
1759783.0,1677486276.753
1759707.0,1677486276.793
1759376.0,1677486276.835
1759204.0,1677486276.874
1759257.0,1677486276.914
1759278.0,1677486276.955
1759269.0,1677486276.994
1759124.0,1677486277.034
1759340.0,1677486277.116
1759662.0,1677486277.197
1759400.0,1677486277.076
1759518.0,1677486277.236
1759590.0,1677486277.155
1758440.0,1677486277.317
1758187.0,1677486277.356
1758865.0,1677486277.276
1757722.0,1677486277.396
1756860.0,1677486277.476
1757152.0,1677486277.437
1756752.0,1677486277.517
1756457.0,1677486277.558
1756111.0,1677486277.597
1755916.0,1677486277.637
1755708.0,1677486277.679
1755793.0,1677486277.717
1755664.0,1677486277.756
1755634.0,1677486277.797
1755380.0,1677486277.836
1755406.0,1677486277.919
1755098.0,1677486277.957
1755476.0,1677486277.877
1754195.0,1677486277.997
1752684.0,1677486278.078
1753381.0,1677486278.039
1751986.0,1677486278.117
1751015.0,1677486278.157
1750516.0,1677486278.197
1750094.0,1677486278.237
1749785.0,1677486278.278
1748790.0,1677486278.358
1748588.0,1677486278.399
1749244.0,1677486278.318
1748365.0,1677486278.438
1748272.0,1677486278.476
1748111.0,1677486278.518
1748012.0,1677486278.556
1747820.0,1677486278.596
1747675.0,1677486278.638
1747143.0,1677486278.677
1745976.0,1677486278.718
1744943.0,1677486278.758
1743192.0,1677486278.838
1744138.0,1677486278.797
1742470.0,1677486278.879
1741427.0,1677486278.957
1741855.0,1677486278.919
1740779.0,1677486278.998
1740450.0,1677486279.037
1739942.0,1677486279.077
1739734.0,1677486279.119
1739436.0,1677486279.158
1739126.0,1677486279.198
1738809.0,1677486279.279
1738998.0,1677486279.239
1738904.0,1677486279.317
1738536.0,1677486279.358
1736663.0,1677486279.437
1737565.0,1677486279.397
1735791.0,1677486279.479
1734992.0,1677486279.519
1734232.0,1677486279.558
1733814.0,1677486279.6
1733385.0,1677486279.639
1732791.0,1677486279.677
1732260.0,1677486279.719
1732128.0,1677486279.757
1731838.0,1677486279.797
1731842.0,1677486279.838
1731768.0,1677486279.877
1731715.0,1677486279.918
1731415.0,1677486279.959
1731435.0,1677486279.998
1731209.0,1677486280.039
1730340.0,1677486280.08
1729198.0,1677486280.12
1727820.0,1677486280.157
1726599.0,1677486280.198
1725740.0,1677486280.238
1724878.0,1677486280.278
1724162.0,1677486280.319
1723621.0,1677486280.357
1723015.0,1677486280.398
1722760.0,1677486280.439
1722405.0,1677486280.478
1722189.0,1677486280.519
1722025.0,1677486280.56
1721919.0,1677486280.599
1721989.0,1677486280.639
1721953.0,1677486280.68
1722019.0,1677486280.718
1721777.0,1677486280.758
1720761.0,1677486280.799
1719523.0,1677486280.838
1718321.0,1677486280.879
1717407.0,1677486280.921
1716543.0,1677486280.959
1715852.0,1677486280.999
1715399.0,1677486281.041
1715024.0,1677486281.078
1714616.0,1677486281.119
1714467.0,1677486281.159
1714610.0,1677486281.199
1714600.0,1677486281.239
1714927.0,1677486281.28
1714998.0,1677486281.32
1715248.0,1677486281.36
1715642.0,1677486281.399
1715844.0,1677486281.438
1716275.0,1677486281.478
1715932.0,1677486281.52
1715160.0,1677486281.558
1714321.0,1677486281.598
1713496.0,1677486281.64
1712718.0,1677486281.679
1712436.0,1677486281.72
1712476.0,1677486281.76
1712302.0,1677486281.799
1712226.0,1677486281.84
1712349.0,1677486281.881
1712734.0,1677486281.921
1713004.0,1677486281.958
1713704.0,1677486281.999
1714115.0,1677486282.039
1714710.0,1677486282.079
1715269.0,1677486282.121
1715930.0,1677486282.16
1716545.0,1677486282.2
1717108.0,1677486282.241
1717635.0,1677486282.28
1717379.0,1677486282.319
1716994.0,1677486282.36
1716525.0,1677486282.399
1716220.0,1677486282.439
1716223.0,1677486282.48
1716222.0,1677486282.52
1716362.0,1677486282.56
1716644.0,1677486282.601
1717062.0,1677486282.64
1717274.0,1677486282.679
1717988.0,1677486282.721
1718578.0,1677486282.759
1719403.0,1677486282.799
1719996.0,1677486282.84
1720661.0,1677486282.879
1721225.0,1677486282.92
1722056.0,1677486282.96
1722798.0,1677486283.0
1723703.0,1677486283.04
1724302.0,1677486283.081
1724410.0,1677486283.121
1724342.0,1677486283.159
1724395.0,1677486283.2
1724529.0,1677486283.239
1725012.0,1677486283.28
1725104.0,1677486283.321
1725720.0,1677486283.359
1726152.0,1677486283.4
1726750.0,1677486283.441
1727394.0,1677486283.48
1728083.0,1677486283.521
1729099.0,1677486283.562
1729902.0,1677486283.601
1730594.0,1677486283.641
1731367.0,1677486283.68
1732231.0,1677486283.72
1733108.0,1677486283.76
1733751.0,1677486283.801
1734449.0,1677486283.84
1734643.0,1677486283.881
1735063.0,1677486283.923
1734960.0,1677486283.961
1735304.0,1677486284.001
1735634.0,1677486284.04
1736127.0,1677486284.08
1736477.0,1677486284.121
1736849.0,1677486284.161
1737299.0,1677486284.201
1737811.0,1677486284.241
1738281.0,1677486284.282
1738616.0,1677486284.322
1739146.0,1677486284.362
1739768.0,1677486284.401
1740217.0,1677486284.44
1740846.0,1677486284.48
1741279.0,1677486284.521
1741434.0,1677486284.56
1741363.0,1677486284.6
1741580.0,1677486284.641
1741649.0,1677486284.68
1741739.0,1677486284.721
1741935.0,1677486284.762
1742217.0,1677486284.801
1742310.0,1677486284.841
1742480.0,1677486284.883
1742458.0,1677486284.921
1742853.0,1677486284.96
1742902.0,1677486285.002
1743192.0,1677486285.041
1743336.0,1677486285.081
1743578.0,1677486285.123
1743688.0,1677486285.162
1743618.0,1677486285.202
1743401.0,1677486285.241
1743307.0,1677486285.28
1743257.0,1677486285.321
1743354.0,1677486285.362
1743443.0,1677486285.401
1743461.0,1677486285.445
1743639.0,1677486285.487
1743811.0,1677486285.523
1743849.0,1677486285.56
1744040.0,1677486285.602
1744112.0,1677486285.641
1744457.0,1677486285.681
1744860.0,1677486285.722
1744927.0,1677486285.761
1745448.0,1677486285.801
1745513.0,1677486285.842
1745454.0,1677486285.881
1745388.0,1677486285.922
1744930.0,1677486286.002
1745112.0,1677486285.963
1744790.0,1677486286.042
1745005.0,1677486286.082
1744933.0,1677486286.122
1745053.0,1677486286.161
1745330.0,1677486286.203
1745518.0,1677486286.242
1745730.0,1677486286.282
1745980.0,1677486286.323
1746447.0,1677486286.362
1746758.0,1677486286.402
1747123.0,1677486286.443
1747417.0,1677486286.482
1747098.0,1677486286.564
1747263.0,1677486286.523
1746451.0,1677486286.601
1745998.0,1677486286.641
1745835.0,1677486286.682
1745618.0,1677486286.722
1745387.0,1677486286.762
1745566.0,1677486286.803
1745975.0,1677486286.961
1745551.0,1677486286.883
1745779.0,1677486286.925
1746307.0,1677486287.001
1745493.0,1677486286.842
1746643.0,1677486287.043
1746872.0,1677486287.082
1747263.0,1677486287.123
1747572.0,1677486287.164
1748050.0,1677486287.203
1748167.0,1677486287.243
1747880.0,1677486287.284
1747558.0,1677486287.322
1747115.0,1677486287.362
1746710.0,1677486287.403
1746397.0,1677486287.482
1746491.0,1677486287.442
1746222.0,1677486287.524
1746175.0,1677486287.562
1746344.0,1677486287.602
1746721.0,1677486287.644
1746847.0,1677486287.683
1747587.0,1677486287.764
1746890.0,1677486287.724
1749026.0,1677486287.883
1747959.0,1677486287.803
1748309.0,1677486287.842
1750354.0,1677486287.962
1749505.0,1677486287.923
1751005.0,1677486288.004
1751619.0,1677486288.043
1752501.0,1677486288.083
1752960.0,1677486288.124
1752757.0,1677486288.163
1752813.0,1677486288.203
1752635.0,1677486288.245
1752651.0,1677486288.282
1752529.0,1677486288.323
1752771.0,1677486288.363
1752732.0,1677486288.403
1752800.0,1677486288.443
1753011.0,1677486288.485
1753198.0,1677486288.524
1753530.0,1677486288.605
1753710.0,1677486288.644
1753187.0,1677486288.564
1754077.0,1677486288.684
1754774.0,1677486288.764
1754357.0,1677486288.726
1755070.0,1677486288.804
1755377.0,1677486288.845
1755841.0,1677486288.885
1756484.0,1677486288.925
1757027.0,1677486288.967
1757181.0,1677486289.006
1756949.0,1677486289.047
1756590.0,1677486289.087
1756275.0,1677486289.127
1755870.0,1677486289.167
1755607.0,1677486289.208
1755226.0,1677486289.288
1755404.0,1677486289.247
1754993.0,1677486289.329
1754753.0,1677486289.367
1754681.0,1677486289.407
1754654.0,1677486289.449
1754590.0,1677486289.488
1754690.0,1677486289.529
1754735.0,1677486289.57
1754723.0,1677486289.607
1754791.0,1677486289.647
1754888.0,1677486289.688
1755111.0,1677486289.728
1755547.0,1677486289.768
1755719.0,1677486289.809
1756036.0,1677486289.848
1755378.0,1677486289.93
1755630.0,1677486289.888
1754826.0,1677486289.967
1754194.0,1677486290.007
1753958.0,1677486290.048
1753382.0,1677486290.088
1753166.0,1677486290.129
1752810.0,1677486290.169
1752521.0,1677486290.208
1752301.0,1677486290.249
1752301.0,1677486290.29
1752171.0,1677486290.328
1752315.0,1677486290.448
1752781.0,1677486290.529
1752763.0,1677486290.567
1753049.0,1677486290.607
1752251.0,1677486290.409
1752281.0,1677486290.367
1752385.0,1677486290.488
1753119.0,1677486290.648
1753598.0,1677486290.687
1753619.0,1677486290.728
1752738.0,1677486290.808
1753211.0,1677486290.769
1751895.0,1677486290.889
1751840.0,1677486290.929
1751527.0,1677486290.969
1751425.0,1677486291.01
1752334.0,1677486290.848
1751517.0,1677486291.047
1751543.0,1677486291.088
1751473.0,1677486291.13
1751594.0,1677486291.168
1751606.0,1677486291.209
1751658.0,1677486291.25
1751843.0,1677486291.289
1752124.0,1677486291.33
1752188.0,1677486291.369
1752616.0,1677486291.408
1752818.0,1677486291.448
1753276.0,1677486291.489
1753421.0,1677486291.529
1752555.0,1677486291.61
1752026.0,1677486291.649
1751911.0,1677486291.69
1753020.0,1677486291.569
1751670.0,1677486291.731
1751452.0,1677486291.769
1751278.0,1677486291.81
1751161.0,1677486291.888
1751009.0,1677486291.851
1750948.0,1677486291.929
1750839.0,1677486292.009
1750752.0,1677486291.969
1751052.0,1677486292.049
1751106.0,1677486292.09
1751318.0,1677486292.13
1751538.0,1677486292.209
1751550.0,1677486292.17
1751828.0,1677486292.248
1752033.0,1677486292.289
1751712.0,1677486292.33
1751123.0,1677486292.368
1750681.0,1677486292.408
1750205.0,1677486292.45
1749738.0,1677486292.489
1749468.0,1677486292.53
1749034.0,1677486292.61
1749285.0,1677486292.57
1748914.0,1677486292.65
1748694.0,1677486292.729
1748651.0,1677486292.691
1748822.0,1677486292.81
1748979.0,1677486292.89
1748972.0,1677486292.849
1748826.0,1677486292.769
1749104.0,1677486292.931
1749083.0,1677486292.97
1749535.0,1677486293.01
1749057.0,1677486293.052
1748611.0,1677486293.089
1747839.0,1677486293.13
1747249.0,1677486293.17
1746327.0,1677486293.209
1745812.0,1677486293.249
1745463.0,1677486293.291
1745174.0,1677486293.331
1744675.0,1677486293.37
1744342.0,1677486293.411
1744296.0,1677486293.451
1744177.0,1677486293.489
1743931.0,1677486293.531
1744117.0,1677486293.569
1744134.0,1677486293.609
1743928.0,1677486293.65
1744072.0,1677486293.689
1743903.0,1677486293.73
1743363.0,1677486293.771
1742459.0,1677486293.81
1741463.0,1677486293.85
1740461.0,1677486293.892
1739664.0,1677486293.932
1739123.0,1677486293.969
1738533.0,1677486294.01
1737787.0,1677486294.05
1737395.0,1677486294.09
1736962.0,1677486294.132
1736814.0,1677486294.171
1736694.0,1677486294.211
1736627.0,1677486294.252
1736380.0,1677486294.291
1736330.0,1677486294.33
1736513.0,1677486294.371
1736181.0,1677486294.41
1735414.0,1677486294.45
1734207.0,1677486294.491
1733341.0,1677486294.531
1731991.0,1677486294.571
1731267.0,1677486294.612
1730437.0,1677486294.651
1729944.0,1677486294.69
1729540.0,1677486294.732
1728943.0,1677486294.77
1728488.0,1677486294.81
1728388.0,1677486294.851
1728144.0,1677486294.89
1728327.0,1677486294.931
1728044.0,1677486294.972
1728070.0,1677486295.011
1728042.0,1677486295.051
1728345.0,1677486295.093
1727755.0,1677486295.132
1726678.0,1677486295.17
1725322.0,1677486295.211
1724489.0,1677486295.25
1722851.0,1677486295.332
1723499.0,1677486295.291
1722371.0,1677486295.37
1721885.0,1677486295.411
1721464.0,1677486295.452
1721152.0,1677486295.491
1720936.0,1677486295.532
1720857.0,1677486295.573
1720914.0,1677486295.612
1720922.0,1677486295.652
1721226.0,1677486295.693
1721208.0,1677486295.733
1721471.0,1677486295.77
1721344.0,1677486295.812
1720348.0,1677486295.851
1719374.0,1677486295.891
1717623.0,1677486295.971
1718368.0,1677486295.933
1717033.0,1677486296.012
1716555.0,1677486296.053
1716374.0,1677486296.092
1715816.0,1677486296.131
1715644.0,1677486296.172
1715776.0,1677486296.211
1715712.0,1677486296.251
1716069.0,1677486296.293
1716080.0,1677486296.333
1716119.0,1677486296.372
1716270.0,1677486296.413
1716578.0,1677486296.453
1716937.0,1677486296.491
1716676.0,1677486296.533
1715902.0,1677486296.571
1715137.0,1677486296.611
1714686.0,1677486296.652
1714489.0,1677486296.691
1714420.0,1677486296.732
1714267.0,1677486296.773
1714461.0,1677486296.812
1714673.0,1677486296.852
1714866.0,1677486296.894
1715070.0,1677486296.933
1715711.0,1677486296.971
1716277.0,1677486297.012
1716665.0,1677486297.051
1717339.0,1677486297.092
1717644.0,1677486297.134
1718257.0,1677486297.172
1718683.0,1677486297.213
1718581.0,1677486297.254
1718019.0,1677486297.293
1717860.0,1677486297.332
1717459.0,1677486297.372
1717636.0,1677486297.412
1717801.0,1677486297.452
1718014.0,1677486297.493
1718429.0,1677486297.533
1718525.0,1677486297.573
1718901.0,1677486297.614
1719356.0,1677486297.653
1720139.0,1677486297.691
1720852.0,1677486297.734
1721314.0,1677486297.771
1722503.0,1677486297.811
1723019.0,1677486297.853
1723791.0,1677486297.892
1724108.0,1677486297.933
1724021.0,1677486297.974
1724303.0,1677486298.013
1724488.0,1677486298.053
1724822.0,1677486298.094
1725351.0,1677486298.134
1725794.0,1677486298.172
1726510.0,1677486298.213
1727054.0,1677486298.252
1727501.0,1677486298.292
1728307.0,1677486298.334
1729099.0,1677486298.372
1729934.0,1677486298.412
1730358.0,1677486298.453
1731070.0,1677486298.493
1731708.0,1677486298.534
1731985.0,1677486298.574
1731888.0,1677486298.613
1731987.0,1677486298.654
1731962.0,1677486298.695
1732206.0,1677486298.735
1732398.0,1677486298.772
1732769.0,1677486298.813
1733137.0,1677486298.853
1733423.0,1677486298.893
1733929.0,1677486298.935
1734532.0,1677486298.973
1735262.0,1677486299.014
1735713.0,1677486299.055
1736450.0,1677486299.094
1737022.0,1677486299.133
1737888.0,1677486299.174
1738228.0,1677486299.213
1738351.0,1677486299.253
1738518.0,1677486299.294
1738526.0,1677486299.334
1738723.0,1677486299.374
1739216.0,1677486299.415
1739579.0,1677486299.454
1739774.0,1677486299.492
1740519.0,1677486299.535
1740991.0,1677486299.572
1741637.0,1677486299.613
1742114.0,1677486299.654
1743077.0,1677486299.693
1743671.0,1677486299.734
1744734.0,1677486299.775
1745372.0,1677486299.814
1746313.0,1677486299.854
1746798.0,1677486299.895
1746991.0,1677486299.935
1747124.0,1677486299.973
1747315.0,1677486300.014
1747554.0,1677486300.053
1747956.0,1677486300.094
1748360.0,1677486300.136
1748902.0,1677486300.174
1751104.0,1677486300.256
1749394.0,1677486300.214
1753712.0,1677486300.293
1756575.0,1677486300.334
1759039.0,1677486300.374
1760833.0,1677486300.412
1761942.0,1677486300.452
1763225.0,1677486300.493
1764001.0,1677486300.532
1764276.0,1677486300.572
1764747.0,1677486300.613
1764352.0,1677486300.652
1763910.0,1677486300.692
1763284.0,1677486300.734
1762671.0,1677486300.772
1762194.0,1677486300.812
1761727.0,1677486300.853
1761335.0,1677486300.892
1761087.0,1677486300.933
1760820.0,1677486300.974
1760574.0,1677486301.014
1760364.0,1677486301.055
1760282.0,1677486301.095
1760466.0,1677486301.135
1760493.0,1677486301.175
1760536.0,1677486301.216
1760590.0,1677486301.255
1760748.0,1677486301.296
1760857.0,1677486301.337
1760876.0,1677486301.375
1761086.0,1677486301.415
1760917.0,1677486301.457
1760501.0,1677486301.496
1759932.0,1677486301.537
1759365.0,1677486301.577
1758967.0,1677486301.617
1758518.0,1677486301.655
1758221.0,1677486301.696
1757992.0,1677486301.736
1757812.0,1677486301.776
1757434.0,1677486301.817
1757376.0,1677486301.856
1757130.0,1677486301.896
1756995.0,1677486301.938
1757056.0,1677486301.977
1756942.0,1677486302.015
1756944.0,1677486302.056
1756893.0,1677486302.095
1756809.0,1677486302.136
1757023.0,1677486302.177
1756919.0,1677486302.216
1756633.0,1677486302.257
1755991.0,1677486302.298
1755547.0,1677486302.338
1754854.0,1677486302.375
1754318.0,1677486302.417
1753821.0,1677486302.456
1753687.0,1677486302.496
1753233.0,1677486302.537
1752966.0,1677486302.576
1752637.0,1677486302.616
1752260.0,1677486302.657
1752300.0,1677486302.696
1752049.0,1677486302.737
1752005.0,1677486302.778
1752095.0,1677486302.817
1751925.0,1677486302.857
1752008.0,1677486302.897
1752088.0,1677486302.936
1752487.0,1677486302.976
1752188.0,1677486303.017
1751627.0,1677486303.057
1750996.0,1677486303.097
1750648.0,1677486303.139
1750102.0,1677486303.177
1749646.0,1677486303.216
1749392.0,1677486303.257
1749328.0,1677486303.296
1748941.0,1677486303.341
1748693.0,1677486303.376
1748437.0,1677486303.416
1748344.0,1677486303.456
1748189.0,1677486303.497
1748094.0,1677486303.537
1748019.0,1677486303.577
1748033.0,1677486303.618
1748141.0,1677486303.657
1748177.0,1677486303.697
1748249.0,1677486303.738
1747781.0,1677486303.777
1747320.0,1677486303.817
1746477.0,1677486303.859
1745871.0,1677486303.898
1745290.0,1677486303.939
1744927.0,1677486303.977
1744720.0,1677486304.016
1744281.0,1677486304.057
1743978.0,1677486304.098
1743607.0,1677486304.138
1743546.0,1677486304.178
1743463.0,1677486304.219
1743474.0,1677486304.253
1743486.0,1677486304.293
1743477.0,1677486304.335
1743497.0,1677486304.373
1743589.0,1677486304.413
1743488.0,1677486304.454
1742789.0,1677486304.493
1741901.0,1677486304.534
1741085.0,1677486304.574
1740412.0,1677486304.614
1739885.0,1677486304.654
1739303.0,1677486304.695
1738880.0,1677486304.734
1738271.0,1677486304.774
1737981.0,1677486304.815
1737617.0,1677486304.854
1737530.0,1677486304.894
1737470.0,1677486304.936
1737292.0,1677486304.974
1737038.0,1677486305.015
1737212.0,1677486305.056
1736910.0,1677486305.095
1737001.0,1677486305.137
1736392.0,1677486305.178
1735512.0,1677486305.217
1734542.0,1677486305.257
1733647.0,1677486305.298
1732705.0,1677486305.338
1731828.0,1677486305.377
1731310.0,1677486305.419
1730741.0,1677486305.458
1730241.0,1677486305.498
1729820.0,1677486305.539
1729556.0,1677486305.578
1729406.0,1677486305.618
1729057.0,1677486305.659
1729087.0,1677486305.698
1729178.0,1677486305.739
1728772.0,1677486305.78
1729068.0,1677486305.819
1728646.0,1677486305.857
1727859.0,1677486305.899
1726531.0,1677486305.938
1725462.0,1677486305.978
1724537.0,1677486306.019
1723806.0,1677486306.058
1723000.0,1677486306.098
1722328.0,1677486306.14
1721680.0,1677486306.179
1721170.0,1677486306.219
1720555.0,1677486306.259
1720409.0,1677486306.298
1720042.0,1677486306.339
1719815.0,1677486306.379
1719681.0,1677486306.418
1719761.0,1677486306.459
1719703.0,1677486306.5
1719682.0,1677486306.54
1718992.0,1677486306.579
1717972.0,1677486306.619
1716851.0,1677486306.658
1715869.0,1677486306.698
1714853.0,1677486306.74
1714113.0,1677486306.778
1713482.0,1677486306.818
1712945.0,1677486306.859
1712397.0,1677486306.898
1712121.0,1677486306.939
1711764.0,1677486306.98
1711577.0,1677486307.019
1711543.0,1677486307.06
1711513.0,1677486307.101
1711613.0,1677486307.139
1711701.0,1677486307.178
1711871.0,1677486307.22
1712039.0,1677486307.259
1711421.0,1677486307.299
1710395.0,1677486307.34
1709332.0,1677486307.379
1708502.0,1677486307.419
1707769.0,1677486307.46
1707064.0,1677486307.499
1706899.0,1677486307.541
1706378.0,1677486307.581
1705989.0,1677486307.62
1705815.0,1677486307.658
1705775.0,1677486307.7
1705844.0,1677486307.739
1706131.0,1677486307.779
1706373.0,1677486307.82
1706466.0,1677486307.86
1706865.0,1677486307.9
1707254.0,1677486307.942
1707486.0,1677486307.98
1707356.0,1677486308.018
1706487.0,1677486308.06
1705645.0,1677486308.099
1704861.0,1677486308.14
1704081.0,1677486308.181
1703531.0,1677486308.22
1703166.0,1677486308.26
1702880.0,1677486308.301
1702463.0,1677486308.341
1702610.0,1677486308.379
1702329.0,1677486308.42
1702543.0,1677486308.459
1702614.0,1677486308.499
1703003.0,1677486308.541
1703348.0,1677486308.579
1703760.0,1677486308.619
1704164.0,1677486308.661
1704589.0,1677486308.7
1705142.0,1677486308.741
1705017.0,1677486308.781
1704030.0,1677486308.821
1703442.0,1677486308.859
1702671.0,1677486308.9
1702196.0,1677486308.94
1702102.0,1677486308.98
1701776.0,1677486309.021
1701747.0,1677486309.101
1701847.0,1677486309.06
1701729.0,1677486309.143
1702322.0,1677486309.219
1701849.0,1677486309.179
1702564.0,1677486309.261
1703432.0,1677486309.341
1702990.0,1677486309.3
1703907.0,1677486309.381
1704457.0,1677486309.421
1705091.0,1677486309.461
1705707.0,1677486309.502
1705622.0,1677486309.54
1705035.0,1677486309.58
1704730.0,1677486309.621
1704271.0,1677486309.66
1703939.0,1677486309.7
1703968.0,1677486309.742
1704275.0,1677486309.78
1704187.0,1677486309.82
1704491.0,1677486309.862
1704674.0,1677486309.901
1705126.0,1677486309.942
1705617.0,1677486309.982
1706171.0,1677486310.022
1706801.0,1677486310.06
1707417.0,1677486310.101
1707878.0,1677486310.141
1708571.0,1677486310.181
1709081.0,1677486310.222
1708855.0,1677486310.261
1708426.0,1677486310.301
1708242.0,1677486310.342
1707904.0,1677486310.381
1707990.0,1677486310.421
1707919.0,1677486310.463
1708159.0,1677486310.502
1708276.0,1677486310.541
1708561.0,1677486310.581
1708835.0,1677486310.62
1709306.0,1677486310.661
1709567.0,1677486310.702
1709976.0,1677486310.742
1710465.0,1677486310.781
1710836.0,1677486310.823
1711404.0,1677486310.862
1711539.0,1677486310.9
1711268.0,1677486310.942
1710869.0,1677486310.981
1710412.0,1677486311.021
1710314.0,1677486311.062
1709988.0,1677486311.102
1710084.0,1677486311.143
1710156.0,1677486311.183
1710187.0,1677486311.22
1710170.0,1677486311.261
1710394.0,1677486311.302
1710753.0,1677486311.342
1711182.0,1677486311.381
1711693.0,1677486311.423
1712010.0,1677486311.462
1712733.0,1677486311.502
1713100.0,1677486311.543
1712933.0,1677486311.582
1712425.0,1677486311.622
1711988.0,1677486311.663
1711651.0,1677486311.702
1711545.0,1677486311.741
1711223.0,1677486311.782
1711528.0,1677486311.821
1711860.0,1677486311.861
1712130.0,1677486311.903
1712092.0,1677486311.943
1712567.0,1677486311.982
1713175.0,1677486312.023
1713688.0,1677486312.063
1714243.0,1677486312.101
1714877.0,1677486312.143
1715718.0,1677486312.181
1716406.0,1677486312.222
1716713.0,1677486312.263
1716437.0,1677486312.302
1716192.0,1677486312.343
1715989.0,1677486312.384
1715545.0,1677486312.415
1715613.0,1677486312.455
1715415.0,1677486312.496
1715804.0,1677486312.536
1715870.0,1677486312.575
1716109.0,1677486312.616
1716470.0,1677486312.655
1717044.0,1677486312.695
1717515.0,1677486312.737
1718206.0,1677486312.775
1718785.0,1677486312.815
1719197.0,1677486312.856
1719988.0,1677486312.896
1720632.0,1677486312.937
1721441.0,1677486312.977
1722193.0,1677486313.016
1722813.0,1677486313.057
1722764.0,1677486313.098
1722322.0,1677486313.138
1722093.0,1677486313.178
1721853.0,1677486313.219
1722035.0,1677486313.258
1722213.0,1677486313.298
1722539.0,1677486313.339
1723081.0,1677486313.378
1723569.0,1677486313.418
1724173.0,1677486313.46
1724878.0,1677486313.497
1725746.0,1677486313.538
1726577.0,1677486313.578
1727404.0,1677486313.617
1728214.0,1677486313.657
1729046.0,1677486313.699
1730093.0,1677486313.739
1731028.0,1677486313.778
1732043.0,1677486313.819
1733010.0,1677486313.859
1733915.0,1677486313.899
1734986.0,1677486313.939
1735517.0,1677486313.977
1735767.0,1677486314.017
1735587.0,1677486314.059
1735597.0,1677486314.098
1735544.0,1677486314.139
1735741.0,1677486314.18
1736248.0,1677486314.219
1736564.0,1677486314.259
1736729.0,1677486314.298
1736941.0,1677486314.338
1737144.0,1677486314.378
1737572.0,1677486314.419
1737817.0,1677486314.458
1738252.0,1677486314.498
1738527.0,1677486314.54
1738800.0,1677486314.578
1739053.0,1677486314.618
1739386.0,1677486314.66
1739721.0,1677486314.699
1740322.0,1677486314.74
1740657.0,1677486314.78
1741307.0,1677486314.817
1741848.0,1677486314.858
1742275.0,1677486314.899
1742250.0,1677486314.939
1742038.0,1677486314.978
1741750.0,1677486315.02
1741526.0,1677486315.059
1741193.0,1677486315.099
1741306.0,1677486315.141
1741302.0,1677486315.178
1741373.0,1677486315.218
1741380.0,1677486315.259
1741617.0,1677486315.298
1741595.0,1677486315.339
1741961.0,1677486315.38
1742015.0,1677486315.419
1742499.0,1677486315.459
1742677.0,1677486315.501
1743068.0,1677486315.539
1743430.0,1677486315.578
1743941.0,1677486315.619
1744225.0,1677486315.659
1744758.0,1677486315.699
1745115.0,1677486315.74
1745902.0,1677486315.779
1745974.0,1677486315.819
1745911.0,1677486315.86
1745504.0,1677486315.899
1745250.0,1677486315.94
1745047.0,1677486315.981
1744767.0,1677486316.02
1744440.0,1677486316.058
1744569.0,1677486316.099
1744597.0,1677486316.139
1744632.0,1677486316.179
1744921.0,1677486316.22
1745441.0,1677486316.259
1745878.0,1677486316.299
1746784.0,1677486316.34
1747305.0,1677486316.379
1747923.0,1677486316.419
1748530.0,1677486316.46
1749269.0,1677486316.5
1749796.0,1677486316.541
1750552.0,1677486316.581
1751163.0,1677486316.62
1751840.0,1677486316.659
1752140.0,1677486316.7
1752050.0,1677486316.74
1751700.0,1677486316.779
1751449.0,1677486316.821
1751120.0,1677486316.86
1750936.0,1677486316.9
1750700.0,1677486316.942
1750801.0,1677486316.981
1750665.0,1677486317.019
1750654.0,1677486317.06
1750615.0,1677486317.099
1750793.0,1677486317.14
1750892.0,1677486317.181
1751145.0,1677486317.22
1751494.0,1677486317.26
1751781.0,1677486317.302
1752003.0,1677486317.342
1752295.0,1677486317.379
1752509.0,1677486317.42
1753000.0,1677486317.459
1753307.0,1677486317.5
1753605.0,1677486317.541
1753250.0,1677486317.579
1752740.0,1677486317.62
1752183.0,1677486317.661
1751617.0,1677486317.7
1751134.0,1677486317.741
1750823.0,1677486317.782
1750428.0,1677486317.821
1750211.0,1677486317.861
1749980.0,1677486317.9
1749951.0,1677486317.94
1749764.0,1677486317.98
1749678.0,1677486318.021
1749764.0,1677486318.06
1749942.0,1677486318.101
1750133.0,1677486318.143
1750315.0,1677486318.181
1750390.0,1677486318.219
1750545.0,1677486318.261
1750830.0,1677486318.3
1750485.0,1677486318.341
1749754.0,1677486318.381
1748549.0,1677486318.421
1747519.0,1677486318.461
1746364.0,1677486318.502
1745540.0,1677486318.542
1744783.0,1677486318.58
1744212.0,1677486318.621
1743547.0,1677486318.66
1742882.0,1677486318.7
1742540.0,1677486318.742
1742085.0,1677486318.781
1741839.0,1677486318.821
1741511.0,1677486318.862
1741201.0,1677486318.901
1740956.0,1677486318.942
1740833.0,1677486318.981
1740760.0,1677486319.02
1740476.0,1677486319.06
1739665.0,1677486319.102
1738581.0,1677486319.142
1737402.0,1677486319.181
1736196.0,1677486319.223
1735228.0,1677486319.262
1734292.0,1677486319.3
1733758.0,1677486319.342
1732984.0,1677486319.38
1732082.0,1677486319.42
1731045.0,1677486319.501
1731360.0,1677486319.461
1730644.0,1677486319.542
1730391.0,1677486319.582
1730254.0,1677486319.621
1729977.0,1677486319.662
1729790.0,1677486319.703
1729753.0,1677486319.743
1729606.0,1677486319.78
1729104.0,1677486319.822
1728108.0,1677486319.861
1726977.0,1677486319.901
1725864.0,1677486319.943
1724833.0,1677486319.982
1723890.0,1677486320.022
1723324.0,1677486320.063
1722767.0,1677486320.102
1722322.0,1677486320.141
1722123.0,1677486320.182
1721673.0,1677486320.221
1721898.0,1677486320.261
1722042.0,1677486320.303
1722260.0,1677486320.343
1722222.0,1677486320.382
1722705.0,1677486320.424
1722786.0,1677486320.463
1723182.0,1677486320.501
1723688.0,1677486320.543
1723131.0,1677486320.581
1722285.0,1677486320.621
1721396.0,1677486320.662
1720634.0,1677486320.701
1719563.0,1677486320.742
1718831.0,1677486320.783
1718401.0,1677486320.822
1718142.0,1677486320.862
1717637.0,1677486320.904
1717433.0,1677486320.944
1717502.0,1677486320.981
1717342.0,1677486321.023
1717555.0,1677486321.062
1717915.0,1677486321.102
1718037.0,1677486321.144
1718280.0,1677486321.183
1718408.0,1677486321.223
1718588.0,1677486321.262
1718859.0,1677486321.301
1718865.0,1677486321.342
1717774.0,1677486321.383
1716881.0,1677486321.422
1716017.0,1677486321.462
1715309.0,1677486321.504
1714652.0,1677486321.543
1714459.0,1677486321.583
1714305.0,1677486321.624
1714028.0,1677486321.662
1713948.0,1677486321.702
1714055.0,1677486321.743
1714157.0,1677486321.782
1714523.0,1677486321.822
1714779.0,1677486321.863
1715204.0,1677486321.902
1715349.0,1677486321.943
1715797.0,1677486321.984
1716245.0,1677486322.023
1716707.0,1677486322.063
1717294.0,1677486322.105
1717418.0,1677486322.144
1717064.0,1677486322.182
1716282.0,1677486322.223
1715252.0,1677486322.262
1714723.0,1677486322.303
1714272.0,1677486322.344
1714014.0,1677486322.382
1713920.0,1677486322.422
1713854.0,1677486322.464
1713651.0,1677486322.503
1713826.0,1677486322.544
1714005.0,1677486322.584
1714313.0,1677486322.624
1714660.0,1677486322.664
1715004.0,1677486322.703
1715444.0,1677486322.743
1715651.0,1677486322.783
1716167.0,1677486322.824
1716580.0,1677486322.863
1717106.0,1677486322.903
1717257.0,1677486322.945
1716819.0,1677486322.984
1716255.0,1677486323.024
1715354.0,1677486323.063
1714964.0,1677486323.103
1714891.0,1677486323.144
1714767.0,1677486323.184
1714818.0,1677486323.223
1714886.0,1677486323.264
1714982.0,1677486323.305
1715287.0,1677486323.345
1715736.0,1677486323.383
1716301.0,1677486323.424
1716825.0,1677486323.463
1717396.0,1677486323.503
1718077.0,1677486323.544
1718503.0,1677486323.583
1718965.0,1677486323.623
1719017.0,1677486323.664
1718721.0,1677486323.704
1718051.0,1677486323.745
1717648.0,1677486323.785
1717147.0,1677486323.824
1716959.0,1677486323.862
1716878.0,1677486323.904
1716816.0,1677486323.944
1716557.0,1677486323.983
1716439.0,1677486324.024
1716389.0,1677486324.063
1716314.0,1677486324.104
1716405.0,1677486324.146
1716380.0,1677486324.184
1716557.0,1677486324.224
1716857.0,1677486324.266
1717167.0,1677486324.305
1717099.0,1677486324.344
1716686.0,1677486324.384
1716151.0,1677486324.422
1715788.0,1677486324.462
1715486.0,1677486324.504
1715530.0,1677486324.543
1715479.0,1677486324.583
1715403.0,1677486324.624
1715616.0,1677486324.663
1715735.0,1677486324.703
1715914.0,1677486324.745
1716160.0,1677486324.783
1716479.0,1677486324.823
1717023.0,1677486324.864
1717578.0,1677486324.904
1717994.0,1677486324.945
1718383.0,1677486324.986
1717948.0,1677486325.025
1717448.0,1677486325.066
1717031.0,1677486325.107
1716184.0,1677486325.146
1715846.0,1677486325.186
1715679.0,1677486325.227
1715799.0,1677486325.267
1715549.0,1677486325.307
1715682.0,1677486325.348
1715646.0,1677486325.386
1715841.0,1677486325.427
1716078.0,1677486325.468
1716460.0,1677486325.507
1716736.0,1677486325.548
1717262.0,1677486325.589
1717615.0,1677486325.628
1718089.0,1677486325.666
1718680.0,1677486325.707
1719256.0,1677486325.747
1719455.0,1677486325.787
1719058.0,1677486325.828
1718753.0,1677486325.867
1718316.0,1677486325.907
1718078.0,1677486325.949
1718202.0,1677486325.988
1718222.0,1677486326.026
1718488.0,1677486326.067
1718608.0,1677486326.107
1718883.0,1677486326.148
1719299.0,1677486326.188
1719869.0,1677486326.227
1720750.0,1677486326.268
1721357.0,1677486326.309
1722136.0,1677486326.349
1722733.0,1677486326.389
1723490.0,1677486326.427
1724283.0,1677486326.466
1725246.0,1677486326.507
1725878.0,1677486326.548
1727060.0,1677486326.587
1727768.0,1677486326.626
1728631.0,1677486326.668
1729532.0,1677486326.707
1729850.0,1677486326.748
1729659.0,1677486326.788
1729653.0,1677486326.827
1729615.0,1677486326.868
1729273.0,1677486326.909
1729506.0,1677486326.949
1729823.0,1677486326.988
1730080.0,1677486327.028
1730557.0,1677486327.067
1730769.0,1677486327.107
1731485.0,1677486327.149
1731881.0,1677486327.188
1732805.0,1677486327.228
1733144.0,1677486327.269
1733993.0,1677486327.309
1734852.0,1677486327.348
1735624.0,1677486327.388
1736413.0,1677486327.427
1737373.0,1677486327.468
1738322.0,1677486327.509
1739167.0,1677486327.549
1740417.0,1677486327.588
1741110.0,1677486327.63
1742118.0,1677486327.669
1743124.0,1677486327.707
1743435.0,1677486327.749
1743415.0,1677486327.787
1743461.0,1677486327.827
1743465.0,1677486327.868
1743557.0,1677486327.908
1743975.0,1677486327.949
1744032.0,1677486327.989
1744697.0,1677486328.028
1744773.0,1677486328.069
1745108.0,1677486328.11
1745655.0,1677486328.15
1746070.0,1677486328.187
1746608.0,1677486328.229
1747367.0,1677486328.268
1747938.0,1677486328.308
1748609.0,1677486328.349
1749253.0,1677486328.388
1750055.0,1677486328.428
1750887.0,1677486328.469
1751497.0,1677486328.508
1752358.0,1677486328.549
1752960.0,1677486328.59
1753718.0,1677486328.629
1754467.0,1677486328.669
1754631.0,1677486328.709
1754371.0,1677486328.749
1754513.0,1677486328.788
1754554.0,1677486328.83
1754656.0,1677486328.869
1754802.0,1677486328.909
1755254.0,1677486328.951
1755454.0,1677486328.987
1755801.0,1677486329.027
1756048.0,1677486329.068
1756318.0,1677486329.108
1756575.0,1677486329.149
1756868.0,1677486329.189
1757438.0,1677486329.228
1757862.0,1677486329.268
1758243.0,1677486329.31
1758761.0,1677486329.35
1759244.0,1677486329.389
1759813.0,1677486329.431
1760263.0,1677486329.47
1760740.0,1677486329.51
1761341.0,1677486329.551
1761845.0,1677486329.59
1761743.0,1677486329.63
1761263.0,1677486329.671
1761256.0,1677486329.708
1761089.0,1677486329.749
1760922.0,1677486329.79
1761177.0,1677486329.829
1761132.0,1677486329.869
1761199.0,1677486329.911
1761414.0,1677486329.95
1761570.0,1677486329.99
1761868.0,1677486330.031
1761856.0,1677486330.068
1762252.0,1677486330.109
1762662.0,1677486330.151
1763102.0,1677486330.189
1763352.0,1677486330.23
1763655.0,1677486330.271
1763935.0,1677486330.31
1764505.0,1677486330.351
1765023.0,1677486330.392
1765403.0,1677486330.429
1765835.0,1677486330.469
1765743.0,1677486330.51
1765308.0,1677486330.55
1765325.0,1677486330.59
1764974.0,1677486330.631
1764776.0,1677486330.67
1765183.0,1677486330.711
1765410.0,1677486330.753
1765569.0,1677486330.789
1765755.0,1677486330.829
1766101.0,1677486330.87
1766587.0,1677486330.91
1766900.0,1677486330.951
1767234.0,1677486330.991
1767616.0,1677486331.03
1768052.0,1677486331.071
1768347.0,1677486331.112
1768706.0,1677486331.15
1769144.0,1677486331.19
1769534.0,1677486331.231
1769756.0,1677486331.27
1770547.0,1677486331.31
1770414.0,1677486331.351
1770300.0,1677486331.39
1769869.0,1677486331.43
1769445.0,1677486331.471
1769149.0,1677486331.508
1769003.0,1677486331.549
1768686.0,1677486331.591
1768619.0,1677486331.63
1768356.0,1677486331.669
1768266.0,1677486331.711
1768125.0,1677486331.75
1768300.0,1677486331.831
1768149.0,1677486331.79
1768303.0,1677486331.871
1768686.0,1677486331.911
1768654.0,1677486331.953
1768996.0,1677486331.991
1768936.0,1677486332.032
1769235.0,1677486332.071
1769465.0,1677486332.11
1769226.0,1677486332.151
1768601.0,1677486332.192
1767939.0,1677486332.231
1767227.0,1677486332.271
1766788.0,1677486332.312
1765676.0,1677486332.431
1765910.0,1677486332.392
1765200.0,1677486332.47
1766119.0,1677486332.352
1764716.0,1677486332.552
1764752.0,1677486332.59
1764760.0,1677486332.63
1764923.0,1677486332.51
1765002.0,1677486332.711
1764741.0,1677486332.671
1764944.0,1677486332.752
1765119.0,1677486332.792
1765221.0,1677486332.831
1765475.0,1677486332.872
1763948.0,1677486332.99
1763351.0,1677486333.032
1764776.0,1677486332.951
1765413.0,1677486332.913
1762100.0,1677486333.111
1762602.0,1677486333.071
1761692.0,1677486333.153
1760891.0,1677486333.232
1761313.0,1677486333.192
1760670.0,1677486333.271
1760285.0,1677486333.311
1760214.0,1677486333.352
1760131.0,1677486333.392
1760094.0,1677486333.431
1760247.0,1677486333.513
1760056.0,1677486333.472
1760202.0,1677486333.553
1760489.0,1677486333.632
1760232.0,1677486333.592
1760445.0,1677486333.671
1758015.0,1677486333.791
1760066.0,1677486333.711
1759064.0,1677486333.752
1757322.0,1677486333.831
1756076.0,1677486333.911
1756729.0,1677486333.872
1755588.0,1677486333.952
1755066.0,1677486334.032
1755395.0,1677486333.993
1754555.0,1677486334.154
1754577.0,1677486334.115
1754593.0,1677486334.074
1754541.0,1677486334.232
1754582.0,1677486334.271
1754566.0,1677486334.191
1755087.0,1677486334.391
1754778.0,1677486334.312
1754788.0,1677486334.353
1755187.0,1677486334.432
1754755.0,1677486334.473
1753753.0,1677486334.512
1753035.0,1677486334.553
1752270.0,1677486334.594
1751752.0,1677486334.633
1751200.0,1677486334.673
1750583.0,1677486334.752
1750917.0,1677486334.712
1750333.0,1677486334.792
1750093.0,1677486334.872
1750153.0,1677486334.833
1750105.0,1677486334.913
1750382.0,1677486334.955
1750300.0,1677486334.993
1750529.0,1677486335.033
1750514.0,1677486335.072
1750860.0,1677486335.112
1751290.0,1677486335.153
1751609.0,1677486335.193
1751526.0,1677486335.233
1751017.0,1677486335.273
1750168.0,1677486335.314
1749365.0,1677486335.354
1748839.0,1677486335.392
1748353.0,1677486335.433
1747996.0,1677486335.472
1747833.0,1677486335.512
1747408.0,1677486335.554
1747300.0,1677486335.592
1747420.0,1677486335.632
1747341.0,1677486335.674
1747582.0,1677486335.713
1747891.0,1677486335.754
1748031.0,1677486335.794
1748488.0,1677486335.833
1748486.0,1677486335.874
1748887.0,1677486335.913
1749044.0,1677486335.953
1749747.0,1677486335.992
1750171.0,1677486336.034
1749700.0,1677486336.073
1749204.0,1677486336.113
1748875.0,1677486336.155
1748223.0,1677486336.194
1747677.0,1677486336.273
1747699.0,1677486336.312
1747612.0,1677486336.353
1747353.0,1677486336.394
1748174.0,1677486336.234
1747527.0,1677486336.423
1748300.0,1677486336.544
1748438.0,1677486336.583
1748646.0,1677486336.624
1749046.0,1677486336.663
1749300.0,1677486336.704
1747850.0,1677486336.463
1747931.0,1677486336.504
1750589.0,1677486336.824
1751228.0,1677486336.865
1751123.0,1677486336.904
1750097.0,1677486336.784
1750407.0,1677486336.987
1750257.0,1677486337.026
1750109.0,1677486337.066
1749952.0,1677486337.107
1750058.0,1677486337.147
1750799.0,1677486336.946
1749789.0,1677486337.186
1749785.0,1677486336.745
1750176.0,1677486337.267
1750040.0,1677486337.228
1750424.0,1677486337.307
1750660.0,1677486337.348
1750987.0,1677486337.387
1751418.0,1677486337.427
1751756.0,1677486337.468
1752014.0,1677486337.508
1752401.0,1677486337.549
1753267.0,1677486337.626
1752746.0,1677486337.587
1753690.0,1677486337.666
1754154.0,1677486337.708
1754258.0,1677486337.748
1754012.0,1677486337.787
1753508.0,1677486337.868
1753760.0,1677486337.828
1753364.0,1677486337.908
1753298.0,1677486337.948
1753351.0,1677486337.986
1753287.0,1677486338.027
1753286.0,1677486338.068
1753232.0,1677486338.107
1753373.0,1677486338.148
1753355.0,1677486338.189
1754911.0,1677486338.387
1754088.0,1677486338.266
1754177.0,1677486338.308
1753892.0,1677486338.228
1754536.0,1677486338.347
1755553.0,1677486338.468
1755262.0,1677486338.428
1756209.0,1677486338.549
1756026.0,1677486338.508
1756012.0,1677486338.587
1755874.0,1677486338.628
1755502.0,1677486338.669
1755363.0,1677486338.708
1755148.0,1677486338.749
1755139.0,1677486338.788
1755247.0,1677486338.827
1755000.0,1677486338.867
1754953.0,1677486338.908
1755007.0,1677486338.948
1754960.0,1677486338.988
1755179.0,1677486339.029
1755068.0,1677486339.068
1755376.0,1677486339.149
1755418.0,1677486339.109
1755835.0,1677486339.228
1755473.0,1677486339.188
1756234.0,1677486339.308
1756038.0,1677486339.269
1756277.0,1677486339.349
1756058.0,1677486339.39
1755807.0,1677486339.429
1755883.0,1677486339.467
1755848.0,1677486339.508
1755967.0,1677486339.548
1755971.0,1677486339.588
1755865.0,1677486339.629
1755795.0,1677486339.668
1755673.0,1677486339.709
1755659.0,1677486339.75
1755776.0,1677486339.788
1755856.0,1677486339.828
1755798.0,1677486339.87
1755787.0,1677486339.909
1755834.0,1677486339.988
1755269.0,1677486340.028
1755800.0,1677486339.95
1754719.0,1677486340.068
1753976.0,1677486340.109
1753504.0,1677486340.149
1752771.0,1677486340.189
1752167.0,1677486340.269
1751549.0,1677486340.308
1752559.0,1677486340.23
1751206.0,1677486340.35
1750970.0,1677486340.388
1750479.0,1677486340.428
1750329.0,1677486340.47
1750259.0,1677486340.509
1750142.0,1677486340.55
1750082.0,1677486340.59
1750093.0,1677486340.629
1749934.0,1677486340.67
1749087.0,1677486340.709
1748326.0,1677486340.749
1747434.0,1677486340.788
1746519.0,1677486340.83
1746175.0,1677486340.869
1745548.0,1677486340.909
1744921.0,1677486340.951
1744167.0,1677486341.03
1743768.0,1677486341.069
1744444.0,1677486340.989
1743765.0,1677486341.108
1743536.0,1677486341.149
1743372.0,1677486341.19
1743543.0,1677486341.311
1743464.0,1677486341.229
1743511.0,1677486341.351
1742995.0,1677486341.39
1743492.0,1677486341.269
1742027.0,1677486341.429
1741002.0,1677486341.468
1739885.0,1677486341.509
1739119.0,1677486341.55
1738072.0,1677486341.628
1738463.0,1677486341.588
1737674.0,1677486341.67
1737406.0,1677486341.709
1737231.0,1677486341.75
1737001.0,1677486341.79
1737054.0,1677486341.83
1737083.0,1677486341.87
1736987.0,1677486341.911
1737193.0,1677486341.951
1737457.0,1677486341.988
1737725.0,1677486342.03
1738295.0,1677486342.151
1737954.0,1677486342.19
1737705.0,1677486342.069
1738365.0,1677486342.109
1737170.0,1677486342.23
1736121.0,1677486342.271
1735192.0,1677486342.311
1734394.0,1677486342.349
1733912.0,1677486342.39
1733713.0,1677486342.429
1733517.0,1677486342.469
1733444.0,1677486342.511
1733507.0,1677486342.551
1733731.0,1677486342.59
1733811.0,1677486342.632
1734237.0,1677486342.671
1734493.0,1677486342.709
1735121.0,1677486342.751
1735569.0,1677486342.789
1736194.0,1677486342.829
1736726.0,1677486342.87
1737416.0,1677486342.909
1738223.0,1677486342.95
1738858.0,1677486342.991
1739623.0,1677486343.03
1740252.0,1677486343.071
1740180.0,1677486343.112
1739557.0,1677486343.152
1739236.0,1677486343.189
1738682.0,1677486343.231
1738452.0,1677486343.27
1738208.0,1677486343.31
1738423.0,1677486343.351
1738831.0,1677486343.39
1738943.0,1677486343.43
1739210.0,1677486343.471
1739682.0,1677486343.51
1740238.0,1677486343.551
1740915.0,1677486343.592
1741352.0,1677486343.631
1741974.0,1677486343.671
1742579.0,1677486343.711
1743179.0,1677486343.75
1743982.0,1677486343.79
1744430.0,1677486343.831
1744962.0,1677486343.871
1745733.0,1677486343.911
1746483.0,1677486343.953
1747130.0,1677486343.991
1747383.0,1677486344.032
1746953.0,1677486344.071
1746776.0,1677486344.11
1746412.0,1677486344.151
1746116.0,1677486344.192
1745984.0,1677486344.231
1745992.0,1677486344.271
1746171.0,1677486344.31
1746093.0,1677486344.35
1746166.0,1677486344.39
1746280.0,1677486344.431
1746446.0,1677486344.47
1746842.0,1677486344.51
1747117.0,1677486344.552
1747846.0,1677486344.63
1747416.0,1677486344.59
1748047.0,1677486344.671
1748671.0,1677486344.711
1749183.0,1677486344.752
1749607.0,1677486344.792
1750013.0,1677486344.831
1750712.0,1677486344.872
1751138.0,1677486344.913
1751505.0,1677486344.953
1751405.0,1677486344.99
1751036.0,1677486345.032
1750990.0,1677486345.071
1750650.0,1677486345.111
1750457.0,1677486345.153
1750647.0,1677486345.192
1750718.0,1677486345.232
1750587.0,1677486345.273
1750912.0,1677486345.312
1750968.0,1677486345.351
1751442.0,1677486345.392
1751593.0,1677486345.431
1751985.0,1677486345.471
1752407.0,1677486345.512
1752796.0,1677486345.552
1753264.0,1677486345.592
1753634.0,1677486345.633
1754196.0,1677486345.672
1754640.0,1677486345.711
1755316.0,1677486345.753
1755854.0,1677486345.791
1756405.0,1677486345.831
1756279.0,1677486345.872
1756245.0,1677486345.911
1755952.0,1677486345.952
1756041.0,1677486345.993
1755875.0,1677486346.032
1755991.0,1677486346.072
1756029.0,1677486346.114
1756105.0,1677486346.153
1756423.0,1677486346.191
1756400.0,1677486346.232
1756607.0,1677486346.271
1757124.0,1677486346.312
1757438.0,1677486346.353
1757944.0,1677486346.391
1758296.0,1677486346.432
1758798.0,1677486346.473
1759091.0,1677486346.512
1759719.0,1677486346.553
1760199.0,1677486346.594
1760707.0,1677486346.633
1761307.0,1677486346.673
1761362.0,1677486346.712
1761508.0,1677486346.752
1761291.0,1677486346.792
1760981.0,1677486346.833
1760907.0,1677486346.87
1760899.0,1677486346.911
1760971.0,1677486346.953
1761013.0,1677486346.991
1760964.0,1677486347.031
1761119.0,1677486347.073
1761262.0,1677486347.112
1761692.0,1677486347.153
1761880.0,1677486347.194
1762211.0,1677486347.233
1763038.0,1677486347.314
1762546.0,1677486347.273
1763274.0,1677486347.354
1763676.0,1677486347.392
1764093.0,1677486347.433
1764608.0,1677486347.472
1764693.0,1677486347.512
1764629.0,1677486347.554
1764228.0,1677486347.592
1763955.0,1677486347.632
1763381.0,1677486347.754
1763770.0,1677486347.674
1763609.0,1677486347.713
1763413.0,1677486347.794
1763464.0,1677486347.833
1763396.0,1677486347.874
1763698.0,1677486347.953
1763613.0,1677486347.913
1763806.0,1677486347.992
1763928.0,1677486348.034
1764099.0,1677486348.073
1764374.0,1677486348.113
1764572.0,1677486348.155
1764565.0,1677486348.194
1765055.0,1677486348.234
1765104.0,1677486348.273
1764836.0,1677486348.312
1764110.0,1677486348.353
1763489.0,1677486348.394
1763220.0,1677486348.431
1762625.0,1677486348.471
1762332.0,1677486348.512
1761908.0,1677486348.552
1761674.0,1677486348.591
1761432.0,1677486348.632
1761396.0,1677486348.671
1761176.0,1677486348.711
1761397.0,1677486348.753
1761344.0,1677486348.832
1761374.0,1677486348.792
1761396.0,1677486348.873
1761459.0,1677486348.912
1761569.0,1677486348.954
1761733.0,1677486348.995
1761564.0,1677486349.034
1760782.0,1677486349.074
1760009.0,1677486349.115
1759067.0,1677486349.155
1758092.0,1677486349.194
1757620.0,1677486349.236
1757124.0,1677486349.275
1756455.0,1677486349.315
1755988.0,1677486349.356
1755509.0,1677486349.395
1755194.0,1677486349.433
1754958.0,1677486349.474
1754987.0,1677486349.513
1754783.0,1677486349.553
1754745.0,1677486349.594
1754550.0,1677486349.634
1754314.0,1677486349.674
1754581.0,1677486349.715
1754526.0,1677486349.755
1753616.0,1677486349.794
1751748.0,1677486349.875
1752567.0,1677486349.835
1750786.0,1677486349.915
1749862.0,1677486349.957
1749153.0,1677486349.995
1748613.0,1677486350.036
1747960.0,1677486350.077
1747518.0,1677486350.114
1747389.0,1677486350.155
1747435.0,1677486350.196
1747377.0,1677486350.235
1747360.0,1677486350.275
1747394.0,1677486350.317
1747462.0,1677486350.356
1747522.0,1677486350.396
1747421.0,1677486350.437
1747624.0,1677486350.474
1747473.0,1677486350.515
1746501.0,1677486350.557
1745307.0,1677486350.595
1744074.0,1677486350.635
1742880.0,1677486350.677
1741860.0,1677486350.716
1741007.0,1677486350.757
1740321.0,1677486350.797
1739567.0,1677486350.835
1738886.0,1677486350.875
1738147.0,1677486350.916
1737581.0,1677486350.956
1737154.0,1677486350.996
1736854.0,1677486351.037
1736536.0,1677486351.076
1736498.0,1677486351.117
1736247.0,1677486351.157
1736162.0,1677486351.195
1735919.0,1677486351.236
1735765.0,1677486351.277
1734569.0,1677486351.316
1732981.0,1677486351.357
1731493.0,1677486351.398
1730376.0,1677486351.437
1729016.0,1677486351.475
1728187.0,1677486351.516
1727387.0,1677486351.556
1726345.0,1677486351.596
1725497.0,1677486351.637
1724990.0,1677486351.676
1724390.0,1677486351.716
1723860.0,1677486351.758
1723670.0,1677486351.796
1723415.0,1677486351.836
1723205.0,1677486351.878
1722748.0,1677486351.917
1722732.0,1677486351.958
1722595.0,1677486351.996
1722629.0,1677486352.035
1721195.0,1677486352.075
1719746.0,1677486352.117
1718333.0,1677486352.156
1717016.0,1677486352.195
1715019.0,1677486352.276
1715870.0,1677486352.237
1714322.0,1677486352.316
1713604.0,1677486352.357
1713310.0,1677486352.396
1712855.0,1677486352.436
1712520.0,1677486352.477
1712269.0,1677486352.517
1712264.0,1677486352.558
1711969.0,1677486352.598
1712154.0,1677486352.637
1712206.0,1677486352.678
1712348.0,1677486352.717
1712689.0,1677486352.757
1712380.0,1677486352.796
1711317.0,1677486352.838
1710154.0,1677486352.877
1709188.0,1677486352.917
1708286.0,1677486352.959
1707576.0,1677486352.997
1707053.0,1677486353.038
1706682.0,1677486353.077
1706340.0,1677486353.116
1706042.0,1677486353.157
1705991.0,1677486353.198
1705992.0,1677486353.237
1706129.0,1677486353.277
1706536.0,1677486353.319
1706592.0,1677486353.358
1707166.0,1677486353.398
1707502.0,1677486353.437
1707957.0,1677486353.476
1708532.0,1677486353.517
1708449.0,1677486353.558
1707908.0,1677486353.596
1706460.0,1677486353.678
1707039.0,1677486353.636
1705931.0,1677486353.717
1705642.0,1677486353.758
1705705.0,1677486353.798
1705810.0,1677486353.838
1705845.0,1677486353.878
1706271.0,1677486353.919
1706461.0,1677486353.959
1707018.0,1677486353.996
1707552.0,1677486354.038
1708344.0,1677486354.077
1709132.0,1677486354.117
1709922.0,1677486354.159
1710592.0,1677486354.198
1711371.0,1677486354.238
1712153.0,1677486354.279
1712364.0,1677486354.319
1712152.0,1677486354.357
1711920.0,1677486354.398
1711834.0,1677486354.437
1711936.0,1677486354.477
1712089.0,1677486354.519
1712480.0,1677486354.556
1712599.0,1677486354.597
1713145.0,1677486354.638
1713578.0,1677486354.677
1714333.0,1677486354.717
1714831.0,1677486354.759
1715453.0,1677486354.797
1716239.0,1677486354.837
1716845.0,1677486354.878
1717571.0,1677486354.917
1718217.0,1677486354.958
1718665.0,1677486354.999
1718366.0,1677486355.038
1718257.0,1677486355.078
1717989.0,1677486355.12
1717982.0,1677486355.16
1718098.0,1677486355.197
1718382.0,1677486355.238
1718571.0,1677486355.278
1718766.0,1677486355.318
1719183.0,1677486355.359
1719384.0,1677486355.397
1719960.0,1677486355.438
1721004.0,1677486355.518
1720256.0,1677486355.479
1722328.0,1677486355.6
1723138.0,1677486355.639
1721616.0,1677486355.559
1723220.0,1677486355.679
1723012.0,1677486355.718
1723150.0,1677486355.758
1723097.0,1677486355.839
1722992.0,1677486355.798
1724086.0,1677486355.961
1723418.0,1677486355.878
1723715.0,1677486355.919
1724444.0,1677486355.999
1725880.0,1677486356.118
1726637.0,1677486356.159
1725458.0,1677486356.079
1727318.0,1677486356.2
1724869.0,1677486356.039
1727893.0,1677486356.239
1728828.0,1677486356.279
1729451.0,1677486356.32
1729388.0,1677486356.36
1729208.0,1677486356.439
1729456.0,1677486356.519
1729579.0,1677486356.56
1729201.0,1677486356.398
1729381.0,1677486356.478
1729786.0,1677486356.598
1730131.0,1677486356.638
1730396.0,1677486356.68
1730901.0,1677486356.719
1731377.0,1677486356.76
1732537.0,1677486356.84
1731913.0,1677486356.8
1733269.0,1677486356.88
1733692.0,1677486356.919
1734390.0,1677486356.959
1734927.0,1677486356.999
1735601.0,1677486357.04
1735438.0,1677486357.079
1735350.0,1677486357.117
1735170.0,1677486357.159
1735028.0,1677486357.197
1735131.0,1677486357.238
1735188.0,1677486357.28
1735587.0,1677486357.318
1735882.0,1677486357.359
1736421.0,1677486357.4
1736829.0,1677486357.439
1737257.0,1677486357.479
1738042.0,1677486357.52
1738626.0,1677486357.56
1739142.0,1677486357.6
1739883.0,1677486357.641
1740825.0,1677486357.68
1741353.0,1677486357.719
1742288.0,1677486357.761
1743209.0,1677486357.799
1744124.0,1677486357.839
1744441.0,1677486357.88
1744588.0,1677486357.919
1744724.0,1677486357.96
1744533.0,1677486358.001
1744579.0,1677486358.04
1744700.0,1677486358.08
1744960.0,1677486358.121
1745447.0,1677486358.161
1745566.0,1677486358.199
1746163.0,1677486358.24
1746530.0,1677486358.279
1746935.0,1677486358.32
1747474.0,1677486358.361
1748091.0,1677486358.399
1748732.0,1677486358.439
1749123.0,1677486358.481
1749680.0,1677486358.52
1750311.0,1677486358.561
1750872.0,1677486358.601
1751371.0,1677486358.641
1752042.0,1677486358.681
1752796.0,1677486358.72
1753206.0,1677486358.76
1753687.0,1677486358.8
1753533.0,1677486358.841
1753159.0,1677486358.88
1753007.0,1677486358.92
1752418.0,1677486358.962
1752016.0,1677486359.001
1752160.0,1677486359.041
1752074.0,1677486359.08
1752068.0,1677486359.119
1752130.0,1677486359.16
1752203.0,1677486359.201
1752365.0,1677486359.24
1752269.0,1677486359.281
1752638.0,1677486359.322
1752730.0,1677486359.362
1752989.0,1677486359.401
1753384.0,1677486359.441
1753761.0,1677486359.48
1754097.0,1677486359.52
1754391.0,1677486359.561
1754855.0,1677486359.6
1755302.0,1677486359.64
1755814.0,1677486359.686
1756113.0,1677486359.726
1756206.0,1677486359.763
1755727.0,1677486359.803
1755209.0,1677486359.84
1754719.0,1677486359.88
1754107.0,1677486359.921
1753812.0,1677486359.961
1753385.0,1677486360.001
1753083.0,1677486360.042
1753081.0,1677486360.081
1752655.0,1677486360.122
1752579.0,1677486360.163
1752547.0,1677486360.2
1752455.0,1677486360.24
1752420.0,1677486360.281
1752543.0,1677486360.321
1752513.0,1677486360.362
1752527.0,1677486360.402
1752624.0,1677486360.441
1752624.0,1677486360.481
1752898.0,1677486360.522
1752981.0,1677486360.562
1753167.0,1677486360.601
1753539.0,1677486360.643
1753333.0,1677486360.682
1752512.0,1677486360.722
1751964.0,1677486360.763
1751335.0,1677486360.802
1750798.0,1677486360.842
1750282.0,1677486360.883
1749997.0,1677486360.923
1749618.0,1677486360.964
1749338.0,1677486361.005
1749274.0,1677486361.043
1748910.0,1677486361.084
1748803.0,1677486361.125
1748987.0,1677486361.165
1748763.0,1677486361.204
1748926.0,1677486361.246
1749101.0,1677486361.285
1749368.0,1677486361.325
1749701.0,1677486361.366
1750471.0,1677486361.405
1751043.0,1677486361.445
1751850.0,1677486361.486
1752690.0,1677486361.525
1753031.0,1677486361.564
1752870.0,1677486361.605
1752630.0,1677486361.644
1752275.0,1677486361.684
1752042.0,1677486361.726
1751703.0,1677486361.766
1751561.0,1677486361.805
1751371.0,1677486361.847
1751152.0,1677486361.886
1751004.0,1677486361.924
1750900.0,1677486361.966
1750955.0,1677486362.004
1750705.0,1677486362.045
1750810.0,1677486362.086
1750915.0,1677486362.125
1750833.0,1677486362.166
1750728.0,1677486362.243
1751026.0,1677486362.283
1750776.0,1677486362.207
1751228.0,1677486362.365
1750843.0,1677486362.404
1750303.0,1677486362.445
1749681.0,1677486362.485
1750913.0,1677486362.325
1748952.0,1677486362.525
1748314.0,1677486362.566
1747976.0,1677486362.605
1747598.0,1677486362.645
1747388.0,1677486362.686
1746942.0,1677486362.725
1746627.0,1677486362.766
1746130.0,1677486362.807
1746054.0,1677486362.846
1745592.0,1677486362.886
1745423.0,1677486362.926
1745410.0,1677486362.965
1745265.0,1677486363.005
1745294.0,1677486363.046
1745393.0,1677486363.086
1745263.0,1677486363.126
1745548.0,1677486363.168
1745486.0,1677486363.206
1744597.0,1677486363.245
1743720.0,1677486363.286
1742985.0,1677486363.325
1742136.0,1677486363.366
1741738.0,1677486363.407
1741346.0,1677486363.446
1741193.0,1677486363.486
1740595.0,1677486363.527
1740499.0,1677486363.567
1740368.0,1677486363.605
1740522.0,1677486363.646
1740662.0,1677486363.685
1740748.0,1677486363.726
1741164.0,1677486363.767
1741734.0,1677486363.845
1741925.0,1677486363.887
1742158.0,1677486363.926
1741464.0,1677486363.805
1741888.0,1677486363.967
1741307.0,1677486364.008
1740536.0,1677486364.047
1739544.0,1677486364.087
1738857.0,1677486364.126
1738376.0,1677486364.166
1738141.0,1677486364.206
1737779.0,1677486364.247
1737370.0,1677486364.286
1737066.0,1677486364.327
1736999.0,1677486364.368
1736764.0,1677486364.406
1736667.0,1677486364.446
1736567.0,1677486364.488
1736746.0,1677486364.527
1736778.0,1677486364.568
1736775.0,1677486364.606
1736629.0,1677486364.646
1735872.0,1677486364.686
1734760.0,1677486364.727
1733863.0,1677486364.767
1732929.0,1677486364.805
1732163.0,1677486364.847
1731706.0,1677486364.886
1731387.0,1677486364.926
1730834.0,1677486364.968
1730440.0,1677486365.006
1730078.0,1677486365.046
1730177.0,1677486365.088
1729853.0,1677486365.127
1729864.0,1677486365.168
1729841.0,1677486365.209
1729829.0,1677486365.248
1729876.0,1677486365.286
1729322.0,1677486365.327
1728309.0,1677486365.367
1726972.0,1677486365.407
1725916.0,1677486365.448
1725053.0,1677486365.487
1724631.0,1677486365.527
1724112.0,1677486365.568
1723875.0,1677486365.607
1723484.0,1677486365.647
1723427.0,1677486365.688
1723198.0,1677486365.728
1723500.0,1677486365.769
1723651.0,1677486365.807
1723821.0,1677486365.846
1724031.0,1677486365.887
1724285.0,1677486365.928
1724474.0,1677486365.968
1723816.0,1677486366.007
1722692.0,1677486366.049
1721623.0,1677486366.088
1720971.0,1677486366.128
1720253.0,1677486366.168
1719837.0,1677486366.207
1719740.0,1677486366.247
1719671.0,1677486366.288
1719649.0,1677486366.327
1719679.0,1677486366.368
1719975.0,1677486366.409
1720158.0,1677486366.448
1720600.0,1677486366.488
1721113.0,1677486366.528
1721668.0,1677486366.567
1722099.0,1677486366.607
1722504.0,1677486366.648
1722978.0,1677486366.688
1722417.0,1677486366.728
1721668.0,1677486366.769
1720494.0,1677486366.807
1719806.0,1677486366.848
1719417.0,1677486366.889
1719379.0,1677486366.928
1719294.0,1677486366.969
1719730.0,1677486367.01
1719630.0,1677486367.047
1720132.0,1677486367.087
1720607.0,1677486367.128
1721323.0,1677486367.168
1721909.0,1677486367.208
1722841.0,1677486367.249
1723734.0,1677486367.288
1724403.0,1677486367.329
1725312.0,1677486367.371
1726445.0,1677486367.409
1727431.0,1677486367.449
1728285.0,1677486367.488
1729361.0,1677486367.527
1729398.0,1677486367.568
1728915.0,1677486367.609
1728734.0,1677486367.648
1728184.0,1677486367.688
1727753.0,1677486367.73
1727717.0,1677486367.769
1727736.0,1677486367.809
1728139.0,1677486367.848
1728625.0,1677486367.887
1729076.0,1677486367.928
1729788.0,1677486367.97
1730492.0,1677486368.008
1731425.0,1677486368.049
1732250.0,1677486368.09
1732986.0,1677486368.129
1733824.0,1677486368.17
1734730.0,1677486368.208
1735739.0,1677486368.248
1736555.0,1677486368.288
1737407.0,1677486368.329
1738582.0,1677486368.369
1739355.0,1677486368.409
1740180.0,1677486368.45
1740853.0,1677486368.489
1740729.0,1677486368.53
1740290.0,1677486368.571
1739940.0,1677486368.609
1739770.0,1677486368.649
1739323.0,1677486368.691
1739255.0,1677486368.728
1739507.0,1677486368.769
1739537.0,1677486368.809
1739793.0,1677486368.848
1740101.0,1677486368.889
1740383.0,1677486368.93
1740838.0,1677486368.97
1741291.0,1677486369.01
1741812.0,1677486369.051
1742357.0,1677486369.088
1742946.0,1677486369.128
1743399.0,1677486369.17
1744113.0,1677486369.209
1744804.0,1677486369.249
1745434.0,1677486369.29
1746105.0,1677486369.33
1746886.0,1677486369.371
1747654.0,1677486369.411
1748146.0,1677486369.448
1747743.0,1677486369.488
1747419.0,1677486369.53
1746977.0,1677486369.57
1746521.0,1677486369.609
1746544.0,1677486369.65
1746260.0,1677486369.69
1746263.0,1677486369.73
1746573.0,1677486369.771
1746574.0,1677486369.81
1746880.0,1677486369.85
1747033.0,1677486369.891
1747370.0,1677486369.927
1748028.0,1677486369.968
1748435.0,1677486370.008
1748830.0,1677486370.047
1749509.0,1677486370.087
1749920.0,1677486370.13
1750296.0,1677486370.169
1751020.0,1677486370.209
1751502.0,1677486370.25
1752040.0,1677486370.289
1752668.0,1677486370.329
1752477.0,1677486370.371
1752270.0,1677486370.409
1751976.0,1677486370.449
1751469.0,1677486370.491
1751464.0,1677486370.53
1751132.0,1677486370.571
1751122.0,1677486370.611
1751159.0,1677486370.651
1750975.0,1677486370.691
1750986.0,1677486370.73
1751109.0,1677486370.77
1751447.0,1677486370.809
1751704.0,1677486370.851
1751756.0,1677486370.89
1751971.0,1677486370.93
1752308.0,1677486370.972
1752568.0,1677486371.011
1752883.0,1677486371.051
1753371.0,1677486371.09
1753689.0,1677486371.129
1754142.0,1677486371.17
1754082.0,1677486371.211
1753573.0,1677486371.25
1752982.0,1677486371.291
1752467.0,1677486371.332
1752200.0,1677486371.372
1751940.0,1677486371.409
1751886.0,1677486371.451
1751724.0,1677486371.49
1751606.0,1677486371.53
1751623.0,1677486371.571
1751739.0,1677486371.61
1751964.0,1677486371.65
1752244.0,1677486371.691
1752311.0,1677486371.73
1752604.0,1677486371.771
1752930.0,1677486371.812
1753174.0,1677486371.851
1753272.0,1677486371.891
1753583.0,1677486371.931
1753559.0,1677486371.97
1753154.0,1677486372.01
1752707.0,1677486372.051
1752120.0,1677486372.091
1751692.0,1677486372.131
1751501.0,1677486372.173
1751305.0,1677486372.211
1751135.0,1677486372.25
1751276.0,1677486372.291
1751010.0,1677486372.33
1751353.0,1677486372.371
1751203.0,1677486372.412
1751574.0,1677486372.451
1751786.0,1677486372.49
1751874.0,1677486372.529
1752260.0,1677486372.568
1752348.0,1677486372.607
1752552.0,1677486372.646
1752114.0,1677486372.685
1751619.0,1677486372.724
1751023.0,1677486372.763
1750482.0,1677486372.802
1750142.0,1677486372.841
1749971.0,1677486372.88
1749726.0,1677486372.919
1749672.0,1677486372.958
1749810.0,1677486372.997
1750145.0,1677486373.036
1750623.0,1677486373.075
1751227.0,1677486373.114
1751829.0,1677486373.153
1752309.0,1677486373.192
1752925.0,1677486373.231
1753246.0,1677486373.27
1753314.0,1677486373.309
1752981.0,1677486373.348
1752141.0,1677486373.387
1751332.0,1677486373.426
1750875.0,1677486373.465
1750176.0,1677486373.504
1749678.0,1677486373.543
1749116.0,1677486373.582
1748879.0,1677486373.621
1748349.0,1677486373.66
1748117.0,1677486373.699
1748318.0,1677486373.738
1748238.0,1677486373.777
1748331.0,1677486373.816
1748824.0,1677486373.855
1748852.0,1677486373.894
1748582.0,1677486373.933
1747817.0,1677486373.972
1746991.0,1677486374.011
1746288.0,1677486374.05
1745702.0,1677486374.089
1745156.0,1677486374.128
1744978.0,1677486374.167
1744917.0,1677486374.206
1744850.0,1677486374.245
1745011.0,1677486374.284
1745109.0,1677486374.323
1745528.0,1677486374.362
1746030.0,1677486374.401
1746555.0,1677486374.44
1747150.0,1677486374.479
1747780.0,1677486374.518
1748114.0,1677486374.557
1747573.0,1677486374.596
1747043.0,1677486374.635
1746276.0,1677486374.674
1745759.0,1677486374.713
1745245.0,1677486374.752
1745348.0,1677486374.791
1745362.0,1677486374.83
1745459.0,1677486374.869
1745756.0,1677486374.909
1745882.0,1677486374.949
1746308.0,1677486374.989
1746881.0,1677486375.029
1747376.0,1677486375.069
1748168.0,1677486375.109
1748839.0,1677486375.149
1749539.0,1677486375.189
1750274.0,1677486375.229
1750861.0,1677486375.269
1751722.0,1677486375.309
1752112.0,1677486375.349
1751815.0,1677486375.389
1751239.0,1677486375.429
1750881.0,1677486375.469
1750326.0,1677486375.509
1750220.0,1677486375.549
1750144.0,1677486375.589
1750358.0,1677486375.629
1750630.0,1677486375.669
1750906.0,1677486375.709
1751383.0,1677486375.749
1751972.0,1677486375.789
1752790.0,1677486375.829
1753387.0,1677486375.869
1754418.0,1677486375.909
1754999.0,1677486375.949
1756121.0,1677486375.989
1756877.0,1677486376.029
1757826.0,1677486376.069
1758778.0,1677486376.109
