bvp,time
-410.56,1625051401.453125
-368.43,1625051401.46875
-314.45,1625051401.484375
-257.09,1625051401.5
-205.58,1625051401.515625
-167.26,1625051401.53125
-145.15,1625051401.546875
-136.63,1625051401.5625
-134.31,1625051401.578125
-128.67,1625051401.59375
-111.79,1625051401.609375
-80.26,1625051401.625
-36.03,1625051401.640625
14.76,1625051401.65625
64.18,1625051401.671875
104.7,1625051401.6875
130.36,1625051401.703125
137.22,1625051401.71875
123.68,1625051401.734375
91.19,1625051401.75
44.78,1625051401.765625
-7.53,1625051401.78125
-56.91,1625051401.796875
-96.86,1625051401.8125
-125.55,1625051401.828125
-145.92,1625051401.84375
-163.6,1625051401.859375
-183.73,1625051401.875
-208.56,1625051401.890625
-236.57,1625051401.90625
-264.27,1625051401.921875
-288.17,1625051401.9375
-306.0,1625051401.953125
-316.76,1625051401.96875
-320.01,1625051401.984375
-315.46,1625051402.0
-303.25,1625051402.015625
-284.42,1625051402.03125
-260.85,1625051402.046875
-235.3,1625051402.0625
-210.76,1625051402.078125
-189.44,1625051402.09375
-172.16,1625051402.109375
-158.39,1625051402.125
-146.72,1625051402.140625
-135.54,1625051402.15625
-123.71,1625051402.171875
-110.05,1625051402.1875
-94.37,1625051402.203125
-77.46,1625051402.21875
-60.67,1625051402.234375
-45.09,1625051402.25
-31.01,1625051402.265625
-17.76,1625051402.28125
-4.12,1625051402.296875
11.28,1625051402.3125
31.57,1625051402.328125
58.77,1625051402.34375
92.84,1625051402.359375
131.95,1625051402.375
173.72,1625051402.390625
216.46,1625051402.40625
259.37,1625051402.421875
302.31,1625051402.4375
345.29,1625051402.453125
392.44,1625051402.46875
446.45,1625051402.484375
506.88,1625051402.5
570.42,1625051402.515625
633.14,1625051402.53125
692.19,1625051402.546875
745.79,1625051402.5625
792.38,1625051402.578125
829.88,1625051402.59375
862.72,1625051402.609375
893.75,1625051402.625
921.84,1625051402.640625
942.36,1625051402.65625
950.74,1625051402.671875
945.22,1625051402.6875
926.73,1625051402.703125
897.41,1625051402.71875
858.67,1625051402.734375
819.9,1625051402.75
787.61,1625051402.765625
762.17,1625051402.78125
738.8,1625051402.796875
712.66,1625051402.8125
682.42,1625051402.828125
650.26,1625051402.84375
619.62,1625051402.859375
539.48,1625051402.875
387.17,1625051402.890625
176.59,1625051402.90625
-48.62,1625051402.921875
-245.75,1625051402.9375
-394.22,1625051402.953125
-494.41,1625051402.96875
-556.52,1625051402.984375
-592.25,1625051403.0
-612.05,1625051403.015625
-617.62,1625051403.03125
-608.77,1625051403.046875
-588.64,1625051403.0625
-564.99,1625051403.078125
-545.77,1625051403.09375
-536.62,1625051403.109375
-540.11,1625051403.125
-547.26,1625051403.140625
-552.01,1625051403.15625
-544.37,1625051403.171875
-519.64,1625051403.1875
-479.91,1625051403.203125
-432.35,1625051403.21875
-383.96,1625051403.234375
-339.49,1625051403.25
-300.36,1625051403.265625
-265.79,1625051403.28125
-235.63,1625051403.296875
-205.14,1625051403.3125
-170.99,1625051403.328125
-132.64,1625051403.34375
-96.21,1625051403.359375
-62.71,1625051403.375
-32.8,1625051403.390625
-6.08,1625051403.40625
18.51,1625051403.421875
41.02,1625051403.4375
63.57,1625051403.453125
87.16,1625051403.46875
111.55,1625051403.484375
135.15,1625051403.5
156.67,1625051403.515625
174.57,1625051403.53125
187.97,1625051403.546875
196.23,1625051403.5625
197.56,1625051403.578125
195.58,1625051403.59375
191.57,1625051403.609375
186.1,1625051403.625
179.17,1625051403.640625
171.09,1625051403.65625
161.76,1625051403.671875
151.37,1625051403.6875
140.37,1625051403.703125
128.98,1625051403.71875
117.59,1625051403.734375
106.03,1625051403.75
94.42,1625051403.765625
83.0,1625051403.78125
72.33,1625051403.796875
62.56,1625051403.8125
53.76,1625051403.828125
46.05,1625051403.84375
39.39,1625051403.859375
33.89,1625051403.875
29.1,1625051403.890625
24.82,1625051403.90625
20.97,1625051403.921875
17.65,1625051403.9375
14.78,1625051403.953125
12.33,1625051403.96875
10.29,1625051403.984375
8.68,1625051404.0
7.54,1625051404.015625
6.57,1625051404.03125
5.58,1625051404.046875
4.49,1625051404.0625
3.34,1625051404.078125
2.13,1625051404.09375
0.92,1625051404.109375
-0.23,1625051404.125
-1.28,1625051404.140625
-2.19,1625051404.15625
-3.07,1625051404.171875
-3.92,1625051404.1875
-4.68,1625051404.203125
-5.22,1625051404.21875
-5.38,1625051404.234375
-5.03,1625051404.25
-4.14,1625051404.265625
-2.75,1625051404.28125
-1.05,1625051404.296875
0.7,1625051404.3125
2.24,1625051404.328125
3.47,1625051404.34375
4.37,1625051404.359375
5.03,1625051404.375
5.54,1625051404.390625
5.81,1625051404.40625
5.57,1625051404.421875
4.34,1625051404.4375
1.57,1625051404.453125
-3.12,1625051404.46875
-9.76,1625051404.484375
-17.92,1625051404.5
-26.89,1625051404.515625
-35.9,1625051404.53125
-44.5,1625051404.546875
-52.78,1625051404.5625
-61.38,1625051404.578125
-71.17,1625051404.59375
-82.77,1625051404.609375
-96.12,1625051404.625
-110.42,1625051404.640625
-124.37,1625051404.65625
-136.82,1625051404.671875
-147.38,1625051404.6875
-156.78,1625051404.703125
-166.74,1625051404.71875
-179.28,1625051404.734375
-195.81,1625051404.75
-216.47,1625051404.765625
-240.02,1625051404.78125
-264.38,1625051404.796875
-287.74,1625051404.8125
-309.42,1625051404.828125
-330.29,1625051404.84375
-352.28,1625051404.859375
-377.4,1625051404.875
-406.99,1625051404.890625
-441.27,1625051404.90625
-479.76,1625051404.921875
-521.49,1625051404.9375
-564.67,1625051404.953125
-605.93,1625051404.96875
-640.26,1625051404.984375
-662.4,1625051405.0
-669.33,1625051405.015625
-662.4,1625051405.03125
-647.16,1625051405.046875
-630.52,1625051405.0625
-616.7,1625051405.078125
-604.51,1625051405.09375
-587.85,1625051405.109375
-559.58,1625051405.125
-516.15,1625051405.140625
-460.15,1625051405.15625
-398.98,1625051405.171875
-340.6,1625051405.1875
-289.15,1625051405.203125
-243.22,1625051405.21875
-197.69,1625051405.234375
-147.72,1625051405.25
-92.19,1625051405.265625
-34.54,1625051405.28125
19.32,1625051405.296875
64.38,1625051405.3125
99.35,1625051405.328125
127.39,1625051405.34375
154.58,1625051405.359375
187.06,1625051405.375
228.21,1625051405.390625
277.68,1625051405.40625
332.09,1625051405.421875
386.76,1625051405.4375
437.3,1625051405.453125
480.03,1625051405.46875
511.58,1625051405.484375
528.48,1625051405.5
527.82,1625051405.515625
508.79,1625051405.53125
473.87,1625051405.546875
428.4,1625051405.5625
378.02,1625051405.578125
326.12,1625051405.59375
273.02,1625051405.609375
217.88,1625051405.625
162.21,1625051405.640625
112.76,1625051405.65625
80.75,1625051405.671875
77.34,1625051405.6875
107.42,1625051405.703125
165.04,1625051405.71875
233.7,1625051405.734375
291.72,1625051405.75
320.3,1625051405.765625
310.77,1625051405.78125
267.76,1625051405.796875
207.01,1625051405.8125
148.97,1625051405.828125
111.81,1625051405.84375
105.57,1625051405.859375
130.32,1625051405.875
177.65,1625051405.890625
234.32,1625051405.90625
286.62,1625051405.921875
323.67,1625051405.9375
339.61,1625051405.953125
334.16,1625051405.96875
311.92,1625051405.984375
280.51,1625051406.0
247.95,1625051406.015625
219.82,1625051406.03125
197.84,1625051406.046875
180.39,1625051406.0625
164.06,1625051406.078125
145.98,1625051406.09375
124.87,1625051406.109375
100.38,1625051406.125
71.6,1625051406.140625
37.04,1625051406.15625
-3.5,1625051406.171875
-46.39,1625051406.1875
-83.05,1625051406.203125
-102.55,1625051406.21875
-96.78,1625051406.234375
-65.61,1625051406.25
-18.37,1625051406.265625
29.49,1625051406.28125
63.46,1625051406.296875
76.16,1625051406.3125
69.65,1625051406.328125
53.01,1625051406.34375
36.4,1625051406.359375
25.83,1625051406.375
21.13,1625051406.390625
17.58,1625051406.40625
9.66,1625051406.421875
-5.75,1625051406.4375
-28.21,1625051406.453125
-55.02,1625051406.46875
-83.14,1625051406.484375
-111.02,1625051406.5
-139.0,1625051406.515625
-168.91,1625051406.53125
-203.0,1625051406.546875
-243.14,1625051406.5625
-290.7,1625051406.578125
-346.47,1625051406.59375
-410.07,1625051406.609375
-479.08,1625051406.625
-548.26,1625051406.640625
-609.94,1625051406.65625
-655.72,1625051406.671875
-679.23,1625051406.6875
-678.55,1625051406.703125
-656.91,1625051406.71875
-621.3,1625051406.734375
-579.59,1625051406.75
-537.93,1625051406.765625
-499.41,1625051406.78125
-464.64,1625051406.796875
-433.17,1625051406.8125
-404.73,1625051406.828125
-379.52,1625051406.84375
-357.62,1625051406.859375
-338.32,1625051406.875
-320.04,1625051406.890625
-300.99,1625051406.90625
-280.03,1625051406.921875
-257.3,1625051406.9375
-234.0,1625051406.953125
-211.87,1625051406.96875
-192.24,1625051406.984375
-175.41,1625051407.0
-160.61,1625051407.015625
-146.33,1625051407.03125
-131.07,1625051407.046875
-113.95,1625051407.0625
-95.04,1625051407.078125
-75.3,1625051407.09375
-56.06,1625051407.109375
-38.51,1625051407.125
-23.18,1625051407.140625
-9.9,1625051407.15625
2.06,1625051407.171875
13.5,1625051407.1875
24.99,1625051407.203125
36.56,1625051407.21875
47.73,1625051407.234375
57.81,1625051407.25
66.17,1625051407.265625
72.46,1625051407.28125
76.75,1625051407.296875
79.38,1625051407.3125
80.75,1625051407.328125
81.13,1625051407.34375
80.55,1625051407.359375
78.84,1625051407.375
75.73,1625051407.390625
71.01,1625051407.40625
64.67,1625051407.421875
56.89,1625051407.4375
48.05,1625051407.453125
38.6,1625051407.46875
28.99,1625051407.484375
19.6,1625051407.5
10.69,1625051407.515625
2.42,1625051407.53125
-5.08,1625051407.546875
-11.69,1625051407.5625
-17.28,1625051407.578125
-21.73,1625051407.59375
-24.92,1625051407.609375
-26.78,1625051407.625
-27.34,1625051407.640625
-26.7,1625051407.65625
-25.01,1625051407.671875
-22.47,1625051407.6875
-19.22,1625051407.703125
-15.3,1625051407.71875
-10.7,1625051407.734375
-5.4,1625051407.75
0.58,1625051407.765625
7.07,1625051407.78125
13.78,1625051407.796875
20.35,1625051407.8125
26.5,1625051407.828125
32.13,1625051407.84375
37.46,1625051407.859375
42.9,1625051407.875
48.96,1625051407.890625
55.96,1625051407.90625
63.92,1625051407.921875
72.44,1625051407.9375
80.85,1625051407.953125
88.53,1625051407.96875
95.16,1625051407.984375
100.98,1625051408.0
106.73,1625051408.015625
113.34,1625051408.03125
121.55,1625051408.046875
131.47,1625051408.0625
142.52,1625051408.078125
153.58,1625051408.09375
163.58,1625051408.109375
172.1,1625051408.125
179.69,1625051408.140625
187.78,1625051408.15625
198.1,1625051408.171875
211.84,1625051408.1875
229.05,1625051408.203125
248.55,1625051408.21875
268.36,1625051408.234375
286.72,1625051408.25
302.82,1625051408.265625
317.23,1625051408.28125
331.59,1625051408.296875
347.96,1625051408.3125
368.22,1625051408.328125
393.61,1625051408.34375
424.46,1625051408.359375
459.75,1625051408.375
496.64,1625051408.390625
530.22,1625051408.40625
553.95,1625051408.421875
561.18,1625051408.4375
547.28,1625051408.453125
511.72,1625051408.46875
458.69,1625051408.484375
396.01,1625051408.5
332.77,1625051408.515625
276.5,1625051408.53125
231.6,1625051408.546875
199.12,1625051408.5625
177.72,1625051408.578125
165.01,1625051408.59375
158.44,1625051408.609375
155.39,1625051408.625
152.75,1625051408.640625
146.62,1625051408.65625
132.78,1625051408.671875
108.07,1625051408.6875
72.08,1625051408.703125
28.87,1625051408.71875
-13.11,1625051408.734375
-43.38,1625051408.75
-53.79,1625051408.765625
-42.87,1625051408.78125
-17.79,1625051408.796875
7.83,1625051408.8125
19.82,1625051408.828125
10.43,1625051408.84375
-17.81,1625051408.859375
-53.36,1625051408.875
-81.77,1625051408.890625
-92.5,1625051408.90625
-83.5,1625051408.921875
-60.7,1625051408.9375
-33.84,1625051408.953125
-11.62,1625051408.96875
0.85,1625051408.984375
1.44,1625051409.0
-10.89,1625051409.015625
-37.03,1625051409.03125
-76.04,1625051409.046875
-122.76,1625051409.0625
-167.36,1625051409.078125
-198.43,1625051409.09375
-208.25,1625051409.109375
-197.52,1625051409.125
-175.87,1625051409.140625
-157.61,1625051409.15625
-154.7,1625051409.171875
-171.31,1625051409.1875
-203.04,1625051409.203125
-240.36,1625051409.21875
-274.14,1625051409.234375
-299.26,1625051409.25
-314.78,1625051409.265625
-321.13,1625051409.28125
-317.62,1625051409.296875
-302.18,1625051409.3125
-273.82,1625051409.328125
-235.16,1625051409.34375
-193.0,1625051409.359375
-155.85,1625051409.375
-129.93,1625051409.390625
-116.15,1625051409.40625
-109.9,1625051409.421875
-103.57,1625051409.4375
-90.17,1625051409.453125
-65.98,1625051409.46875
-30.85,1625051409.484375
13.25,1625051409.5
63.35,1625051409.515625
115.45,1625051409.53125
163.92,1625051409.546875
201.54,1625051409.5625
221.64,1625051409.578125
221.54,1625051409.59375
205.09,1625051409.609375
182.16,1625051409.625
164.66,1625051409.640625
161.11,1625051409.65625
173.06,1625051409.671875
194.96,1625051409.6875
217.52,1625051409.703125
232.41,1625051409.71875
235.72,1625051409.734375
228.68,1625051409.75
216.28,1625051409.765625
205.09,1625051409.78125
201.38,1625051409.796875
209.88,1625051409.8125
232.53,1625051409.828125
267.4,1625051409.84375
308.44,1625051409.859375
346.6,1625051409.875
372.75,1625051409.890625
380.56,1625051409.90625
368.27,1625051409.921875
338.43,1625051409.9375
296.13,1625051409.953125
246.72,1625051409.96875
194.41,1625051409.984375
142.0,1625051410.0
91.14,1625051410.015625
42.91,1625051410.03125
-1.58,1625051410.046875
-40.45,1625051410.0625
-70.69,1625051410.078125
-88.23,1625051410.09375
-89.59,1625051410.109375
-74.12,1625051410.125
-46.14,1625051410.140625
-14.89,1625051410.15625
8.38,1625051410.171875
15.22,1625051410.1875
3.93,1625051410.203125
-19.66,1625051410.21875
-45.3,1625051410.234375
-63.76,1625051410.25
-71.21,1625051410.265625
-70.28,1625051410.28125
-67.4,1625051410.296875
-68.31,1625051410.3125
-74.83,1625051410.328125
-84.77,1625051410.34375
-94.32,1625051410.359375
-101.11,1625051410.375
-105.45,1625051410.390625
-109.34,1625051410.40625
-114.19,1625051410.421875
-119.13,1625051410.4375
-121.0,1625051410.453125
-115.99,1625051410.46875
-102.17,1625051410.484375
-81.06,1625051410.5
-57.63,1625051410.515625
-38.52,1625051410.53125
-29.33,1625051410.546875
-32.21,1625051410.5625
-45.36,1625051410.578125
-64.21,1625051410.59375
-84.03,1625051410.609375
-102.33,1625051410.625
-119.48,1625051410.640625
-137.2,1625051410.65625
-155.88,1625051410.671875
-172.64,1625051410.6875
-181.98,1625051410.703125
-178.69,1625051410.71875
-161.4,1625051410.734375
-134.2,1625051410.75
-104.99,1625051410.765625
-81.39,1625051410.78125
-66.72,1625051410.796875
-58.48,1625051410.8125
-50.12,1625051410.828125
-34.82,1625051410.84375
-9.39,1625051410.859375
24.05,1625051410.875
59.04,1625051410.890625
87.77,1625051410.90625
104.26,1625051410.921875
106.36,1625051410.9375
95.85,1625051410.953125
77.16,1625051410.96875
55.72,1625051410.984375
36.92,1625051411.0
25.07,1625051411.015625
22.63,1625051411.03125
29.34,1625051411.046875
42.25,1625051411.0625
56.33,1625051411.078125
66.39,1625051411.09375
69.54,1625051411.109375
66.47,1625051411.125
60.78,1625051411.140625
56.64,1625051411.15625
56.07,1625051411.171875
57.5,1625051411.1875
56.67,1625051411.203125
49.01,1625051411.21875
32.12,1625051411.234375
7.04,1625051411.25
-22.49,1625051411.265625
-51.46,1625051411.28125
-74.89,1625051411.296875
-88.46,1625051411.3125
-88.65,1625051411.328125
-73.39,1625051411.34375
-43.48,1625051411.359375
-4.11,1625051411.375
35.26,1625051411.390625
63.05,1625051411.40625
69.96,1625051411.421875
53.48,1625051411.4375
20.09,1625051411.453125
-16.52,1625051411.46875
-40.9,1625051411.484375
-42.71,1625051411.5
-20.97,1625051411.515625
16.36,1625051411.53125
57.18,1625051411.546875
91.8,1625051411.5625
116.76,1625051411.578125
134.13,1625051411.59375
147.9,1625051411.609375
160.13,1625051411.625
169.82,1625051411.640625
175.29,1625051411.65625
177.37,1625051411.671875
180.75,1625051411.6875
192.01,1625051411.703125
215.34,1625051411.71875
248.83,1625051411.734375
284.37,1625051411.75
310.82,1625051411.765625
319.01,1625051411.78125
305.66,1625051411.796875
274.01,1625051411.8125
231.57,1625051411.828125
186.59,1625051411.84375
145.0,1625051411.859375
109.03,1625051411.875
77.66,1625051411.890625
48.15,1625051411.90625
17.69,1625051411.921875
-15.15,1625051411.9375
-50.34,1625051411.953125
-87.03,1625051411.96875
-124.52,1625051411.984375
-163.2,1625051412.0
-204.99,1625051412.015625
-252.92,1625051412.03125
-310.02,1625051412.046875
-377.53,1625051412.0625
-453.11,1625051412.078125
-530.41,1625051412.09375
-600.13,1625051412.109375
-652.67,1625051412.125
-681.46,1625051412.140625
-685.19,1625051412.15625
-667.98,1625051412.171875
-637.42,1625051412.1875
-601.34,1625051412.203125
-565.22,1625051412.21875
-531.33,1625051412.234375
-499.63,1625051412.25
-469.33,1625051412.265625
-440.12,1625051412.28125
-412.18,1625051412.296875
-385.56,1625051412.3125
-359.52,1625051412.328125
-332.65,1625051412.34375
-303.73,1625051412.359375
-272.65,1625051412.375
-240.56,1625051412.390625
-209.18,1625051412.40625
-179.82,1625051412.421875
-152.39,1625051412.4375
-125.31,1625051412.453125
-96.3,1625051412.46875
-63.65,1625051412.484375
-27.18,1625051412.5
11.56,1625051412.515625
49.89,1625051412.53125
85.36,1625051412.546875
116.75,1625051412.5625
144.85,1625051412.578125
172.19,1625051412.59375
202.28,1625051412.609375
238.46,1625051412.625
282.29,1625051412.640625
332.1,1625051412.65625
382.2,1625051412.671875
423.67,1625051412.6875
447.16,1625051412.703125
446.78,1625051412.71875
423.37,1625051412.734375
385.47,1625051412.75
346.89,1625051412.765625
321.78,1625051412.78125
319.38,1625051412.796875
340.91,1625051412.8125
379.69,1625051412.828125
424.1,1625051412.84375
461.98,1625051412.859375
484.65,1625051412.875
488.97,1625051412.890625
477.07,1625051412.90625
454.43,1625051412.921875
427.04,1625051412.9375
399.12,1625051412.953125
372.06,1625051412.96875
344.62,1625051412.984375
314.35,1625051413.0
279.08,1625051413.015625
237.82,1625051413.03125
190.97,1625051413.046875
140.14,1625051413.0625
88.17,1625051413.078125
39.0,1625051413.09375
-2.8,1625051413.109375
-33.51,1625051413.125
-52.03,1625051413.140625
-60.77,1625051413.15625
-65.06,1625051413.171875
-70.8,1625051413.1875
-81.93,1625051413.203125
-99.44,1625051413.21875
-121.94,1625051413.234375
-147.08,1625051413.25
-172.37,1625051413.265625
-195.13,1625051413.28125
-212.35,1625051413.296875
-221.06,1625051413.3125
-219.76,1625051413.328125
-209.73,1625051413.34375
-195.35,1625051413.359375
-182.64,1625051413.375
-176.6,1625051413.390625
-179.25,1625051413.40625
-189.01,1625051413.421875
-201.8,1625051413.4375
-212.64,1625051413.453125
-217.14,1625051413.46875
-212.46,1625051413.484375
-197.81,1625051413.5
-174.96,1625051413.515625
-148.11,1625051413.53125
-122.57,1625051413.546875
-102.28,1625051413.5625
-87.72,1625051413.578125
-75.75,1625051413.59375
-61.66,1625051413.609375
-42.6,1625051413.625
-19.39,1625051413.640625
4.03,1625051413.65625
23.12,1625051413.671875
35.57,1625051413.6875
42.26,1625051413.703125
45.9,1625051413.71875
48.79,1625051413.734375
51.04,1625051413.75
50.68,1625051413.765625
45.18,1625051413.78125
33.08,1625051413.796875
14.62,1625051413.8125
-9.1,1625051413.828125
-36.98,1625051413.84375
-68.41,1625051413.859375
-102.61,1625051413.875
-137.4,1625051413.890625
-168.55,1625051413.90625
-190.44,1625051413.921875
-197.81,1625051413.9375
-187.58,1625051413.953125
-160.29,1625051413.96875
-120.48,1625051413.984375
-75.83,1625051414.0
-35.27,1625051414.015625
-6.45,1625051414.03125
6.62,1625051414.046875
4.68,1625051414.0625
-7.36,1625051414.078125
-22.46,1625051414.09375
-34.1,1625051414.109375
-38.23,1625051414.125
-33.95,1625051414.140625
-22.69,1625051414.15625
-7.7,1625051414.171875
8.17,1625051414.1875
23.0,1625051414.203125
36.13,1625051414.21875
48.02,1625051414.234375
59.6,1625051414.25
71.35,1625051414.265625
82.66,1625051414.28125
91.94,1625051414.296875
96.45,1625051414.3125
94.65,1625051414.328125
87.35,1625051414.34375
78.1,1625051414.359375
71.78,1625051414.375
71.88,1625051414.390625
78.13,1625051414.40625
86.2,1625051414.421875
90.32,1625051414.4375
85.02,1625051414.453125
70.04,1625051414.46875
50.46,1625051414.484375
34.8,1625051414.5
31.56,1625051414.515625
45.94,1625051414.53125
77.86,1625051414.546875
122.15,1625051414.5625
171.99,1625051414.578125
215.84,1625051414.59375
245.67,1625051414.609375
257.43,1625051414.625
252.47,1625051414.640625
237.04,1625051414.65625
219.78,1625051414.671875
207.92,1625051414.6875
203.66,1625051414.703125
206.6,1625051414.71875
204.47,1625051414.734375
189.34,1625051414.75
158.43,1625051414.765625
116.25,1625051414.78125
73.1,1625051414.796875
40.36,1625051414.8125
25.2,1625051414.828125
27.37,1625051414.84375
45.59,1625051414.859375
62.68,1625051414.875
68.34,1625051414.890625
56.39,1625051414.90625
26.28,1625051414.921875
-17.54,1625051414.9375
-67.52,1625051414.953125
-115.32,1625051414.96875
-153.9,1625051414.984375
-170.94,1625051415.0
-172.46,1625051415.015625
-158.24,1625051415.03125
-128.79,1625051415.046875
-84.6,1625051415.0625
-26.0,1625051415.078125
45.93,1625051415.09375
127.71,1625051415.109375
163.2,1625051415.125
200.5,1625051415.140625
218.18,1625051415.15625
207.14,1625051415.171875
166.22,1625051415.1875
103.85,1625051415.203125
35.76,1625051415.21875
-20.62,1625051415.234375
-52.38,1625051415.25
-54.83,1625051415.265625
-23.92,1625051415.28125
23.17,1625051415.296875
75.85,1625051415.3125
124.89,1625051415.328125
163.66,1625051415.34375
188.14,1625051415.359375
196.58,1625051415.375
188.87,1625051415.390625
166.13,1625051415.40625
135.87,1625051415.421875
93.64,1625051415.4375
41.96,1625051415.453125
-14.37,1625051415.46875
-67.72,1625051415.484375
-108.67,1625051415.5
-129.38,1625051415.515625
-127.88,1625051415.53125
-109.84,1625051415.546875
-82.41,1625051415.5625
-59.9,1625051415.578125
-46.51,1625051415.59375
-38.55,1625051415.609375
-27.97,1625051415.625
-8.93,1625051415.640625
17.33,1625051415.65625
42.57,1625051415.671875
56.9,1625051415.6875
57.36,1625051415.703125
46.06,1625051415.71875
33.68,1625051415.734375
30.91,1625051415.75
41.67,1625051415.765625
60.49,1625051415.78125
75.36,1625051415.796875
74.41,1625051415.8125
51.96,1625051415.828125
11.27,1625051415.84375
-39.88,1625051415.859375
-92.47,1625051415.875
-141.53,1625051415.890625
-187.56,1625051415.90625
-234.26,1625051415.921875
-284.6,1625051415.9375
-337.76,1625051415.953125
-388.69,1625051415.96875
-430.53,1625051415.984375
-457.78,1625051416.0
-468.53,1625051416.015625
-464.25,1625051416.03125
-448.04,1625051416.046875
-422.19,1625051416.0625
-387.12,1625051416.078125
-342.44,1625051416.09375
-289.05,1625051416.109375
-230.68,1625051416.125
-173.47,1625051416.140625
-123.45,1625051416.15625
-83.45,1625051416.171875
-51.59,1625051416.1875
-22.67,1625051416.203125
8.19,1625051416.21875
41.92,1625051416.234375
74.14,1625051416.25
97.14,1625051416.265625
103.93,1625051416.28125
92.07,1625051416.296875
65.4,1625051416.3125
32.81,1625051416.328125
4.72,1625051416.34375
-10.27,1625051416.359375
-7.4,1625051416.375
14.06,1625051416.390625
51.52,1625051416.40625
99.7,1625051416.421875
151.13,1625051416.4375
197.06,1625051416.453125
229.3,1625051416.46875
242.91,1625051416.484375
238.26,1625051416.5
220.89,1625051416.515625
199.12,1625051416.53125
180.16,1625051416.546875
166.92,1625051416.5625
157.51,1625051416.578125
147.29,1625051416.59375
132.39,1625051416.609375
112.44,1625051416.625
90.75,1625051416.640625
72.26,1625051416.65625
60.51,1625051416.671875
55.69,1625051416.6875
54.75,1625051416.703125
53.5,1625051416.71875
48.96,1625051416.734375
40.89,1625051416.75
31.56,1625051416.765625
24.15,1625051416.78125
20.75,1625051416.796875
21.45,1625051416.8125
24.9,1625051416.828125
29.83,1625051416.84375
36.38,1625051416.859375
45.79,1625051416.875
59.12,1625051416.890625
75.52,1625051416.90625
91.49,1625051416.921875
101.83,1625051416.9375
101.71,1625051416.953125
88.71,1625051416.96875
63.46,1625051416.984375
29.27,1625051417.0
-9.67,1625051417.015625
-49.9,1625051417.03125
-89.55,1625051417.046875
-128.55,1625051417.0625
-168.52,1625051417.078125
-212.33,1625051417.09375
-263.22,1625051417.109375
-323.13,1625051417.125
-390.55,1625051417.140625
-459.15,1625051417.15625
-518.51,1625051417.171875
-557.14,1625051417.1875
-566.81,1625051417.203125
-545.96,1625051417.21875
-500.35,1625051417.234375
-440.81,1625051417.25
-378.99,1625051417.265625
-323.39,1625051417.28125
-277.31,1625051417.296875
-239.29,1625051417.3125
-205.27,1625051417.328125
-170.92,1625051417.34375
-133.1,1625051417.359375
-90.41,1625051417.375
-43.19,1625051417.390625
6.45,1625051417.40625
54.67,1625051417.421875
96.66,1625051417.4375
128.32,1625051417.453125
148.26,1625051417.46875
159.25,1625051417.484375
168.14,1625051417.5
183.68,1625051417.515625
212.86,1625051417.53125
257.3,1625051417.546875
311.62,1625051417.5625
364.74,1625051417.578125
403.8,1625051417.59375
418.86,1625051417.609375
406.25,1625051417.625
369.23,1625051417.640625
316.02,1625051417.65625
256.62,1625051417.671875
200.06,1625051417.6875
152.82,1625051417.703125
118.75,1625051417.71875
99.23,1625051417.734375
93.29,1625051417.75
97.41,1625051417.765625
105.53,1625051417.78125
110.19,1625051417.796875
105.0,1625051417.8125
87.02,1625051417.828125
58.1,1625051417.84375
24.08,1625051417.859375
-7.83,1625051417.875
-31.87,1625051417.890625
-45.71,1625051417.90625
-50.57,1625051417.921875
-49.87,1625051417.9375
-47.17,1625051417.953125
-44.69,1625051417.96875
-42.94,1625051417.984375
-41.41,1625051418.0
-39.84,1625051418.015625
-38.88,1625051418.03125
-40.0,1625051418.046875
-44.51,1625051418.0625
-52.45,1625051418.078125
-62.16,1625051418.09375
-70.78,1625051418.109375
-75.55,1625051418.125
-75.03,1625051418.140625
-69.68,1625051418.15625
-61.41,1625051418.171875
-52.12,1625051418.1875
-42.59,1625051418.203125
-31.98,1625051418.21875
-18.71,1625051418.234375
-2.05,1625051418.25
16.7,1625051418.265625
34.03,1625051418.28125
45.65,1625051418.296875
48.77,1625051418.3125
44.06,1625051418.328125
35.83,1625051418.34375
30.17,1625051418.359375
31.78,1625051418.375
41.13,1625051418.390625
53.9,1625051418.40625
62.95,1625051418.421875
62.31,1625051418.4375
50.68,1625051418.453125
32.42,1625051418.46875
15.07,1625051418.484375
5.14,1625051418.5
4.52,1625051418.515625
9.69,1625051418.53125
14.41,1625051418.546875
13.9,1625051418.5625
7.79,1625051418.578125
-0.06,1625051418.59375
-4.7,1625051418.609375
-3.86,1625051418.625
0.31,1625051418.640625
2.76,1625051418.65625
-0.57,1625051418.671875
-9.42,1625051418.6875
-18.55,1625051418.703125
-20.89,1625051418.71875
-12.28,1625051418.734375
5.09,1625051418.75
22.88,1625051418.765625
30.65,1625051418.78125
21.33,1625051418.796875
-5.2,1625051418.8125
-42.05,1625051418.828125
-78.87,1625051418.84375
-106.8,1625051418.859375
-121.84,1625051418.875
-125.33,1625051418.890625
-121.68,1625051418.90625
-115.21,1625051418.921875
-108.0,1625051418.9375
-99.97,1625051418.953125
-90.46,1625051418.96875
-80.21,1625051418.984375
-71.85,1625051419.0
-68.44,1625051419.015625
-71.01,1625051419.03125
-77.07,1625051419.046875
-81.27,1625051419.0625
-78.3,1625051419.078125
-66.17,1625051419.09375
-47.75,1625051419.109375
-29.44,1625051419.125
-17.71,1625051419.140625
-15.51,1625051419.15625
-20.72,1625051419.171875
-27.42,1625051419.1875
-28.91,1625051419.203125
-20.63,1625051419.21875
-1.64,1625051419.234375
25.7,1625051419.25
57.19,1625051419.265625
88.16,1625051419.28125
114.73,1625051419.296875
134.54,1625051419.3125
147.23,1625051419.328125
154.45,1625051419.34375
159.42,1625051419.359375
165.94,1625051419.375
177.18,1625051419.390625
194.88,1625051419.40625
218.74,1625051419.421875
246.69,1625051419.4375
275.25,1625051419.453125
299.89,1625051419.46875
315.83,1625051419.484375
318.86,1625051419.5
306.51,1625051419.515625
278.73,1625051419.53125
237.98,1625051419.546875
188.08,1625051419.5625
133.35,1625051419.578125
77.41,1625051419.59375
22.6,1625051419.609375
-30.03,1625051419.625
-80.2,1625051419.640625
-128.13,1625051419.65625
-174.76,1625051419.671875
-221.57,1625051419.6875
-271.91,1625051419.703125
-328.34,1625051419.71875
-391.05,1625051419.734375
-456.12,1625051419.75
-515.32,1625051419.765625
-558.33,1625051419.78125
-576.82,1625051419.796875
-568.14,1625051419.8125
-535.71,1625051419.828125
-489.9,1625051419.84375
-440.72,1625051419.859375
-394.5,1625051419.875
-352.06,1625051419.890625
-310.03,1625051419.90625
-264.07,1625051419.921875
-211.85,1625051419.9375
-154.16,1625051419.953125
-92.91,1625051419.96875
-34.69,1625051419.984375
14.44,1625051420.0
48.38,1625051420.015625
62.41,1625051420.03125
55.25,1625051420.046875
30.78,1625051420.0625
-2.26,1625051420.078125
-32.64,1625051420.09375
-48.59,1625051420.109375
-46.95,1625051420.125
-28.13,1625051420.140625
3.89,1625051420.15625
44.53,1625051420.171875
91.14,1625051420.1875
143.17,1625051420.203125
200.57,1625051420.21875
248.91,1625051420.234375
298.36,1625051420.25
340.64,1625051420.265625
369.98,1625051420.28125
383.3,1625051420.296875
381.45,1625051420.3125
368.79,1625051420.328125
351.3,1625051420.34375
333.9,1625051420.359375
318.34,1625051420.375
304.73,1625051420.390625
287.18,1625051420.40625
262.69,1625051420.421875
231.79,1625051420.4375
198.96,1625051420.453125
170.49,1625051420.46875
150.8,1625051420.484375
139.83,1625051420.5
132.91,1625051420.515625
124.8,1625051420.53125
108.73,1625051420.546875
83.51,1625051420.5625
52.2,1625051420.578125
20.27,1625051420.59375
-6.76,1625051420.609375
-24.92,1625051420.625
-32.11,1625051420.640625
-28.17,1625051420.65625
-14.21,1625051420.671875
4.27,1625051420.6875
20.63,1625051420.703125
28.29,1625051420.71875
23.63,1625051420.734375
8.15,1625051420.75
-12.01,1625051420.765625
-29.35,1625051420.78125
-39.22,1625051420.796875
-41.86,1625051420.8125
-42.95,1625051420.828125
-48.35,1625051420.84375
-60.47,1625051420.859375
-76.52,1625051420.875
-90.24,1625051420.890625
-96.13,1625051420.90625
-92.95,1625051420.921875
-84.46,1625051420.9375
-76.56,1625051420.953125
-73.88,1625051420.96875
-76.56,1625051420.984375
-80.72,1625051421.0
-81.34,1625051421.015625
-75.99,1625051421.03125
-66.74,1625051421.046875
-59.24,1625051421.0625
-59.34,1625051421.078125
-69.33,1625051421.09375
-86.01,1625051421.109375
-101.61,1625051421.125
-107.36,1625051421.140625
-97.78,1625051421.15625
-73.35,1625051421.171875
-40.35,1625051421.1875
-7.8,1625051421.203125
16.62,1625051421.21875
29.34,1625051421.234375
31.34,1625051421.25
26.02,1625051421.265625
16.49,1625051421.28125
3.76,1625051421.296875
-12.78,1625051421.3125
-33.57,1625051421.328125
-57.09,1625051421.34375
-79.5,1625051421.359375
-95.95,1625051421.375
-102.57,1625051421.390625
-98.13,1625051421.40625
-84.23,1625051421.421875
-64.52,1625051421.4375
-43.3,1625051421.453125
-24.46,1625051421.46875
-10.79,1625051421.484375
-3.81,1625051421.5
-3.78,1625051421.515625
-9.92,1625051421.53125
-20.61,1625051421.546875
-33.58,1625051421.5625
-46.04,1625051421.578125
-54.99,1625051421.59375
-57.68,1625051421.609375
-52.43,1625051421.625
-39.32,1625051421.640625
-20.5,1625051421.65625
0.48,1625051421.671875
20.01,1625051421.6875
35.68,1625051421.703125
46.8,1625051421.71875
53.89,1625051421.734375
57.64,1625051421.75
58.27,1625051421.765625
55.55,1625051421.78125
49.47,1625051421.796875
40.73,1625051421.8125
30.55,1625051421.828125
19.89,1625051421.84375
8.88,1625051421.859375
-2.92,1625051421.875
-15.52,1625051421.890625
-27.5,1625051421.90625
-36.15,1625051421.921875
-39.04,1625051421.9375
-36.09,1625051421.953125
-30.51,1625051421.96875
-27.7,1625051421.984375
-32.52,1625051422.0
-46.21,1625051422.015625
-65.34,1625051422.03125
-83.18,1625051422.046875
-92.65,1625051422.0625
-89.15,1625051422.078125
-71.96,1625051422.09375
-43.82,1625051422.109375
-9.64,1625051422.125
24.91,1625051422.140625
54.26,1625051422.15625
73.82,1625051422.171875
81.14,1625051422.1875
77.06,1625051422.203125
65.85,1625051422.21875
53.8,1625051422.234375
46.76,1625051422.25
47.62,1625051422.265625
55.42,1625051422.28125
66.42,1625051422.296875
76.19,1625051422.3125
81.25,1625051422.328125
79.63,1625051422.34375
70.72,1625051422.359375
55.27,1625051422.375
35.86,1625051422.390625
17.33,1625051422.40625
5.97,1625051422.421875
7.06,1625051422.4375
21.68,1625051422.453125
44.81,1625051422.46875
66.53,1625051422.484375
75.91,1625051422.5
66.3,1625051422.515625
38.64,1625051422.53125
1.12,1625051422.546875
-34.69,1625051422.5625
-59.21,1625051422.578125
-68.78,1625051422.59375
-66.25,1625051422.609375
-58.22,1625051422.625
-50.76,1625051422.640625
-46.14,1625051422.65625
-42.23,1625051422.671875
-34.72,1625051422.6875
-20.31,1625051422.703125
0.88,1625051422.71875
25.25,1625051422.734375
47.72,1625051422.75
64.16,1625051422.765625
72.45,1625051422.78125
72.33,1625051422.796875
64.14,1625051422.8125
48.09,1625051422.828125
24.31,1625051422.84375
-6.22,1625051422.859375
-41.22,1625051422.875
-77.4,1625051422.890625
-111.51,1625051422.90625
-141.41,1625051422.921875
-165.9,1625051422.9375
-184.22,1625051422.953125
-194.94,1625051422.96875
-195.8,1625051422.984375
-184.54,1625051423.0
-159.92,1625051423.015625
-122.16,1625051423.03125
-72.33,1625051423.046875
-11.75,1625051423.0625
57.83,1625051423.078125
132.84,1625051423.09375
206.13,1625051423.109375
266.97,1625051423.125
303.72,1625051423.140625
308.73,1625051423.15625
282.68,1625051423.171875
235.6,1625051423.1875
183.02,1625051423.203125
139.02,1625051423.21875
109.93,1625051423.234375
92.36,1625051423.25
76.52,1625051423.265625
52.41,1625051423.28125
15.54,1625051423.296875
-31.27,1625051423.3125
-79.94,1625051423.328125
-121.31,1625051423.34375
-148.25,1625051423.359375
-156.93,1625051423.375
-146.44,1625051423.390625
-118.49,1625051423.40625
-77.82,1625051423.421875
-32.23,1625051423.4375
8.44,1625051423.453125
35.5,1625051423.46875
45.07,1625051423.484375
40.12,1625051423.5
29.21,1625051423.515625
22.15,1625051423.53125
25.33,1625051423.546875
38.84,1625051423.5625
57.16,1625051423.578125
72.64,1625051423.59375
79.52,1625051423.609375
76.41,1625051423.625
66.34,1625051423.640625
54.71,1625051423.65625
46.78,1625051423.671875
45.9,1625051423.6875
52.88,1625051423.703125
66.45,1625051423.71875
83.83,1625051423.734375
101.42,1625051423.75
115.09,1625051423.765625
120.62,1625051423.78125
114.57,1625051423.796875
95.59,1625051423.8125
65.61,1625051423.828125
30.18,1625051423.84375
-2.51,1625051423.859375
-24.23,1625051423.875
-29.66,1625051423.890625
-18.57,1625051423.90625
4.04,1625051423.921875
29.97,1625051423.9375
51.23,1625051423.953125
63.13,1625051423.96875
65.59,1625051423.984375
62.3,1625051424.0
58.28,1625051424.015625
57.17,1625051424.03125
59.44,1625051424.046875
62.43,1625051424.0625
61.89,1625051424.078125
54.39,1625051424.09375
39.1,1625051424.109375
18.4,1625051424.125
-3.28,1625051424.140625
-21.41,1625051424.15625
-33.38,1625051424.171875
-39.22,1625051424.1875
-41.07,1625051424.203125
-41.66,1625051424.21875
-42.77,1625051424.234375
-44.75,1625051424.25
-47.09,1625051424.265625
-49.68,1625051424.28125
-53.59,1625051424.296875
-60.84,1625051424.3125
-73.17,1625051424.328125
-90.69,1625051424.34375
-111.31,1625051424.359375
-131.4,1625051424.375
-147.45,1625051424.390625
-157.54,1625051424.40625
-161.87,1625051424.421875
-162.37,1625051424.4375
-161.23,1625051424.453125
-159.47,1625051424.46875
-156.29,1625051424.484375
-149.52,1625051424.5
-137.18,1625051424.515625
-119.31,1625051424.53125
-99.18,1625051424.546875
-82.79,1625051424.5625
-76.67,1625051424.578125
-84.86,1625051424.59375
-106.62,1625051424.609375
-136.16,1625051424.625
-164.71,1625051424.640625
-183.86,1625051424.65625
-188.68,1625051424.671875
-178.88,1625051424.6875
-157.97,1625051424.703125
-131.05,1625051424.71875
-102.65,1625051424.734375
-75.57,1625051424.75
-50.88,1625051424.765625
-28.65,1625051424.78125
-8.82,1625051424.796875
7.9,1625051424.8125
19.44,1625051424.828125
22.38,1625051424.84375
13.12,1625051424.859375
-9.84,1625051424.875
-43.9,1625051424.890625
-82.0,1625051424.90625
-114.63,1625051424.921875
-133.6,1625051424.9375
-135.59,1625051424.953125
-123.09,1625051424.96875
-102.54,1625051424.984375
-80.4,1625051425.0
-59.99,1625051425.015625
-40.67,1625051425.03125
-19.53,1625051425.046875
5.58,1625051425.0625
34.19,1625051425.078125
63.19,1625051425.09375
88.79,1625051425.109375
108.55,1625051425.125
122.37,1625051425.140625
131.79,1625051425.15625
138.34,1625051425.171875
142.3,1625051425.1875
142.63,1625051425.203125
137.95,1625051425.21875
127.92,1625051425.234375
113.94,1625051425.25
98.91,1625051425.265625
86.16,1625051425.28125
78.16,1625051425.296875
75.89,1625051425.3125
78.63,1625051425.328125
84.35,1625051425.34375
90.02,1625051425.359375
92.0,1625051425.375
86.75,1625051425.390625
71.9,1625051425.40625
47.56,1625051425.421875
17.34,1625051425.4375
-11.97,1625051425.453125
-32.51,1625051425.46875
-38.45,1625051425.484375
-28.7,1625051425.5
-7.71,1625051425.515625
16.12,1625051425.53125
34.01,1625051425.546875
40.42,1625051425.5625
35.41,1625051425.578125
24.34,1625051425.59375
15.41,1625051425.609375
16.02,1625051425.625
29.62,1625051425.640625
54.2,1625051425.65625
82.89,1625051425.671875
106.33,1625051425.6875
115.87,1625051425.703125
106.74,1625051425.71875
79.87,1625051425.734375
41.87,1625051425.75
2.87,1625051425.765625
-27.01,1625051425.78125
-41.32,1625051425.796875
-39.24,1625051425.8125
-25.05,1625051425.828125
-5.27,1625051425.84375
14.87,1625051425.859375
33.34,1625051425.875
51.0,1625051425.890625
69.08,1625051425.90625
86.61,1625051425.921875
99.6,1625051425.9375
102.75,1625051425.953125
92.58,1625051425.96875
69.89,1625051425.984375
40.05,1625051426.0
10.69,1625051426.015625
-11.8,1625051426.03125
-24.93,1625051426.046875
-30.69,1625051426.0625
-33.71,1625051426.078125
-38.28,1625051426.09375
-46.04,1625051426.109375
-55.28,1625051426.125
-62.11,1625051426.140625
-62.88,1625051426.15625
-56.13,1625051426.171875
-43.57,1625051426.1875
-29.29,1625051426.203125
-18.2,1625051426.21875
-14.07,1625051426.234375
-18.45,1625051426.25
-30.46,1625051426.265625
-47.2,1625051426.28125
-64.63,1625051426.296875
-78.54,1625051426.3125
-85.67,1625051426.328125
-84.79,1625051426.34375
-77.37,1625051426.359375
-67.12,1625051426.375
-58.34,1625051426.390625
-53.93,1625051426.40625
-53.91,1625051426.421875
-55.64,1625051426.4375
-55.48,1625051426.453125
-50.95,1625051426.46875
-42.18,1625051426.484375
-31.73,1625051426.5
-23.3,1625051426.515625
-20.09,1625051426.53125
-23.75,1625051426.546875
-34.33,1625051426.5625
-50.52,1625051426.578125
-69.88,1625051426.59375
-88.95,1625051426.609375
-103.65,1625051426.625
-110.21,1625051426.640625
-106.76,1625051426.65625
-94.43,1625051426.671875
-77.3,1625051426.6875
-61.1,1625051426.703125
-51.08,1625051426.71875
-50.11,1625051426.734375
-57.96,1625051426.75
-71.78,1625051426.765625
-87.16,1625051426.78125
-99.77,1625051426.796875
-106.53,1625051426.8125
-106.63,1625051426.828125
-101.47,1625051426.84375
-93.98,1625051426.859375
-87.22,1625051426.875
-82.85,1625051426.890625
-80.32,1625051426.90625
-77.05,1625051426.921875
-69.87,1625051426.9375
-56.63,1625051426.953125
-37.36,1625051426.96875
-13.93,1625051426.984375
11.02,1625051427.0
35.57,1625051427.015625
58.78,1625051427.03125
80.1,1625051427.046875
98.6,1625051427.0625
112.81,1625051427.078125
121.73,1625051427.09375
126.15,1625051427.109375
129.03,1625051427.125
134.34,1625051427.140625
144.88,1625051427.15625
160.23,1625051427.171875
176.49,1625051427.1875
188.25,1625051427.203125
191.8,1625051427.21875
187.91,1625051427.234375
181.99,1625051427.25
181.36,1625051427.265625
190.8,1625051427.28125
209.45,1625051427.296875
230.4,1625051427.3125
243.66,1625051427.328125
240.55,1625051427.34375
217.13,1625051427.359375
174.56,1625051427.375
116.95,1625051427.390625
48.45,1625051427.40625
-28.09,1625051427.421875
-109.74,1625051427.4375
-190.95,1625051427.453125
-262.01,1625051427.46875
-310.6,1625051427.484375
-326.6,1625051427.5
-307.06,1625051427.515625
-258.72,1625051427.53125
-195.95,1625051427.546875
-135.17,1625051427.5625
-88.81,1625051427.578125
-61.67,1625051427.59375
-50.95,1625051427.609375
-49.34,1625051427.625
-49.15,1625051427.640625
-45.09,1625051427.65625
-35.25,1625051427.671875
-20.49,1625051427.6875
-3.29,1625051427.703125
13.41,1625051427.71875
26.98,1625051427.734375
35.78,1625051427.75
39.64,1625051427.765625
39.79,1625051427.78125
38.76,1625051427.796875
39.43,1625051427.8125
44.06,1625051427.828125
53.36,1625051427.84375
66.14,1625051427.859375
79.77,1625051427.875
91.13,1625051427.890625
98.02,1625051427.90625
100.05,1625051427.921875
99.08,1625051427.9375
98.5,1625051427.953125
101.86,1625051427.96875
111.25,1625051427.984375
126.17,1625051428.0
143.47,1625051428.015625
158.46,1625051428.03125
166.81,1625051428.046875
166.23,1625051428.0625
157.31,1625051428.078125
142.81,1625051428.09375
125.97,1625051428.109375
108.87,1625051428.125
91.6,1625051428.140625
73.09,1625051428.15625
52.71,1625051428.171875
31.74,1625051428.1875
13.53,1625051428.203125
2.03,1625051428.21875
-0.43,1625051428.234375
5.14,1625051428.25
14.58,1625051428.265625
22.5,1625051428.28125
24.99,1625051428.296875
21.6,1625051428.3125
15.28,1625051428.328125
10.54,1625051428.34375
10.61,1625051428.359375
15.5,1625051428.375
21.88,1625051428.390625
24.89,1625051428.40625
20.84,1625051428.421875
9.28,1625051428.4375
-6.7,1625051428.453125
-22.01,1625051428.46875
-32.16,1625051428.484375
-35.45,1625051428.5
-33.59,1625051428.515625
-30.5,1625051428.53125
-30.16,1625051428.546875
-34.5,1625051428.5625
-42.63,1625051428.578125
-51.59,1625051428.59375
-58.12,1625051428.609375
-60.37,1625051428.625
-58.65,1625051428.640625
-54.9,1625051428.65625
-51.48,1625051428.671875
-49.87,1625051428.6875
-50.06,1625051428.703125
-50.65,1625051428.71875
-49.73,1625051428.734375
-45.98,1625051428.75
-39.29,1625051428.765625
-31.0,1625051428.78125
-23.25,1625051428.796875
-18.04,1625051428.8125
-16.42,1625051428.828125
-18.17,1625051428.84375
-22.33,1625051428.859375
-28.24,1625051428.875
-35.99,1625051428.890625
-46.09,1625051428.90625
-58.39,1625051428.921875
-71.25,1625051428.9375
-81.57,1625051428.953125
-86.12,1625051428.96875
-83.45,1625051428.984375
-74.84,1625051429.0
-63.46,1625051429.015625
-52.56,1625051429.03125
-43.53,1625051429.046875
-35.53,1625051429.0625
-26.84,1625051429.078125
-16.9,1625051429.09375
-7.32,1625051429.109375
-1.05,1625051429.125
0.19,1625051429.140625
-1.59,1625051429.15625
-0.02,1625051429.171875
13.25,1625051429.1875
44.1,1625051429.203125
92.1,1625051429.21875
149.01,1625051429.234375
201.08,1625051429.25
234.15,1625051429.265625
238.88,1625051429.28125
213.83,1625051429.296875
164.77,1625051429.3125
101.39,1625051429.328125
33.2,1625051429.34375
-33.34,1625051429.359375
-95.29,1625051429.375
-151.71,1625051429.390625
-201.65,1625051429.40625
-243.04,1625051429.421875
-273.37,1625051429.4375
-291.11,1625051429.453125
-296.67,1625051429.46875
-292.33,1625051429.484375
-280.81,1625051429.5
-263.72,1625051429.515625
-241.05,1625051429.53125
-211.91,1625051429.546875
-175.99,1625051429.5625
-135.0,1625051429.578125
-92.67,1625051429.59375
-53.38,1625051429.609375
-20.45,1625051429.625
5.2,1625051429.640625
24.92,1625051429.65625
41.12,1625051429.671875
55.66,1625051429.6875
68.77,1625051429.703125
79.25,1625051429.71875
85.37,1625051429.734375
85.75,1625051429.75
79.69,1625051429.765625
67.2,1625051429.78125
48.81,1625051429.796875
25.22,1625051429.8125
-2.46,1625051429.828125
-32.72,1625051429.84375
-63.44,1625051429.859375
-92.02,1625051429.875
-115.56,1625051429.890625
-131.37,1625051429.90625
-137.53,1625051429.921875
-133.43,1625051429.9375
-119.8,1625051429.953125
-98.28,1625051429.96875
-70.64,1625051429.984375
-38.19,1625051430.0
-1.83,1625051430.015625
37.34,1625051430.03125
77.19,1625051430.046875
114.36,1625051430.0625
144.81,1625051430.078125
165.15,1625051430.09375
173.94,1625051430.109375
172.12,1625051430.125
162.61,1625051430.140625
149.12,1625051430.15625
135.06,1625051430.171875
122.87,1625051430.1875
113.83,1625051430.203125
108.22,1625051430.21875
105.37,1625051430.234375
103.84,1625051430.25
101.63,1625051430.265625
96.81,1625051430.28125
88.24,1625051430.296875
76.13,1625051430.3125
61.99,1625051430.328125
47.6,1625051430.34375
33.79,1625051430.359375
19.59,1625051430.375
2.64,1625051430.390625
-19.21,1625051430.40625
-46.06,1625051430.421875
-74.92,1625051430.4375
-100.27,1625051430.453125
-116.27,1625051430.46875
-119.18,1625051430.484375
-109.04,1625051430.5
-89.54,1625051430.515625
-66.4,1625051430.53125
-45.06,1625051430.546875
-28.75,1625051430.5625
-17.8,1625051430.578125
-10.18,1625051430.59375
-2.89,1625051430.609375
6.63,1625051430.625
19.49,1625051430.640625
35.15,1625051430.65625
51.83,1625051430.671875
67.44,1625051430.6875
80.43,1625051430.703125
90.31,1625051430.71875
97.47,1625051430.734375
102.7,1625051430.75
106.56,1625051430.765625
109.14,1625051430.78125
110.2,1625051430.796875
109.58,1625051430.8125
107.58,1625051430.828125
105.33,1625051430.84375
104.58,1625051430.859375
107.24,1625051430.875
114.35,1625051430.890625
125.31,1625051430.90625
137.89,1625051430.921875
149.53,1625051430.9375
159.25,1625051430.953125
168.87,1625051430.96875
182.35,1625051430.984375
203.15,1625051431.0
231.06,1625051431.015625
260.58,1625051431.03125
282.27,1625051431.046875
286.74,1625051431.0625
269.11,1625051431.078125
231.25,1625051431.09375
180.56,1625051431.109375
125.87,1625051431.125
72.88,1625051431.140625
22.1,1625051431.15625
-29.76,1625051431.171875
-85.99,1625051431.1875
-146.04,1625051431.203125
-204.19,1625051431.21875
-251.3,1625051431.234375
-278.72,1625051431.25
-282.23,1625051431.265625
-264.04,1625051431.28125
-231.97,1625051431.296875
-196.37,1625051431.3125
-166.46,1625051431.328125
-147.56,1625051431.34375
-140.57,1625051431.359375
-143.13,1625051431.375
-151.58,1625051431.390625
-162.36,1625051431.40625
-172.45,1625051431.421875
-179.08,1625051431.4375
-179.69,1625051431.453125
-172.58,1625051431.46875
-158.0,1625051431.484375
-138.75,1625051431.5
-119.59,1625051431.515625
-105.35,1625051431.53125
-98.69,1625051431.546875
-98.61,1625051431.5625
-100.76,1625051431.578125
-99.57,1625051431.59375
-90.98,1625051431.609375
-74.3,1625051431.625
-52.27,1625051431.640625
-29.34,1625051431.65625
-9.22,1625051431.671875
6.92,1625051431.6875
20.34,1625051431.703125
33.3,1625051431.71875
47.25,1625051431.734375
61.85,1625051431.75
75.39,1625051431.765625
86.17,1625051431.78125
93.66,1625051431.796875
98.69,1625051431.8125
102.66,1625051431.828125
106.1,1625051431.84375
107.99,1625051431.859375
105.97,1625051431.875
97.51,1625051431.890625
81.23,1625051431.90625
57.68,1625051431.921875
29.21,1625051431.9375
-0.76,1625051431.953125
-28.63,1625051431.96875
-51.47,1625051431.984375
-67.48,1625051432.0
-76.23,1625051432.015625
-78.43,1625051432.03125
-75.43,1625051432.046875
-68.64,1625051432.0625
-59.11,1625051432.078125
-47.4,1625051432.09375
-33.89,1625051432.109375
-19.19,1625051432.125
-4.31,1625051432.140625
9.35,1625051432.15625
20.24,1625051432.171875
27.11,1625051432.1875
29.4,1625051432.203125
27.43,1625051432.21875
22.48,1625051432.234375
16.53,1625051432.25
11.62,1625051432.265625
9.2,1625051432.28125
9.34,1625051432.296875
10.52,1625051432.3125
10.01,1625051432.328125
5.01,1625051432.34375
-6.09,1625051432.359375
-22.69,1625051432.375
-41.92,1625051432.390625
-59.58,1625051432.40625
-71.68,1625051432.421875
-75.97,1625051432.4375
-72.9,1625051432.453125
-65.33,1625051432.46875
-57.13,1625051432.484375
-51.42,1625051432.5
-49.1,1625051432.515625
-48.67,1625051432.53125
-47.26,1625051432.546875
-42.42,1625051432.5625
-33.54,1625051432.578125
-22.06,1625051432.59375
-10.43,1625051432.609375
-0.44,1625051432.625
8.04,1625051432.640625
16.77,1625051432.65625
27.87,1625051432.671875
42.16,1625051432.6875
58.25,1625051432.703125
73.02,1625051432.71875
83.17,1625051432.734375
86.82,1625051432.75
84.35,1625051432.765625
77.91,1625051432.78125
69.99,1625051432.796875
61.97,1625051432.8125
53.77,1625051432.828125
44.45,1625051432.84375
33.53,1625051432.859375
22.1,1625051432.875
12.73,1625051432.890625
8.31,1625051432.90625
10.36,1625051432.921875
17.79,1625051432.9375
26.95,1625051432.953125
33.22,1625051432.96875
32.98,1625051432.984375
25.26,1625051433.0
11.97,1625051433.015625
-3.12,1625051433.03125
-16.06,1625051433.046875
-23.91,1625051433.0625
-25.24,1625051433.078125
-20.05,1625051433.09375
-9.54,1625051433.109375
3.9,1625051433.125
16.87,1625051433.140625
25.54,1625051433.15625
26.96,1625051433.171875
20.68,1625051433.1875
9.6,1625051433.203125
-0.84,1625051433.21875
-4.94,1625051433.234375
0.45,1625051433.25
14.3,1625051433.265625
32.01,1625051433.28125
47.96,1625051433.296875
58.4,1625051433.3125
63.1,1625051433.328125
64.61,1625051433.34375
65.98,1625051433.359375
68.67,1625051433.375
71.74,1625051433.390625
73.01,1625051433.40625
71.03,1625051433.421875
66.65,1625051433.4375
62.73,1625051433.453125
62.73,1625051433.46875
68.63,1625051433.484375
79.61,1625051433.5
92.13,1625051433.515625
101.1,1625051433.53125
101.24,1625051433.546875
88.13,1625051433.5625
59.02,1625051433.578125
13.67,1625051433.59375
-44.5,1625051433.609375
-107.76,1625051433.625
-164.61,1625051433.640625
-202.62,1625051433.65625
-212.71,1625051433.671875
-193.07,1625051433.6875
-150.71,1625051433.703125
-99.05,1625051433.71875
-52.81,1625051433.734375
-22.27,1625051433.75
-10.04,1625051433.765625
-11.52,1625051433.78125
-18.43,1625051433.796875
-23.03,1625051433.8125
-20.71,1625051433.828125
-10.17,1625051433.84375
8.16,1625051433.859375
33.45,1625051433.875
64.62,1625051433.890625
99.38,1625051433.90625
133.3,1625051433.921875
160.4,1625051433.9375
175.01,1625051433.953125
174.31,1625051433.96875
159.95,1625051433.984375
137.5,1625051434.0
114.13,1625051434.015625
95.66,1625051434.03125
84.3,1625051434.046875
78.05,1625051434.0625
72.13,1625051434.078125
61.05,1625051434.09375
40.73,1625051434.109375
9.53,1625051434.125
-32.03,1625051434.140625
-82.42,1625051434.15625
-140.3,1625051434.171875
-204.63,1625051434.1875
-273.68,1625051434.203125
-343.58,1625051434.21875
-407.77,1625051434.234375
-457.96,1625051434.25
-486.72,1625051434.265625
-490.28,1625051434.28125
-470.1,1625051434.296875
-432.21,1625051434.3125
-384.56,1625051434.328125
-333.91,1625051434.34375
-283.79,1625051434.359375
-234.63,1625051434.375
-185.29,1625051434.390625
-135.19,1625051434.40625
-85.35,1625051434.421875
-37.99,1625051434.4375
4.94,1625051434.453125
43.27,1625051434.46875
79.5,1625051434.484375
118.4,1625051434.5
165.26,1625051434.515625
223.36,1625051434.53125
291.44,1625051434.546875
362.45,1625051434.5625
424.87,1625051434.578125
466.25,1625051434.59375
477.42,1625051434.609375
455.86,1625051434.625
406.21,1625051434.640625
338.13,1625051434.65625
262.69,1625051434.671875
189.42,1625051434.6875
125.08,1625051434.703125
74.08,1625051434.71875
39.2,1625051434.734375
21.6,1625051434.75
20.01,1625051434.765625
30.05,1625051434.78125
44.8,1625051434.796875
57.0,1625051434.8125
61.73,1625051434.828125
57.96,1625051434.84375
47.88,1625051434.859375
34.51,1625051434.875
19.37,1625051434.890625
1.55,1625051434.90625
-20.93,1625051434.921875
-48.53,1625051434.9375
-78.2,1625051434.953125
-103.41,1625051434.96875
-116.35,1625051434.984375
-111.05,1625051435.0
-86.06,1625051435.015625
-44.87,1625051435.03125
5.05,1625051435.046875
54.44,1625051435.0625
94.27,1625051435.078125
117.64,1625051435.09375
121.04,1625051435.109375
105.18,1625051435.125
75.09,1625051435.140625
38.88,1625051435.15625
5.3,1625051435.171875
-19.26,1625051435.1875
-32.67,1625051435.203125
-36.93,1625051435.21875
-36.48,1625051435.234375
-35.72,1625051435.25
-37.66,1625051435.265625
-43.84,1625051435.28125
-55.23,1625051435.296875
-72.72,1625051435.3125
-96.36,1625051435.328125
-123.84,1625051435.34375
-149.44,1625051435.359375
-164.79,1625051435.375
-161.58,1625051435.390625
-134.93,1625051435.40625
-85.91,1625051435.421875
-21.67,1625051435.4375
46.86,1625051435.453125
108.55,1625051435.46875
155.49,1625051435.484375
184.51,1625051435.5
196.74,1625051435.515625
195.76,1625051435.53125
185.3,1625051435.546875
167.93,1625051435.5625
145.02,1625051435.578125
117.87,1625051435.59375
88.84,1625051435.609375
61.5,1625051435.625
39.51,1625051435.640625
24.93,1625051435.65625
16.99,1625051435.671875
12.36,1625051435.6875
7.12,1625051435.703125
-0.96,1625051435.71875
-11.12,1625051435.734375
-20.22,1625051435.75
-25.07,1625051435.765625
-24.78,1625051435.78125
-21.85,1625051435.796875
-21.01,1625051435.8125
-26.64,1625051435.828125
-40.37,1625051435.84375
-60.14,1625051435.859375
-81.5,1625051435.875
-100.04,1625051435.890625
-113.36,1625051435.90625
-121.66,1625051435.921875
-126.85,1625051435.9375
-131.01,1625051435.953125
-135.32,1625051435.96875
-139.94,1625051435.984375
-144.52,1625051436.0
-148.51,1625051436.015625
-151.02,1625051436.03125
-150.47,1625051436.046875
-144.47,1625051436.0625
-130.61,1625051436.078125
-107.49,1625051436.09375
-75.55,1625051436.109375
-37.38,1625051436.125
3.13,1625051436.140625
41.99,1625051436.15625
76.05,1625051436.171875
103.32,1625051436.1875
122.8,1625051436.203125
134.31,1625051436.21875
138.35,1625051436.234375
136.39,1625051436.25
130.86,1625051436.265625
124.68,1625051436.28125
120.22,1625051436.296875
118.22,1625051436.3125
117.36,1625051436.328125
115.07,1625051436.34375
108.95,1625051436.359375
98.1,1625051436.375
83.28,1625051436.390625
65.83,1625051436.40625
46.32,1625051436.421875
23.67,1625051436.4375
-3.91,1625051436.453125
-36.91,1625051436.46875
-72.67,1625051436.484375
-105.06,1625051436.5
-126.47,1625051436.515625
-131.1,1625051436.53125
-118.09,1625051436.546875
-92.43,1625051436.5625
-63.62,1625051436.578125
-42.44,1625051436.59375
-37.51,1625051436.609375
-52.67,1625051436.625
-85.85,1625051436.640625
-129.42,1625051436.65625
-172.17,1625051436.671875
-202.83,1625051436.6875
-213.98,1625051436.703125
-204.97,1625051436.71875
-182.24,1625051436.734375
-156.46,1625051436.75
-137.77,1625051436.765625
-131.22,1625051436.78125
-134.91,1625051436.796875
-141.65,1625051436.8125
-143.11,1625051436.828125
-134.03,1625051436.84375
-114.39,1625051436.859375
-88.65,1625051436.875
-63.08,1625051436.890625
-42.76,1625051436.90625
-30.1,1625051436.921875
-24.93,1625051436.9375
-25.4,1625051436.953125
-28.87,1625051436.96875
-32.52,1625051436.984375
-33.69,1625051437.0
-30.34,1625051437.015625
-21.44,1625051437.03125
-6.97,1625051437.046875
12.87,1625051437.0625
38.53,1625051437.078125
71.33,1625051437.09375
112.53,1625051437.109375
161.5,1625051437.125
214.09,1625051437.140625
262.81,1625051437.15625
299.3,1625051437.171875
317.56,1625051437.1875
316.28,1625051437.203125
298.72,1625051437.21875
270.12,1625051437.234375
234.75,1625051437.25
194.67,1625051437.265625
150.92,1625051437.28125
105.72,1625051437.296875
63.75,1625051437.3125
30.87,1625051437.328125
11.3,1625051437.34375
5.24,1625051437.359375
8.57,1625051437.375
15.07,1625051437.390625
19.66,1625051437.40625
20.41,1625051437.421875
18.43,1625051437.4375
16.04,1625051437.453125
15.05,1625051437.46875
15.94,1625051437.484375
18.47,1625051437.5
22.65,1625051437.515625
28.86,1625051437.53125
37.21,1625051437.546875
46.62,1625051437.5625
54.35,1625051437.578125
56.74,1625051437.59375
50.68,1625051437.609375
34.99,1625051437.625
11.24,1625051437.640625
-16.4,1625051437.65625
-42.23,1625051437.671875
-60.58,1625051437.6875
-67.73,1625051437.703125
-63.23,1625051437.71875
-49.95,1625051437.734375
-32.76,1625051437.75
-16.46,1625051437.765625
-4.06,1625051437.78125
3.48,1625051437.796875
6.19,1625051437.8125
3.62,1625051437.828125
-5.49,1625051437.84375
-22.33,1625051437.859375
-46.29,1625051437.875
-74.0,1625051437.890625
-100.05,1625051437.90625
-119.41,1625051437.921875
-129.82,1625051437.9375
-132.83,1625051437.953125
-132.5,1625051437.96875
-132.62,1625051437.984375
-134.33,1625051438.0
-135.55,1625051438.015625
-132.77,1625051438.03125
-123.83,1625051438.046875
-110.02,1625051438.0625
-96.1,1625051438.078125
-88.13,1625051438.09375
-90.3,1625051438.109375
-102.49,1625051438.125
-120.03,1625051438.140625
-135.6,1625051438.15625
-142.4,1625051438.171875
-136.82,1625051438.1875
-119.17,1625051438.203125
-92.69,1625051438.21875
-61.63,1625051438.234375
-29.57,1625051438.25
0.73,1625051438.265625
26.87,1625051438.28125
46.3,1625051438.296875
56.77,1625051438.3125
57.46,1625051438.328125
50.24,1625051438.34375
39.63,1625051438.359375
31.29,1625051438.375
29.72,1625051438.390625
36.42,1625051438.40625
49.48,1625051438.421875
64.92,1625051438.4375
78.82,1625051438.453125
88.99,1625051438.46875
95.58,1625051438.484375
100.49,1625051438.5
106.15,1625051438.515625
114.36,1625051438.53125
125.78,1625051438.546875
139.85,1625051438.5625
155.22,1625051438.578125
170.16,1625051438.59375
183.1,1625051438.609375
193.31,1625051438.625
201.15,1625051438.640625
208.0,1625051438.65625
215.41,1625051438.671875
224.12,1625051438.6875
233.6,1625051438.703125
242.34,1625051438.71875
249.35,1625051438.734375
254.94,1625051438.75
260.72,1625051438.765625
268.12,1625051438.78125
276.36,1625051438.796875
281.34,1625051438.8125
276.95,1625051438.828125
258.15,1625051438.84375
224.46,1625051438.859375
181.14,1625051438.875
137.16,1625051438.890625
100.89,1625051438.90625
75.79,1625051438.921875
58.87,1625051438.9375
42.79,1625051438.953125
20.13,1625051438.96875
-12.52,1625051438.984375
-53.37,1625051439.0
-96.99,1625051439.015625
-137.99,1625051439.03125
-174.03,1625051439.046875
-206.74,1625051439.0625
-240.51,1625051439.078125
-280.14,1625051439.09375
-328.88,1625051439.109375
-387.36,1625051439.125
-453.47,1625051439.140625
-522.5,1625051439.15625
-587.64,1625051439.171875
-640.93,1625051439.1875
-675.04,1625051439.203125
-685.63,1625051439.21875
-672.49,1625051439.234375
-639.71,1625051439.25
-593.71,1625051439.265625
-540.71,1625051439.28125
-484.76,1625051439.296875
-427.36,1625051439.3125
-368.85,1625051439.328125
-310.08,1625051439.34375
-253.28,1625051439.359375
-201.35,1625051439.375
-156.16,1625051439.390625
-116.79,1625051439.40625
-79.36,1625051439.421875
-38.52,1625051439.4375
9.84,1625051439.453125
66.18,1625051439.46875
126.52,1625051439.484375
183.25,1625051439.5
227.99,1625051439.515625
254.16,1625051439.53125
259.05,1625051439.546875
244.04,1625051439.5625
213.61,1625051439.578125
174.03,1625051439.59375
131.98,1625051439.609375
93.91,1625051439.625
65.2,1625051439.640625
49.31,1625051439.65625
46.88,1625051439.671875
55.43,1625051439.6875
70.14,1625051439.703125
85.78,1625051439.71875
98.75,1625051439.734375
108.14,1625051439.75
115.39,1625051439.765625
122.72,1625051439.78125
131.55,1625051439.796875
141.73,1625051439.8125
151.85,1625051439.828125
160.31,1625051439.84375
166.25,1625051439.859375
170.03,1625051439.875
172.9,1625051439.890625
176.28,1625051439.90625
180.73,1625051439.921875
185.19,1625051439.9375
186.96,1625051439.953125
182.65,1625051439.96875
169.95,1625051439.984375
149.6,1625051440.0
126.23,1625051440.015625
107.24,1625051440.03125
99.82,1625051440.046875
107.42,1625051440.0625
127.5,1625051440.078125
151.97,1625051440.09375
170.3,1625051440.109375
174.17,1625051440.125
161.0,1625051440.140625
134.72,1625051440.15625
103.63,1625051440.171875
76.21,1625051440.1875
57.48,1625051440.203125
47.35,1625051440.21875
41.77,1625051440.234375
35.69,1625051440.25
26.07,1625051440.265625
13.49,1625051440.28125
1.36,1625051440.296875
-6.58,1625051440.3125
-8.89,1625051440.328125
-7.48,1625051440.34375
-6.39,1625051440.359375
-9.07,1625051440.375
-15.8,1625051440.390625
-23.01,1625051440.40625
-25.16,1625051440.421875
-18.04,1625051440.4375
-1.71,1625051440.453125
18.95,1625051440.46875
36.4,1625051440.484375
44.22,1625051440.5
40.35,1625051440.515625
28.08,1625051440.53125
14.35,1625051440.546875
6.36,1625051440.5625
8.69,1625051440.578125
21.98,1625051440.59375
43.59,1625051440.609375
69.41,1625051440.625
95.54,1625051440.640625
119.08,1625051440.65625
138.12,1625051440.671875
151.23,1625051440.6875
157.21,1625051440.703125
155.21,1625051440.71875
145.05,1625051440.734375
127.37,1625051440.75
103.39,1625051440.765625
74.53,1625051440.78125
41.86,1625051440.796875
5.72,1625051440.8125
-34.35,1625051440.828125
-79.19,1625051440.84375
-129.02,1625051440.859375
-182.44,1625051440.875
-235.92,1625051440.890625
-284.29,1625051440.90625
-321.96,1625051440.921875
-344.75,1625051440.9375
-350.99,1625051440.953125
-341.7,1625051440.96875
-319.73,1625051440.984375
-288.62,1625051441.0
-251.92,1625051441.015625
-213.19,1625051441.03125
-176.36,1625051441.046875
-145.89,1625051441.0625
-125.96,1625051441.078125
-119.18,1625051441.09375
-125.14,1625051441.109375
-140.06,1625051441.125
-157.9,1625051441.140625
-172.22,1625051441.15625
-178.02,1625051441.171875
-172.6,1625051441.1875
-155.35,1625051441.203125
-127.07,1625051441.21875
-89.26,1625051441.234375
-44.04,1625051441.25
5.54,1625051441.265625
55.29,1625051441.28125
100.55,1625051441.296875
137.42,1625051441.3125
164.16,1625051441.328125
181.75,1625051441.34375
193.35,1625051441.359375
202.81,1625051441.375
212.96,1625051441.390625
224.71,1625051441.40625
237.16,1625051441.421875
248.29,1625051441.4375
255.72,1625051441.453125
257.28,1625051441.46875
251.13,1625051441.484375
236.22,1625051441.5
213.05,1625051441.515625
184.65,1625051441.53125
156.73,1625051441.546875
136.21,1625051441.5625
128.7,1625051441.578125
135.39,1625051441.59375
151.87,1625051441.609375
169.23,1625051441.625
177.45,1625051441.640625
169.1,1625051441.65625
141.63,1625051441.671875
97.55,1625051441.6875
42.49,1625051441.703125
-17.29,1625051441.71875
-76.93,1625051441.734375
-133.61,1625051441.75
-185.68,1625051441.765625
-231.43,1625051441.78125
-268.36,1625051441.796875
-293.53,1625051441.8125
-304.63,1625051441.828125
-301.1,1625051441.84375
-284.73,1625051441.859375
-259.73,1625051441.875
-231.89,1625051441.890625
-206.89,1625051441.90625
-188.58,1625051441.921875
-177.85,1625051441.9375
-173.05,1625051441.953125
-171.61,1625051441.96875
-172.01,1625051441.984375
-174.62,1625051442.0
-180.9,1625051442.015625
-191.04,1625051442.03125
-201.74,1625051442.046875
-206.42,1625051442.0625
-198.06,1625051442.078125
-173.8,1625051442.09375
-138.17,1625051442.109375
-102.7,1625051442.125
-80.76,1625051442.140625
-80.69,1625051442.15625
-100.85,1625051442.171875
-129.89,1625051442.1875
-152.27,1625051442.203125
-155.73,1625051442.21875
-136.19,1625051442.234375
-98.03,1625051442.25
-50.09,1625051442.265625
-0.48,1625051442.28125
46.47,1625051442.296875
90.05,1625051442.3125
130.77,1625051442.328125
168.29,1625051442.34375
201.18,1625051442.359375
228.28,1625051442.375
250.09,1625051442.390625
268.74,1625051442.40625
286.55,1625051442.421875
304.28,1625051442.4375
320.36,1625051442.453125
331.53,1625051442.46875
334.47,1625051442.484375
327.48,1625051442.5
311.13,1625051442.515625
287.7,1625051442.53125
260.02,1625051442.546875
230.34,1625051442.5625
199.91,1625051442.578125
169.26,1625051442.59375
138.9,1625051442.609375
109.87,1625051442.625
83.71,1625051442.640625
61.74,1625051442.65625
44.2,1625051442.671875
29.79,1625051442.6875
16.31,1625051442.703125
1.98,1625051442.71875
-13.25,1625051442.734375
-27.22,1625051442.75
-36.68,1625051442.765625
-39.2,1625051442.78125
-34.79,1625051442.796875
-26.15,1625051442.8125
-17.31,1625051442.828125
-11.6,1625051442.84375
-10.2,1625051442.859375
-12.11,1625051442.875
-15.26,1625051442.890625
-17.78,1625051442.90625
-18.6,1625051442.921875
-17.35,1625051442.9375
-14.03,1625051442.953125
-9.03,1625051442.96875
-3.47,1625051442.984375
0.73,1625051443.0
1.46,1625051443.015625
-2.39,1625051443.03125
-9.95,1625051443.046875
-18.38,1625051443.0625
-24.27,1625051443.078125
-25.37,1625051443.09375
-21.8,1625051443.109375
-15.74,1625051443.125
-10.24,1625051443.140625
-7.63,1625051443.15625
-8.87,1625051443.171875
-13.87,1625051443.1875
-22.25,1625051443.203125
-33.82,1625051443.21875
-48.25,1625051443.234375
-64.34,1625051443.25
-79.63,1625051443.265625
-90.8,1625051443.28125
-95.0,1625051443.296875
-91.35,1625051443.3125
-81.73,1625051443.328125
-70.34,1625051443.34375
-62.05,1625051443.359375
-60.18,1625051443.375
-65.13,1625051443.390625
-74.26,1625051443.40625
-83.3,1625051443.421875
-88.34,1625051443.4375
-87.43,1625051443.453125
-80.99,1625051443.46875
-71.07,1625051443.484375
-60.04,1625051443.5
-49.49,1625051443.515625
-39.97,1625051443.53125
-31.4,1625051443.546875
-23.74,1625051443.5625
-17.39,1625051443.578125
-13.04,1625051443.59375
-11.18,1625051443.609375
-11.75,1625051443.625
-13.85,1625051443.640625
-15.86,1625051443.65625
-15.62,1625051443.671875
-10.9,1625051443.6875
-0.16,1625051443.703125
16.37,1625051443.71875
36.01,1625051443.734375
53.95,1625051443.75
64.8,1625051443.765625
65.0,1625051443.78125
54.96,1625051443.796875
39.41,1625051443.8125
25.67,1625051443.828125
20.39,1625051443.84375
26.44,1625051443.859375
41.56,1625051443.875
59.69,1625051443.890625
74.06,1625051443.90625
80.63,1625051443.921875
79.83,1625051443.9375
76.04,1625051443.953125
75.24,1625051443.96875
82.23,1625051443.984375
98.59,1625051444.0
122.19,1625051444.015625
147.8,1625051444.03125
168.52,1625051444.046875
177.64,1625051444.0625
170.67,1625051444.078125
147.36,1625051444.09375
112.65,1625051444.109375
75.93,1625051444.125
48.47,1625051444.140625
39.7,1625051444.15625
53.91,1625051444.171875
88.72,1625051444.1875
135.98,1625051444.203125
184.56,1625051444.21875
223.75,1625051444.234375
245.87,1625051444.25
247.43,1625051444.265625
228.86,1625051444.28125
193.44,1625051444.296875
145.83,1625051444.3125
91.15,1625051444.328125
34.09,1625051444.34375
-21.75,1625051444.359375
-74.13,1625051444.375
-122.48,1625051444.390625
-168.12,1625051444.40625
-214.22,1625051444.421875
-264.9,1625051444.4375
-323.51,1625051444.453125
-390.23,1625051444.46875
-460.51,1625051444.484375
-525.19,1625051444.5
-572.94,1625051444.515625
-594.32,1625051444.53125
-585.34,1625051444.546875
-548.93,1625051444.5625
-493.56,1625051444.578125
-429.75,1625051444.59375
-366.35,1625051444.609375
-308.21,1625051444.625
-256.16,1625051444.640625
-208.35,1625051444.65625
-162.31,1625051444.671875
-116.13,1625051444.6875
-68.65,1625051444.703125
-19.06,1625051444.71875
33.64,1625051444.734375
90.46,1625051444.75
151.6,1625051444.765625
215.21,1625051444.78125
276.72,1625051444.796875
329.15,1625051444.8125
365.24,1625051444.828125
380.34,1625051444.84375
374.82,1625051444.859375
354.52,1625051444.875
328.37,1625051444.890625
304.53,1625051444.90625
286.8,1625051444.921875
273.6,1625051444.9375
259.81,1625051444.953125
240.51,1625051444.96875
214.1,1625051444.984375
183.28,1625051445.0
153.42,1625051445.015625
129.55,1625051445.03125
113.8,1625051445.046875
104.74,1625051445.0625
98.72,1625051445.078125
92.1,1625051445.09375
82.98,1625051445.109375
71.68,1625051445.125
59.74,1625051445.140625
48.38,1625051445.15625
37.56,1625051445.171875
25.77,1625051445.1875
11.0,1625051445.203125
-7.92,1625051445.21875
-30.27,1625051445.234375
-53.22,1625051445.25
-72.73,1625051445.265625
-85.17,1625051445.28125
-88.99,1625051445.296875
-85.44,1625051445.3125
-78.04,1625051445.328125
-70.86,1625051445.34375
-66.65,1625051445.359375
-65.67,1625051445.375
-66.03,1625051445.390625
-65.12,1625051445.40625
-61.55,1625051445.421875
-56.06,1625051445.4375
-51.08,1625051445.453125
-49.15,1625051445.46875
-51.36,1625051445.484375
-56.74,1625051445.5
-63.06,1625051445.515625
-68.25,1625051445.53125
-71.72,1625051445.546875
-74.63,1625051445.5625
-78.95,1625051445.578125
-85.92,1625051445.59375
-94.91,1625051445.609375
-103.15,1625051445.625
-106.67,1625051445.640625
-102.06,1625051445.65625
-88.03,1625051445.671875
-66.24,1625051445.6875
-40.79,1625051445.703125
-16.75,1625051445.71875
1.9,1625051445.734375
13.64,1625051445.75
19.64,1625051445.765625
22.65,1625051445.78125
25.09,1625051445.796875
27.7,1625051445.8125
29.21,1625051445.828125
27.58,1625051445.84375
21.85,1625051445.859375
13.36,1625051445.875
5.61,1625051445.890625
2.86,1625051445.90625
7.89,1625051445.921875
20.17,1625051445.9375
35.43,1625051445.953125
47.12,1625051445.96875
49.1,1625051445.984375
38.66,1625051446.0
18.15,1625051446.015625
-5.73,1625051446.03125
-24.93,1625051446.046875
-34.0,1625051446.0625
-32.91,1625051446.078125
-26.83,1625051446.09375
-23.02,1625051446.109375
-26.33,1625051446.125
-36.17,1625051446.140625
-46.67,1625051446.15625
-50.22,1625051446.171875
-42.12,1625051446.1875
-23.52,1625051446.203125
-0.8,1625051446.21875
18.17,1625051446.234375
28.54,1625051446.25
31.08,1625051446.265625
31.41,1625051446.28125
36.44,1625051446.296875
50.43,1625051446.3125
72.46,1625051446.328125
96.88,1625051446.34375
116.18,1625051446.359375
124.8,1625051446.375
121.99,1625051446.390625
112.59,1625051446.40625
105.18,1625051446.421875
108.48,1625051446.4375
127.48,1625051446.453125
161.2,1625051446.46875
203.09,1625051446.484375
243.95,1625051446.5
275.83,1625051446.515625
294.78,1625051446.53125
301.27,1625051446.546875
298.21,1625051446.5625
288.07,1625051446.578125
271.1,1625051446.59375
245.49,1625051446.609375
209.39,1625051446.625
163.08,1625051446.640625
109.91,1625051446.65625
55.2,1625051446.671875
4.09,1625051446.6875
-40.78,1625051446.703125
-80.11,1625051446.71875
-117.25,1625051446.734375
-156.53,1625051446.75
-201.65,1625051446.765625
-254.89,1625051446.78125
-316.85,1625051446.796875
-386.29,1625051446.8125
-459.73,1625051446.828125
-531.22,1625051446.84375
-592.89,1625051446.859375
-636.64,1625051446.875
-656.57,1625051446.890625
-651.06,1625051446.90625
-623.32,1625051446.921875
-580.07,1625051446.9375
-528.99,1625051446.953125
-476.22,1625051446.96875
-425.21,1625051446.984375
-376.87,1625051447.0
-330.81,1625051447.015625
-286.29,1625051447.03125
-242.61,1625051447.046875
-199.02,1625051447.0625
-154.53,1625051447.078125
-108.28,1625051447.09375
-59.88,1625051447.109375
-9.93,1625051447.125
40.36,1625051447.140625
89.79,1625051447.15625
137.59,1625051447.171875
183.8,1625051447.1875
229.31,1625051447.203125
275.67,1625051447.21875
324.76,1625051447.234375
377.9,1625051447.25
434.55,1625051447.265625
491.27,1625051447.28125
541.49,1625051447.296875
576.92,1625051447.3125
590.27,1625051447.328125
578.12,1625051447.34375
542.38,1625051447.359375
489.55,1625051447.375
427.93,1625051447.390625
364.19,1625051447.40625
301.02,1625051447.421875
237.16,1625051447.4375
169.74,1625051447.453125
97.87,1625051447.46875
24.95,1625051447.484375
-41.43,1625051447.5
-92.2,1625051447.515625
-120.91,1625051447.53125
-126.72,1625051447.546875
-114.95,1625051447.5625
-94.6,1625051447.578125
-74.51,1625051447.59375
-59.75,1625051447.609375
-50.69,1625051447.625
-44.56,1625051447.640625
-38.43,1625051447.65625
-31.42,1625051447.671875
-24.84,1625051447.6875
-20.5,1625051447.703125
-18.6,1625051447.71875
-17.03,1625051447.734375
-12.57,1625051447.75
-3.18,1625051447.765625
10.24,1625051447.78125
23.94,1625051447.796875
33.15,1625051447.8125
34.39,1625051447.828125
27.21,1625051447.84375
13.97,1625051447.859375
-1.72,1625051447.875
-16.93,1625051447.890625
-30.51,1625051447.90625
-42.74,1625051447.921875
-54.11,1625051447.9375
-64.13,1625051447.953125
-70.99,1625051447.96875
-72.47,1625051447.984375
-67.38,1625051448.0
-56.71,1625051448.015625
-43.7,1625051448.03125
-32.67,1625051448.046875
-27.18,1625051448.0625
-28.45,1625051448.078125
-34.73,1625051448.09375
-42.13,1625051448.109375
-46.2,1625051448.125
-43.7,1625051448.140625
-33.85,1625051448.15625
-18.51,1625051448.171875
-1.7,1625051448.1875
11.69,1625051448.203125
17.53,1625051448.21875
13.75,1625051448.234375
1.07,1625051448.25
-17.34,1625051448.265625
-37.29,1625051448.28125
-55.23,1625051448.296875
-69.4,1625051448.3125
-79.91,1625051448.328125
-87.75,1625051448.34375
-93.41,1625051448.359375
-96.26,1625051448.375
-95.2,1625051448.390625
-90.1,1625051448.40625
-82.88,1625051448.421875
-77.3,1625051448.4375
-77.07,1625051448.453125
-83.57,1625051448.46875
-94.55,1625051448.484375
-104.87,1625051448.5
-109.09,1625051448.515625
-104.47,1625051448.53125
-92.32,1625051448.546875
-77.29,1625051448.5625
-65.06,1625051448.578125
-59.63,1625051448.59375
-61.79,1625051448.609375
-69.0,1625051448.625
-76.78,1625051448.640625
-80.29,1625051448.65625
-76.03,1625051448.671875
-62.9,1625051448.6875
-42.77,1625051448.703125
-20.12,1625051448.71875
-0.63,1625051448.734375
11.04,1625051448.75
13.62,1625051448.765625
10.17,1625051448.78125
6.89,1625051448.796875
10.12,1625051448.8125
22.86,1625051448.828125
42.89,1625051448.84375
63.81,1625051448.859375
78.45,1625051448.875
82.59,1625051448.890625
76.93,1625051448.90625
66.3,1625051448.921875
56.85,1625051448.9375
52.86,1625051448.953125
54.98,1625051448.96875
60.61,1625051448.984375
65.94,1625051449.0
68.22,1625051449.015625
67.02,1625051449.03125
63.99,1625051449.046875
61.44,1625051449.0625
60.74,1625051449.078125
61.4,1625051449.09375
61.38,1625051449.109375
58.28,1625051449.125
50.78,1625051449.140625
39.64,1625051449.15625
27.47,1625051449.171875
17.63,1625051449.1875
12.56,1625051449.203125
12.66,1625051449.21875
16.16,1625051449.234375
20.11,1625051449.25
22.02,1625051449.265625
21.1,1625051449.28125
18.49,1625051449.296875
16.27,1625051449.3125
16.15,1625051449.328125
18.52,1625051449.34375
22.49,1625051449.359375
26.7,1625051449.375
30.31,1625051449.390625
33.33,1625051449.40625
36.19,1625051449.421875
38.94,1625051449.4375
40.76,1625051449.453125
40.25,1625051449.46875
36.07,1625051449.484375
27.7,1625051449.5
15.58,1625051449.515625
0.9,1625051449.53125
-14.65,1625051449.546875
-28.89,1625051449.5625
-38.73,1625051449.578125
-40.32,1625051449.59375
-29.85,1625051449.609375
-5.54,1625051449.625
30.46,1625051449.640625
71.65,1625051449.65625
108.9,1625051449.671875
134.2,1625051449.6875
144.25,1625051449.703125
142.25,1625051449.71875
136.38,1625051449.734375
135.53,1625051449.75
144.6,1625051449.765625
161.82,1625051449.78125
179.52,1625051449.796875
187.79,1625051449.8125
179.05,1625051449.828125
150.9,1625051449.84375
106.38,1625051449.859375
51.73,1625051449.875
-6.43,1625051449.890625
-63.25,1625051449.90625
-116.22,1625051449.921875
-164.16,1625051449.9375
-205.66,1625051449.953125
-237.82,1625051449.96875
-256.26,1625051449.984375
-256.59,1625051450.0
-236.75,1625051450.015625
-199.15,1625051450.03125
-151.17,1625051450.046875
-103.44,1625051450.0625
-66.14,1625051450.078125
-45.22,1625051450.09375
-40.02,1625051450.109375
-44.26,1625051450.125
-49.45,1625051450.140625
-49.02,1625051450.15625
-41.07,1625051450.171875
-28.19,1625051450.1875
-15.12,1625051450.203125
-5.87,1625051450.21875
-1.84,1625051450.234375
-1.91,1625051450.25
-3.74,1625051450.265625
-5.27,1625051450.28125
-5.43,1625051450.296875
-4.04,1625051450.3125
-1.16,1625051450.328125
3.25,1625051450.34375
9.28,1625051450.359375
16.54,1625051450.375
23.9,1625051450.390625
29.67,1625051450.40625
32.28,1625051450.421875
30.99,1625051450.4375
26.34,1625051450.453125
20.05,1625051450.46875
14.41,1625051450.484375
11.63,1625051450.5
13.07,1625051450.515625
18.92,1625051450.53125
28.12,1625051450.546875
38.61,1625051450.5625
47.9,1625051450.578125
53.75,1625051450.59375
54.76,1625051450.609375
50.7,1625051450.625
42.37,1625051450.640625
31.07,1625051450.65625
18.08,1625051450.671875
4.35,1625051450.6875
-9.44,1625051450.703125
-22.42,1625051450.71875
-33.29,1625051450.734375
-40.36,1625051450.75
-42.28,1625051450.765625
-38.81,1625051450.78125
-31.44,1625051450.796875
-23.13,1625051450.8125
-17.3,1625051450.828125
-16.49,1625051450.84375
-21.18,1625051450.859375
-29.62,1625051450.875
-38.49,1625051450.890625
-44.22,1625051450.90625
-44.42,1625051450.921875
-38.63,1625051450.9375
-28.37,1625051450.953125
-16.49,1625051450.96875
-6.1,1625051450.984375
0.46,1625051451.0
2.35,1625051451.015625
0.32,1625051451.03125
-3.69,1625051451.046875
-7.53,1625051451.0625
-9.76,1625051451.078125
-10.07,1625051451.09375
-9.08,1625051451.109375
-7.46,1625051451.125
-5.13,1625051451.140625
-1.03,1625051451.15625
6.25,1625051451.171875
17.33,1625051451.1875
31.18,1625051451.203125
45.17,1625051451.21875
56.22,1625051451.234375
62.43,1625051451.25
64.05,1625051451.265625
63.29,1625051451.28125
62.74,1625051451.296875
63.67,1625051451.3125
65.04,1625051451.328125
64.18,1625051451.34375
58.54,1625051451.359375
47.52,1625051451.375
33.19,1625051451.390625
19.35,1625051451.40625
9.66,1625051451.421875
5.85,1625051451.4375
7.17,1625051451.453125
11.18,1625051451.46875
15.3,1625051451.484375
18.13,1625051451.5
19.78,1625051451.515625
21.28,1625051451.53125
23.58,1625051451.546875
27.15,1625051451.5625
31.99,1625051451.578125
38.16,1625051451.59375
45.99,1625051451.609375
55.79,1625051451.625
66.8,1625051451.640625
76.19,1625051451.65625
79.19,1625051451.671875
70.8,1625051451.6875
48.7,1625051451.703125
15.98,1625051451.71875
-18.55,1625051451.734375
-43.25,1625051451.75
-48.75,1625051451.765625
-32.72,1625051451.78125
-1.76,1625051451.796875
31.33,1625051451.8125
53.27,1625051451.828125
55.94,1625051451.84375
38.71,1625051451.859375
6.6,1625051451.875
-34.07,1625051451.890625
-79.05,1625051451.90625
-126.71,1625051451.921875
-175.51,1625051451.9375
-221.07,1625051451.953125
-255.36,1625051451.96875
-269.04,1625051451.984375
-255.36,1625051452.0
-213.11,1625051452.015625
-147.23,1625051452.03125
-67.04,1625051452.046875
16.4,1625051452.0625
92.33,1625051452.078125
151.25,1625051452.09375
185.41,1625051452.109375
190.09,1625051452.125
165.32,1625051452.140625
117.36,1625051452.15625
58.03,1625051452.171875
1.55,1625051452.1875
-40.25,1625051452.203125
-61.66,1625051452.21875
-64.29,1625051452.234375
-54.93,1625051452.25
-41.69,1625051452.265625
-30.36,1625051452.28125
-23.03,1625051452.296875
-18.91,1625051452.3125
-16.38,1625051452.328125
-14.52,1625051452.34375
-13.28,1625051452.359375
-12.68,1625051452.375
-12.01,1625051452.390625
-9.75,1625051452.40625
-4.57,1625051452.421875
3.53,1625051452.4375
12.86,1625051452.453125
20.78,1625051452.46875
24.9,1625051452.484375
24.18,1625051452.5
19.24,1625051452.515625
11.93,1625051452.53125
4.65,1625051452.546875
-0.39,1625051452.5625
-1.6,1625051452.578125
1.55,1625051452.59375
8.35,1625051452.609375
16.85,1625051452.625
24.55,1625051452.640625
29.34,1625051452.65625
30.48,1625051452.671875
29.0,1625051452.6875
27.17,1625051452.703125
27.32,1625051452.71875
30.74,1625051452.734375
37.06,1625051452.75
44.5,1625051452.765625
50.76,1625051452.78125
53.99,1625051452.796875
53.42,1625051452.8125
49.48,1625051452.828125
43.4,1625051452.84375
36.5,1625051452.859375
29.54,1625051452.875
22.46,1625051452.890625
14.75,1625051452.90625
6.04,1625051452.921875
-3.1,1625051452.9375
-11.03,1625051452.953125
-15.53,1625051452.96875
-14.85,1625051452.984375
-8.79,1625051453.0
0.98,1625051453.015625
11.6,1625051453.03125
20.26,1625051453.046875
25.5,1625051453.0625
27.88,1625051453.078125
29.46,1625051453.09375
32.63,1625051453.109375
38.77,1625051453.125
47.39,1625051453.140625
56.18,1625051453.15625
61.87,1625051453.171875
61.53,1625051453.1875
53.61,1625051453.203125
38.38,1625051453.21875
17.66,1625051453.234375
-6.09,1625051453.25
-30.58,1625051453.265625
-54.12,1625051453.28125
-75.43,1625051453.296875
-93.3,1625051453.3125
-106.36,1625051453.328125
-113.36,1625051453.34375
-113.6,1625051453.359375
-107.43,1625051453.375
-96.3,1625051453.390625
-82.64,1625051453.40625
-69.38,1625051453.421875
-59.36,1625051453.4375
-54.66,1625051453.453125
-55.88,1625051453.46875
-61.6,1625051453.484375
-68.45,1625051453.5
-72.11,1625051453.515625
-68.82,1625051453.53125
-57.07,1625051453.546875
-38.35,1625051453.5625
-16.51,1625051453.578125
3.77,1625051453.59375
18.85,1625051453.609375
27.3,1625051453.625
29.79,1625051453.640625
28.19,1625051453.65625
24.47,1625051453.671875
20.16,1625051453.6875
16.18,1625051453.703125
13.09,1625051453.71875
11.16,1625051453.734375
10.36,1625051453.75
10.39,1625051453.765625
10.78,1625051453.78125
11.3,1625051453.796875
12.22,1625051453.8125
14.14,1625051453.828125
17.51,1625051453.84375
21.96,1625051453.859375
26.05,1625051453.875
27.64,1625051453.890625
24.71,1625051453.90625
16.34,1625051453.921875
3.29,1625051453.9375
-12.09,1625051453.953125
-26.55,1625051453.96875
-36.89,1625051453.984375
-40.76,1625051454.0
-37.31,1625051454.015625
-27.47,1625051454.03125
-13.73,1625051454.046875
0.42,1625051454.0625
11.52,1625051454.078125
17.38,1625051454.09375
17.86,1625051454.109375
14.91,1625051454.125
11.63,1625051454.140625
10.75,1625051454.15625
13.35,1625051454.171875
18.49,1625051454.1875
23.82,1625051454.203125
26.93,1625051454.21875
26.57,1625051454.234375
23.24,1625051454.25
18.85,1625051454.265625
15.71,1625051454.28125
15.52,1625051454.296875
18.76,1625051454.3125
24.69,1625051454.328125
32.02,1625051454.34375
39.51,1625051454.359375
46.53,1625051454.375
53.03,1625051454.390625
59.07,1625051454.40625
64.31,1625051454.421875
67.75,1625051454.4375
68.05,1625051454.453125
64.33,1625051454.46875
56.89,1625051454.484375
47.49,1625051454.5
38.61,1625051454.515625
32.28,1625051454.53125
28.93,1625051454.546875
27.04,1625051454.5625
23.93,1625051454.578125
17.16,1625051454.59375
5.96,1625051454.609375
-8.24,1625051454.625
-22.41,1625051454.640625
-33.24,1625051454.65625
-38.64,1625051454.671875
-38.67,1625051454.6875
-35.41,1625051454.703125
-32.03,1625051454.71875
-31.51,1625051454.734375
-35.55,1625051454.75
-44.12,1625051454.765625
-55.61,1625051454.78125
-67.36,1625051454.796875
-76.46,1625051454.8125
-80.38,1625051454.828125
-77.49,1625051454.84375
-67.42,1625051454.859375
-51.2,1625051454.875
-30.97,1625051454.890625
-9.6,1625051454.90625
10.09,1625051454.921875
25.97,1625051454.9375
37.04,1625051454.953125
43.48,1625051454.96875
46.27,1625051454.984375
46.67,1625051455.0
45.64,1625051455.015625
43.65,1625051455.03125
40.59,1625051455.046875
36.22,1625051455.0625
30.6,1625051455.078125
24.41,1625051455.09375
18.95,1625051455.109375
15.71,1625051455.125
15.78,1625051455.140625
19.32,1625051455.15625
25.33,1625051455.171875
32.02,1625051455.1875
37.35,1625051455.203125
39.81,1625051455.21875
38.88,1625051455.234375
35.04,1625051455.25
29.38,1625051455.265625
23.01,1625051455.28125
16.62,1625051455.296875
10.36,1625051455.3125
4.09,1625051455.328125
-2.39,1625051455.34375
-9.15,1625051455.359375
-16.1,1625051455.375
-23.07,1625051455.390625
-29.87,1625051455.40625
-36.27,1625051455.421875
-41.96,1625051455.4375
-46.53,1625051455.453125
-49.62,1625051455.46875
-51.08,1625051455.484375
-51.05,1625051455.5
-49.77,1625051455.515625
-47.44,1625051455.53125
-44.11,1625051455.546875
-39.8,1625051455.5625
-34.88,1625051455.578125
-30.17,1625051455.59375
-26.72,1625051455.609375
-25.31,1625051455.625
-25.81,1625051455.640625
-27.06,1625051455.65625
-27.31,1625051455.671875
-25.18,1625051455.6875
-20.38,1625051455.703125
-14.06,1625051455.71875
-8.28,1625051455.734375
-5.04,1625051455.75
-5.25,1625051455.765625
-8.27,1625051455.78125
-12.4,1625051455.796875
-15.71,1625051455.8125
-17.01,1625051455.828125
-16.22,1625051455.84375
-14.11,1625051455.859375
-11.7,1625051455.875
-9.7,1625051455.890625
-8.31,1625051455.90625
-7.36,1625051455.921875
-6.55,1625051455.9375
-5.58,1625051455.953125
-4.23,1625051455.96875
-2.4,1625051455.984375
-0.21,1625051456.0
2.0,1625051456.015625
3.76,1625051456.03125
4.83,1625051456.046875
5.48,1625051456.0625
6.5,1625051456.078125
8.9,1625051456.09375
13.41,1625051456.109375
20.2,1625051456.125
28.77,1625051456.140625
38.16,1625051456.15625
47.29,1625051456.171875
54.95,1625051456.1875
59.92,1625051456.203125
61.08,1625051456.21875
57.67,1625051456.234375
49.45,1625051456.25
36.7,1625051456.265625
20.07,1625051456.28125
0.36,1625051456.296875
-21.31,1625051456.3125
-43.18,1625051456.328125
-62.71,1625051456.34375
-76.96,1625051456.359375
-83.5,1625051456.375
-81.45,1625051456.390625
-72.05,1625051456.40625
-58.26,1625051456.421875
-43.74,1625051456.4375
-31.59,1625051456.453125
-23.48,1625051456.46875
-19.52,1625051456.484375
-18.5,1625051456.5
-18.41,1625051456.515625
-16.84,1625051456.53125
-11.46,1625051456.546875
-0.45,1625051456.5625
16.76,1625051456.578125
39.11,1625051456.59375
63.88,1625051456.609375
87.28,1625051456.625
105.6,1625051456.640625
116.29,1625051456.65625
118.68,1625051456.671875
113.99,1625051456.6875
104.61,1625051456.703125
93.23,1625051456.71875
82.0,1625051456.734375
72.2,1625051456.75
64.31,1625051456.765625
58.23,1625051456.78125
53.49,1625051456.796875
49.22,1625051456.8125
44.23,1625051456.828125
37.26,1625051456.84375
27.48,1625051456.859375
15.04,1625051456.875
1.21,1625051456.890625
-11.92,1625051456.90625
-22.26,1625051456.921875
-28.42,1625051456.9375
-30.29,1625051456.953125
-28.95,1625051456.96875
-26.13,1625051456.984375
-23.42,1625051457.0
-21.71,1625051457.015625
-20.9,1625051457.03125
-20.08,1625051457.046875
-18.05,1625051457.0625
-14.0,1625051457.078125
-8.03,1625051457.09375
-1.22,1625051457.109375
4.69,1625051457.125
8.19,1625051457.140625
8.66,1625051457.15625
6.69,1625051457.171875
3.82,1625051457.1875
1.72,1625051457.203125
1.42,1625051457.21875
2.87,1625051457.234375
5.13,1625051457.25
6.93,1625051457.265625
7.22,1625051457.28125
5.59,1625051457.296875
2.24,1625051457.3125
-2.13,1625051457.328125
-6.63,1625051457.34375
-10.38,1625051457.359375
-12.93,1625051457.375
-14.38,1625051457.390625
-15.56,1625051457.40625
-17.76,1625051457.421875
-22.13,1625051457.4375
-28.91,1625051457.453125
-37.17,1625051457.46875
-45.12,1625051457.484375
-51.15,1625051457.5
-54.9,1625051457.515625
-57.66,1625051457.53125
-61.8,1625051457.546875
-69.25,1625051457.5625
-80.15,1625051457.578125
-92.23,1625051457.59375
-101.58,1625051457.609375
-104.25,1625051457.625
-97.96,1625051457.640625
-83.05,1625051457.65625
-62.25,1625051457.671875
-39.52,1625051457.6875
-18.44,1625051457.703125
-0.94,1625051457.71875
12.91,1625051457.734375
24.31,1625051457.75
34.4,1625051457.765625
43.28,1625051457.78125
49.89,1625051457.796875
52.78,1625051457.8125
51.48,1625051457.828125
47.38,1625051457.84375
43.45,1625051457.859375
42.69,1625051457.875
46.39,1625051457.890625
53.13,1625051457.90625
59.24,1625051457.921875
60.47,1625051457.9375
54.07,1625051457.953125
39.99,1625051457.96875
20.93,1625051457.984375
1.23,1625051458.0
-14.6,1625051458.015625
-23.18,1625051458.03125
-23.11,1625051458.046875
-15.25,1625051458.0625
-2.44,1625051458.078125
11.47,1625051458.09375
22.92,1625051458.109375
29.79,1625051458.125
31.83,1625051458.140625
30.14,1625051458.15625
26.0,1625051458.171875
20.03,1625051458.1875
12.23,1625051458.203125
2.81,1625051458.21875
-6.83,1625051458.234375
-14.08,1625051458.25
-16.1,1625051458.265625
-11.44,1625051458.28125
-1.06,1625051458.296875
11.78,1625051458.3125
22.84,1625051458.328125
28.73,1625051458.34375
28.38,1625051458.359375
23.42,1625051458.375
17.36,1625051458.390625
14.11,1625051458.40625
16.17,1625051458.421875
23.45,1625051458.4375
33.02,1625051458.453125
40.05,1625051458.46875
39.7,1625051458.484375
29.54,1625051458.5
11.11,1625051458.515625
-10.3,1625051458.53125
-27.42,1625051458.546875
-34.24,1625051458.5625
-28.56,1625051458.578125
-13.16,1625051458.59375
5.13,1625051458.609375
17.76,1625051458.625
16.95,1625051458.640625
-1.98,1625051458.65625
-39.26,1625051458.671875
-90.12,1625051458.6875
-145.46,1625051458.703125
-193.68,1625051458.71875
-223.65,1625051458.734375
-228.29,1625051458.75
-207.29,1625051458.765625
-167.34,1625051458.78125
-119.59,1625051458.796875
-74.95,1625051458.8125
-39.45,1625051458.828125
-11.93,1625051458.84375
14.48,1625051458.859375
47.98,1625051458.875
92.8,1625051458.890625
146.07,1625051458.90625
198.22,1625051458.921875
236.88,1625051458.9375
252.27,1625051458.953125
241.36,1625051458.96875
208.84,1625051458.984375
164.82,1625051459.0
120.42,1625051459.015625
83.5,1625051459.03125
56.83,1625051459.046875
39.02,1625051459.0625
27.32,1625051459.078125
20.25,1625051459.09375
18.61,1625051459.109375
24.43,1625051459.125
38.51,1625051459.140625
58.51,1625051459.15625
79.1,1625051459.171875
93.97,1625051459.1875
98.92,1625051459.203125
93.93,1625051459.21875
83.33,1625051459.234375
73.49,1625051459.25
69.58,1625051459.265625
72.97,1625051459.28125
80.75,1625051459.296875
87.49,1625051459.3125
88.12,1625051459.328125
80.22,1625051459.34375
64.72,1625051459.359375
44.77,1625051459.375
23.58,1625051459.390625
2.53,1625051459.40625
-19.57,1625051459.421875
-45.96,1625051459.4375
-80.59,1625051459.453125
-126.53,1625051459.46875
-184.65,1625051459.484375
-252.44,1625051459.5
-323.75,1625051459.515625
-389.35,1625051459.53125
-438.91,1625051459.546875
-463.84,1625051459.5625
-460.23,1625051459.578125
-430.49,1625051459.59375
-382.67,1625051459.609375
-327.54,1625051459.625
-274.66,1625051459.640625
-229.06,1625051459.65625
-190.26,1625051459.671875
-153.74,1625051459.6875
-114.08,1625051459.703125
-68.17,1625051459.71875
-16.89,1625051459.734375
35.31,1625051459.75
82.57,1625051459.765625
120.04,1625051459.78125
145.57,1625051459.796875
159.79,1625051459.8125
164.99,1625051459.828125
163.69,1625051459.84375
157.68,1625051459.859375
148.12,1625051459.875
136.27,1625051459.890625
123.87,1625051459.90625
113.04,1625051459.921875
105.45,1625051459.9375
101.41,1625051459.953125
99.71,1625051459.96875
98.17,1625051459.984375
94.71,1625051460.0
88.21,1625051460.015625
78.74,1625051460.03125
67.07,1625051460.046875
54.17,1625051460.0625
40.88,1625051460.078125
27.92,1625051460.09375
16.12,1625051460.109375
6.43,1625051460.125
-0.43,1625051460.140625
-4.35,1625051460.15625
-6.24,1625051460.171875
-7.75,1625051460.1875
-10.73,1625051460.203125
-16.4,1625051460.21875
-24.69,1625051460.234375
-34.34,1625051460.25
-43.38,1625051460.265625
-50.06,1625051460.28125
-53.47,1625051460.296875
-53.72,1625051460.3125
-51.54,1625051460.328125
-47.67,1625051460.34375
-42.46,1625051460.359375
-35.9,1625051460.375
-28.0,1625051460.390625
-19.25,1625051460.40625
-10.87,1625051460.421875
-4.66,1625051460.4375
-2.55,1625051460.453125
-5.94,1625051460.46875
-15.2,1625051460.484375
-29.33,1625051460.5
-45.93,1625051460.515625
-61.62,1625051460.53125
-72.85,1625051460.546875
-76.91,1625051460.5625
-72.9,1625051460.578125
-62.29,1625051460.59375
-48.43,1625051460.609375
-35.19,1625051460.625
-25.02,1625051460.640625
-17.39,1625051460.65625
-8.18,1625051460.671875
9.05,1625051460.6875
40.54,1625051460.703125
88.94,1625051460.71875
150.89,1625051460.734375
216.84,1625051460.75
273.5,1625051460.765625
307.86,1625051460.78125
311.54,1625051460.796875
283.46,1625051460.8125
230.09,1625051460.828125
163.29,1625051460.84375
96.56,1625051460.859375
41.29,1625051460.875
4.06,1625051460.890625
-14.28,1625051460.90625
-17.67,1625051460.921875
-12.64,1625051460.9375
-5.75,1625051460.953125
-1.51,1625051460.96875
-1.65,1625051460.984375
-5.72,1625051461.0
-12.24,1625051461.015625
-19.94,1625051461.03125
-28.26,1625051461.046875
-37.01,1625051461.0625
-45.5,1625051461.078125
-52.27,1625051461.09375
-55.38,1625051461.109375
-53.32,1625051461.125
-45.97,1625051461.140625
-34.95,1625051461.15625
-23.19,1625051461.171875
-13.89,1625051461.1875
-9.37,1625051461.203125
-10.5,1625051461.21875
-16.8,1625051461.234375
-27.03,1625051461.25
-39.63,1625051461.265625
-52.87,1625051461.28125
-64.69,1625051461.296875
-72.77,1625051461.3125
-75.1,1625051461.328125
-70.75,1625051461.34375
-60.51,1625051461.359375
-46.76,1625051461.375
-32.49,1625051461.390625
-19.93,1625051461.40625
-9.7,1625051461.421875
-0.92,1625051461.4375
7.7,1625051461.453125
16.78,1625051461.46875
25.89,1625051461.484375
33.93,1625051461.5
40.11,1625051461.515625
44.43,1625051461.53125
47.48,1625051461.546875
49.74,1625051461.5625
51.03,1625051461.578125
50.57,1625051461.59375
47.63,1625051461.609375
42.38,1625051461.625
36.11,1625051461.640625
30.69,1625051461.65625
27.54,1625051461.671875
26.65,1625051461.6875
26.46,1625051461.703125
24.63,1625051461.71875
19.41,1625051461.734375
10.75,1625051461.75
0.49,1625051461.765625
-8.47,1625051461.78125
-13.55,1625051461.796875
-13.67,1625051461.8125
-9.45,1625051461.828125
-2.49,1625051461.84375
5.73,1625051461.859375
14.51,1625051461.875
23.61,1625051461.890625
32.46,1625051461.90625
39.44,1625051461.921875
42.25,1625051461.9375
39.18,1625051461.953125
30.47,1625051461.96875
18.81,1625051461.984375
8.29,1625051462.0
2.28,1625051462.015625
1.58,1625051462.03125
4.11,1625051462.046875
6.2,1625051462.0625
4.92,1625051462.078125
-0.06,1625051462.09375
-6.18,1625051462.109375
-9.43,1625051462.125
-6.67,1625051462.140625
2.64,1625051462.15625
16.13,1625051462.171875
29.87,1625051462.1875
40.42,1625051462.203125
46.34,1625051462.21875
48.53,1625051462.234375
49.24,1625051462.25
50.57,1625051462.265625
53.37,1625051462.28125
57.01,1625051462.296875
59.96,1625051462.3125
60.82,1625051462.328125
59.03,1625051462.34375
55.12,1625051462.359375
50.42,1625051462.375
46.58,1625051462.390625
45.27,1625051462.40625
47.97,1625051462.421875
55.84,1625051462.4375
69.27,1625051462.453125
87.3,1625051462.46875
107.01,1625051462.484375
123.71,1625051462.5
131.93,1625051462.515625
127.19,1625051462.53125
108.09,1625051462.546875
77.35,1625051462.5625
41.16,1625051462.578125
6.67,1625051462.59375
-20.67,1625051462.609375
-39.19,1625051462.625
-50.89,1625051462.640625
-59.7,1625051462.65625
-69.61,1625051462.671875
-83.64,1625051462.6875
-104.22,1625051462.703125
-133.78,1625051462.71875
-174.31,1625051462.734375
-225.14,1625051462.75
-280.77,1625051462.765625
-330.67,1625051462.78125
-362.41,1625051462.796875
-367.29,1625051462.8125
-345.22,1625051462.828125
-305.87,1625051462.84375
-264.55,1625051462.859375
-234.95,1625051462.875
-222.84,1625051462.890625
-224.39,1625051462.90625
-229.59,1625051462.921875
-228.43,1625051462.9375
-215.91,1625051462.953125
-193.24,1625051462.96875
-165.34,1625051462.984375
-136.85,1625051463.0
-109.8,1625051463.015625
-84.0,1625051463.03125
-59.25,1625051463.046875
-37.07,1625051463.0625
-20.5,1625051463.078125
-12.07,1625051463.09375
-11.36,1625051463.109375
-14.11,1625051463.125
-13.74,1625051463.140625
-4.12,1625051463.15625
17.68,1625051463.171875
50.32,1625051463.1875
89.11,1625051463.203125
128.02,1625051463.21875
161.65,1625051463.234375
186.4,1625051463.25
200.83,1625051463.265625
205.25,1625051463.28125
201.25,1625051463.296875
191.12,1625051463.3125
177.47,1625051463.328125
162.73,1625051463.34375
148.79,1625051463.359375
136.64,1625051463.375
126.33,1625051463.390625
117.08,1625051463.40625
107.71,1625051463.421875
97.18,1625051463.4375
85.28,1625051463.453125
72.92,1625051463.46875
61.99,1625051463.484375
54.59,1625051463.5
52.04,1625051463.515625
54.14,1625051463.53125
59.21,1625051463.546875
64.98,1625051463.5625
69.63,1625051463.578125
72.61,1625051463.59375
74.49,1625051463.609375
76.15,1625051463.625
77.84,1625051463.640625
78.75,1625051463.65625
77.58,1625051463.671875
73.39,1625051463.6875
66.38,1625051463.703125
57.86,1625051463.71875
49.54,1625051463.734375
42.55,1625051463.75
36.85,1625051463.765625
31.41,1625051463.78125
24.98,1625051463.796875
16.95,1625051463.8125
7.74,1625051463.828125
-1.41,1625051463.84375
-9.17,1625051463.859375
-14.78,1625051463.875
-18.51,1625051463.890625
-21.27,1625051463.90625
-24.05,1625051463.921875
-27.18,1625051463.9375
-30.08,1625051463.953125
-31.72,1625051463.96875
-31.33,1625051463.984375
-29.22,1625051464.0
-26.88,1625051464.015625
-26.36,1625051464.03125
-29.0,1625051464.046875
-34.48,1625051464.0625
-40.58,1625051464.078125
-44.1,1625051464.09375
-42.54,1625051464.109375
-35.44,1625051464.125
-24.81,1625051464.140625
-14.23,1625051464.15625
-7.09,1625051464.171875
-4.97,1625051464.1875
-7.1,1625051464.203125
-10.96,1625051464.21875
-13.84,1625051464.234375
-14.28,1625051464.25
-12.72,1625051464.265625
-10.97,1625051464.28125
-10.99,1625051464.296875
-13.65,1625051464.3125
-18.18,1625051464.328125
-22.62,1625051464.34375
-24.87,1625051464.359375
-23.84,1625051464.375
-19.97,1625051464.390625
-15.09,1625051464.40625
-11.49,1625051464.421875
-11.03,1625051464.4375
-14.32,1625051464.453125
-20.58,1625051464.46875
-27.88,1625051464.484375
-33.79,1625051464.5
-36.14,1625051464.515625
-33.73,1625051464.53125
-26.73,1625051464.546875
-16.65,1625051464.5625
-5.66,1625051464.578125
4.3,1625051464.59375
12.51,1625051464.609375
19.77,1625051464.625
27.93,1625051464.640625
38.78,1625051464.65625
52.95,1625051464.671875
69.22,1625051464.6875
84.85,1625051464.703125
96.73,1625051464.71875
102.75,1625051464.734375
102.89,1625051464.75
99.36,1625051464.765625
95.55,1625051464.78125
94.88,1625051464.796875
99.38,1625051464.8125
109.2,1625051464.828125
122.62,1625051464.84375
136.61,1625051464.859375
147.07,1625051464.875
149.35,1625051464.890625
139.12,1625051464.90625
113.76,1625051464.921875
74.18,1625051464.9375
25.84,1625051464.953125
-21.7,1625051464.96875
-57.3,1625051464.984375
-72.34,1625051465.0
-64.42,1625051465.015625
-38.98,1625051465.03125
-7.9,1625051465.046875
14.56,1625051465.0625
16.75,1625051465.078125
-6.48,1625051465.09375
-52.5,1625051465.109375
-112.47,1625051465.125
-174.98,1625051465.140625
-229.67,1625051465.15625
-269.49,1625051465.171875
-291.24,1625051465.1875
-294.54,1625051465.203125
-280.59,1625051465.21875
-251.71,1625051465.234375
-212.01,1625051465.25
-167.99,1625051465.265625
-128.12,1625051465.28125
-100.46,1625051465.296875
-89.15,1625051465.3125
-91.83,1625051465.328125
-99.99,1625051465.34375
-102.63,1625051465.359375
-91.9,1625051465.375
-67.18,1625051465.390625
-35.01,1625051465.40625
-4.59,1625051465.421875
18.33,1625051465.4375
34.89,1625051465.453125
51.92,1625051465.46875
76.52,1625051465.484375
109.68,1625051465.5
143.52,1625051465.515625
164.16,1625051465.53125
158.93,1625051465.546875
123.94,1625051465.5625
67.34,1625051465.578125
6.29,1625051465.59375
-40.49,1625051465.609375
-60.77,1625051465.625
-53.22,1625051465.640625
-26.24,1625051465.65625
7.43,1625051465.671875
36.92,1625051465.6875
57.0,1625051465.703125
68.16,1625051465.71875
73.9,1625051465.734375
77.17,1625051465.75
78.41,1625051465.765625
76.08,1625051465.78125
68.61,1625051465.796875
56.48,1625051465.8125
42.79,1625051465.828125
32.02,1625051465.84375
27.74,1625051465.859375
30.74,1625051465.875
38.62,1625051465.890625
46.93,1625051465.90625
51.38,1625051465.921875
49.77,1625051465.9375
42.91,1625051465.953125
34.02,1625051465.96875
27.05,1625051465.984375
24.73,1625051466.0
27.28,1625051466.015625
32.37,1625051466.03125
36.28,1625051466.046875
35.64,1625051466.0625
28.84,1625051466.078125
16.6,1625051466.09375
1.46,1625051466.109375
-13.31,1625051466.125
-24.83,1625051466.140625
-31.35,1625051466.15625
-32.37,1625051466.171875
-28.52,1625051466.1875
-21.29,1625051466.203125
-12.83,1625051466.21875
-5.81,1625051466.234375
-2.83,1625051466.25
-5.68,1625051466.265625
-14.61,1625051466.28125
-28.0,1625051466.296875
-42.95,1625051466.3125
-56.36,1625051466.328125
-66.07,1625051466.34375
-71.28,1625051466.359375
-72.16,1625051466.375
-68.96,1625051466.390625
-61.42,1625051466.40625
-49.07,1625051466.421875
-32.16,1625051466.4375
-12.55,1625051466.453125
6.33,1625051466.46875
20.72,1625051466.484375
28.27,1625051466.5
29.18,1625051466.515625
25.91,1625051466.53125
21.63,1625051466.546875
18.35,1625051466.5625
15.98,1625051466.578125
12.86,1625051466.59375
7.4,1625051466.609375
-0.52,1625051466.625
-9.08,1625051466.640625
-15.5,1625051466.65625
-17.5,1625051466.671875
-14.6,1625051466.6875
-8.23,1625051466.703125
-0.9,1625051466.71875
5.12,1625051466.734375
8.76,1625051466.75
10.52,1625051466.765625
11.92,1625051466.78125
14.59,1625051466.796875
19.32,1625051466.8125
25.63,1625051466.828125
32.06,1625051466.84375
37.05,1625051466.859375
39.99,1625051466.875
41.77,1625051466.890625
44.47,1625051466.90625
50.25,1625051466.921875
59.89,1625051466.9375
71.98,1625051466.953125
83.22,1625051466.96875
89.98,1625051466.984375
90.33,1625051467.0
85.26,1625051467.015625
78.5,1625051467.03125
74.6,1625051467.046875
76.42,1625051467.0625
83.49,1625051467.078125
92.27,1625051467.09375
98.36,1625051467.109375
99.19,1625051467.125
95.55,1625051467.140625
90.96,1625051467.15625
89.07,1625051467.171875
91.04,1625051467.1875
94.19,1625051467.203125
92.92,1625051467.21875
81.23,1625051467.234375
55.21,1625051467.25
13.88,1625051467.265625
-41.25,1625051467.28125
-107.43,1625051467.296875
-180.99,1625051467.3125
-256.67,1625051467.328125
-326.89,1625051467.34375
-382.26,1625051467.359375
-413.7,1625051467.375
-415.3,1625051467.390625
-386.88,1625051467.40625
-334.67,1625051467.421875
-269.82,1625051467.4375
-205.23,1625051467.453125
-151.64,1625051467.46875
-114.33,1625051467.484375
-91.47,1625051467.5
-75.43,1625051467.515625
-56.82,1625051467.53125
-29.71,1625051467.546875
4.5,1625051467.5625
36.95,1625051467.578125
55.82,1625051467.59375
53.11,1625051467.609375
30.0,1625051467.625
-2.71,1625051467.640625
-29.72,1625051467.65625
-39.1,1625051467.671875
-28.0,1625051467.6875
-3.07,1625051467.703125
24.24,1625051467.71875
44.46,1625051467.734375
54.54,1625051467.75
57.86,1625051467.765625
60.7,1625051467.78125
67.8,1625051467.796875
79.71,1625051467.8125
93.28,1625051467.828125
104.2,1625051467.84375
109.62,1625051467.859375
109.3,1625051467.875
105.38,1625051467.890625
100.79,1625051467.90625
97.7,1625051467.921875
96.53,1625051467.9375
96.08,1625051467.953125
94.32,1625051467.96875
89.6,1625051467.984375
81.63,1625051468.0
71.58,1625051468.015625
61.54,1625051468.03125
53.41,1625051468.046875
47.99,1625051468.0625
44.67,1625051468.078125
41.83,1625051468.09375
37.7,1625051468.109375
31.27,1625051468.125
22.69,1625051468.140625
13.27,1625051468.15625
5.02,1625051468.171875
-0.06,1625051468.1875
-0.7,1625051468.203125
3.05,1625051468.21875
9.53,1625051468.234375
15.98,1625051468.25
19.48,1625051468.265625
18.24,1625051468.28125
12.48,1625051468.296875
4.31,1625051468.3125
-3.31,1625051468.328125
-8.13,1625051468.34375
-9.66,1625051468.359375
-9.2,1625051468.375
-8.78,1625051468.390625
-9.83,1625051468.40625
-12.3,1625051468.421875
-14.9,1625051468.4375
-15.99,1625051468.453125
-14.77,1625051468.46875
-11.61,1625051468.484375
-7.76,1625051468.5
-4.5,1625051468.515625
-2.43,1625051468.53125
-1.3,1625051468.546875
-0.62,1625051468.5625
-0.26,1625051468.578125
-0.68,1625051468.59375
-2.72,1625051468.609375
-6.95,1625051468.625
-13.14,1625051468.640625
-20.09,1625051468.65625
-25.94,1625051468.671875
-28.77,1625051468.6875
-27.35,1625051468.703125
-21.55,1625051468.71875
-12.61,1625051468.734375
-2.85,1625051468.75
5.09,1625051468.765625
9.2,1625051468.78125
8.84,1625051468.796875
4.88,1625051468.8125
-0.86,1625051468.828125
-6.43,1625051468.84375
-10.5,1625051468.859375
-12.65,1625051468.875
-13.0,1625051468.890625
-11.67,1625051468.90625
-8.5,1625051468.921875
-3.04,1625051468.9375
4.99,1625051468.953125
15.29,1625051468.96875
26.8,1625051468.984375
37.91,1625051469.0
46.93,1625051469.015625
52.68,1625051469.03125
54.85,1625051469.046875
54.16,1625051469.0625
52.05,1625051469.078125
50.29,1625051469.09375
50.23,1625051469.109375
52.37,1625051469.125
56.2,1625051469.140625
60.63,1625051469.15625
64.68,1625051469.171875
68.05,1625051469.1875
71.2,1625051469.203125
74.81,1625051469.21875
78.97,1625051469.234375
82.46,1625051469.25
83.17,1625051469.265625
78.72,1625051469.28125
67.53,1625051469.296875
49.22,1625051469.3125
24.2,1625051469.328125
-7.41,1625051469.34375
-46.59,1625051469.359375
-95.15,1625051469.375
-153.96,1625051469.390625
-220.63,1625051469.40625
-288.31,1625051469.421875
-346.66,1625051469.4375
-384.98,1625051469.453125
-396.16,1625051469.46875
-379.24,1625051469.484375
-339.48,1625051469.5
-285.92,1625051469.515625
-227.71,1625051469.53125
-171.46,1625051469.546875
-120.41,1625051469.5625
-75.5,1625051469.578125
-36.93,1625051469.59375
-5.44,1625051469.609375
17.98,1625051469.625
32.96,1625051469.640625
40.58,1625051469.65625
43.46,1625051469.671875
44.94,1625051469.6875
47.81,1625051469.703125
53.14,1625051469.71875
59.78,1625051469.734375
64.55,1625051469.75
63.41,1625051469.765625
53.3,1625051469.78125
33.95,1625051469.796875
8.9,1625051469.8125
-14.82,1625051469.828125
-28.49,1625051469.84375
-24.18,1625051469.859375
2.47,1625051469.875
50.35,1625051469.890625
112.42,1625051469.90625
176.93,1625051469.921875
230.28,1625051469.9375
260.71,1625051469.953125
261.7,1625051469.96875
234.09,1625051469.984375
185.72,1625051470.0
128.7,1625051470.015625
75.31,1625051470.03125
34.24,1625051470.046875
8.66,1625051470.0625
-3.01,1625051470.078125
-4.66,1625051470.09375
0.14,1625051470.109375
9.35,1625051470.125
22.16,1625051470.140625
37.44,1625051470.15625
52.76,1625051470.171875
64.77,1625051470.1875
70.56,1625051470.203125
69.26,1625051470.21875
62.53,1625051470.234375
53.95,1625051470.25
47.06,1625051470.265625
43.69,1625051470.28125
43.2,1625051470.296875
43.09,1625051470.3125
40.55,1625051470.328125
34.07,1625051470.34375
24.23,1625051470.359375
13.39,1625051470.375
4.42,1625051470.390625
-0.69,1625051470.40625
-1.66,1625051470.421875
0.04,1625051470.4375
2.15,1625051470.453125
2.65,1625051470.46875
0.6,1625051470.484375
-3.78,1625051470.5
-9.48,1625051470.515625
-15.29,1625051470.53125
-20.25,1625051470.546875
-23.84,1625051470.5625
-25.99,1625051470.578125
-27.05,1625051470.59375
-27.72,1625051470.609375
-28.91,1625051470.625
-31.34,1625051470.640625
-35.0,1625051470.65625
-39.04,1625051470.671875
-41.97,1625051470.6875
-42.34,1625051470.703125
-39.52,1625051470.71875
-34.18,1625051470.734375
-27.92,1625051470.75
-22.6,1625051470.765625
-19.54,1625051470.78125
-19.06,1625051470.796875
-20.61,1625051470.8125
-23.18,1625051470.828125
-25.76,1625051470.84375
-27.41,1625051470.859375
-27.31,1625051470.875
-24.77,1625051470.890625
-19.48,1625051470.90625
-11.81,1625051470.921875
-2.85,1625051470.9375
5.88,1625051470.953125
13.11,1625051470.96875
18.46,1625051470.984375
22.65,1625051471.0
26.98,1625051471.015625
32.45,1625051471.03125
38.95,1625051471.046875
45.11,1625051471.0625
48.89,1625051471.078125
48.5,1625051471.09375
43.31,1625051471.109375
34.04,1625051471.125
22.58,1625051471.140625
11.35,1625051471.15625
2.65,1625051471.171875
-1.86,1625051471.1875
-1.57,1625051471.203125
2.94,1625051471.21875
10.1,1625051471.234375
17.93,1625051471.25
24.83,1625051471.265625
30.19,1625051471.28125
34.54,1625051471.296875
38.96,1625051471.3125
44.2,1625051471.328125
50.04,1625051471.34375
55.27,1625051471.359375
58.51,1625051471.375
59.22,1625051471.390625
58.31,1625051471.40625
57.9,1625051471.421875
60.25,1625051471.4375
66.5,1625051471.453125
75.89,1625051471.46875
86.07,1625051471.484375
94.27,1625051471.5
98.82,1625051471.515625
100.22,1625051471.53125
101.09,1625051471.546875
104.89,1625051471.5625
114.01,1625051471.578125
128.14,1625051471.59375
143.94,1625051471.609375
156.28,1625051471.625
160.4,1625051471.640625
153.9,1625051471.65625
137.36,1625051471.671875
113.51,1625051471.6875
85.42,1625051471.703125
55.26,1625051471.71875
24.41,1625051471.734375
-5.47,1625051471.75
-31.32,1625051471.765625
-49.11,1625051471.78125
-55.57,1625051471.796875
-50.82,1625051471.8125
-39.34,1625051471.828125
-29.14,1625051471.84375
-28.78,1625051471.859375
-43.97,1625051471.875
-75.83,1625051471.890625
-121.6,1625051471.90625
-177.13,1625051471.921875
-239.17,1625051471.9375
-305.83,1625051471.953125
-375.07,1625051471.96875
-442.58,1625051471.984375
-501.08,1625051472.0
-541.72,1625051472.015625
-557.44,1625051472.03125
-546.02,1625051472.046875
-510.98,1625051472.0625
-460.03,1625051472.078125
-401.68,1625051472.09375
-341.92,1625051472.109375
-282.73,1625051472.125
-223.13,1625051472.140625
-161.95,1625051472.15625
-100.48,1625051472.171875
-43.13,1625051472.1875
4.38,1625051472.203125
38.2,1625051472.21875
58.91,1625051472.234375
71.65,1625051472.25
83.56,1625051472.265625
99.96,1625051472.28125
121.46,1625051472.296875
143.65,1625051472.3125
160.12,1625051472.328125
166.45,1625051472.34375
163.01,1625051472.359375
154.72,1625051472.375
148.14,1625051472.390625
147.7,1625051472.40625
153.74,1625051472.421875
163.08,1625051472.4375
171.49,1625051472.453125
176.22,1625051472.46875
177.04,1625051472.484375
175.3,1625051472.5
172.57,1625051472.515625
169.38,1625051472.53125
164.99,1625051472.546875
158.23,1625051472.5625
148.24,1625051472.578125
134.78,1625051472.59375
118.35,1625051472.609375
99.83,1625051472.625
80.46,1625051472.640625
61.75,1625051472.65625
45.35,1625051472.671875
32.6,1625051472.6875
24.1,1625051472.703125
19.53,1625051472.71875
17.81,1625051472.734375
17.62,1625051472.75
17.77,1625051472.765625
17.41,1625051472.78125
16.02,1625051472.796875
13.39,1625051472.8125
9.71,1625051472.828125
5.63,1625051472.84375
2.09,1625051472.859375
-0.11,1625051472.875
-0.82,1625051472.890625
-0.8,1625051472.90625
-1.39,1625051472.921875
-3.77,1625051472.9375
-8.22,1625051472.953125
-13.99,1625051472.96875
-19.69,1625051472.984375
-24.16,1625051473.0
-27.02,1625051473.015625
-28.69,1625051473.03125
-29.85,1625051473.046875
-30.75,1625051473.0625
-30.93,1625051473.078125
-29.56,1625051473.09375
-26.22,1625051473.109375
-21.47,1625051473.125
-16.94,1625051473.140625
-14.48,1625051473.15625
-15.15,1625051473.171875
-18.37,1625051473.1875
-22.09,1625051473.203125
-23.72,1625051473.21875
-21.47,1625051473.234375
-15.32,1625051473.25
-6.99,1625051473.265625
0.96,1625051473.28125
6.49,1625051473.296875
8.99,1625051473.3125
9.32,1625051473.328125
9.11,1625051473.34375
9.67,1625051473.359375
11.4,1625051473.375
13.94,1625051473.390625
16.71,1625051473.40625
19.46,1625051473.421875
22.39,1625051473.4375
25.73,1625051473.453125
29.33,1625051473.46875
32.68,1625051473.484375
35.26,1625051473.5
37.24,1625051473.515625
39.59,1625051473.53125
43.64,1625051473.546875
50.26,1625051473.5625
59.17,1625051473.578125
68.81,1625051473.59375
77.07,1625051473.609375
82.29,1625051473.625
84.17,1625051473.640625
83.99,1625051473.65625
84.08,1625051473.671875
86.79,1625051473.6875
93.25,1625051473.703125
102.52,1625051473.71875
111.47,1625051473.734375
115.39,1625051473.75
109.55,1625051473.765625
90.66,1625051473.78125
58.12,1625051473.796875
14.28,1625051473.8125
-36.27,1625051473.828125
-88.12,1625051473.84375
-136.15,1625051473.859375
-176.17,1625051473.875
-204.96,1625051473.890625
-220.26,1625051473.90625
-221.19,1625051473.921875
-208.87,1625051473.9375
-186.7,1625051473.953125
-159.72,1625051473.96875
-133.3,1625051473.984375
-111.43,1625051474.0
-95.79,1625051474.015625
-85.88,1625051474.03125
-80.0,1625051474.046875
-76.34,1625051474.0625
-73.63,1625051474.078125
-71.17,1625051474.09375
-68.61,1625051474.109375
-65.7,1625051474.125
-62.45,1625051474.140625
-59.21,1625051474.15625
-56.66,1625051474.171875
-55.39,1625051474.1875
-55.33,1625051474.203125
-55.6,1625051474.21875
-54.81,1625051474.234375
-51.87,1625051474.25
-46.76,1625051474.265625
-40.81,1625051474.28125
-36.23,1625051474.296875
-35.06,1625051474.3125
-38.15,1625051474.328125
-44.53,1625051474.34375
-51.85,1625051474.359375
-57.32,1625051474.375
-58.86,1625051474.390625
-55.69,1625051474.40625
-48.02,1625051474.421875
-36.46,1625051474.4375
-21.58,1625051474.453125
-4.15,1625051474.46875
14.08,1625051474.484375
30.04,1625051474.5
39.86,1625051474.515625
40.53,1625051474.53125
31.55,1625051474.546875
15.74,1625051474.5625
-1.44,1625051474.578125
-13.88,1625051474.59375
-17.12,1625051474.609375
-9.78,1625051474.625
6.3,1625051474.640625
27.13,1625051474.65625
48.15,1625051474.671875
65.63,1625051474.6875
77.36,1625051474.703125
82.76,1625051474.71875
82.55,1625051474.734375
78.31,1625051474.75
72.0,1625051474.765625
65.6,1625051474.78125
60.84,1625051474.796875
58.87,1625051474.8125
60.05,1625051474.828125
63.8,1625051474.84375
68.74,1625051474.859375
73.17,1625051474.875
75.72,1625051474.890625
75.86,1625051474.90625
73.89,1625051474.921875
70.47,1625051474.9375
66.01,1625051474.953125
60.34,1625051474.96875
53.06,1625051474.984375
44.07,1625051475.0
34.09,1625051475.015625
24.55,1625051475.03125
16.92,1625051475.046875
11.97,1625051475.0625
9.56,1625051475.078125
9.04,1625051475.09375
9.98,1625051475.109375
12.79,1625051475.125
18.4,1625051475.140625
27.48,1625051475.15625
39.56,1625051475.171875
52.73,1625051475.1875
64.34,1625051475.203125
72.01,1625051475.21875
74.49,1625051475.234375
71.8,1625051475.25
64.74,1625051475.265625
54.25,1625051475.28125
41.2,1625051475.296875
26.64,1625051475.3125
12.18,1625051475.328125
-0.05,1625051475.34375
-7.92,1625051475.359375
-10.18,1625051475.375
-7.04,1625051475.390625
-0.04,1625051475.40625
8.57,1625051475.421875
16.74,1625051475.4375
23.06,1625051475.453125
26.87,1625051475.46875
27.93,1625051475.484375
26.35,1625051475.5
22.65,1625051475.515625
17.87,1625051475.53125
13.28,1625051475.546875
9.74,1625051475.5625
7.12,1625051475.578125
4.22,1625051475.59375
-0.63,1625051475.609375
-8.36,1625051475.625
-18.29,1625051475.640625
-28.05,1625051475.65625
-34.63,1625051475.671875
-35.82,1625051475.6875
-31.34,1625051475.703125
-22.89,1625051475.71875
-13.2,1625051475.734375
-4.62,1625051475.75
1.77,1625051475.765625
6.08,1625051475.78125
8.81,1625051475.796875
9.98,1625051475.8125
8.9,1625051475.828125
4.88,1625051475.84375
-1.82,1625051475.859375
-9.38,1625051475.875
-14.8,1625051475.890625
-15.1,1625051475.90625
-8.86,1625051475.921875
3.05,1625051475.9375
17.74,1625051475.953125
31.75,1625051475.96875
42.69,1625051475.984375
50.1,1625051476.0
55.28,1625051476.015625
60.09,1625051476.03125
65.73,1625051476.046875
72.16,1625051476.0625
78.51,1625051476.078125
84.08,1625051476.09375
89.02,1625051476.109375
94.25,1625051476.125
100.71,1625051476.140625
108.45,1625051476.15625
116.44,1625051476.171875
123.13,1625051476.1875
127.68,1625051476.203125
130.8,1625051476.21875
134.73,1625051476.234375
142.09,1625051476.25
154.14,1625051476.265625
169.56,1625051476.28125
184.32,1625051476.296875
193.0,1625051476.3125
190.75,1625051476.328125
175.18,1625051476.34375
147.18,1625051476.359375
110.16,1625051476.375
68.48,1625051476.390625
25.59,1625051476.40625
-17.09,1625051476.421875
-59.99,1625051476.4375
-104.38,1625051476.453125
-151.27,1625051476.46875
-200.97,1625051476.484375
-253.41,1625051476.5
-308.52,1625051476.515625
-365.93,1625051476.53125
-424.0,1625051476.546875
-478.67,1625051476.5625
-523.43,1625051476.578125
-550.71,1625051476.59375
-554.45,1625051476.609375
-532.49,1625051476.625
-487.45,1625051476.640625
-425.81,1625051476.65625
-355.49,1625051476.671875
-283.48,1625051476.6875
-214.71,1625051476.703125
-152.29,1625051476.71875
-98.45,1625051476.734375
-54.96,1625051476.75
-22.74,1625051476.765625
-0.6,1625051476.78125
15.53,1625051476.796875
32.07,1625051476.8125
55.45,1625051476.828125
88.84,1625051476.84375
129.77,1625051476.859375
170.08,1625051476.875
198.84,1625051476.890625
207.21,1625051476.90625
192.72,1625051476.921875
160.73,1625051476.9375
122.04,1625051476.953125
87.73,1625051476.96875
64.06,1625051476.984375
50.18,1625051477.0
39.7,1625051477.015625
25.2,1625051477.03125
2.97,1625051477.046875
-24.92,1625051477.0625
-51.65,1625051477.078125
-69.33,1625051477.09375
-72.67,1625051477.109375
-60.61,1625051477.125
-35.13,1625051477.140625
1.34,1625051477.15625
47.71,1625051477.171875
103.9,1625051477.1875
168.49,1625051477.203125
236.12,1625051477.21875
296.96,1625051477.234375
339.19,1625051477.25
353.27,1625051477.265625
335.72,1625051477.28125
290.14,1625051477.296875
225.25,1625051477.3125
151.43,1625051477.328125
77.82,1625051477.34375
11.25,1625051477.359375
-43.25,1625051477.375
-81.72,1625051477.390625
-101.66,1625051477.40625
-103.29,1625051477.421875
-90.32,1625051477.4375
-69.05,1625051477.453125
-45.95,1625051477.46875
-25.18,1625051477.484375
-7.59,1625051477.5
7.92,1625051477.515625
