bvp,time
34.36,1549375375.84375
35.82,1549375375.859375
35.32,1549375375.875
33.11,1549375375.890625
29.86,1549375375.90625
26.44,1549375375.921875
23.75,1549375375.9375
22.69,1549375375.953125
24.14,1549375375.96875
28.99,1549375375.984375
37.73,1549375376.0
50.07,1549375376.015625
64.39,1549375376.03125
77.77,1549375376.046875
86.63,1549375376.0625
87.89,1549375376.078125
80.04,1549375376.09375
63.77,1549375376.109375
41.54,1549375376.125
16.61,1549375376.140625
-8.09,1549375376.15625
-30.6,1549375376.171875
-49.94,1549375376.1875
-65.68,1549375376.203125
-77.65,1549375376.21875
-85.91,1549375376.234375
-90.95,1549375376.25
-93.72,1549375376.265625
-95.43,1549375376.28125
-96.9,1549375376.296875
-98.24,1549375376.3125
-98.78,1549375376.328125
-97.52,1549375376.34375
-93.73,1549375376.359375
-87.38,1549375376.375
-79.15,1549375376.390625
-70.16,1549375376.40625
-61.54,1549375376.421875
-54.11,1549375376.4375
-48.29,1549375376.453125
-44.11,1549375376.46875
-41.36,1549375376.484375
-39.62,1549375376.5
-38.43,1549375376.515625
-37.33,1549375376.53125
-35.95,1549375376.546875
-34.13,1549375376.5625
-31.92,1549375376.578125
-29.55,1549375376.59375
-27.34,1549375376.609375
-25.64,1549375376.625
-24.76,1549375376.640625
-24.91,1549375376.65625
-26.29,1549375376.671875
-28.94,1549375376.6875
-32.81,1549375376.703125
-37.62,1549375376.71875
-42.88,1549375376.734375
-47.92,1549375376.75
-52.05,1549375376.765625
-54.87,1549375376.78125
-56.34,1549375376.796875
-56.93,1549375376.8125
-57.38,1549375376.828125
-58.25,1549375376.84375
-59.52,1549375376.859375
-60.38,1549375376.875
-59.39,1549375376.890625
-54.93,1549375376.90625
-45.84,1549375376.921875
-31.71,1549375376.9375
-13.03,1549375376.953125
9.12,1549375376.96875
33.69,1549375376.984375
60.05,1549375377.0
88.19,1549375377.015625
118.3,1549375377.03125
150.24,1549375377.046875
182.83,1549375377.0625
213.5,1549375377.078125
238.47,1549375377.09375
253.58,1549375377.109375
255.15,1549375377.125
240.91,1549375377.140625
210.51,1549375377.15625
165.79,1549375377.171875
110.83,1549375377.1875
51.64,1549375377.203125
-4.54,1549375377.21875
-50.7,1549375377.234375
-81.68,1549375377.25
-95.63,1549375377.265625
-94.56,1549375377.28125
-83.3,1549375377.296875
-67.71,1549375377.3125
-52.59,1549375377.328125
-40.47,1549375377.34375
-31.76,1549375377.359375
-25.66,1549375377.375
-21.3,1549375377.390625
-18.36,1549375377.40625
-16.9,1549375377.421875
-16.85,1549375377.4375
-17.68,1549375377.453125
-18.55,1549375377.46875
-18.74,1549375377.484375
-18.09,1549375377.5
-16.88,1549375377.515625
-15.68,1549375377.53125
-14.9,1549375377.546875
-14.55,1549375377.5625
-14.37,1549375377.578125
-14.11,1549375377.59375
-13.76,1549375377.609375
-13.61,1549375377.625
-14.01,1549375377.640625
-15.07,1549375377.65625
-16.49,1549375377.671875
-17.72,1549375377.6875
-18.2,1549375377.703125
-17.78,1549375377.71875
-16.85,1549375377.734375
-16.32,1549375377.75
-17.27,1549375377.765625
-20.78,1549375377.78125
-27.66,1549375377.796875
-38.19,1549375377.8125
-51.76,1549375377.828125
-66.31,1549375377.84375
-78.38,1549375377.859375
-83.72,1549375377.875
-78.76,1549375377.890625
-62.24,1549375377.90625
-36.14,1549375377.921875
-5.29,1549375377.9375
24.36,1549375377.953125
47.88,1549375377.96875
63.03,1549375377.984375
70.5,1549375378.0
72.75,1549375378.015625
72.41,1549375378.03125
70.93,1549375378.046875
68.42,1549375378.0625
64.26,1549375378.078125
58.1,1549375378.09375
50.49,1549375378.109375
42.68,1549375378.125
35.97,1549375378.140625
30.97,1549375378.15625
27.22,1549375378.171875
23.4,1549375378.1875
18.09,1549375378.203125
10.51,1549375378.21875
0.95,1549375378.234375
-9.36,1549375378.25
-18.92,1549375378.265625
-26.73,1549375378.28125
-32.77,1549375378.296875
-37.91,1549375378.3125
-43.43,1549375378.328125
-50.25,1549375378.34375
-58.58,1549375378.359375
-67.88,1549375378.375
-77.26,1549375378.390625
-86.01,1549375378.40625
-93.82,1549375378.421875
-100.72,1549375378.4375
-106.82,1549375378.453125
-112.0,1549375378.46875
-115.87,1549375378.484375
-117.85,1549375378.5
-117.4,1549375378.515625
-114.22,1549375378.53125
-108.41,1549375378.546875
-100.44,1549375378.5625
-91.17,1549375378.578125
-81.75,1549375378.59375
-73.51,1549375378.609375
-67.65,1549375378.625
-64.9,1549375378.640625
-65.18,1549375378.65625
-67.4,1549375378.671875
-69.72,1549375378.6875
-70.18,1549375378.703125
-67.44,1549375378.71875
-61.45,1549375378.734375
-53.4,1549375378.75
-45.29,1549375378.765625
-39.02,1549375378.78125
-35.53,1549375378.796875
-34.5,1549375378.8125
-34.53,1549375378.828125
-33.81,1549375378.84375
-30.96,1549375378.859375
-25.54,1549375378.875
-18.1,1549375378.890625
-9.91,1549375378.90625
-2.41,1549375378.921875
3.27,1549375378.9375
6.71,1549375378.953125
8.26,1549375378.96875
9.02,1549375378.984375
10.44,1549375379.0
13.92,1549375379.015625
20.38,1549375379.03125
29.98,1549375379.046875
42.14,1549375379.0625
55.81,1549375379.078125
69.78,1549375379.09375
83.01,1549375379.109375
94.68,1549375379.125
104.23,1549375379.140625
111.16,1549375379.15625
115.06,1549375379.171875
115.74,1549375379.1875
113.34,1549375379.203125
108.5,1549375379.21875
102.2,1549375379.234375
95.52,1549375379.25
89.24,1549375379.265625
83.63,1549375379.28125
78.52,1549375379.296875
73.47,1549375379.3125
68.07,1549375379.328125
62.16,1549375379.34375
55.85,1549375379.359375
49.32,1549375379.375
42.57,1549375379.390625
35.3,1549375379.40625
26.92,1549375379.421875
16.73,1549375379.4375
4.29,1549375379.453125
-10.21,1549375379.46875
-25.75,1549375379.484375
-40.52,1549375379.5
-52.33,1549375379.515625
-59.23,1549375379.53125
-60.2,1549375379.546875
-55.47,1549375379.5625
-46.5,1549375379.578125
-35.42,1549375379.59375
-24.41,1549375379.609375
-15.02,1549375379.625
-7.85,1549375379.640625
-2.68,1549375379.65625
1.25,1549375379.671875
4.73,1549375379.6875
8.29,1549375379.703125
12.03,1549375379.71875
15.71,1549375379.734375
18.96,1549375379.75
21.45,1549375379.765625
23.07,1549375379.78125
23.97,1549375379.796875
24.44,1549375379.8125
24.87,1549375379.828125
25.55,1549375379.84375
26.68,1549375379.859375
28.33,1549375379.875
30.48,1549375379.890625
33.02,1549375379.90625
35.75,1549375379.921875
38.39,1549375379.9375
40.51,1549375379.953125
41.69,1549375379.96875
41.55,1549375379.984375
39.85,1549375380.0
36.59,1549375380.015625
32.02,1549375380.03125
26.61,1549375380.046875
20.93,1549375380.0625
15.56,1549375380.078125
10.93,1549375380.09375
7.21,1549375380.109375
4.28,1549375380.125
1.75,1549375380.140625
-0.96,1549375380.15625
-4.47,1549375380.171875
-9.33,1549375380.1875
-15.86,1549375380.203125
-24.19,1549375380.21875
-34.11,1549375380.234375
-45.0,1549375380.25
-55.68,1549375380.265625
-64.44,1549375380.28125
-69.29,1549375380.296875
-68.55,1549375380.3125
-61.48,1549375380.328125
-48.73,1549375380.34375
-32.22,1549375380.359375
-14.62,1549375380.375
1.67,1549375380.390625
15.17,1549375380.40625
25.69,1549375380.421875
33.99,1549375380.4375
41.2,1549375380.453125
48.17,1549375380.46875
55.17,1549375380.484375
61.87,1549375380.5
67.72,1549375380.515625
72.25,1549375380.53125
75.28,1549375380.546875
76.95,1549375380.5625
77.61,1549375380.578125
77.72,1549375380.59375
77.63,1549375380.609375
77.58,1549375380.625
77.62,1549375380.640625
77.64,1549375380.65625
77.47,1549375380.671875
76.94,1549375380.6875
75.94,1549375380.703125
74.42,1549375380.71875
72.31,1549375380.734375
69.42,1549375380.75
65.43,1549375380.765625
59.88,1549375380.78125
52.41,1549375380.796875
42.91,1549375380.8125
31.73,1549375380.828125
19.64,1549375380.84375
7.63,1549375380.859375
-3.45,1549375380.875
-13.23,1549375380.890625
-21.84,1549375380.90625
-29.77,1549375380.921875
-37.63,1549375380.9375
-45.8,1549375380.953125
-54.34,1549375380.96875
-63.02,1549375380.984375
-71.36,1549375381.0
-78.64,1549375381.015625
-83.9,1549375381.03125
-86.0,1549375381.046875
-83.93,1549375381.0625
-77.12,1549375381.078125
-66.03,1549375381.09375
-52.14,1549375381.109375
-37.64,1549375381.125
-24.6,1549375381.140625
-14.21,1549375381.15625
-6.3,1549375381.171875
0.38,1549375381.1875
7.52,1549375381.203125
16.46,1549375381.21875
27.72,1549375381.234375
40.97,1549375381.25
55.32,1549375381.265625
69.62,1549375381.28125
82.72,1549375381.296875
93.54,1549375381.3125
101.24,1549375381.328125
105.4,1549375381.34375
106.3,1549375381.359375
104.86,1549375381.375
102.39,1549375381.390625
100.09,1549375381.40625
98.64,1549375381.421875
98.04,1549375381.4375
97.86,1549375381.453125
97.61,1549375381.46875
97.05,1549375381.484375
96.22,1549375381.5
95.21,1549375381.515625
93.86,1549375381.53125
91.71,1549375381.546875
88.17,1549375381.5625
82.85,1549375381.578125
75.99,1549375381.59375
68.53,1549375381.609375
61.84,1549375381.625
57.26,1549375381.640625
55.53,1549375381.65625
56.37,1549375381.671875
58.58,1549375381.6875
60.37,1549375381.703125
59.97,1549375381.71875
56.15,1549375381.734375
48.54,1549375381.75
37.55,1549375381.765625
24.2,1549375381.78125
9.86,1549375381.796875
-3.95,1549375381.8125
-15.73,1549375381.828125
-24.22,1549375381.84375
-28.63,1549375381.859375
-28.78,1549375381.875
-25.19,1549375381.890625
-18.89,1549375381.90625
-11.24,1549375381.921875
-3.58,1549375381.9375
2.95,1549375381.953125
7.5,1549375381.96875
9.54,1549375381.984375
8.84,1549375382.0
5.42,1549375382.015625
-0.54,1549375382.03125
-8.65,1549375382.046875
-18.35,1549375382.0625
-28.89,1549375382.078125
-39.29,1549375382.09375
-48.48,1549375382.109375
-55.32,1549375382.125
-58.9,1549375382.140625
-58.64,1549375382.15625
-54.34,1549375382.171875
-46.01,1549375382.1875
-33.6,1549375382.203125
-16.87,1549375382.21875
4.56,1549375382.234375
30.66,1549375382.25
60.49,1549375382.265625
91.69,1549375382.28125
120.42,1549375382.296875
142.0,1549375382.3125
151.99,1549375382.328125
147.27,1549375382.34375
126.76,1549375382.359375
91.43,1549375382.375
43.9,1549375382.390625
-12.12,1549375382.40625
-72.14,1549375382.421875
-131.08,1549375382.4375
-183.54,1549375382.453125
-224.52,1549375382.46875
-250.5,1549375382.484375
-260.42,1549375382.5
-256.04,1549375382.515625
-241.31,1549375382.53125
-221.02,1549375382.546875
-199.2,1549375382.5625
-178.3,1549375382.578125
-159.07,1549375382.59375
-141.23,1549375382.609375
-124.35,1549375382.625
-108.4,1549375382.640625
-93.89,1549375382.65625
-81.75,1549375382.671875
-73.06,1549375382.6875
-68.47,1549375382.703125
-67.65,1549375382.71875
-68.67,1549375382.734375
-68.0,1549375382.75
-61.45,1549375382.765625
-45.61,1549375382.78125
-19.66,1549375382.796875
13.8,1549375382.8125
49.18,1549375382.828125
79.9,1549375382.84375
100.75,1549375382.859375
109.85,1549375382.875
108.92,1549375382.890625
102.12,1549375382.90625
94.03,1549375382.921875
87.82,1549375382.9375
84.46,1549375382.953125
83.09,1549375382.96875
82.32,1549375382.984375
81.2,1549375383.0
79.78,1549375383.015625
78.7,1549375383.03125
78.47,1549375383.046875
78.8,1549375383.0625
78.59,1549375383.078125
76.59,1549375383.09375
72.31,1549375383.109375
66.37,1549375383.125
60.06,1549375383.140625
54.13,1549375383.15625
47.62,1549375383.171875
37.8,1549375383.1875
21.5,1549375383.203125
-2.86,1549375383.21875
-33.67,1549375383.234375
-66.31,1549375383.25
-95.19,1549375383.265625
-116.58,1549375383.28125
-130.49,1549375383.296875
-140.28,1549375383.3125
-150.46,1549375383.328125
-163.88,1549375383.34375
-180.41,1549375383.359375
-197.52,1549375383.375
-212.5,1549375383.390625
-224.58,1549375383.40625
-235.42,1549375383.421875
-247.62,1549375383.4375
-262.28,1549375383.453125
-277.34,1549375383.46875
-287.79,1549375383.484375
-287.74,1549375383.5
-273.22,1549375383.515625
-244.09,1549375383.53125
-204.19,1549375383.546875
-159.76,1549375383.5625
-117.05,1549375383.578125
-80.43,1549375383.59375
-51.52,1549375383.609375
-29.59,1549375383.625
-12.74,1549375383.640625
0.83,1549375383.65625
12.22,1549375383.671875
21.71,1549375383.6875
29.34,1549375383.703125
35.47,1549375383.71875
41.06,1549375383.734375
47.24,1549375383.75
54.92,1549375383.765625
64.14,1549375383.78125
73.9,1549375383.796875
82.48,1549375383.8125
88.12,1549375383.828125
89.71,1549375383.84375
87.29,1549375383.859375
81.9,1549375383.875
75.13,1549375383.890625
68.38,1549375383.90625
62.42,1549375383.921875
57.24,1549375383.9375
52.24,1549375383.953125
46.66,1549375383.96875
40.03,1549375383.984375
32.31,1549375384.0
24.01,1549375384.015625
15.9,1549375384.03125
8.84,1549375384.046875
3.35,1549375384.0625
-0.53,1549375384.078125
-3.22,1549375384.09375
-5.39,1549375384.109375
-7.59,1549375384.125
-9.99,1549375384.140625
-12.19,1549375384.15625
-13.46,1549375384.171875
-12.99,1549375384.1875
-10.24,1549375384.203125
-5.05,1549375384.21875
2.38,1549375384.234375
11.62,1549375384.25
22.21,1549375384.265625
33.53,1549375384.28125
44.91,1549375384.296875
55.48,1549375384.3125
64.26,1549375384.328125
70.38,1549375384.34375
73.2,1549375384.359375
72.51,1549375384.375
68.45,1549375384.390625
61.56,1549375384.40625
52.6,1549375384.421875
42.65,1549375384.4375
32.97,1549375384.453125
24.87,1549375384.46875
19.5,1549375384.484375
17.51,1549375384.5
18.92,1549375384.515625
23.1,1549375384.53125
29.05,1549375384.546875
35.57,1549375384.5625
41.65,1549375384.578125
46.52,1549375384.59375
49.79,1549375384.609375
51.34,1549375384.625
51.36,1549375384.640625
50.21,1549375384.65625
48.37,1549375384.671875
46.27,1549375384.6875
44.15,1549375384.703125
42.01,1549375384.71875
39.66,1549375384.734375
36.83,1549375384.75
33.47,1549375384.765625
29.71,1549375384.78125
25.89,1549375384.796875
22.27,1549375384.8125
18.88,1549375384.828125
15.44,1549375384.84375
11.41,1549375384.859375
6.2,1549375384.875
-0.66,1549375384.890625
-9.42,1549375384.90625
-20.0,1549375384.921875
-31.91,1549375384.9375
-44.11,1549375384.953125
-54.91,1549375384.96875
-62.25,1549375384.984375
-64.24,1549375385.0
-59.94,1549375385.015625
-49.89,1549375385.03125
-36.13,1549375385.046875
-21.52,1549375385.0625
-8.81,1549375385.078125
0.31,1549375385.09375
5.54,1549375385.109375
7.66,1549375385.125
7.89,1549375385.140625
7.24,1549375385.15625
6.14,1549375385.171875
4.61,1549375385.1875
2.58,1549375385.203125
0.18,1549375385.21875
-2.2,1549375385.234375
-4.13,1549375385.25
-5.36,1549375385.265625
-6.01,1549375385.28125
-6.45,1549375385.296875
-7.15,1549375385.3125
-8.36,1549375385.328125
-9.97,1549375385.34375
-11.62,1549375385.359375
-12.82,1549375385.375
-13.3,1549375385.390625
-13.06,1549375385.40625
-12.5,1549375385.421875
-12.16,1549375385.4375
-12.58,1549375385.453125
-14.09,1549375385.46875
-16.7,1549375385.484375
-20.03,1549375385.5
-23.47,1549375385.515625
-26.36,1549375385.53125
-28.21,1549375385.546875
-28.95,1549375385.5625
-28.95,1549375385.578125
-28.92,1549375385.59375
-29.62,1549375385.609375
-31.57,1549375385.625
-34.95,1549375385.640625
-39.48,1549375385.65625
-44.51,1549375385.671875
-49.12,1549375385.6875
-52.18,1549375385.703125
-52.57,1549375385.71875
-49.44,1549375385.734375
-42.55,1549375385.75
-32.43,1549375385.765625
-20.34,1549375385.78125
-7.91,1549375385.796875
3.39,1549375385.8125
12.7,1549375385.828125
19.93,1549375385.84375
25.57,1549375385.859375
30.34,1549375385.875
34.72,1549375385.890625
38.85,1549375385.90625
42.57,1549375385.921875
45.6,1549375385.9375
47.79,1549375385.953125
49.19,1549375385.96875
49.93,1549375385.984375
50.16,1549375386.0
49.97,1549375386.015625
49.32,1549375386.03125
48.26,1549375386.046875
46.95,1549375386.0625
45.74,1549375386.078125
44.95,1549375386.09375
44.79,1549375386.109375
45.12,1549375386.125
45.49,1549375386.140625
45.25,1549375386.15625
43.8,1549375386.171875
40.8,1549375386.1875
36.31,1549375386.203125
30.69,1549375386.21875
24.54,1549375386.234375
18.45,1549375386.25
12.87,1549375386.265625
8.03,1549375386.28125
3.89,1549375386.296875
0.21,1549375386.3125
-3.37,1549375386.328125
-7.22,1549375386.34375
-11.67,1549375386.359375
-16.81,1549375386.375
-22.36,1549375386.390625
-27.59,1549375386.40625
-31.3,1549375386.421875
-32.24,1549375386.4375
-29.51,1549375386.453125
-23.05,1549375386.46875
-13.78,1549375386.484375
-3.39,1549375386.5
6.34,1549375386.515625
14.11,1549375386.53125
19.5,1549375386.546875
22.91,1549375386.5625
25.1,1549375386.578125
26.75,1549375386.59375
28.09,1549375386.609375
28.94,1549375386.625
28.96,1549375386.640625
27.96,1549375386.65625
26.11,1549375386.671875
23.82,1549375386.6875
21.62,1549375386.703125
19.84,1549375386.71875
18.55,1549375386.734375
17.55,1549375386.75
16.59,1549375386.765625
15.5,1549375386.78125
14.31,1549375386.796875
13.18,1549375386.8125
12.23,1549375386.828125
11.42,1549375386.84375
10.5,1549375386.859375
9.16,1549375386.875
7.15,1549375386.890625
4.46,1549375386.90625
1.27,1549375386.921875
-2.12,1549375386.9375
-5.42,1549375386.953125
-8.45,1549375386.96875
-11.17,1549375386.984375
-13.68,1549375387.0
-16.19,1549375387.015625
-18.94,1549375387.03125
-22.16,1549375387.046875
-25.96,1549375387.0625
-30.18,1549375387.078125
-34.29,1549375387.09375
-37.4,1549375387.109375
-38.42,1549375387.125
-36.46,1549375387.140625
-31.16,1549375387.15625
-22.91,1549375387.171875
-12.8,1549375387.1875
-2.21,1549375387.203125
7.61,1549375387.21875
15.97,1549375387.234375
22.89,1549375387.25
28.83,1549375387.265625
34.39,1549375387.28125
39.83,1549375387.296875
44.9,1549375387.3125
48.91,1549375387.328125
51.08,1549375387.34375
50.93,1549375387.359375
48.63,1549375387.375
45.03,1549375387.390625
41.36,1549375387.40625
38.76,1549375387.421875
37.82,1549375387.4375
38.41,1549375387.453125
39.79,1549375387.46875
41.03,1549375387.484375
41.37,1549375387.5
40.49,1549375387.515625
38.48,1549375387.53125
35.6,1549375387.546875
32.12,1549375387.5625
28.11,1549375387.578125
23.49,1549375387.59375
17.94,1549375387.609375
11.1,1549375387.625
2.58,1549375387.640625
-7.85,1549375387.65625
-20.16,1549375387.671875
-33.84,1549375387.6875
-48.06,1549375387.703125
-61.77,1549375387.71875
-74.08,1549375387.734375
-84.5,1549375387.75
-92.99,1549375387.765625
-99.87,1549375387.78125
-105.54,1549375387.796875
-110.1,1549375387.8125
-113.07,1549375387.828125
-113.4,1549375387.84375
-109.8,1549375387.859375
-101.3,1549375387.875
-87.94,1549375387.890625
-70.87,1549375387.90625
-52.17,1549375387.921875
-34.12,1549375387.9375
-18.42,1549375387.953125
-5.62,1549375387.96875
4.76,1549375387.984375
13.74,1549375388.0
22.25,1549375388.015625
30.55,1549375388.03125
38.17,1549375388.046875
44.23,1549375388.0625
47.9,1549375388.078125
48.85,1549375388.09375
47.36,1549375388.109375
44.25,1549375388.125
40.52,1549375388.140625
37.01,1549375388.15625
34.15,1549375388.171875
31.94,1549375388.1875
30.2,1549375388.203125
28.76,1549375388.21875
27.71,1549375388.234375
27.32,1549375388.25
27.77,1549375388.265625
28.99,1549375388.28125
30.57,1549375388.296875
31.83,1549375388.3125
32.14,1549375388.328125
31.17,1549375388.34375
28.94,1549375388.359375
25.84,1549375388.375
22.28,1549375388.390625
18.67,1549375388.40625
15.18,1549375388.421875
11.82,1549375388.4375
8.43,1549375388.453125
4.83,1549375388.46875
0.84,1549375388.484375
-3.71,1549375388.5
-8.87,1549375388.515625
-14.49,1549375388.53125
-20.1,1549375388.546875
-24.87,1549375388.5625
-27.79,1549375388.578125
-27.98,1549375388.59375
-25.08,1549375388.609375
-19.44,1549375388.625
-12.04,1549375388.640625
-4.17,1549375388.65625
3.1,1549375388.671875
9.2,1549375388.6875
14.2,1549375388.703125
18.46,1549375388.71875
22.35,1549375388.734375
25.96,1549375388.75
29.11,1549375388.765625
31.49,1549375388.78125
32.91,1549375388.796875
33.4,1549375388.8125
33.13,1549375388.828125
32.26,1549375388.84375
30.83,1549375388.859375
28.84,1549375388.875
26.28,1549375388.890625
23.3,1549375388.90625
20.24,1549375388.921875
17.51,1549375388.9375
15.42,1549375388.953125
14.05,1549375388.96875
13.21,1549375388.984375
12.49,1549375389.0
11.44,1549375389.015625
9.69,1549375389.03125
7.01,1549375389.046875
3.32,1549375389.0625
-1.34,1549375389.078125
-6.71,1549375389.09375
-12.39,1549375389.109375
-17.85,1549375389.125
-22.55,1549375389.140625
-26.21,1549375389.15625
-28.83,1549375389.171875
-30.84,1549375389.1875
-32.85,1549375389.203125
-35.52,1549375389.21875
-39.31,1549375389.234375
-44.3,1549375389.25
-50.14,1549375389.265625
-56.05,1549375389.28125
-60.9,1549375389.296875
-63.49,1549375389.3125
-62.8,1549375389.328125
-58.37,1549375389.34375
-50.45,1549375389.359375
-40.08,1549375389.375
-28.72,1549375389.390625
-17.88,1549375389.40625
-8.6,1549375389.421875
-1.28,1549375389.4375
4.33,1549375389.453125
8.82,1549375389.46875
12.77,1549375389.484375
16.47,1549375389.5
19.84,1549375389.515625
22.54,1549375389.53125
24.23,1549375389.546875
24.77,1549375389.5625
24.38,1549375389.578125
23.48,1549375389.59375
22.57,1549375389.609375
21.94,1549375389.625
21.57,1549375389.640625
21.2,1549375389.65625
20.5,1549375389.671875
19.37,1549375389.6875
18.04,1549375389.703125
17.07,1549375389.71875
17.02,1549375389.734375
18.23,1549375389.75
20.53,1549375389.765625
23.37,1549375389.78125
25.94,1549375389.796875
27.5,1549375389.8125
27.53,1549375389.828125
25.87,1549375389.84375
22.58,1549375389.859375
17.95,1549375389.875
12.33,1549375389.890625
6.06,1549375389.90625
-0.54,1549375389.921875
-7.31,1549375389.9375
-14.25,1549375389.953125
-21.56,1549375389.96875
-29.56,1549375389.984375
-38.38,1549375390.0
-47.71,1549375390.015625
-56.69,1549375390.03125
-63.89,1549375390.046875
-67.74,1549375390.0625
-66.97,1549375390.078125
-61.2,1549375390.09375
-51.05,1549375390.109375
-38.08,1549375390.125
-24.3,1549375390.140625
-11.52,1549375390.15625
-0.83,1549375390.171875
7.59,1549375390.1875
14.39,1549375390.203125
20.57,1549375390.21875
27.07,1549375390.234375
34.39,1549375390.25
42.53,1549375390.265625
51.1,1549375390.28125
59.56,1549375390.296875
67.38,1549375390.3125
74.2,1549375390.328125
79.74,1549375390.34375
83.79,1549375390.359375
86.12,1549375390.375
86.53,1549375390.390625
84.94,1549375390.40625
81.48,1549375390.421875
76.59,1549375390.4375
70.92,1549375390.453125
65.17,1549375390.46875
59.89,1549375390.484375
55.24,1549375390.5
50.99,1549375390.515625
46.58,1549375390.53125
41.31,1549375390.546875
34.6,1549375390.5625
26.19,1549375390.578125
16.28,1549375390.59375
5.47,1549375390.609375
-5.39,1549375390.625
-15.6,1549375390.640625
-24.85,1549375390.65625
-33.39,1549375390.671875
-41.9,1549375390.6875
-51.16,1549375390.703125
-61.58,1549375390.71875
-73.09,1549375390.734375
-85.11,1549375390.75
-96.81,1549375390.765625
-107.31,1549375390.78125
-115.64,1549375390.796875
-120.66,1549375390.8125
-121.13,1549375390.828125
-115.94,1549375390.84375
-104.74,1549375390.859375
-88.37,1549375390.875
-68.95,1549375390.890625
-49.27,1549375390.90625
-31.97,1549375390.921875
-18.62,1549375390.9375
-9.43,1549375390.953125
-3.47,1549375390.96875
0.7,1549375390.984375
4.37,1549375391.0
8.25,1549375391.015625
12.44,1549375391.03125
16.69,1549375391.046875
20.59,1549375391.0625
23.82,1549375391.078125
26.2,1549375391.09375
27.68,1549375391.109375
28.37,1549375391.125
28.36,1549375391.140625
27.73,1549375391.15625
26.56,1549375391.171875
24.91,1549375391.1875
22.88,1549375391.203125
20.7,1549375391.21875
18.67,1549375391.234375
17.04,1549375391.25
15.96,1549375391.265625
15.41,1549375391.28125
15.16,1549375391.296875
14.89,1549375391.3125
14.29,1549375391.328125
13.08,1549375391.34375
11.11,1549375391.359375
8.36,1549375391.375
4.91,1549375391.390625
0.9,1549375391.40625
-3.43,1549375391.421875
-7.82,1549375391.4375
-11.96,1549375391.453125
-15.6,1549375391.46875
-18.62,1549375391.484375
-21.12,1549375391.5
-23.52,1549375391.515625
-26.47,1549375391.53125
-30.72,1549375391.546875
-36.69,1549375391.5625
-44.16,1549375391.578125
-52.04,1549375391.59375
-58.57,1549375391.609375
-61.83,1549375391.625
-60.43,1549375391.640625
-54.06,1549375391.65625
-43.62,1549375391.671875
-30.86,1549375391.6875
-17.78,1549375391.703125
-5.92,1549375391.71875
3.99,1549375391.734375
11.96,1549375391.75
18.46,1549375391.765625
24.01,1549375391.78125
28.94,1549375391.796875
33.38,1549375391.8125
37.3,1549375391.828125
40.59,1549375391.84375
43.11,1549375391.859375
44.73,1549375391.875
45.32,1549375391.890625
44.82,1549375391.90625
43.35,1549375391.921875
41.19,1549375391.9375
38.74,1549375391.953125
36.47,1549375391.96875
34.71,1549375391.984375
33.59,1549375392.0
33.0,1549375392.015625
32.63,1549375392.03125
32.1,1549375392.046875
31.07,1549375392.0625
29.35,1549375392.078125
26.89,1549375392.09375
23.76,1549375392.109375
20.03,1549375392.125
15.78,1549375392.140625
11.12,1549375392.15625
6.29,1549375392.171875
1.58,1549375392.1875
-2.66,1549375392.203125
-6.2,1549375392.21875
-9.02,1549375392.234375
-11.33,1549375392.25
-13.5,1549375392.265625
-15.85,1549375392.28125
-18.65,1549375392.296875
-22.08,1549375392.3125
-26.32,1549375392.328125
-31.53,1549375392.34375
-37.71,1549375392.359375
-44.43,1549375392.375
-50.66,1549375392.390625
-54.93,1549375392.40625
-55.79,1549375392.421875
-52.41,1549375392.4375
-44.97,1549375392.453125
-34.71,1549375392.46875
-23.42,1549375392.484375
-12.75,1549375392.5
-3.73,1549375392.515625
3.5,1549375392.53125
9.35,1549375392.546875
14.4,1549375392.5625
19.02,1549375392.578125
23.2,1549375392.59375
26.73,1549375392.609375
29.36,1549375392.625
31.02,1549375392.640625
31.76,1549375392.65625
31.73,1549375392.671875
31.14,1549375392.6875
30.22,1549375392.703125
29.22,1549375392.71875
28.42,1549375392.734375
28.05,1549375392.75
28.17,1549375392.765625
28.67,1549375392.78125
29.24,1549375392.796875
29.49,1549375392.8125
29.12,1549375392.828125
27.95,1549375392.84375
26.04,1549375392.859375
23.57,1549375392.875
20.72,1549375392.890625
17.62,1549375392.90625
14.29,1549375392.921875
10.73,1549375392.9375
6.98,1549375392.953125
3.13,1549375392.96875
-0.57,1549375392.984375
-3.9,1549375393.0
-6.68,1549375393.015625
-8.83,1549375393.03125
-10.4,1549375393.046875
-11.6,1549375393.0625
-12.78,1549375393.078125
-14.53,1549375393.09375
-17.64,1549375393.109375
-22.93,1549375393.125
-30.92,1549375393.140625
-41.44,1549375393.15625
-53.38,1549375393.171875
-64.66,1549375393.1875
-72.84,1549375393.203125
-75.85,1549375393.21875
-72.7,1549375393.234375
-63.93,1549375393.25
-51.31,1549375393.265625
-37.16,1549375393.28125
-23.57,1549375393.296875
-11.79,1549375393.3125
-2.11,1549375393.328125
5.8,1549375393.34375
12.51,1549375393.359375
18.48,1549375393.375
23.93,1549375393.390625
28.96,1549375393.40625
33.62,1549375393.421875
38.0,1549375393.4375
42.16,1549375393.453125
46.04,1549375393.46875
49.48,1549375393.484375
52.29,1549375393.5
54.36,1549375393.515625
55.78,1549375393.53125
56.75,1549375393.546875
57.53,1549375393.5625
58.32,1549375393.578125
59.14,1549375393.59375
59.9,1549375393.609375
60.41,1549375393.625
60.46,1549375393.640625
59.89,1549375393.65625
58.58,1549375393.671875
56.52,1549375393.6875
53.84,1549375393.703125
50.7,1549375393.71875
47.26,1549375393.734375
43.53,1549375393.75
39.28,1549375393.765625
34.18,1549375393.78125
28.03,1549375393.796875
21.16,1549375393.8125
14.43,1549375393.828125
9.05,1549375393.84375
6.04,1549375393.859375
5.68,1549375393.875
7.16,1549375393.890625
8.81,1549375393.90625
8.58,1549375393.921875
4.68,1549375393.9375
-3.86,1549375393.953125
-17.02,1549375393.96875
-33.84,1549375393.984375
-52.7,1549375394.0
-71.59,1549375394.015625
-88.44,1549375394.03125
-101.55,1549375394.046875
-109.92,1549375394.0625
-113.49,1549375394.078125
-113.16,1549375394.09375
-110.5,1549375394.109375
-107.21,1549375394.125
-104.57,1549375394.140625
-103.09,1549375394.15625
-102.42,1549375394.171875
-101.62,1549375394.1875
-99.44,1549375394.203125
-94.86,1549375394.21875
-87.36,1549375394.234375
-77.12,1549375394.25
-64.88,1549375394.265625
-51.67,1549375394.28125
-38.49,1549375394.296875
-26.06,1549375394.3125
-14.71,1549375394.328125
-4.44,1549375394.34375
4.91,1549375394.359375
13.59,1549375394.375
21.75,1549375394.390625
29.43,1549375394.40625
36.48,1549375394.421875
42.6,1549375394.4375
47.31,1549375394.453125
50.19,1549375394.46875
50.98,1549375394.484375
49.79,1549375394.5
47.07,1549375394.515625
43.47,1549375394.53125
39.62,1549375394.546875
35.87,1549375394.5625
32.3,1549375394.578125
28.72,1549375394.59375
24.91,1549375394.609375
20.75,1549375394.625
16.21,1549375394.640625
11.4,1549375394.65625
6.45,1549375394.671875
1.49,1549375394.6875
-3.36,1549375394.703125
-7.96,1549375394.71875
-12.25,1549375394.734375
-16.18,1549375394.75
-19.85,1549375394.765625
-23.32,1549375394.78125
-26.53,1549375394.796875
-29.11,1549375394.8125
-30.33,1549375394.828125
-29.33,1549375394.84375
-25.42,1549375394.859375
-18.46,1549375394.875
-9.08,1549375394.890625
1.48,1549375394.90625
11.65,1549375394.921875
20.11,1549375394.9375
26.07,1549375394.953125
29.44,1549375394.96875
30.66,1549375394.984375
30.42,1549375395.0
29.34,1549375395.015625
27.84,1549375395.03125
26.16,1549375395.046875
24.42,1549375395.0625
22.79,1549375395.078125
21.49,1549375395.09375
20.71,1549375395.109375
20.61,1549375395.125
21.14,1549375395.140625
22.09,1549375395.15625
23.19,1549375395.171875
24.22,1549375395.1875
25.08,1549375395.203125
25.81,1549375395.21875
26.47,1549375395.234375
27.01,1549375395.25
27.19,1549375395.265625
26.69,1549375395.28125
25.29,1549375395.296875
23.08,1549375395.3125
20.47,1549375395.328125
18.08,1549375395.34375
16.32,1549375395.359375
15.16,1549375395.375
14.12,1549375395.390625
12.54,1549375395.40625
9.92,1549375395.421875
6.32,1549375395.4375
2.35,1549375395.453125
-1.17,1549375395.46875
-3.6,1549375395.484375
-4.88,1549375395.5
-5.5,1549375395.515625
-6.24,1549375395.53125
-7.88,1549375395.546875
-10.93,1549375395.5625
-15.56,1549375395.578125
-21.63,1549375395.59375
-28.67,1549375395.609375
-35.75,1549375395.625
-41.51,1549375395.640625
-44.31,1549375395.65625
-42.81,1549375395.671875
-36.45,1549375395.6875
-25.91,1549375395.703125
-12.92,1549375395.71875
0.35,1549375395.734375
11.97,1549375395.75
20.97,1549375395.765625
27.33,1549375395.78125
31.8,1549375395.796875
35.24,1549375395.8125
38.25,1549375395.828125
40.98,1549375395.84375
43.2,1549375395.859375
44.49,1549375395.875
44.43,1549375395.890625
42.61,1549375395.90625
38.73,1549375395.921875
32.67,1549375395.9375
24.59,1549375395.953125
15.09,1549375395.96875
5.15,1549375395.984375
-4.11,1549375396.0
-11.71,1549375396.015625
-17.14,1549375396.03125
-20.48,1549375396.046875
-22.32,1549375396.0625
-23.41,1549375396.078125
-24.41,1549375396.09375
-25.52,1549375396.109375
-26.55,1549375396.125
-27.06,1549375396.140625
-26.66,1549375396.15625
-25.18,1549375396.171875
-22.74,1549375396.1875
-19.64,1549375396.203125
-16.22,1549375396.21875
-12.81,1549375396.234375
-9.67,1549375396.25
-7.11,1549375396.265625
-5.47,1549375396.28125
-5.07,1549375396.296875
-6.11,1549375396.3125
-8.63,1549375396.328125
-12.55,1549375396.34375
-17.8,1549375396.359375
-24.35,1549375396.375
-32.1,1549375396.390625
-40.58,1549375396.40625
-48.67,1549375396.421875
-54.62,1549375396.4375
-56.52,1549375396.453125
-53.03,1549375396.46875
-44.08,1549375396.484375
-31.02,1549375396.5
-16.27,1549375396.515625
-2.4,1549375396.53125
8.74,1549375396.546875
16.6,1549375396.5625
21.69,1549375396.578125
25.09,1549375396.59375
27.7,1549375396.609375
29.88,1549375396.625
31.5,1549375396.640625
32.29,1549375396.65625
32.16,1549375396.671875
31.4,1549375396.6875
30.56,1549375396.703125
30.09,1549375396.71875
30.15,1549375396.734375
30.54,1549375396.75
30.87,1549375396.765625
30.82,1549375396.78125
30.27,1549375396.796875
29.37,1549375396.8125
28.4,1549375396.828125
27.54,1549375396.84375
26.82,1549375396.859375
26.09,1549375396.875
25.09,1549375396.890625
23.64,1549375396.90625
21.67,1549375396.921875
19.21,1549375396.9375
16.36,1549375396.953125
13.18,1549375396.96875
9.7,1549375396.984375
5.94,1549375397.0
1.99,1549375397.015625
-1.98,1549375397.03125
-5.72,1549375397.046875
-8.92,1549375397.0625
-11.31,1549375397.078125
-12.82,1549375397.09375
-13.64,1549375397.109375
-14.32,1549375397.125
-15.69,1549375397.140625
-18.51,1549375397.15625
-23.08,1549375397.171875
-28.69,1549375397.1875
-33.62,1549375397.203125
-35.45,1549375397.21875
-31.91,1549375397.234375
-21.85,1549375397.25
-5.8,1549375397.265625
14.08,1549375397.28125
34.75,1549375397.296875
53.31,1549375397.3125
67.82,1549375397.328125
77.79,1549375397.34375
83.9,1549375397.359375
87.55,1549375397.375
90.13,1549375397.390625
92.55,1549375397.40625
94.89,1549375397.421875
96.52,1549375397.4375
96.25,1549375397.453125
92.76,1549375397.46875
85.05,1549375397.484375
73.02,1549375397.5
57.73,1549375397.515625
41.48,1549375397.53125
27.36,1549375397.546875
18.36,1549375397.5625
16.18,1549375397.578125
20.29,1549375397.59375
27.68,1549375397.609375
33.6,1549375397.625
33.17,1549375397.640625
23.1,1549375397.65625
3.0,1549375397.671875
-24.62,1549375397.6875
-55.44,1549375397.703125
-85.09,1549375397.71875
-110.51,1549375397.734375
-130.51,1549375397.75
-145.29,1549375397.765625
-155.5,1549375397.78125
-161.47,1549375397.796875
-163.11,1549375397.8125
-160.47,1549375397.828125
-154.17,1549375397.84375
-145.85,1549375397.859375
-137.71,1549375397.875
-131.79,1549375397.890625
-129.32,1549375397.90625
-130.43,1549375397.921875
-134.32,1549375397.9375
-139.45,1549375397.953125
-143.88,1549375397.96875
-145.45,1549375397.984375
-142.03,1549375398.0
-132.08,1549375398.015625
-115.27,1549375398.03125
-92.86,1549375398.046875
-67.46,1549375398.0625
-42.23,1549375398.078125
-19.79,1549375398.09375
-1.45,1549375398.109375
12.84,1549375398.125
23.97,1549375398.140625
32.91,1549375398.15625
40.27,1549375398.171875
46.25,1549375398.1875
50.94,1549375398.203125
54.61,1549375398.21875
57.69,1549375398.234375
60.52,1549375398.25
63.05,1549375398.265625
64.85,1549375398.28125
65.32,1549375398.296875
64.04,1549375398.3125
61.07,1549375398.328125
57.0,1549375398.34375
52.75,1549375398.359375
49.18,1549375398.375
46.77,1549375398.390625
45.42,1549375398.40625
44.51,1549375398.421875
43.19,1549375398.4375
40.74,1549375398.453125
36.86,1549375398.46875
31.76,1549375398.484375
26.04,1549375398.5
20.32,1549375398.515625
15.05,1549375398.53125
10.32,1549375398.546875
5.89,1549375398.5625
1.41,1549375398.578125
-3.43,1549375398.59375
-8.7,1549375398.609375
-14.27,1549375398.625
-19.84,1549375398.640625
-25.03,1549375398.65625
-29.52,1549375398.671875
-33.16,1549375398.6875
-35.99,1549375398.703125
-38.38,1549375398.71875
-40.94,1549375398.734375
-44.37,1549375398.75
-49.16,1549375398.765625
-55.18,1549375398.78125
-61.53,1549375398.796875
-66.65,1549375398.8125
-68.71,1549375398.828125
-66.3,1549375398.84375
-58.96,1549375398.859375
-47.39,1549375398.875
-33.22,1549375398.890625
-18.45,1549375398.90625
-4.77,1549375398.921875
6.79,1549375398.9375
16.07,1549375398.953125
23.45,1549375398.96875
29.52,1549375398.984375
34.75,1549375399.0
39.29,1549375399.015625
42.98,1549375399.03125
45.55,1549375399.046875
46.77,1549375399.0625
46.64,1549375399.078125
45.36,1549375399.09375
43.29,1549375399.109375
40.76,1549375399.125
38.01,1549375399.140625
35.18,1549375399.15625
32.31,1549375399.171875
29.46,1549375399.1875
26.8,1549375399.203125
24.48,1549375399.21875
22.58,1549375399.234375
21.03,1549375399.25
19.57,1549375399.265625
17.82,1549375399.28125
15.49,1549375399.296875
12.42,1549375399.3125
8.68,1549375399.328125
4.46,1549375399.34375
0.06,1549375399.359375
-4.29,1549375399.375
-8.43,1549375399.390625
-12.36,1549375399.40625
-16.16,1549375399.421875
-19.95,1549375399.4375
-23.9,1549375399.453125
-28.19,1549375399.46875
-32.96,1549375399.484375
-38.34,1549375399.5
-44.45,1549375399.515625
-51.27,1549375399.53125
-58.48,1549375399.546875
-65.3,1549375399.5625
-70.48,1549375399.578125
-72.54,1549375399.59375
-70.23,1549375399.609375
-63.0,1549375399.625
-51.32,1549375399.640625
-36.63,1549375399.65625
-20.87,1549375399.671875
-5.88,1549375399.6875
7.14,1549375399.703125
17.83,1549375399.71875
26.58,1549375399.734375
34.21,1549375399.75
41.54,1549375399.765625
49.15,1549375399.78125
57.25,1549375399.796875
65.73,1549375399.8125
74.16,1549375399.828125
81.87,1549375399.84375
87.95,1549375399.859375
91.47,1549375399.875
91.64,1549375399.890625
88.13,1549375399.90625
81.35,1549375399.921875
72.41,1549375399.9375
62.8,1549375399.953125
53.93,1549375399.96875
46.71,1549375399.984375
41.31,1549375400.0
37.42,1549375400.015625
34.51,1549375400.03125
32.18,1549375400.046875
30.21,1549375400.0625
28.46,1549375400.078125
26.7,1549375400.09375
24.54,1549375400.109375
21.59,1549375400.125
17.71,1549375400.140625
13.13,1549375400.15625
8.38,1549375400.171875
4.01,1549375400.1875
0.39,1549375400.203125
-2.54,1549375400.21875
-5.22,1549375400.234375
-8.28,1549375400.25
-12.39,1549375400.265625
-18.13,1549375400.28125
-25.91,1549375400.296875
-35.73,1549375400.3125
-47.07,1549375400.328125
-58.66,1549375400.34375
-68.61,1549375400.359375
-74.77,1549375400.375
-75.43,1549375400.390625
-69.97,1549375400.40625
-59.14,1549375400.421875
-44.87,1549375400.4375
-29.58,1549375400.453125
-15.42,1549375400.46875
-3.68,1549375400.484375
5.41,1549375400.5
12.34,1549375400.515625
17.95,1549375400.53125
22.94,1549375400.546875
27.72,1549375400.5625
32.29,1549375400.578125
36.45,1549375400.59375
39.91,1549375400.609375
42.38,1549375400.625
43.71,1549375400.640625
43.93,1549375400.65625
43.25,1549375400.671875
41.98,1549375400.6875
40.5,1549375400.703125
39.16,1549375400.71875
38.18,1549375400.734375
37.57,1549375400.75
37.11,1549375400.765625
36.37,1549375400.78125
34.87,1549375400.796875
32.2,1549375400.8125
28.28,1549375400.828125
23.33,1549375400.84375
17.86,1549375400.859375
12.43,1549375400.875
7.45,1549375400.890625
3.02,1549375400.90625
-1.05,1549375400.921875
-5.12,1549375400.9375
-9.49,1549375400.953125
-14.3,1549375400.96875
-19.51,1549375400.984375
-24.93,1549375401.0
-30.36,1549375401.015625
-35.69,1549375401.03125
-40.88,1549375401.046875
-46.07,1549375401.0625
-51.5,1549375401.078125
-57.54,1549375401.09375
-64.51,1549375401.109375
-72.4,1549375401.125
-80.64,1549375401.140625
-87.94,1549375401.15625
-92.52,1549375401.171875
-92.65,1549375401.1875
-87.33,1549375401.203125
-76.71,1549375401.21875
-62.16,1549375401.234375
-45.77,1549375401.25
-29.7,1549375401.265625
-15.52,1549375401.28125
-3.95,1549375401.296875
5.1,1549375401.3125
12.16,1549375401.328125
17.85,1549375401.34375
22.65,1549375401.359375
26.78,1549375401.375
30.26,1549375401.390625
32.98,1549375401.40625
34.8,1549375401.421875
35.62,1549375401.4375
35.49,1549375401.453125
34.61,1549375401.46875
33.27,1549375401.484375
31.84,1549375401.5
30.62,1549375401.515625
29.76,1549375401.53125
29.23,1549375401.546875
28.85,1549375401.5625
28.36,1549375401.578125
27.52,1549375401.59375
26.22,1549375401.609375
24.45,1549375401.625
22.26,1549375401.640625
19.75,1549375401.65625
16.97,1549375401.671875
13.94,1549375401.6875
10.73,1549375401.703125
7.38,1549375401.71875
3.95,1549375401.734375
0.45,1549375401.75
-3.21,1549375401.765625
-7.16,1549375401.78125
-11.51,1549375401.796875
-16.23,1549375401.8125
-21.17,1549375401.828125
-26.12,1549375401.84375
-30.96,1549375401.859375
-35.8,1549375401.875
-40.83,1549375401.890625
-46.11,1549375401.90625
-51.22,1549375401.921875
-55.2,1549375401.9375
-56.7,1549375401.953125
-54.52,1549375401.96875
-48.14,1549375401.984375
-38.03,1549375402.0
-25.6,1549375402.015625
-12.66,1549375402.03125
-0.83,1549375402.046875
8.97,1549375402.0625
16.62,1549375402.078125
22.6,1549375402.09375
27.59,1549375402.109375
32.12,1549375402.125
36.41,1549375402.140625
40.35,1549375402.15625
43.73,1549375402.171875
46.29,1549375402.1875
47.92,1549375402.203125
48.6,1549375402.21875
48.42,1549375402.234375
47.57,1549375402.25
46.28,1549375402.265625
44.84,1549375402.28125
43.49,1549375402.296875
42.46,1549375402.3125
41.85,1549375402.328125
41.62,1549375402.34375
41.62,1549375402.359375
41.57,1549375402.375
41.18,1549375402.390625
40.11,1549375402.40625
38.1,1549375402.421875
34.96,1549375402.4375
30.65,1549375402.453125
25.25,1549375402.46875
19.06,1549375402.484375
12.48,1549375402.5
5.96,1549375402.515625
-0.14,1549375402.53125
-5.63,1549375402.546875
-10.54,1549375402.5625
-15.09,1549375402.578125
-19.51,1549375402.59375
-24.07,1549375402.609375
-28.9,1549375402.625
-34.0,1549375402.640625
-39.09,1549375402.65625
-43.56,1549375402.671875
-46.51,1549375402.6875
-46.9,1549375402.703125
-43.91,1549375402.71875
-37.32,1549375402.734375
-27.7,1549375402.75
-16.3,1549375402.765625
-4.69,1549375402.78125
5.89,1549375402.796875
14.88,1549375402.8125
22.61,1549375402.828125
29.97,1549375402.84375
37.93,1549375402.859375
47.06,1549375402.875
57.3,1549375402.890625
67.97,1549375402.90625
78.07,1549375402.921875
86.62,1549375402.9375
93.0,1549375402.953125
97.24,1549375402.96875
99.94,1549375402.984375
102.1,1549375403.0
104.68,1549375403.015625
108.29,1549375403.03125
113.0,1549375403.046875
118.53,1549375403.0625
124.49,1549375403.078125
130.57,1549375403.09375
136.52,1549375403.109375
141.79,1549375403.125
145.25,1549375403.140625
145.15,1549375403.15625
139.64,1549375403.171875
127.47,1549375403.1875
108.65,1549375403.203125
84.69,1549375403.21875
58.15,1549375403.234375
31.91,1549375403.25
8.49,1549375403.265625
-10.33,1549375403.28125
-23.53,1549375403.296875
-30.75,1549375403.3125
-32.42,1549375403.328125
-30.05,1549375403.34375
-26.47,1549375403.359375
-25.57,1549375403.375
-31.37,1549375403.390625
-46.68,1549375403.40625
-71.81,1549375403.421875
-104.2,1549375403.4375
-139.12,1549375403.453125
-171.17,1549375403.46875
-196.05,1549375403.484375
-211.59,1549375403.5
-217.7,1549375403.515625
-215.54,1549375403.53125
-206.46,1549375403.546875
-191.41,1549375403.5625
-171.04,1549375403.578125
-146.31,1549375403.59375
-119.08,1549375403.609375
-92.02,1549375403.625
-67.99,1549375403.640625
-49.06,1549375403.65625
-35.86,1549375403.671875
-27.5,1549375403.6875
-22.18,1549375403.703125
-18.04,1549375403.71875
-13.89,1549375403.734375
-9.4,1549375403.75
-4.84,1549375403.765625
-0.67,1549375403.78125
2.91,1549375403.796875
6.04,1549375403.8125
9.11,1549375403.828125
12.46,1549375403.84375
16.11,1549375403.859375
19.69,1549375403.875
22.54,1549375403.890625
23.98,1549375403.90625
23.48,1549375403.921875
20.99,1549375403.9375
16.91,1549375403.953125
12.02,1549375403.96875
7.21,1549375403.984375
3.15,1549375404.0
0.1,1549375404.015625
-2.24,1549375404.03125
-4.58,1549375404.046875
-7.76,1549375404.0625
-12.42,1549375404.078125
-18.8,1549375404.09375
-26.67,1549375404.109375
-35.42,1549375404.125
-44.1,1549375404.140625
-51.5,1549375404.15625
-56.29,1549375404.171875
-57.21,1549375404.1875
-53.42,1549375404.203125
-44.87,1549375404.21875
-32.5,1549375404.234375
-18.03,1549375404.25
-3.58,1549375404.265625
9.07,1549375404.28125
18.99,1549375404.296875
26.24,1549375404.3125
31.6,1549375404.328125
36.08,1549375404.34375
40.31,1549375404.359375
44.37,1549375404.375
47.85,1549375404.390625
50.23,1549375404.40625
51.22,1549375404.421875
50.94,1549375404.4375
49.85,1549375404.453125
48.52,1549375404.46875
47.3,1549375404.484375
46.28,1549375404.5
45.27,1549375404.515625
44.04,1549375404.53125
42.45,1549375404.546875
40.56,1549375404.5625
38.57,1549375404.578125
36.67,1549375404.59375
34.88,1549375404.609375
33.03,1549375404.625
30.72,1549375404.640625
27.47,1549375404.65625
22.95,1549375404.671875
17.05,1549375404.6875
10.05,1549375404.703125
2.45,1549375404.71875
-5.08,1549375404.734375
-11.99,1549375404.75
-18.0,1549375404.765625
-23.2,1549375404.78125
-28.0,1549375404.796875
-32.95,1549375404.8125
-38.59,1549375404.828125
-45.32,1549375404.84375
-53.22,1549375404.859375
-61.95,1549375404.875
-70.64,1549375404.890625
-77.86,1549375404.90625
-81.88,1549375404.921875
-81.19,1549375404.9375
-74.94,1549375404.953125
-63.4,1549375404.96875
-47.95,1549375404.984375
-30.62,1549375405.0
-13.57,1549375405.015625
1.61,1549375405.03125
14.1,1549375405.046875
23.82,1549375405.0625
31.17,1549375405.078125
36.8,1549375405.09375
41.33,1549375405.109375
45.3,1549375405.125
49.13,1549375405.140625
53.04,1549375405.15625
56.99,1549375405.171875
60.71,1549375405.1875
63.86,1549375405.203125
66.2,1549375405.21875
67.79,1549375405.234375
68.97,1549375405.25
70.25,1549375405.265625
72.14,1549375405.28125
74.89,1549375405.296875
78.48,1549375405.3125
82.6,1549375405.328125
86.77,1549375405.34375
90.51,1549375405.359375
93.46,1549375405.375
95.6,1549375405.390625
97.27,1549375405.40625
99.18,1549375405.421875
102.19,1549375405.4375
106.94,1549375405.453125
113.38,1549375405.46875
120.48,1549375405.484375
126.43,1549375405.5
129.18,1549375405.515625
127.27,1549375405.53125
120.49,1549375405.546875
109.96,1549375405.5625
97.83,1549375405.578125
86.69,1549375405.59375
78.96,1549375405.609375
76.36,1549375405.625
79.6,1549375405.640625
87.88,1549375405.65625
98.83,1549375405.671875
108.62,1549375405.6875
112.74,1549375405.703125
107.23,1549375405.71875
89.94,1549375405.734375
61.2,1549375405.75
23.64,1549375405.765625
-18.74,1549375405.78125
-61.85,1549375405.796875
-102.21,1549375405.8125
-137.32,1549375405.828125
-165.43,1549375405.84375
-185.42,1549375405.859375
-197.05,1549375405.875
-201.24,1549375405.890625
-200.22,1549375405.90625
-197.11,1549375405.921875
-194.9,1549375405.9375
-195.36,1549375405.953125
-198.34,1549375405.96875
-201.9,1549375405.984375
-203.3,1549375406.0
-200.23,1549375406.015625
-191.82,1549375406.03125
-178.91,1549375406.046875
-163.42,1549375406.0625
-147.48,1549375406.078125
-132.56,1549375406.09375
-119.17,1549375406.109375
-107.17,1549375406.125
-96.21,1549375406.140625
-86.19,1549375406.15625
-77.27,1549375406.171875
-69.65,1549375406.1875
-63.24,1549375406.203125
-57.6,1549375406.21875
-52.06,1549375406.234375
-46.13,1549375406.25
-39.81,1549375406.265625
-33.61,1549375406.28125
-28.44,1549375406.296875
-25.13,1549375406.3125
-24.13,1549375406.328125
-25.14,1549375406.34375
-27.0,1549375406.359375
-27.84,1549375406.375
-25.49,1549375406.390625
-18.2,1549375406.40625
-5.27,1549375406.421875
12.4,1549375406.4375
32.46,1549375406.453125
51.7,1549375406.46875
67.06,1549375406.484375
76.48,1549375406.5
79.46,1549375406.515625
76.92,1549375406.53125
70.7,1549375406.546875
62.87,1549375406.5625
55.24,1549375406.578125
49.2,1549375406.59375
45.9,1549375406.609375
46.41,1549375406.625
51.7,1549375406.640625
62.19,1549375406.65625
76.97,1549375406.671875
93.3,1549375406.6875
106.66,1549375406.703125
111.75,1549375406.71875
104.29,1549375406.734375
82.7,1549375406.75
49.04,1549375406.765625
8.43,1549375406.78125
-32.62,1549375406.796875
-68.38,1549375406.8125
-95.52,1549375406.828125
-113.43,1549375406.84375
-123.46,1549375406.859375
-127.64,1549375406.875
-127.73,1549375406.890625
-124.85,1549375406.90625
-119.82,1549375406.921875
-113.47,1549375406.9375
-106.92,1549375406.953125
-101.32,1549375406.96875
-97.45,1549375406.984375
-95.47,1549375407.0
-94.86,1549375407.015625
-94.71,1549375407.03125
-94.34,1549375407.046875
-93.67,1549375407.0625
-93.34,1549375407.078125
-94.34,1549375407.09375
-97.25,1549375407.109375
-101.5,1549375407.125
-105.14,1549375407.140625
-105.27,1549375407.15625
-99.15,1549375407.171875
-85.46,1549375407.1875
-64.97,1549375407.203125
-40.41,1549375407.21875
-15.37,1549375407.234375
6.99,1549375407.25
25.0,1549375407.265625
38.66,1549375407.28125
49.07,1549375407.296875
57.56,1549375407.3125
65.02,1549375407.328125
71.62,1549375407.34375
77.1,1549375407.359375
81.12,1549375407.375
83.56,1549375407.390625
84.57,1549375407.40625
84.42,1549375407.421875
83.45,1549375407.4375
81.95,1549375407.453125
80.13,1549375407.46875
78.19,1549375407.484375
76.27,1549375407.5
74.4,1549375407.515625
72.49,1549375407.53125
70.43,1549375407.546875
68.02,1549375407.5625
65.15,1549375407.578125
61.73,1549375407.59375
57.66,1549375407.609375
52.88,1549375407.625
47.35,1549375407.640625
41.14,1549375407.65625
34.39,1549375407.671875
27.39,1549375407.6875
20.41,1549375407.703125
13.72,1549375407.71875
7.43,1549375407.734375
1.55,1549375407.75
-3.96,1549375407.765625
-9.16,1549375407.78125
-14.06,1549375407.796875
-18.72,1549375407.8125
-23.26,1549375407.828125
-28.03,1549375407.84375
-33.46,1549375407.859375
-39.89,1549375407.875
-47.31,1549375407.890625
-55.02,1549375407.90625
-61.65,1549375407.921875
-65.44,1549375407.9375
-64.87,1549375407.953125
-59.14,1549375407.96875
-48.59,1549375407.984375
-34.62,1549375408.0
-19.17,1549375408.015625
-4.15,1549375408.03125
9.08,1549375408.046875
19.92,1549375408.0625
28.41,1549375408.078125
34.94,1549375408.09375
39.91,1549375408.109375
43.59,1549375408.125
46.08,1549375408.140625
47.38,1549375408.15625
47.51,1549375408.171875
46.53,1549375408.1875
44.63,1549375408.203125
42.18,1549375408.21875
39.61,1549375408.234375
37.34,1549375408.25
35.67,1549375408.265625
34.61,1549375408.28125
33.95,1549375408.296875
33.3,1549375408.3125
32.29,1549375408.328125
30.71,1549375408.34375
28.55,1549375408.359375
25.96,1549375408.375
23.05,1549375408.390625
19.85,1549375408.40625
16.21,1549375408.421875
11.98,1549375408.4375
7.14,1549375408.453125
1.91,1549375408.46875
-3.28,1549375408.484375
-8.01,1549375408.5
-12.03,1549375408.515625
-15.46,1549375408.53125
-18.74,1549375408.546875
-22.49,1549375408.5625
-27.29,1549375408.578125
-33.4,1549375408.59375
-40.71,1549375408.609375
-48.71,1549375408.625
-56.51,1549375408.640625
-62.99,1549375408.65625
-66.95,1549375408.671875
-67.28,1549375408.6875
-63.25,1549375408.703125
-54.73,1549375408.71875
-42.28,1549375408.734375
-27.05,1549375408.75
-10.52,1549375408.765625
5.9,1549375408.78125
21.14,1549375408.796875
34.66,1549375408.8125
46.38,1549375408.828125
56.5,1549375408.84375
65.29,1549375408.859375
72.99,1549375408.875
79.72,1549375408.890625
85.66,1549375408.90625
91.02,1549375408.921875
96.06,1549375408.9375
101.0,1549375408.953125
105.92,1549375408.96875
110.73,1549375408.984375
115.21,1549375409.0
119.11,1549375409.015625
122.16,1549375409.03125
124.28,1549375409.046875
125.57,1549375409.0625
126.45,1549375409.078125
127.52,1549375409.09375
129.15,1549375409.109375
130.94,1549375409.125
131.21,1549375409.140625
126.96,1549375409.15625
114.57,1549375409.171875
91.08,1549375409.1875
55.57,1549375409.203125
9.97,1549375409.21875
-41.1,1549375409.234375
-91.57,1549375409.25
-135.72,1549375409.265625
-169.62,1549375409.28125
-191.89,1549375409.296875
-203.4,1549375409.3125
-206.47,1549375409.328125
-203.88,1549375409.34375
-198.28,1549375409.359375
-191.96,1549375409.375
-186.7,1549375409.390625
-183.38,1549375409.40625
-181.59,1549375409.421875
-179.44,1549375409.4375
-173.99,1549375409.453125
-162.26,1549375409.46875
-142.65,1549375409.484375
-115.8,1549375409.5
-84.63,1549375409.515625
-53.25,1549375409.53125
-25.47,1549375409.546875
-3.53,1549375409.5625
12.39,1549375409.578125
23.58,1549375409.59375
31.93,1549375409.609375
38.96,1549375409.625
45.42,1549375409.640625
51.43,1549375409.65625
56.75,1549375409.671875
61.12,1549375409.6875
64.37,1549375409.703125
66.39,1549375409.71875
67.18,1549375409.734375
66.9,1549375409.75
65.77,1549375409.765625
64.19,1549375409.78125
62.62,1549375409.796875
61.4,1549375409.8125
60.7,1549375409.828125
60.4,1549375409.84375
60.08,1549375409.859375
59.13,1549375409.875
56.98,1549375409.890625
53.26,1549375409.90625
47.92,1549375409.921875
41.26,1549375409.9375
33.73,1549375409.953125
25.84,1549375409.96875
17.91,1549375409.984375
10.16,1549375410.0
2.67,1549375410.015625
-4.53,1549375410.03125
-11.34,1549375410.046875
-17.69,1549375410.0625
-23.49,1549375410.078125
-28.76,1549375410.09375
-33.66,1549375410.109375
-38.47,1549375410.125
-43.55,1549375410.140625
-49.32,1549375410.15625
-56.03,1549375410.171875
-63.53,1549375410.1875
-71.07,1549375410.203125
-77.19,1549375410.21875
-80.15,1549375410.234375
-78.39,1549375410.25
-71.2,1549375410.265625
-59.06,1549375410.28125
-43.54,1549375410.296875
-26.81,1549375410.3125
-10.82,1549375410.328125
3.11,1549375410.34375
14.59,1549375410.359375
23.89,1549375410.375
31.55,1549375410.390625
38.03,1549375410.40625
43.56,1549375410.421875
48.09,1549375410.4375
51.51,1549375410.453125
53.72,1549375410.46875
54.82,1549375410.484375
54.96,1549375410.5
54.43,1549375410.515625
53.45,1549375410.53125
52.23,1549375410.546875
50.95,1549375410.5625
49.71,1549375410.578125
48.64,1549375410.59375
47.76,1549375410.609375
47.0,1549375410.625
46.15,1549375410.640625
44.88,1549375410.65625
42.89,1549375410.671875
40.01,1549375410.6875
36.22,1549375410.703125
31.71,1549375410.71875
26.68,1549375410.734375
21.25,1549375410.75
15.48,1549375410.765625
9.35,1549375410.78125
2.94,1549375410.796875
-3.61,1549375410.8125
-9.99,1549375410.828125
-15.89,1549375410.84375
-21.13,1549375410.859375
-25.76,1549375410.875
-30.11,1549375410.890625
-34.66,1549375410.90625
-39.96,1549375410.921875
-46.41,1549375410.9375
-54.09,1549375410.953125
-62.57,1549375410.96875
-70.81,1549375410.984375
-77.31,1549375411.0
-80.36,1549375411.015625
-78.57,1549375411.03125
-71.3,1549375411.046875
-59.02,1549375411.0625
-43.25,1549375411.078125
-26.16,1549375411.09375
-9.86,1549375411.109375
4.2,1549375411.125
15.51,1549375411.140625
24.33,1549375411.15625
31.32,1549375411.171875
36.96,1549375411.1875
41.43,1549375411.203125
44.62,1549375411.21875
46.44,1549375411.234375
47.0,1549375411.25
46.67,1549375411.265625
45.9,1549375411.28125
45.03,1549375411.296875
44.18,1549375411.3125
43.31,1549375411.328125
42.37,1549375411.34375
41.4,1549375411.359375
40.51,1549375411.375
39.77,1549375411.390625
39.08,1549375411.40625
38.21,1549375411.421875
36.84,1549375411.4375
34.75,1549375411.453125
31.92,1549375411.46875
28.55,1549375411.484375
24.86,1549375411.5
21.08,1549375411.515625
17.28,1549375411.53125
13.37,1549375411.546875
9.21,1549375411.5625
4.73,1549375411.578125
-0.01,1549375411.59375
-4.75,1549375411.609375
-9.17,1549375411.625
-12.91,1549375411.640625
-15.76,1549375411.65625
-17.77,1549375411.671875
-19.27,1549375411.6875
-20.81,1549375411.703125
-23.04,1549375411.71875
-26.37,1549375411.734375
-30.68,1549375411.75
-35.14,1549375411.765625
-38.18,1549375411.78125
-37.87,1549375411.796875
-32.51,1549375411.8125
-21.26,1549375411.828125
-4.48,1549375411.84375
16.3,1549375411.859375
38.85,1549375411.875
60.93,1549375411.890625
80.86,1549375411.90625
97.87,1549375411.921875
111.98,1549375411.9375
123.79,1549375411.953125
134.21,1549375411.96875
144.23,1549375411.984375
154.77,1549375412.0
166.33,1549375412.015625
178.65,1549375412.03125
190.36,1549375412.046875
199.14,1549375412.0625
202.29,1549375412.078125
197.63,1549375412.09375
184.26,1549375412.109375
162.68,1549375412.125
134.43,1549375412.140625
101.39,1549375412.15625
65.1,1549375412.171875
26.77,1549375412.1875
-12.59,1549375412.203125
-51.71,1549375412.21875
-89.01,1549375412.234375
-122.76,1549375412.25
-151.51,1549375412.265625
-174.3,1549375412.28125
-190.77,1549375412.296875
-201.03,1549375412.3125
-205.55,1549375412.328125
-205.08,1549375412.34375
-200.67,1549375412.359375
-193.45,1549375412.375
-184.49,1549375412.390625
-174.59,1549375412.40625
-164.26,1549375412.421875
-153.88,1549375412.4375
-143.94,1549375412.453125
-135.09,1549375412.46875
-128.08,1549375412.484375
-123.46,1549375412.5
-121.52,1549375412.515625
-122.23,1549375412.53125
-125.29,1549375412.546875
-130.07,1549375412.5625
-135.33,1549375412.578125
-138.93,1549375412.59375
-138.12,1549375412.609375
-130.16,1549375412.625
-113.57,1549375412.640625
-88.9,1549375412.65625
-58.97,1549375412.671875
-27.95,1549375412.6875
0.1,1549375412.703125
22.61,1549375412.71875
39.1,1549375412.734375
50.75,1549375412.75
59.39,1549375412.765625
66.42,1549375412.78125
72.36,1549375412.796875
76.98,1549375412.8125
79.92,1549375412.828125
81.18,1549375412.84375
81.21,1549375412.859375
80.67,1549375412.875
80.04,1549375412.890625
79.44,1549375412.90625
78.59,1549375412.921875
77.1,1549375412.9375
74.79,1549375412.953125
71.81,1549375412.96875
68.59,1549375412.984375
65.58,1549375413.0
63.0,1549375413.015625
60.6,1549375413.03125
57.84,1549375413.046875
54.09,1549375413.0625
49.04,1549375413.078125
42.84,1549375413.09375
36.05,1549375413.109375
29.39,1549375413.125
23.37,1549375413.140625
18.13,1549375413.15625
13.38,1549375413.171875
8.65,1549375413.1875
3.5,1549375413.203125
-2.24,1549375413.21875
-8.48,1549375413.234375
-14.88,1549375413.25
-21.06,1549375413.265625
-26.72,1549375413.28125
-31.78,1549375413.296875
-36.42,1549375413.3125
-41.12,1549375413.328125
-46.47,1549375413.34375
-52.98,1549375413.359375
-60.74,1549375413.375
-69.13,1549375413.390625
-76.75,1549375413.40625
-81.74,1549375413.421875
-82.28,1549375413.4375
-77.28,1549375413.453125
-66.84,1549375413.46875
-52.21,1549375413.484375
-35.49,1549375413.5
-18.89,1549375413.515625
-4.1,1549375413.53125
7.99,1549375413.546875
17.34,1549375413.5625
24.4,1549375413.578125
29.79,1549375413.59375
34.03,1549375413.609375
37.45,1549375413.625
40.11,1549375413.640625
42.03,1549375413.65625
43.17,1549375413.671875
43.52,1549375413.6875
43.2,1549375413.703125
42.43,1549375413.71875
41.49,1549375413.734375
40.64,1549375413.75
40.08,1549375413.765625
39.87,1549375413.78125
39.93,1549375413.796875
40.03,1549375413.8125
39.86,1549375413.828125
39.14,1549375413.84375
37.68,1549375413.859375
35.44,1549375413.875
32.5,1549375413.890625
29.04,1549375413.90625
25.19,1549375413.921875
21.01,1549375413.9375
16.5,1549375413.953125
11.6,1549375413.96875
6.33,1549375413.984375
0.82,1549375414.0
-4.68,1549375414.015625
-9.91,1549375414.03125
-14.62,1549375414.046875
-18.72,1549375414.0625
-22.27,1549375414.078125
-25.57,1549375414.09375
-29.03,1549375414.109375
-33.16,1549375414.125
-38.39,1549375414.140625
-44.86,1549375414.15625
-52.24,1549375414.171875
-59.48,1549375414.1875
-65.02,1549375414.203125
-67.07,1549375414.21875
-64.2,1549375414.234375
-55.9,1549375414.25
-42.84,1549375414.265625
-26.77,1549375414.28125
-9.89,1549375414.296875
5.75,1549375414.3125
18.82,1549375414.328125
28.94,1549375414.34375
36.48,1549375414.359375
42.17,1549375414.375
46.76,1549375414.390625
50.75,1549375414.40625
54.33,1549375414.421875
57.48,1549375414.4375
60.0,1549375414.453125
61.79,1549375414.46875
62.83,1549375414.484375
63.25,1549375414.5
63.4,1549375414.515625
63.69,1549375414.53125
64.52,1549375414.546875
66.17,1549375414.5625
68.69,1549375414.578125
71.81,1549375414.59375
74.9,1549375414.609375
77.11,1549375414.625
77.51,1549375414.640625
75.38,1549375414.65625
70.4,1549375414.671875
62.74,1549375414.6875
52.94,1549375414.703125
41.62,1549375414.71875
29.37,1549375414.734375
16.63,1549375414.75
3.79,1549375414.765625
-8.77,1549375414.78125
-20.51,1549375414.796875
-30.85,1549375414.8125
-39.44,1549375414.828125
-46.36,1549375414.84375
-52.24,1549375414.859375
-58.12,1549375414.875
-65.16,1549375414.890625
-74.22,1549375414.90625
-85.68,1549375414.921875
-99.31,1549375414.9375
-114.26,1549375414.953125
-128.99,1549375414.96875
-141.19,1549375414.984375
-148.12,1549375415.0
-147.19,1549375415.015625
-136.92,1549375415.03125
-117.74,1549375415.046875
-92.19,1549375415.0625
-64.25,1549375415.078125
-38.03,1549375415.09375
-16.39,1549375415.109375
-0.17,1549375415.125
11.56,1549375415.140625
20.55,1549375415.15625
28.26,1549375415.171875
35.24,1549375415.1875
41.24,1549375415.203125
45.8,1549375415.21875
48.72,1549375415.234375
50.26,1549375415.25
50.82,1549375415.265625
50.6,1549375415.28125
49.45,1549375415.296875
47.02,1549375415.3125
43.17,1549375415.328125
38.29,1549375415.34375
33.36,1549375415.359375
29.61,1549375415.375
27.88,1549375415.390625
28.25,1549375415.40625
29.8,1549375415.421875
31.04,1549375415.4375
30.5,1549375415.453125
27.37,1549375415.46875
21.79,1549375415.484375
14.73,1549375415.5
7.48,1549375415.515625
1.12,1549375415.53125
-3.79,1549375415.546875
-7.26,1549375415.5625
-9.73,1549375415.578125
-11.9,1549375415.59375
-14.57,1549375415.609375
-18.59,1549375415.625
-24.75,1549375415.640625
-33.58,1549375415.65625
-45.12,1549375415.671875
-58.93,1549375415.6875
-74.11,1549375415.703125
-89.59,1549375415.71875
-104.19,1549375415.734375
-116.71,1549375415.75
-125.8,1549375415.765625
-129.98,1549375415.78125
-127.89,1549375415.796875
-118.87,1549375415.8125
-103.43,1549375415.828125
-83.43,1549375415.84375
-61.65,1549375415.859375
-41.03,1549375415.875
-23.69,1549375415.890625
-10.49,1549375415.90625
-0.94,1549375415.921875
6.17,1549375415.9375
12.24,1549375415.953125
18.16,1549375415.96875
24.25,1549375415.984375
30.32,1549375416.0
35.96,1549375416.015625
40.82,1549375416.03125
44.69,1549375416.046875
47.53,1549375416.0625
49.32,1549375416.078125
50.14,1549375416.09375
50.09,1549375416.109375
49.4,1549375416.125
48.42,1549375416.140625
47.54,1549375416.15625
47.06,1549375416.171875
47.05,1549375416.1875
47.29,1549375416.203125
47.33,1549375416.21875
46.66,1549375416.234375
44.96,1549375416.25
42.18,1549375416.265625
38.56,1549375416.28125
34.51,1549375416.296875
30.38,1549375416.3125
26.32,1549375416.328125
22.24,1549375416.34375
17.9,1549375416.359375
13.1,1549375416.375
7.82,1549375416.390625
2.24,1549375416.40625
-3.32,1549375416.421875
-8.58,1549375416.4375
-13.45,1549375416.453125
-18.08,1549375416.46875
-22.84,1549375416.484375
-28.2,1549375416.5
-34.53,1549375416.515625
-41.94,1549375416.53125
-50.13,1549375416.546875
-58.27,1549375416.5625
-65.07,1549375416.578125
-69.03,1549375416.59375
-68.76,1549375416.609375
-63.5,1549375416.625
-53.41,1549375416.640625
-39.63,1549375416.65625
-23.98,1549375416.671875
-8.44,1549375416.6875
5.39,1549375416.703125
16.71,1549375416.71875
25.51,1549375416.734375
32.38,1549375416.75
38.02,1549375416.765625
42.92,1549375416.78125
47.17,1549375416.796875
50.49,1549375416.8125
52.51,1549375416.828125
53.0,1549375416.84375
52.04,1549375416.859375
50.11,1549375416.875
47.84,1549375416.890625
45.81,1549375416.90625
44.3,1549375416.921875
43.26,1549375416.9375
42.4,1549375416.953125
41.36,1549375416.96875
39.96,1549375416.984375
38.14,1549375417.0
35.97,1549375417.015625
33.44,1549375417.03125
30.46,1549375417.046875
26.89,1549375417.0625
22.63,1549375417.078125
17.71,1549375417.09375
12.29,1549375417.109375
6.62,1549375417.125
0.89,1549375417.140625
-4.78,1549375417.15625
-10.32,1549375417.171875
-15.64,1549375417.1875
-20.64,1549375417.203125
-25.28,1549375417.21875
-29.64,1549375417.234375
-34.02,1549375417.25
-38.81,1549375417.265625
-44.43,1549375417.28125
-51.05,1549375417.296875
-58.46,1549375417.3125
-66.01,1549375417.328125
-72.53,1549375417.34375
-76.64,1549375417.359375
-77.02,1549375417.375
-72.75,1549375417.390625
-63.73,1549375417.40625
-50.65,1549375417.421875
-34.97,1549375417.4375
-18.41,1549375417.453125
-2.61,1549375417.46875
11.33,1549375417.484375
22.97,1549375417.5
32.42,1549375417.515625
40.11,1549375417.53125
46.47,1549375417.546875
51.8,1549375417.5625
56.21,1549375417.578125
59.75,1549375417.59375
62.55,1549375417.609375
64.84,1549375417.625
66.93,1549375417.640625
69.06,1549375417.65625
71.26,1549375417.671875
73.36,1549375417.6875
75.07,1549375417.703125
76.23,1549375417.71875
76.95,1549375417.734375
77.55,1549375417.75
78.48,1549375417.765625
79.99,1549375417.78125
81.93,1549375417.796875
83.72,1549375417.8125
84.49,1549375417.828125
83.26,1549375417.84375
79.28,1549375417.859375
72.27,1549375417.875
62.51,1549375417.890625
50.92,1549375417.90625
38.85,1549375417.921875
27.77,1549375417.9375
18.76,1549375417.953125
12.15,1549375417.96875
7.25,1549375417.984375
2.6,1549375418.0
-3.46,1549375418.015625
-12.2,1549375418.03125
-24.02,1549375418.046875
-38.54,1549375418.0625
-54.94,1549375418.078125
-72.38,1549375418.09375
-90.12,1549375418.109375
-107.19,1549375418.125
-121.95,1549375418.140625
-132.06,1549375418.15625
-134.97,1549375418.171875
-129.02,1549375418.1875
-114.43,1549375418.203125
-93.62,1549375418.21875
-70.54,1549375418.234375
-49.26,1549375418.25
-32.5,1549375418.265625
-20.82,1549375418.28125
-12.94,1549375418.296875
-6.72,1549375418.3125
-0.41,1549375418.328125
6.63,1549375418.34375
13.95,1549375418.359375
20.62,1549375418.375
25.99,1549375418.390625
30.09,1549375418.40625
33.46,1549375418.421875
36.76,1549375418.4375
40.3,1549375418.453125
43.94,1549375418.46875
47.2,1549375418.484375
49.77,1549375418.5
51.66,1549375418.515625
53.2,1549375418.53125
54.76,1549375418.546875
56.35,1549375418.5625
57.55,1549375418.578125
57.62,1549375418.59375
55.88,1549375418.609375
52.08,1549375418.625
46.46,1549375418.640625
39.58,1549375418.65625
31.94,1549375418.671875
23.72,1549375418.6875
14.69,1549375418.703125
4.46,1549375418.71875
-7.14,1549375418.734375
-19.77,1549375418.75
-32.55,1549375418.765625
-44.36,1549375418.78125
-54.24,1549375418.796875
-61.81,1549375418.8125
-67.37,1549375418.828125
-71.81,1549375418.84375
-76.29,1549375418.859375
-81.9,1549375418.875
-89.31,1549375418.890625
-98.44,1549375418.90625
-108.35,1549375418.921875
-117.12,1549375418.9375
-122.32,1549375418.953125
-121.62,1549375418.96875
-113.62,1549375418.984375
-98.49,1549375419.0
-78.02,1549375419.015625
-55.1,1549375419.03125
-32.77,1549375419.046875
-13.33,1549375419.0625
2.12,1549375419.078125
13.65,1549375419.09375
21.96,1549375419.109375
27.88,1549375419.125
31.98,1549375419.140625
34.5,1549375419.15625
35.56,1549375419.171875
35.31,1549375419.1875
34.12,1549375419.203125
32.44,1549375419.21875
30.77,1549375419.234375
29.42,1549375419.25
28.47,1549375419.265625
27.83,1549375419.28125
27.38,1549375419.296875
27.12,1549375419.3125
27.22,1549375419.328125
27.91,1549375419.34375
29.26,1549375419.359375
30.97,1549375419.375
32.37,1549375419.390625
32.66,1549375419.40625
31.22,1549375419.421875
27.96,1549375419.4375
23.39,1549375419.453125
18.4,1549375419.46875
13.88,1549375419.484375
10.29,1549375419.5
7.53,1549375419.515625
5.03,1549375419.53125
2.06,1549375419.546875
-1.9,1549375419.5625
-6.93,1549375419.578125
-12.73,1549375419.59375
-18.8,1549375419.609375
-24.59,1549375419.625
-29.8,1549375419.640625
-34.37,1549375419.65625
-38.5,1549375419.671875
-42.66,1549375419.6875
-47.45,1549375419.703125
-53.46,1549375419.71875
-61.02,1549375419.734375
-69.88,1549375419.75
-79.01,1549375419.765625
-86.67,1549375419.78125
-90.83,1549375419.796875
-89.76,1549375419.8125
-82.73,1549375419.828125
-70.29,1549375419.84375
-54.12,1549375419.859375
-36.46,1549375419.875
-19.34,1549375419.890625
-4.11,1549375419.90625
8.81,1549375419.921875
19.66,1549375419.9375
28.99,1549375419.953125
37.31,1549375419.96875
44.93,1549375419.984375
51.95,1549375420.0
58.33,1549375420.015625
63.98,1549375420.03125
68.7,1549375420.046875
72.34,1549375420.0625
74.77,1549375420.078125
76.02,1549375420.09375
76.36,1549375420.109375
76.24,1549375420.125
76.22,1549375420.140625
76.74,1549375420.15625
78.0,1549375420.171875
79.94,1549375420.1875
82.23,1549375420.203125
84.28,1549375420.21875
85.46,1549375420.234375
85.2,1549375420.25
83.2,1549375420.265625
79.55,1549375420.28125
74.67,1549375420.296875
69.04,1549375420.3125
62.8,1549375420.328125
55.64,1549375420.34375
46.84,1549375420.359375
35.75,1549375420.375
22.28,1549375420.390625
7.23,1549375420.40625
-7.71,1549375420.421875
-20.56,1549375420.4375
-29.69,1549375420.453125
-34.54,1549375420.46875
-35.86,1549375420.484375
-35.48,1549375420.5
-35.66,1549375420.515625
-38.4,1549375420.53125
-44.89,1549375420.546875
-55.26,1549375420.5625
-68.61,1549375420.578125
-83.2,1549375420.59375
-96.8,1549375420.609375
-107.0,1549375420.625
-111.65,1549375420.640625
-109.42,1549375420.65625
-100.34,1549375420.671875
-85.84,1549375420.6875
-68.46,1549375420.703125
-51.07,1549375420.71875
-35.95,1549375420.734375
-24.19,1549375420.75
-15.78,1549375420.765625
-10.06,1549375420.78125
-6.4,1549375420.796875
-4.53,1549375420.8125
-4.49,1549375420.828125
-6.26,1549375420.84375
-9.39,1549375420.859375
-13.04,1549375420.875
-16.17,1549375420.890625
-17.84,1549375420.90625
-17.5,1549375420.921875
-15.04,1549375420.9375
-10.68,1549375420.953125
-4.89,1549375420.96875
1.72,1549375420.984375
8.45,1549375421.0
14.64,1549375421.015625
19.79,1549375421.03125
23.63,1549375421.046875
26.13,1549375421.0625
27.39,1549375421.078125
27.59,1549375421.09375
26.96,1549375421.109375
25.78,1549375421.125
24.35,1549375421.140625
22.96,1549375421.15625
21.73,1549375421.171875
20.59,1549375421.1875
19.29,1549375421.203125
17.54,1549375421.21875
15.16,1549375421.234375
12.19,1549375421.25
8.84,1549375421.265625
5.36,1549375421.28125
1.92,1549375421.296875
-1.56,1549375421.3125
-5.29,1549375421.328125
-9.67,1549375421.34375
-15.11,1549375421.359375
-21.95,1549375421.375
-30.33,1549375421.390625
-40.01,1549375421.40625
-50.21,1549375421.421875
-59.56,1549375421.4375
-66.34,1549375421.453125
-68.87,1549375421.46875
-66.01,1549375421.484375
-57.64,1549375421.5
-44.7,1549375421.515625
-28.96,1549375421.53125
-12.45,1549375421.546875
3.06,1549375421.5625
16.51,1549375421.578125
27.58,1549375421.59375
36.46,1549375421.609375
43.64,1549375421.625
49.56,1549375421.640625
54.52,1549375421.65625
58.64,1549375421.671875
62.01,1549375421.6875
64.69,1549375421.703125
66.76,1549375421.71875
68.28,1549375421.734375
69.13,1549375421.75
69.07,1549375421.765625
67.72,1549375421.78125
64.78,1549375421.796875
60.23,1549375421.8125
54.49,1549375421.828125
48.27,1549375421.84375
42.37,1549375421.859375
37.33,1549375421.875
33.26,1549375421.890625
29.76,1549375421.90625
26.23,1549375421.921875
22.13,1549375421.9375
17.24,1549375421.953125
11.72,1549375421.96875
5.98,1549375421.984375
0.51,1549375422.0
-4.28,1549375422.015625
-8.22,1549375422.03125
-11.37,1549375422.046875
-14.03,1549375422.0625
-16.6,1549375422.078125
-19.47,1549375422.09375
-22.82,1549375422.109375
-26.59,1549375422.125
-30.45,1549375422.140625
-33.92,1549375422.15625
-36.61,1549375422.171875
-38.42,1549375422.1875
-39.71,1549375422.203125
-41.25,1549375422.21875
-43.95,1549375422.234375
-48.43,1549375422.25
-54.59,1549375422.265625
-61.44,1549375422.28125
-67.18,1549375422.296875
-69.73,1549375422.3125
-67.4,1549375422.328125
-59.46,1549375422.34375
-46.32,1549375422.359375
-29.41,1549375422.375
-10.75,1549375422.390625
7.4,1549375422.40625
22.94,1549375422.421875
34.16,1549375422.4375
40.03,1549375422.453125
40.42,1549375422.46875
36.2,1549375422.484375
29.06,1549375422.5
21.04,1549375422.515625
13.92,1549375422.53125
8.79,1549375422.546875
5.87,1549375422.5625
4.77,1549375422.578125
4.94,1549375422.59375
5.99,1549375422.609375
7.8,1549375422.625
10.43,1549375422.640625
13.85,1549375422.65625
17.79,1549375422.671875
21.83,1549375422.6875
25.42,1549375422.703125
28.15,1549375422.71875
29.72,1549375422.734375
30.01,1549375422.75
29.01,1549375422.765625
26.76,1549375422.78125
23.37,1549375422.796875
19.02,1549375422.8125
13.9,1549375422.828125
8.22,1549375422.84375
2.21,1549375422.859375
-3.88,1549375422.875
-9.78,1549375422.890625
-15.23,1549375422.90625
-20.04,1549375422.921875
-24.14,1549375422.9375
-27.58,1549375422.953125
-30.56,1549375422.96875
-33.25,1549375422.984375
-35.85,1549375423.0
-38.49,1549375423.015625
-41.42,1549375423.03125
-44.99,1549375423.046875
-49.64,1549375423.0625
-55.63,1549375423.078125
-62.7,1549375423.09375
-69.87,1549375423.109375
-75.47,1549375423.125
-77.56,1549375423.140625
-74.62,1549375423.15625
-66.17,1549375423.171875
-52.98,1549375423.1875
-36.88,1549375423.203125
-20.09,1549375423.21875
-4.58,1549375423.234375
8.5,1549375423.25
18.87,1549375423.265625
26.9,1549375423.28125
33.17,1549375423.296875
38.14,1549375423.3125
42.0,1549375423.328125
44.78,1549375423.34375
46.43,1549375423.359375
47.04,1549375423.375
46.83,1549375423.390625
46.05,1549375423.40625
44.97,1549375423.421875
43.77,1549375423.4375
42.55,1549375423.453125
41.38,1549375423.46875
40.3,1549375423.484375
39.34,1549375423.5
38.48,1549375423.515625
37.6,1549375423.53125
36.47,1549375423.546875
34.82,1549375423.5625
32.39,1549375423.578125
29.05,1549375423.59375
24.84,1549375423.609375
19.97,1549375423.625
14.78,1549375423.640625
9.65,1549375423.65625
4.8,1549375423.671875
0.3,1549375423.6875
-4.02,1549375423.703125
-8.38,1549375423.71875
-13.01,1549375423.734375
-17.92,1549375423.75
-22.91,1549375423.765625
-27.71,1549375423.78125
-32.1,1549375423.796875
-36.12,1549375423.8125
-40.11,1549375423.828125
-44.65,1549375423.84375
-50.33,1549375423.859375
-57.47,1549375423.875
-65.85,1549375423.890625
-74.55,1549375423.90625
-82.05,1549375423.921875
-86.57,1549375423.9375
-86.52,1549375423.953125
-81.09,1549375423.96875
-70.52,1549375423.984375
-56.1,1549375424.0
-39.78,1549375424.015625
-23.55,1549375424.03125
-8.9,1549375424.046875
3.47,1549375424.0625
13.6,1549375424.078125
21.9,1549375424.09375
28.84,1549375424.109375
34.66,1549375424.125
39.38,1549375424.140625
42.91,1549375424.15625
45.25,1549375424.171875
46.59,1549375424.1875
47.21,1549375424.203125
47.46,1549375424.21875
47.53,1549375424.234375
47.52,1549375424.25
47.38,1549375424.265625
47.06,1549375424.28125
46.59,1549375424.296875
46.04,1549375424.3125
45.51,1549375424.328125
44.99,1549375424.34375
44.33,1549375424.359375
43.21,1549375424.375
41.27,1549375424.390625
38.26,1549375424.40625
34.17,1549375424.421875
29.25,1549375424.4375
23.97,1549375424.453125
18.85,1549375424.46875
14.24,1549375424.484375
10.24,1549375424.5
6.67,1549375424.515625
3.11,1549375424.53125
-0.88,1549375424.546875
-5.57,1549375424.5625
-10.93,1549375424.578125
-16.6,1549375424.59375
-22.08,1549375424.609375
-26.92,1549375424.625
-30.94,1549375424.640625
-34.4,1549375424.65625
-37.91,1549375424.671875
-42.26,1549375424.6875
-48.07,1549375424.703125
-55.51,1549375424.71875
-64.13,1549375424.734375
-72.77,1549375424.75
-79.73,1549375424.765625
-83.22,1549375424.78125
-81.8,1549375424.796875
-74.89,1549375424.8125
-63.02,1549375424.828125
-47.78,1549375424.84375
-31.33,1549375424.859375
-15.76,1549375424.875
-2.5,1549375424.890625
8.0,1549375424.90625
16.13,1549375424.921875
22.73,1549375424.9375
28.56,1549375424.953125
34.03,1549375424.96875
39.11,1549375424.984375
43.51,1549375425.0
46.91,1549375425.015625
49.15,1549375425.03125
50.22,1549375425.046875
50.3,1549375425.0625
49.61,1549375425.078125
48.44,1549375425.09375
47.04,1549375425.109375
45.67,1549375425.125
44.56,1549375425.140625
43.86,1549375425.15625
43.58,1549375425.171875
43.55,1549375425.1875
43.45,1549375425.203125
42.87,1549375425.21875
41.41,1549375425.234375
38.84,1549375425.25
35.18,1549375425.265625
30.7,1549375425.28125
25.86,1549375425.296875
21.07,1549375425.3125
16.56,1549375425.328125
12.29,1549375425.34375
8.06,1549375425.359375
3.63,1549375425.375
-1.1,1549375425.390625
-5.99,1549375425.40625
-10.79,1549375425.421875
-15.22,1549375425.4375
-19.23,1549375425.453125
-22.96,1549375425.46875
-26.71,1549375425.484375
-30.87,1549375425.5
-35.78,1549375425.515625
-41.65,1549375425.53125
-48.49,1549375425.546875
-55.93,1549375425.5625
-63.17,1549375425.578125
-68.9,1549375425.59375
-71.65,1549375425.609375
-70.11,1549375425.625
-63.75,1549375425.640625
-53.04,1549375425.65625
-39.41,1549375425.671875
-24.8,1549375425.6875
-10.99,1549375425.703125
0.88,1549375425.71875
10.53,1549375425.734375
18.29,1549375425.75
24.77,1549375425.765625
30.37,1549375425.78125
35.18,1549375425.796875
39.0,1549375425.8125
41.55,1549375425.828125
42.73,1549375425.84375
42.68,1549375425.859375
41.82,1549375425.875
40.63,1549375425.890625
39.55,1549375425.90625
38.84,1549375425.921875
38.52,1549375425.9375
38.46,1549375425.953125
38.42,1549375425.96875
38.16,1549375425.984375
37.51,1549375426.0
36.36,1549375426.015625
34.67,1549375426.03125
32.44,1549375426.046875
29.73,1549375426.0625
26.54,1549375426.078125
22.94,1549375426.09375
18.96,1549375426.109375
14.61,1549375426.125
9.92,1549375426.140625
4.89,1549375426.15625
-0.44,1549375426.171875
-6.0,1549375426.1875
-11.59,1549375426.203125
-17.03,1549375426.21875
-22.14,1549375426.234375
-26.86,1549375426.25
-31.32,1549375426.265625
-35.8,1549375426.28125
-40.73,1549375426.296875
-46.53,1549375426.3125
-53.39,1549375426.328125
-61.03,1549375426.34375
-68.56,1549375426.359375
-74.56,1549375426.375
-77.4,1549375426.390625
-75.77,1549375426.40625
-69.13,1549375426.421875
-58.03,1549375426.4375
-43.94,1549375426.453125
-28.79,1549375426.46875
-14.35,1549375426.484375
-1.75,1549375426.5
8.58,1549375426.515625
16.82,1549375426.53125
23.36,1549375426.546875
28.55,1549375426.5625
32.54,1549375426.578125
35.37,1549375426.59375
37.07,1549375426.609375
37.74,1549375426.625
37.65,1549375426.640625
37.13,1549375426.65625
36.5,1549375426.671875
36.01,1549375426.6875
35.78,1549375426.703125
35.74,1549375426.71875
35.63,1549375426.734375
35.21,1549375426.75
34.23,1549375426.765625
32.6,1549375426.78125
30.41,1549375426.796875
27.84,1549375426.8125
25.04,1549375426.828125
21.95,1549375426.84375
18.34,1549375426.859375
13.93,1549375426.875
8.56,1549375426.890625
2.36,1549375426.90625
-4.21,1549375426.921875
-10.51,1549375426.9375
-16.08,1549375426.953125
-20.77,1549375426.96875
-24.92,1549375426.984375
-29.2,1549375427.0
-34.31,1549375427.015625
-40.67,1549375427.03125
-48.27,1549375427.046875
-56.6,1549375427.0625
-64.73,1549375427.078125
-71.52,1549375427.09375
-75.71,1549375427.109375
-76.26,1549375427.125
-72.51,1549375427.140625
-64.47,1549375427.15625
-52.86,1549375427.171875
-39.01,1549375427.1875
-24.56,1549375427.203125
-10.9,1549375427.21875
1.06,1549375427.234375
11.1,1549375427.25
19.46,1549375427.265625
26.58,1549375427.28125
32.77,1549375427.296875
38.12,1549375427.3125
42.51,1549375427.328125
45.74,1549375427.34375
47.66,1549375427.359375
48.3,1549375427.375
47.87,1549375427.390625
46.71,1549375427.40625
45.24,1549375427.421875
43.83,1549375427.4375
42.64,1549375427.453125
41.65,1549375427.46875
40.62,1549375427.484375
39.31,1549375427.5
37.51,1549375427.515625
35.19,1549375427.53125
32.4,1549375427.546875
29.2,1549375427.5625
25.59,1549375427.578125
21.5,1549375427.59375
16.88,1549375427.609375
11.75,1549375427.625
6.24,1549375427.640625
0.55,1549375427.65625
-5.09,1549375427.671875
-10.56,1549375427.6875
-15.71,1549375427.703125
-20.49,1549375427.71875
-24.87,1549375427.734375
-28.95,1549375427.75
-32.93,1549375427.765625
-37.11,1549375427.78125
-41.81,1549375427.796875
-47.28,1549375427.8125
-53.6,1549375427.828125
-60.58,1549375427.84375
-67.62,1549375427.859375
-73.69,1549375427.875
-77.49,1549375427.890625
-77.7,1549375427.90625
-73.42,1549375427.921875
-64.56,1549375427.9375
-51.96,1549375427.953125
-37.24,1549375427.96875
-22.26,1549375427.984375
-8.62,1549375428.0
2.84,1549375428.015625
12.04,1549375428.03125
19.52,1549375428.046875
25.98,1549375428.0625
31.95,1549375428.078125
37.57,1549375428.09375
42.64,1549375428.109375
46.81,1549375428.125
49.79,1549375428.140625
51.55,1549375428.15625
52.29,1549375428.171875
52.32,1549375428.1875
51.89,1549375428.203125
51.1,1549375428.21875
49.93,1549375428.234375
48.36,1549375428.25
46.5,1549375428.265625
44.55,1549375428.28125
42.73,1549375428.296875
41.05,1549375428.3125
39.27,1549375428.328125
36.92,1549375428.34375
33.55,1549375428.359375
28.99,1549375428.375
23.5,1549375428.390625
17.65,1549375428.40625
12.07,1549375428.421875
7.14,1549375428.4375
2.86,1549375428.453125
-1.18,1549375428.46875
-5.47,1549375428.484375
-10.34,1549375428.5
-15.76,1549375428.515625
-21.35,1549375428.53125
-26.59,1549375428.546875
-31.11,1549375428.5625
-34.88,1549375428.578125
-38.3,1549375428.59375
-42.08,1549375428.609375
-46.94,1549375428.625
-53.39,1549375428.640625
-61.41,1549375428.65625
-70.29,1549375428.671875
-78.66,1549375428.6875
-84.74,1549375428.703125
-86.77,1549375428.71875
-83.6,1549375428.734375
-75.07,1549375428.75
-62.18,1549375428.765625
-46.83,1549375428.78125
-31.13,1549375428.796875
-16.79,1549375428.8125
-4.67,1549375428.828125
5.33,1549375428.84375
13.88,1549375428.859375
21.72,1549375428.875
29.32,1549375428.890625
36.68,1549375428.90625
43.52,1549375428.921875
49.43,1549375428.9375
54.14,1549375428.953125
57.58,1549375428.96875
59.82,1549375428.984375
61.0,1549375429.0
61.26,1549375429.015625
60.74,1549375429.03125
59.61,1549375429.046875
58.09,1549375429.0625
56.4,1549375429.078125
54.81,1549375429.09375
53.47,1549375429.109375
52.44,1549375429.125
51.55,1549375429.140625
50.5,1549375429.15625
48.88,1549375429.171875
46.33,1549375429.1875
42.73,1549375429.203125
38.24,1549375429.21875
33.26,1549375429.234375
28.29,1549375429.25
23.69,1549375429.265625
19.61,1549375429.28125
15.96,1549375429.296875
12.42,1549375429.3125
8.68,1549375429.328125
4.55,1549375429.34375
0.02,1549375429.359375
-4.69,1549375429.375
-9.28,1549375429.390625
-13.51,1549375429.40625
-17.35,1549375429.421875
-21.03,1549375429.4375
-24.96,1549375429.453125
-29.62,1549375429.46875
-35.39,1549375429.484375
-42.5,1549375429.5
-50.89,1549375429.515625
-60.17,1549375429.53125
-69.41,1549375429.546875
-77.24,1549375429.5625
-81.96,1549375429.578125
-82.03,1549375429.59375
-76.67,1549375429.609375
-66.26,1549375429.625
-52.42,1549375429.640625
-37.47,1549375429.65625
-23.68,1549375429.671875
-12.45,1549375429.6875
-4.0,1549375429.703125
2.39,1549375429.71875
7.86,1549375429.734375
13.26,1549375429.75
18.83,1549375429.765625
24.25,1549375429.78125
28.95,1549375429.796875
32.49,1549375429.8125
34.79,1549375429.828125
36.11,1549375429.84375
36.78,1549375429.859375
37.15,1549375429.875
37.31,1549375429.890625
37.23,1549375429.90625
36.82,1549375429.921875
36.08,1549375429.9375
35.17,1549375429.953125
34.33,1549375429.96875
33.79,1549375429.984375
33.57,1549375430.0
33.52,1549375430.015625
33.27,1549375430.03125
32.4,1549375430.046875
30.61,1549375430.0625
27.8,1549375430.078125
24.18,1549375430.09375
20.12,1549375430.109375
16.03,1549375430.125
12.22,1549375430.140625
8.77,1549375430.15625
5.52,1549375430.171875
2.19,1549375430.1875
-1.52,1549375430.203125
-5.76,1549375430.21875
-10.45,1549375430.234375
-15.36,1549375430.25
-20.12,1549375430.265625
-24.41,1549375430.28125
-28.11,1549375430.296875
-31.33,1549375430.3125
-34.48,1549375430.328125
-38.04,1549375430.34375
-42.53,1549375430.359375
-48.28,1549375430.375
-55.24,1549375430.390625
-62.93,1549375430.40625
-70.32,1549375430.421875
-75.96,1549375430.4375
-78.32,1549375430.453125
-76.19,1549375430.46875
-69.18,1549375430.484375
-57.87,1549375430.5
-43.7,1549375430.515625
-28.56,1549375430.53125
-14.19,1549375430.546875
-1.76,1549375430.5625
8.3,1549375430.578125
16.2,1549375430.59375
22.44,1549375430.609375
27.55,1549375430.625
31.86,1549375430.640625
35.48,1549375430.65625
38.38,1549375430.671875
40.47,1549375430.6875
41.76,1549375430.703125
42.34,1549375430.71875
42.4,1549375430.734375
42.11,1549375430.75
41.57,1549375430.765625
40.82,1549375430.78125
39.85,1549375430.796875
38.74,1549375430.8125
37.67,1549375430.828125
36.88,1549375430.84375
36.46,1549375430.859375
36.27,1549375430.875
35.88,1549375430.890625
34.72,1549375430.90625
32.37,1549375430.921875
28.74,1549375430.9375
24.14,1549375430.953125
19.18,1549375430.96875
14.45,1549375430.984375
10.32,1549375431.0
6.77,1549375431.015625
3.46,1549375431.03125
-0.03,1549375431.046875
-4.04,1549375431.0625
-8.62,1549375431.078125
-13.56,1549375431.09375
-18.53,1549375431.109375
-23.24,1549375431.125
-27.53,1549375431.140625
-31.47,1549375431.15625
-35.25,1549375431.171875
-39.22,1549375431.1875
-43.79,1549375431.203125
-49.31,1549375431.21875
-55.96,1549375431.234375
-63.51,1549375431.25
-71.2,1549375431.265625
-77.71,1549375431.28125
-81.46,1549375431.296875
-81.04,1549375431.3125
-75.77,1549375431.328125
-65.98,1549375431.34375
-52.95,1549375431.359375
-38.57,1549375431.375
-24.62,1549375431.390625
-12.33,1549375431.40625
-2.03,1549375431.421875
6.67,1549375431.4375
14.44,1549375431.453125
21.83,1549375431.46875
28.91,1549375431.484375
35.3,1549375431.5
40.48,1549375431.515625
44.08,1549375431.53125
46.12,1549375431.546875
46.97,1549375431.5625
47.15,1549375431.578125
47.11,1549375431.59375
47.06,1549375431.609375
46.95,1549375431.625
46.66,1549375431.640625
46.09,1549375431.65625
45.27,1549375431.671875
44.27,1549375431.6875
43.14,1549375431.703125
41.81,1549375431.71875
40.17,1549375431.734375
38.05,1549375431.75
35.42,1549375431.765625
32.29,1549375431.78125
28.77,1549375431.796875
25.0,1549375431.8125
21.11,1549375431.828125
17.22,1549375431.84375
13.39,1549375431.859375
9.69,1549375431.875
6.11,1549375431.890625
2.59,1549375431.90625
-1.01,1549375431.921875
-4.76,1549375431.9375
-8.7,1549375431.953125
-12.74,1549375431.96875
-16.72,1549375431.984375
-20.47,1549375432.0
-23.92,1549375432.015625
-27.13,1549375432.03125
-30.33,1549375432.046875
-33.81,1549375432.0625
-37.85,1549375432.078125
-42.66,1549375432.09375
-48.29,1549375432.109375
-54.52,1549375432.125
-60.77,1549375432.140625
-66.08,1549375432.15625
-69.15,1549375432.171875
-68.61,1549375432.1875
-63.49,1549375432.203125
-53.63,1549375432.21875
-39.93,1549375432.234375
-24.18,1549375432.25
-8.49,1549375432.265625
5.38,1549375432.28125
16.64,1549375432.296875
25.55,1549375432.3125
33.12,1549375432.328125
40.47,1549375432.34375
48.23,1549375432.359375
56.36,1549375432.375
64.29,1549375432.390625
71.27,1549375432.40625
76.78,1549375432.421875
80.71,1549375432.4375
83.29,1549375432.453125
84.9,1549375432.46875
85.96,1549375432.484375
86.86,1549375432.5
88.02,1549375432.515625
89.86,1549375432.53125
92.7,1549375432.546875
96.46,1549375432.5625
100.52,1549375432.578125
103.64,1549375432.59375
104.26,1549375432.609375
101.04,1549375432.625
93.41,1549375432.640625
81.91,1549375432.65625
68.13,1549375432.671875
54.29,1549375432.6875
42.57,1549375432.703125
34.55,1549375432.71875
30.94,1549375432.734375
31.58,1549375432.75
35.74,1549375432.765625
42.52,1549375432.78125
51.12,1549375432.796875
61.0,1549375432.8125
71.84,1549375432.828125
83.41,1549375432.84375
95.35,1549375432.859375
107.18,1549375432.875
118.41,1549375432.890625
128.82,1549375432.90625
138.62,1549375432.921875
148.54,1549375432.9375
159.46,1549375432.953125
172.0,1549375432.96875
186.11,1549375432.984375
201.04,1549375433.0
215.47,1549375433.015625
227.96,1549375433.03125
237.12,1549375433.046875
241.64,1549375433.0625
240.28,1549375433.078125
231.91,1549375433.09375
215.87,1549375433.109375
192.34,1549375433.125
162.58,1549375433.140625
128.74,1549375433.15625
93.2,1549375433.171875
57.82,1549375433.1875
23.39,1549375433.203125
-10.3,1549375433.21875
-43.9,1549375433.234375
-77.64,1549375433.25
-110.79,1549375433.265625
-141.63,1549375433.28125
-168.21,1549375433.296875
-189.18,1549375433.3125
-204.47,1549375433.328125
-215.41,1549375433.34375
-224.24,1549375433.359375
-233.26,1549375433.375
-244.22,1549375433.390625
-258.02,1549375433.40625
-274.88,1549375433.421875
-294.54,1549375433.4375
-316.26,1549375433.453125
-338.49,1549375433.46875
-358.54,1549375433.484375
-372.67,1549375433.5
-376.96,1549375433.515625
-368.6,1549375433.53125
-347.11,1549375433.546875
-314.61,1549375433.5625
-275.16,1549375433.578125
-233.44,1549375433.59375
-193.34,1549375433.609375
-157.44,1549375433.625
-127.12,1549375433.640625
-103.28,1549375433.65625
-86.91,1549375433.671875
-79.21,1549375433.6875
-81.02,1549375433.703125
-92.17,1549375433.71875
-111.07,1549375433.734375
-134.86,1549375433.75
-160.08,1549375433.765625
-183.43,1549375433.78125
-202.35,1549375433.796875
-215.29,1549375433.8125
-221.54,1549375433.828125
-221.03,1549375433.84375
-214.16,1549375433.859375
-201.79,1549375433.875
-185.17,1549375433.890625
-165.73,1549375433.90625
-144.61,1549375433.921875
-122.12,1549375433.9375
-97.64,1549375433.953125
-70.06,1549375433.96875
-38.68,1549375433.984375
-4.16,1549375434.0
31.17,1549375434.015625
63.92,1549375434.03125
90.85,1549375434.046875
110.19,1549375434.0625
122.19,1549375434.078125
128.77,1549375434.09375
132.41,1549375434.109375
134.96,1549375434.125
137.13,1549375434.140625
138.65,1549375434.15625
139.06,1549375434.171875
138.31,1549375434.1875
137.06,1549375434.203125
136.33,1549375434.21875
136.92,1549375434.234375
139.08,1549375434.25
142.45,1549375434.265625
146.47,1549375434.28125
150.82,1549375434.296875
155.56,1549375434.3125
160.85,1549375434.328125
166.37,1549375434.34375
170.83,1549375434.359375
171.94,1549375434.375
167.1,1549375434.390625
154.41,1549375434.40625
133.64,1549375434.421875
106.61,1549375434.4375
76.73,1549375434.453125
47.9,1549375434.46875
23.3,1549375434.484375
4.52,1549375434.5
-8.64,1549375434.515625
-17.75,1549375434.53125
-24.92,1549375434.546875
-31.94,1549375434.5625
-39.82,1549375434.578125
-48.6,1549375434.59375
-57.7,1549375434.609375
-66.42,1549375434.625
-74.41,1549375434.640625
-81.82,1549375434.65625
-89.17,1549375434.671875
-97.01,1549375434.6875
-105.66,1549375434.703125
-115.03,1549375434.71875
-124.63,1549375434.734375
-133.39,1549375434.75
-139.51,1549375434.765625
-140.41,1549375434.78125
-133.22,1549375434.796875
-115.74,1549375434.8125
-87.76,1549375434.828125
-51.81,1549375434.84375
-12.98,1549375434.859375
22.54,1549375434.875
49.55,1549375434.890625
65.46,1549375434.90625
70.9,1549375434.921875
68.82,1549375434.9375
62.93,1549375434.953125
56.11,1549375434.96875
49.72,1549375434.984375
43.78,1549375435.0
37.67,1549375435.015625
30.86,1549375435.03125
23.25,1549375435.046875
15.2,1549375435.0625
7.39,1549375435.078125
0.63,1549375435.09375
-4.3,1549375435.109375
-6.83,1549375435.125
-6.63,1549375435.140625
-3.71,1549375435.15625
1.62,1549375435.171875
8.87,1549375435.1875
17.41,1549375435.203125
26.55,1549375435.21875
35.45,1549375435.234375
43.25,1549375435.25
49.13,1549375435.265625
52.57,1549375435.28125
53.61,1549375435.296875
52.83,1549375435.3125
51.18,1549375435.328125
49.72,1549375435.34375
49.14,1549375435.359375
49.62,1549375435.375
50.71,1549375435.390625
51.52,1549375435.40625
51.06,1549375435.421875
48.49,1549375435.4375
43.4,1549375435.453125
35.98,1549375435.46875
26.92,1549375435.484375
17.27,1549375435.5
8.02,1549375435.515625
-0.11,1549375435.53125
-7.02,1549375435.546875
-13.23,1549375435.5625
-19.57,1549375435.578125
-26.98,1549375435.59375
-36.08,1549375435.609375
-46.95,1549375435.625
-58.99,1549375435.640625
-70.87,1549375435.65625
-80.65,1549375435.671875
-86.23,1549375435.6875
-86.0,1549375435.703125
-79.5,1549375435.71875
-67.78,1549375435.734375
-53.23,1549375435.75
-38.78,1549375435.765625
-26.83,1549375435.78125
-18.54,1549375435.796875
-13.51,1549375435.8125
-10.42,1549375435.828125
-7.78,1549375435.84375
-4.67,1549375435.859375
-0.93,1549375435.875
3.15,1549375435.890625
7.27,1549375435.90625
11.44,1549375435.921875
15.93,1549375435.9375
20.98,1549375435.953125
26.51,1549375435.96875
32.07,1549375435.984375
37.0,1549375436.0
40.77,1549375436.015625
43.21,1549375436.03125
44.64,1549375436.046875
45.65,1549375436.0625
46.84,1549375436.078125
48.48,1549375436.09375
50.4,1549375436.109375
51.94,1549375436.125
52.22,1549375436.140625
50.36,1549375436.15625
45.77,1549375436.171875
38.41,1549375436.1875
28.84,1549375436.203125
18.08,1549375436.21875
7.36,1549375436.234375
-2.25,1549375436.25
-10.21,1549375436.265625
-16.64,1549375436.28125
-22.17,1549375436.296875
-27.61,1549375436.3125
-33.46,1549375436.328125
-39.71,1549375436.34375
-45.83,1549375436.359375
-51.09,1549375436.375
-55.03,1549375436.390625
-57.71,1549375436.40625
-59.72,1549375436.421875
-61.9,1549375436.4375
-65.09,1549375436.453125
-69.87,1549375436.46875
-76.37,1549375436.484375
-84.04,1549375436.5
-91.61,1549375436.515625
-97.08,1549375436.53125
-98.15,1549375436.546875
-93.01,1549375436.5625
-81.08,1549375436.578125
-63.45,1549375436.59375
-42.66,1549375436.609375
-21.82,1549375436.625
-3.53,1549375436.640625
10.86,1549375436.65625
21.42,1549375436.671875
29.14,1549375436.6875
35.21,1549375436.703125
40.42,1549375436.71875
45.03,1549375436.734375
48.9,1549375436.75
51.88,1549375436.765625
53.96,1549375436.78125
55.39,1549375436.796875
56.5,1549375436.8125
57.55,1549375436.828125
58.58,1549375436.84375
59.43,1549375436.859375
59.83,1549375436.875
59.54,1549375436.890625
58.57,1549375436.90625
57.15,1549375436.921875
55.67,1549375436.9375
54.39,1549375436.953125
53.33,1549375436.96875
52.17,1549375436.984375
50.42,1549375437.0
47.68,1549375437.015625
43.82,1549375437.03125
39.12,1549375437.046875
34.15,1549375437.0625
29.5,1549375437.078125
25.67,1549375437.09375
22.79,1549375437.109375
20.65,1549375437.125
18.81,1549375437.140625
16.72,1549375437.15625
13.92,1549375437.171875
10.2,1549375437.1875
5.61,1549375437.203125
0.46,1549375437.21875
-4.77,1549375437.234375
-9.62,1549375437.25
-13.78,1549375437.265625
-17.22,1549375437.28125
-20.24,1549375437.296875
-23.39,1549375437.3125
-27.34,1549375437.328125
-32.64,1549375437.34375
-39.6,1549375437.359375
-48.07,1549375437.375
-57.31,1549375437.390625
-65.98,1549375437.40625
-72.26,1549375437.421875
-74.33,1549375437.4375
-70.89,1549375437.453125
-61.72,1549375437.46875
-47.86,1549375437.484375
-31.36,1549375437.5
-14.65,1549375437.515625
0.27,1549375437.53125
12.34,1549375437.546875
21.58,1549375437.5625
28.68,1549375437.578125
34.49,1549375437.59375
39.57,1549375437.609375
44.05,1549375437.625
47.74,1549375437.640625
50.4,1549375437.65625
51.96,1549375437.671875
52.52,1549375437.6875
52.35,1549375437.703125
51.71,1549375437.71875
50.79,1549375437.734375
49.69,1549375437.75
48.41,1549375437.765625
46.94,1549375437.78125
45.35,1549375437.796875
43.79,1549375437.8125
42.42,1549375437.828125
41.35,1549375437.84375
40.54,1549375437.859375
39.62,1549375437.875
38.02,1549375437.890625
35.22,1549375437.90625
30.96,1549375437.921875
25.47,1549375437.9375
19.43,1549375437.953125
13.73,1549375437.96875
9.05,1549375437.984375
5.57,1549375438.0
2.88,1549375438.015625
0.19,1549375438.03125
-3.22,1549375438.046875
-7.65,1549375438.0625
-12.76,1549375438.078125
-17.82,1549375438.09375
-22.04,1549375438.109375
-24.96,1549375438.125
-26.7,1549375438.140625
-27.91,1549375438.15625
-29.55,1549375438.171875
-32.58,1549375438.1875
-37.7,1549375438.203125
-45.22,1549375438.21875
-54.86,1549375438.234375
-65.69,1549375438.25
-76.05,1549375438.265625
-83.79,1549375438.28125
-86.72,1549375438.296875
-83.38,1549375438.3125
-73.62,1549375438.328125
-58.8,1549375438.34375
-41.37,1549375438.359375
-23.98,1549375438.375
-8.63,1549375438.390625
3.88,1549375438.40625
13.8,1549375438.421875
21.86,1549375438.4375
28.68,1549375438.453125
34.31,1549375438.46875
38.41,1549375438.484375
40.63,1549375438.5
41.0,1549375438.515625
40.08,1549375438.53125
38.74,1549375438.546875
37.76,1549375438.5625
37.49,1549375438.578125
37.77,1549375438.59375
38.11,1549375438.609375
37.98,1549375438.625
37.15,1549375438.640625
35.79,1549375438.65625
34.29,1549375438.671875
33.1,1549375438.6875
32.38,1549375438.703125
31.89,1549375438.71875
31.16,1549375438.734375
29.61,1549375438.75
26.91,1549375438.765625
23.06,1549375438.78125
18.43,1549375438.796875
13.51,1549375438.8125
8.72,1549375438.828125
4.19,1549375438.84375
-0.26,1549375438.859375
-5.0,1549375438.875
-10.35,1549375438.890625
-16.39,1549375438.90625
-22.77,1549375438.921875
-28.92,1549375438.9375
-34.19,1549375438.953125
-38.22,1549375438.96875
-41.14,1549375438.984375
-43.57,1549375439.0
-46.39,1549375439.015625
-50.5,1549375439.03125
-56.41,1549375439.046875
-63.98,1549375439.0625
-72.32,1549375439.078125
-79.78,1549375439.09375
-84.31,1549375439.109375
-83.98,1549375439.125
-77.59,1549375439.140625
-65.17,1549375439.15625
-48.08,1549375439.171875
-28.58,1549375439.1875
-9.16,1549375439.203125
8.27,1549375439.21875
22.75,1549375439.234375
34.3,1549375439.25
43.51,1549375439.265625
51.07,1549375439.28125
57.51,1549375439.296875
63.06,1549375439.3125
67.85,1549375439.328125
71.95,1549375439.34375
75.44,1549375439.359375
78.38,1549375439.375
80.73,1549375439.390625
82.41,1549375439.40625
83.41,1549375439.421875
83.87,1549375439.4375
84.17,1549375439.453125
84.7,1549375439.46875
85.83,1549375439.484375
87.63,1549375439.5
89.84,1549375439.515625
92.0,1549375439.53125
93.49,1549375439.546875
93.74,1549375439.5625
92.29,1549375439.578125
88.92,1549375439.59375
83.64,1549375439.609375
76.66,1549375439.625
68.25,1549375439.640625
58.58,1549375439.65625
47.56,1549375439.671875
34.92,1549375439.6875
20.51,1549375439.703125
4.56,1549375439.71875
-12.04,1549375439.734375
-27.9,1549375439.75
-41.65,1549375439.765625
-52.38,1549375439.78125
-60.03,1549375439.796875
-65.31,1549375439.8125
-69.34,1549375439.828125
-73.18,1549375439.84375
-77.63,1549375439.859375
-83.11,1549375439.875
-89.67,1549375439.890625
-96.76,1549375439.90625
-103.03,1549375439.921875
-106.39,1549375439.9375
-104.44,1549375439.953125
-95.48,1549375439.96875
-79.38,1549375439.984375
-57.86,1549375440.0
-34.04,1549375440.015625
-11.15,1549375440.03125
8.53,1549375440.046875
24.34,1549375440.0625
37.01,1549375440.078125
47.83,1549375440.09375
57.85,1549375440.109375
67.48,1549375440.125
76.57,1549375440.140625
84.94,1549375440.15625
92.68,1549375440.171875
100.26,1549375440.1875
108.36,1549375440.203125
117.42,1549375440.21875
127.15,1549375440.234375
136.36,1549375440.25
142.9,1549375440.265625
144.31,1549375440.28125
138.66,1549375440.296875
125.33,1549375440.3125
105.46,1549375440.328125
81.54,1549375440.34375
56.46,1549375440.359375
32.36,1549375440.375
10.01,1549375440.390625
-11.0,1549375440.40625
-31.45,1549375440.421875
-51.51,1549375440.4375
-70.36,1549375440.453125
-86.61,1549375440.46875
-99.33,1549375440.484375
-108.82,1549375440.5
-116.77,1549375440.515625
-125.57,1549375440.53125
-137.02,1549375440.546875
-151.47,1549375440.5625
-167.47,1549375440.578125
-182.48,1549375440.59375
-193.98,1549375440.609375
-200.37,1549375440.625
-201.54,1549375440.640625
-198.53,1549375440.65625
-192.97,1549375440.671875
-186.43,1549375440.6875
-180.21,1549375440.703125
-175.25,1549375440.71875
-172.02,1549375440.734375
-170.21,1549375440.75
-168.39,1549375440.765625
-164.12,1549375440.78125
-154.58,1549375440.796875
-137.77,1549375440.8125
-113.59,1549375440.828125
-84.23,1549375440.84375
-53.38,1549375440.859375
-24.9,1549375440.875
-1.32,1549375440.890625
16.93,1549375440.90625
31.15,1549375440.921875
43.44,1549375440.9375
55.56,1549375440.953125
68.28,1549375440.96875
81.39,1549375440.984375
94.16,1549375441.0
105.84,1549375441.015625
115.99,1549375441.03125
124.52,1549375441.046875
131.65,1549375441.0625
137.78,1549375441.078125
143.34,1549375441.09375
148.64,1549375441.109375
153.75,1549375441.125
158.48,1549375441.140625
162.43,1549375441.15625
165.18,1549375441.171875
166.47,1549375441.1875
166.23,1549375441.203125
164.46,1549375441.21875
161.03,1549375441.234375
155.56,1549375441.25
147.54,1549375441.265625
136.49,1549375441.28125
122.34,1549375441.296875
105.5,1549375441.3125
86.94,1549375441.328125
67.88,1549375441.34375
49.58,1549375441.359375
33.09,1549375441.375
18.95,1549375441.390625
7.1,1549375441.40625
-3.29,1549375441.421875
-13.69,1549375441.4375
-25.79,1549375441.453125
-40.94,1549375441.46875
-59.41,1549375441.484375
-80.01,1549375441.5
-100.36,1549375441.515625
-117.68,1549375441.53125
-129.84,1549375441.546875
-136.26,1549375441.5625
-138.05,1549375441.578125
-137.55,1549375441.59375
-137.35,1549375441.609375
-139.19,1549375441.625
-143.1,1549375441.640625
-147.09,1549375441.65625
-147.52,1549375441.671875
-140.26,1549375441.6875
-122.25,1549375441.703125
-92.84,1549375441.71875
-54.4,1549375441.734375
-11.84,1549375441.75
28.92,1549375441.765625
62.56,1549375441.78125
85.65,1549375441.796875
97.0,1549375441.8125
97.21,1549375441.828125
87.9,1549375441.84375
71.08,1549375441.859375
48.94,1549375441.875
23.99,1549375441.890625
-0.95,1549375441.90625
-23.11,1549375441.921875
-40.18,1549375441.9375
-50.93,1549375441.953125
-55.3,1549375441.96875
-54.24,1549375441.984375
-49.29,1549375442.0
-42.1,1549375442.015625
-34.05,1549375442.03125
-25.99,1549375442.046875
-18.31,1549375442.0625
-10.94,1549375442.078125
-3.75,1549375442.09375
3.25,1549375442.109375
9.75,1549375442.125
15.13,1549375442.140625
18.71,1549375442.15625
20.04,1549375442.171875
19.08,1549375442.1875
16.32,1549375442.203125
12.63,1549375442.21875
8.96,1549375442.234375
6.02,1549375442.25
4.07,1549375442.265625
2.82,1549375442.28125
1.63,1549375442.296875
-0.32,1549375442.3125
-3.64,1549375442.328125
-8.51,1549375442.34375
-14.56,1549375442.359375
-21.06,1549375442.375
-27.18,1549375442.390625
-32.39,1549375442.40625
-36.6,1549375442.421875
-40.19,1549375442.4375
-43.8,1549375442.453125
-48.07,1549375442.46875
-53.53,1549375442.484375
-60.44,1549375442.5
-68.72,1549375442.515625
-77.73,1549375442.53125
-86.08,1549375442.546875
-91.7,1549375442.5625
-92.33,1549375442.578125
-86.34,1549375442.59375
-73.51,1549375442.609375
-55.37,1549375442.625
-34.71,1549375442.640625
-14.64,1549375442.65625
2.61,1549375442.671875
16.32,1549375442.6875
27.07,1549375442.703125
36.09,1549375442.71875
44.34,1549375442.734375
52.05,1549375442.75
58.83,1549375442.765625
64.08,1549375442.78125
67.51,1549375442.796875
69.32,1549375442.8125
70.02,1549375442.828125
70.1,1549375442.84375
69.83,1549375442.859375
69.18,1549375442.875
68.05,1549375442.890625
66.38,1549375442.90625
64.42,1549375442.921875
62.52,1549375442.9375
61.0,1549375442.953125
59.98,1549375442.96875
59.25,1549375442.984375
58.37,1549375443.0
56.79,1549375443.015625
54.09,1549375443.03125
50.04,1549375443.046875
44.75,1549375443.0625
38.59,1549375443.078125
32.11,1549375443.09375
25.91,1549375443.109375
20.38,1549375443.125
15.64,1549375443.140625
11.42,1549375443.15625
7.24,1549375443.171875
2.66,1549375443.1875
-2.49,1549375443.203125
-8.01,1549375443.21875
-13.4,1549375443.234375
-18.17,1549375443.25
-22.06,1549375443.265625
-25.15,1549375443.28125
-27.76,1549375443.296875
-30.37,1549375443.3125
-33.44,1549375443.328125
-37.25,1549375443.34375
-41.81,1549375443.359375
-46.59,1549375443.375
-50.33,1549375443.390625
-51.14,1549375443.40625
-46.87,1549375443.421875
-35.9,1549375443.4375
-17.93,1549375443.453125
5.77,1549375443.46875
32.45,1549375443.484375
58.79,1549375443.5
81.84,1549375443.515625
99.85,1549375443.53125
112.46,1549375443.546875
120.51,1549375443.5625
125.52,1549375443.578125
129.3,1549375443.59375
133.55,1549375443.609375
139.7,1549375443.625
148.36,1549375443.640625
158.89,1549375443.65625
169.01,1549375443.671875
175.01,1549375443.6875
172.66,1549375443.703125
158.62,1549375443.71875
131.73,1549375443.734375
93.66,1549375443.75
48.66,1549375443.765625
2.5,1549375443.78125
-38.97,1549375443.796875
-71.01,1549375443.8125
-90.87,1549375443.828125
-98.05,1549375443.84375
-94.19,1549375443.859375
-82.54,1549375443.875
-67.24,1549375443.890625
-52.4,1549375443.90625
-41.34,1549375443.921875
-36.02,1549375443.9375
-36.92,1549375443.953125
-43.34,1549375443.96875
-53.91,1549375443.984375
-67.07,1549375444.0
-81.42,1549375444.015625
-95.95,1549375444.03125
-110.08,1549375444.046875
-123.69,1549375444.0625
-137.03,1549375444.078125
-150.51,1549375444.09375
-164.47,1549375444.109375
-178.92,1549375444.125
-193.28,1549375444.140625
-206.16,1549375444.15625
-215.21,1549375444.171875
-217.4,1549375444.1875
-209.84,1549375444.203125
-190.82,1549375444.21875
-160.85,1549375444.234375
-123.06,1549375444.25
-82.47,1549375444.265625
-44.42,1549375444.28125
-12.88,1549375444.296875
10.69,1549375444.3125
27.32,1549375444.328125
39.39,1549375444.34375
49.2,1549375444.359375
57.91,1549375444.375
65.39,1549375444.390625
70.85,1549375444.40625
73.72,1549375444.421875
74.21,1549375444.4375
73.25,1549375444.453125
72.04,1549375444.46875
71.35,1549375444.484375
71.34,1549375444.5
71.49,1549375444.515625
71.07,1549375444.53125
69.56,1549375444.546875
66.89,1549375444.5625
63.4,1549375444.578125
59.56,1549375444.59375
55.69,1549375444.609375
51.73,1549375444.625
47.38,1549375444.640625
42.22,1549375444.65625
36.05,1549375444.671875
29.03,1549375444.6875
21.56,1549375444.703125
14.14,1549375444.71875
7.08,1549375444.734375
0.45,1549375444.75
-5.94,1549375444.765625
-12.26,1549375444.78125
-18.52,1549375444.796875
-24.53,1549375444.8125
-29.99,1549375444.828125
-34.69,1549375444.84375
-38.75,1549375444.859375
-42.73,1549375444.875
-47.46,1549375444.890625
-53.84,1549375444.90625
-62.36,1549375444.921875
-72.64,1549375444.9375
-83.19,1549375444.953125
-91.58,1549375444.96875
-95.08,1549375444.984375
-91.59,1549375445.0
-80.58,1549375445.015625
-63.37,1549375445.03125
-42.7,1549375445.046875
-21.78,1549375445.0625
-3.15,1549375445.078125
11.96,1549375445.09375
23.69,1549375445.109375
32.9,1549375445.125
40.58,1549375445.140625
47.27,1549375445.15625
53.04,1549375445.171875
57.65,1549375445.1875
60.93,1549375445.203125
62.92,1549375445.21875
63.83,1549375445.234375
64.0,1549375445.25
63.7,1549375445.265625
63.08,1549375445.28125
62.19,1549375445.296875
60.95,1549375445.3125
59.36,1549375445.328125
57.49,1549375445.34375
55.57,1549375445.359375
53.87,1549375445.375
52.56,1549375445.390625
51.45,1549375445.40625
50.0,1549375445.421875
47.47,1549375445.4375
43.26,1549375445.453125
37.3,1549375445.46875
30.06,1549375445.484375
22.48,1549375445.5
15.46,1549375445.515625
9.54,1549375445.53125
4.6,1549375445.546875
0.03,1549375445.5625
-4.97,1549375445.578125
-10.98,1549375445.59375
-18.06,1549375445.609375
-25.72,1549375445.625
-33.2,1549375445.640625
-39.77,1549375445.65625
-45.08,1549375445.671875
-49.25,1549375445.6875
-52.87,1549375445.703125
-56.71,1549375445.71875
-61.55,1549375445.734375
-67.98,1549375445.75
-76.24,1549375445.765625
-86.1,1549375445.78125
-96.62,1549375445.796875
-106.01,1549375445.8125
-111.87,1549375445.828125
-111.8,1549375445.84375
-104.25,1549375445.859375
-89.3,1549375445.875
-68.81,1549375445.890625
-45.84,1549375445.90625
-23.61,1549375445.921875
-4.34,1549375445.9375
11.17,1549375445.953125
23.48,1549375445.96875
33.71,1549375445.984375
42.88,1549375446.0
51.37,1549375446.015625
59.06,1549375446.03125
65.59,1549375446.046875
70.68,1549375446.0625
74.32,1549375446.078125
76.63,1549375446.09375
77.76,1549375446.109375
77.85,1549375446.125
76.97,1549375446.140625
75.25,1549375446.15625
72.92,1549375446.171875
70.27,1549375446.1875
67.62,1549375446.203125
65.2,1549375446.21875
63.11,1549375446.234375
61.31,1549375446.25
59.59,1549375446.265625
57.63,1549375446.28125
55.09,1549375446.296875
51.69,1549375446.3125
47.33,1549375446.328125
42.04,1549375446.34375
36.12,1549375446.359375
29.92,1549375446.375
23.83,1549375446.390625
18.04,1549375446.40625
12.57,1549375446.421875
7.32,1549375446.4375
2.17,1549375446.453125
-2.98,1549375446.46875
-8.13,1549375446.484375
-13.32,1549375446.5
-18.65,1549375446.515625
-24.22,1549375446.53125
-30.07,1549375446.546875
-36.03,1549375446.5625
-41.77,1549375446.578125
-46.89,1549375446.59375
-51.17,1549375446.609375
-54.74,1549375446.625
-58.07,1549375446.640625
-61.84,1549375446.65625
-66.74,1549375446.671875
-73.26,1549375446.6875
-81.47,1549375446.703125
-90.75,1549375446.71875
-99.65,1549375446.734375
-105.93,1549375446.75
-107.1,1549375446.765625
-101.19,1549375446.78125
-87.62,1549375446.796875
-67.59,1549375446.8125
-43.9,1549375446.828125
-19.97,1549375446.84375
1.3,1549375446.859375
18.34,1549375446.875
31.05,1549375446.890625
40.34,1549375446.90625
47.36,1549375446.921875
53.02,1549375446.9375
57.75,1549375446.953125
61.72,1549375446.96875
64.98,1549375446.984375
67.58,1549375447.0
69.47,1549375447.015625
70.46,1549375447.03125
70.28,1549375447.046875
68.77,1549375447.0625
66.06,1549375447.078125
62.56,1549375447.09375
58.82,1549375447.109375
55.34,1549375447.125
52.35,1549375447.140625
49.83,1549375447.15625
47.58,1549375447.171875
45.38,1549375447.1875
43.04,1549375447.203125
40.44,1549375447.21875
37.35,1549375447.234375
33.56,1549375447.25
28.83,1549375447.265625
23.09,1549375447.28125
16.56,1549375447.296875
9.74,1549375447.3125
3.26,1549375447.328125
-2.3,1549375447.34375
-6.67,1549375447.359375
-9.97,1549375447.375
-12.67,1549375447.390625
-15.41,1549375447.40625
-18.77,1549375447.421875
-22.99,1549375447.4375
-28.01,1549375447.453125
-33.41,1549375447.46875
-38.67,1549375447.484375
-43.35,1549375447.5
-47.3,1549375447.515625
-50.7,1549375447.53125
-53.94,1549375447.546875
-57.58,1549375447.5625
-62.13,1549375447.578125
-67.99,1549375447.59375
-75.35,1549375447.609375
-83.95,1549375447.625
-92.82,1549375447.640625
-100.18,1549375447.65625
-103.72,1549375447.671875
-101.22,1549375447.6875
-91.49,1549375447.703125
-74.92,1549375447.71875
-53.63,1549375447.734375
-30.71,1549375447.75
-9.26,1549375447.765625
8.64,1549375447.78125
22.32,1549375447.796875
32.31,1549375447.8125
39.71,1549375447.828125
45.54,1549375447.84375
50.37,1549375447.859375
54.33,1549375447.875
57.37,1549375447.890625
59.45,1549375447.90625
60.67,1549375447.921875
61.24,1549375447.9375
61.36,1549375447.953125
61.22,1549375447.96875
60.86,1549375447.984375
60.28,1549375448.0
59.36,1549375448.015625
57.99,1549375448.03125
56.1,1549375448.046875
53.77,1549375448.0625
51.21,1549375448.078125
48.69,1549375448.09375
46.29,1549375448.109375
43.87,1549375448.125
40.97,1549375448.140625
37.11,1549375448.15625
32.02,1549375448.171875
25.86,1549375448.1875
19.23,1549375448.203125
12.98,1549375448.21875
7.73,1549375448.234375
3.64,1549375448.25
0.21,1549375448.265625
-3.38,1549375448.28125
-7.92,1549375448.296875
-13.73,1549375448.3125
-20.54,1549375448.328125
-27.63,1549375448.34375
-34.22,1549375448.359375
-39.81,1549375448.375
-44.36,1549375448.390625
-48.32,1549375448.40625
-52.34,1549375448.421875
-57.05,1549375448.4375
-62.85,1549375448.453125
-69.94,1549375448.46875
-78.14,1549375448.484375
-86.81,1549375448.5
-94.64,1549375448.515625
-99.76,1549375448.53125
-100.07,1549375448.546875
-93.99,1549375448.5625
-81.17,1549375448.578125
-62.83,1549375448.59375
-41.53,1549375448.609375
-20.32,1549375448.625
-1.7,1549375448.640625
13.08,1549375448.65625
24.11,1549375448.671875
32.42,1549375448.6875
39.15,1549375448.703125
45.03,1549375448.71875
50.22,1549375448.734375
54.51,1549375448.75
57.65,1549375448.765625
59.62,1549375448.78125
60.58,1549375448.796875
60.82,1549375448.8125
60.61,1549375448.828125
60.09,1549375448.84375
59.29,1549375448.859375
58.24,1549375448.875
56.99,1549375448.890625
55.63,1549375448.90625
54.25,1549375448.921875
52.95,1549375448.9375
51.7,1549375448.953125
50.39,1549375448.96875
48.72,1549375448.984375
46.35,1549375449.0
42.95,1549375449.015625
38.38,1549375449.03125
32.77,1549375449.046875
26.56,1549375449.0625
20.35,1549375449.078125
14.68,1549375449.09375
9.93,1549375449.109375
6.02,1549375449.125
2.52,1549375449.140625
-1.24,1549375449.15625
-5.85,1549375449.171875
-11.54,1549375449.1875
-18.12,1549375449.203125
-24.93,1549375449.21875
-31.21,1549375449.234375
-36.3,1549375449.25
-39.97,1549375449.265625
-42.45,1549375449.28125
-44.37,1549375449.296875
-46.63,1549375449.3125
-50.17,1549375449.328125
-55.84,1549375449.34375
-64.16,1549375449.359375
-75.01,1549375449.375
-87.23,1549375449.390625
-98.59,1549375449.40625
-106.21,1549375449.421875
-107.36,1549375449.4375
-100.51,1549375449.453125
-85.99,1549375449.46875
-66.03,1549375449.484375
-43.87,1549375449.5
-22.67,1549375449.515625
-4.54,1549375449.53125
9.86,1549375449.546875
21.02,1549375449.5625
29.87,1549375449.578125
37.22,1549375449.59375
43.44,1549375449.609375
48.61,1549375449.625
52.7,1549375449.640625
55.76,1549375449.65625
57.94,1549375449.671875
59.33,1549375449.6875
60.0,1549375449.703125
59.94,1549375449.71875
59.22,1549375449.734375
58.02,1549375449.75
56.57,1549375449.765625
55.14,1549375449.78125
53.86,1549375449.796875
52.73,1549375449.8125
51.61,1549375449.828125
50.31,1549375449.84375
48.67,1549375449.859375
46.56,1549375449.875
43.9,1549375449.890625
40.61,1549375449.90625
36.63,1549375449.921875
31.91,1549375449.9375
26.55,1549375449.953125
20.76,1549375449.96875
14.92,1549375449.984375
9.37,1549375450.0
4.39,1549375450.015625
0.05,1549375450.03125
-3.84,1549375450.046875
-7.66,1549375450.0625
-11.78,1549375450.078125
-16.44,1549375450.09375
-21.62,1549375450.109375
-27.06,1549375450.125
-32.38,1549375450.140625
-37.19,1549375450.15625
-41.27,1549375450.171875
-44.64,1549375450.1875
-47.54,1549375450.203125
-50.43,1549375450.21875
-53.79,1549375450.234375
-58.15,1549375450.25
-63.93,1549375450.265625
-71.23,1549375450.28125
-79.52,1549375450.296875
-87.41,1549375450.3125
-92.71,1549375450.328125
-93.03,1549375450.34375
-86.61,1549375450.359375
-73.2,1549375450.375
-54.31,1549375450.390625
-32.8,1549375450.40625
-11.87,1549375450.421875
6.07,1549375450.4375
19.98,1549375450.453125
30.19,1549375450.46875
37.75,1549375450.484375
43.71,1549375450.5
48.57,1549375450.515625
52.38,1549375450.53125
54.93,1549375450.546875
56.19,1549375450.5625
56.39,1549375450.578125
55.96,1549375450.59375
55.3,1549375450.609375
54.61,1549375450.625
53.85,1549375450.640625
52.8,1549375450.65625
51.24,1549375450.671875
49.12,1549375450.6875
46.65,1549375450.703125
44.28,1549375450.71875
42.48,1549375450.734375
41.53,1549375450.75
41.35,1549375450.765625
41.43,1549375450.78125
41.06,1549375450.796875
39.57,1549375450.8125
36.63,1549375450.828125
32.41,1549375450.84375
27.5,1549375450.859375
22.71,1549375450.875
18.74,1549375450.890625
15.95,1549375450.90625
14.22,1549375450.921875
12.99,1549375450.9375
11.44,1549375450.953125
8.88,1549375450.96875
5.03,1549375450.984375
0.2,1549375451.0
-4.8,1549375451.015625
-9.03,1549375451.03125
-11.86,1549375451.046875
-13.24,1549375451.0625
-13.75,1549375451.078125
-14.32,1549375451.09375
-15.8,1549375451.109375
-18.71,1549375451.125
-23.14,1549375451.140625
-28.7,1549375451.15625
-34.55,1549375451.171875
-39.42,1549375451.1875
-41.58,1549375451.203125
-39.13,1549375451.21875
-30.59,1549375451.234375
-15.46,1549375451.25
5.32,1549375451.265625
29.59,1549375451.28125
54.49,1549375451.296875
77.33,1549375451.3125
96.23,1549375451.328125
110.32,1549375451.34375
119.33,1549375451.359375
123.02,1549375451.375
120.76,1549375451.390625
111.68,1549375451.40625
95.23,1549375451.421875
71.98,1549375451.4375
44.11,1549375451.453125
15.21,1549375451.46875
-10.59,1549375451.484375
-29.69,1549375451.5
-40.03,1549375451.515625
-41.46,1549375451.53125
-35.45,1549375451.546875
-24.31,1549375451.5625
-10.34,1549375451.578125
4.76,1549375451.59375
20.02,1549375451.609375
34.85,1549375451.625
48.54,1549375451.640625
59.85,1549375451.65625
67.05,1549375451.671875
68.29,1549375451.6875
62.31,1549375451.703125
49.01,1549375451.71875
29.75,1549375451.734375
6.97,1549375451.75
-16.52,1549375451.765625
-38.34,1549375451.78125
-57.17,1549375451.796875
-72.77,1549375451.8125
-85.65,1549375451.828125
-96.5,1549375451.84375
-105.76,1549375451.859375
-113.44,1549375451.875
-119.29,1549375451.890625
-123.02,1549375451.90625
-124.61,1549375451.921875
-124.42,1549375451.9375
-123.15,1549375451.953125
-121.73,1549375451.96875
-121.02,1549375451.984375
-121.69,1549375452.0
-124.17,1549375452.015625
-128.64,1549375452.03125
-134.9,1549375452.046875
-142.05,1549375452.0625
-148.17,1549375452.078125
-150.48,1549375452.09375
-145.95,1549375452.109375
-132.51,1549375452.125
-110.07,1549375452.140625
-81.02,1549375452.15625
-49.57,1549375452.171875
-20.24,1549375452.1875
3.72,1549375452.203125
21.28,1549375452.21875
33.45,1549375452.234375
42.24,1549375452.25
49.46,1549375452.265625
55.86,1549375452.28125
61.23,1549375452.296875
65.0,1549375452.3125
66.93,1549375452.328125
67.36,1549375452.34375
67.11,1549375452.359375
66.9,1549375452.375
67.05,1549375452.390625
67.38,1549375452.40625
67.39,1549375452.421875
66.66,1549375452.4375
65.12,1549375452.453125
63.13,1549375452.46875
61.2,1549375452.484375
59.74,1549375452.5
58.75,1549375452.515625
57.77,1549375452.53125
56.02,1549375452.546875
52.76,1549375452.5625
47.66,1549375452.578125
40.9,1549375452.59375
33.17,1549375452.609375
25.32,1549375452.625
18.1,1549375452.640625
11.91,1549375452.65625
6.75,1549375452.671875
2.34,1549375452.6875
-1.73,1549375452.703125
-5.87,1549375452.71875
-10.42,1549375452.734375
-15.59,1549375452.75
