PPG GREEN,time
2160295.0,1549375375.853
2160474.0,1549375375.892
2160564.0,1549375375.932
2161489.0,1549375375.974
2162747.0,1549375376.012
2164303.0,1549375376.052
2166041.0,1549375376.093
2167935.0,1549375376.132
2169968.0,1549375376.173
2172042.0,1549375376.213
2174421.0,1549375376.252
2177142.0,1549375376.292
2179463.0,1549375376.333
2180518.0,1549375376.373
2177580.0,1549375376.413
2174360.0,1549375376.454
2172243.0,1549375376.493
2170198.0,1549375376.533
2168378.0,1549375376.575
2167247.0,1549375376.613
2167402.0,1549375376.653
2167829.0,1549375376.694
2167961.0,1549375376.733
2168228.0,1549375376.774
2169290.0,1549375376.814
2170458.0,1549375376.853
2172220.0,1549375376.894
2174045.0,1549375376.935
2175354.0,1549375376.974
2175473.0,1549375377.014
2176249.0,1549375377.055
2177299.0,1549375377.094
2179221.0,1549375377.134
2181876.0,1549375377.176
2183988.0,1549375377.214
2184206.0,1549375377.254
2183817.0,1549375377.295
2183074.0,1549375377.334
2182642.0,1549375377.375
2182745.0,1549375377.415
2183815.0,1549375377.455
2186676.0,1549375377.495
2188525.0,1549375377.536
2190230.0,1549375377.575
2192271.0,1549375377.615
2194165.0,1549375377.656
2195421.0,1549375377.695
2196728.0,1549375377.735
2198551.0,1549375377.777
2199140.0,1549375377.815
2199830.0,1549375377.855
2200631.0,1549375377.896
2201500.0,1549375377.935
2202428.0,1549375377.976
2203557.0,1549375378.017
2203294.0,1549375378.056
2198586.0,1549375378.096
2193252.0,1549375378.137
2189211.0,1549375378.177
2186124.0,1549375378.216
2181864.0,1549375378.257
2178881.0,1549375378.296
2178128.0,1549375378.336
2176968.0,1549375378.378
2175360.0,1549375378.416
2173751.0,1549375378.456
2172926.0,1549375378.498
2172133.0,1549375378.537
2172461.0,1549375378.577
2175064.0,1549375378.618
2177955.0,1549375378.657
2184469.0,1549375378.697
2190845.0,1549375378.738
2193706.0,1549375378.778
2195176.0,1549375378.817
2194267.0,1549375378.858
2189966.0,1549375378.897
2178661.0,1549375378.979
2183709.0,1549375378.937
2174866.0,1549375379.017
2171082.0,1549375379.057
2167334.0,1549375379.098
2164758.0,1549375379.137
2163066.0,1549375379.178
2160711.0,1549375379.219
2158835.0,1549375379.258
2157393.0,1549375379.298
2156402.0,1549375379.339
2155861.0,1549375379.379
2155432.0,1549375379.418
2155428.0,1549375379.459
2155656.0,1549375379.498
2156283.0,1549375379.538
2156106.0,1549375379.58
2156079.0,1549375379.619
2154335.0,1549375379.659
2149893.0,1549375379.7
2145547.0,1549375379.739
2142234.0,1549375379.78
2138775.0,1549375379.82
2135525.0,1549375379.86
2132979.0,1549375379.899
2131644.0,1549375379.94
2130537.0,1549375379.98
2129117.0,1549375380.019
2127674.0,1549375380.06
2126785.0,1549375380.099
2126228.0,1549375380.181
2126742.0,1549375380.22
2126808.0,1549375380.26
2126467.0,1549375380.139
2127125.0,1549375380.301
2127856.0,1549375380.381
2127803.0,1549375380.34
2127799.0,1549375380.421
2125902.0,1549375380.46
2121840.0,1549375380.5
2117994.0,1549375380.541
2114961.0,1549375380.581
2113011.0,1549375380.621
2111783.0,1549375380.662
2110978.0,1549375380.701
2111608.0,1549375380.741
2112543.0,1549375380.783
2113298.0,1549375380.821
2115003.0,1549375380.861
2117196.0,1549375380.903
2119447.0,1549375380.941
2121698.0,1549375380.982
2124540.0,1549375381.023
2127747.0,1549375381.062
2129225.0,1549375381.102
2130678.0,1549375381.143
2131176.0,1549375381.182
2129438.0,1549375381.222
2128243.0,1549375381.263
2125200.0,1549375381.302
2120975.0,1549375381.342
2118096.0,1549375381.384
2116107.0,1549375381.422
2113563.0,1549375381.462
2110642.0,1549375381.503
2109382.0,1549375381.542
2107784.0,1549375381.583
2106128.0,1549375381.624
2104826.0,1549375381.663
2104021.0,1549375381.703
2103693.0,1549375381.744
2104037.0,1549375381.784
2104923.0,1549375381.823
2106770.0,1549375381.864
2109577.0,1549375381.903
2112443.0,1549375381.943
2115694.0,1549375381.985
2119016.0,1549375382.024
2122183.0,1549375382.064
2124491.0,1549375382.105
2129162.0,1549375382.144
2137723.0,1549375382.185
2149023.0,1549375382.225
2161533.0,1549375382.264
2173170.0,1549375382.304
2185038.0,1549375382.345
2197175.0,1549375382.385
2211533.0,1549375382.425
2226393.0,1549375382.466
2239837.0,1549375382.505
2253899.0,1549375382.545
2266612.0,1549375382.587
2276227.0,1549375382.625
2279930.0,1549375382.665
2278450.0,1549375382.706
2275137.0,1549375382.745
2272665.0,1549375382.827
2271975.0,1549375382.786
2270972.0,1549375382.866
2267607.0,1549375382.906
2248435.0,1549375383.106
2251903.0,1549375383.067
2244929.0,1549375383.146
2255927.0,1549375383.026
2263595.0,1549375382.947
2259265.0,1549375382.987
2243093.0,1549375383.188
2237224.0,1549375383.388
2237768.0,1549375383.347
2239967.0,1549375383.267
2239126.0,1549375383.308
2235588.0,1549375383.467
2236761.0,1549375383.428
2234971.0,1549375383.507
2233687.0,1549375383.548
2232716.0,1549375383.588
2241502.0,1549375383.227
2230007.0,1549375383.628
2225535.0,1549375383.669
2222870.0,1549375383.708
2220431.0,1549375383.748
2218287.0,1549375383.79
2216238.0,1549375383.828
2216616.0,1549375383.868
2218932.0,1549375383.909
2220342.0,1549375383.948
2219919.0,1549375383.989
2219064.0,1549375384.03
2218998.0,1549375384.109
2218811.0,1549375384.069
2218902.0,1549375384.15
2218416.0,1549375384.19
2218339.0,1549375384.229
2219633.0,1549375384.27
2221407.0,1549375384.309
2223493.0,1549375384.349
2224458.0,1549375384.391
2244924.0,1549375384.47
2245175.0,1549375384.511
2236307.0,1549375384.429
2242056.0,1549375384.55
2237888.0,1549375384.59
2233651.0,1549375384.631
2230300.0,1549375384.67
2227014.0,1549375384.71
2224646.0,1549375384.751
2223102.0,1549375384.791
2222438.0,1549375384.83
2222202.0,1549375384.871
2221925.0,1549375384.91
2221654.0,1549375384.95
2221660.0,1549375384.992
2222442.0,1549375385.03
2223262.0,1549375385.071
2221952.0,1549375385.112
2218866.0,1549375385.151
2216427.0,1549375385.191
2214631.0,1549375385.232
2212538.0,1549375385.271
2208757.0,1549375385.431
2209709.0,1549375385.392
2208217.0,1549375385.472
2207751.0,1549375385.511
2211177.0,1549375385.311
2210233.0,1549375385.352
2207596.0,1549375385.551
2207735.0,1549375385.632
2208062.0,1549375385.672
2208589.0,1549375385.713
2207695.0,1549375385.593
2209190.0,1549375385.752
2209105.0,1549375385.792
2206311.0,1549375385.834
2202668.0,1549375385.872
2199507.0,1549375385.912
2197128.0,1549375385.953
2194654.0,1549375385.993
2193100.0,1549375386.032
2191990.0,1549375386.073
2191194.0,1549375386.112
2189200.0,1549375386.152
2187226.0,1549375386.194
2185317.0,1549375386.233
2184334.0,1549375386.273
2183130.0,1549375386.314
2181553.0,1549375386.353
2180146.0,1549375386.394
2178832.0,1549375386.434
2178328.0,1549375386.473
2176293.0,1549375386.513
2172193.0,1549375386.554
2168122.0,1549375386.594
2166326.0,1549375386.633
2164754.0,1549375386.674
2163337.0,1549375386.714
2163406.0,1549375386.754
2164103.0,1549375386.795
2164114.0,1549375386.834
2163182.0,1549375386.874
2161632.0,1549375386.915
2158681.0,1549375386.954
2155433.0,1549375386.995
2152808.0,1549375387.035
2152502.0,1549375387.074
2155637.0,1549375387.114
2158937.0,1549375387.155
2163672.0,1549375387.195
2168297.0,1549375387.234
2179157.0,1549375387.275
2187662.0,1549375387.314
2185657.0,1549375387.354
2179841.0,1549375387.396
2173058.0,1549375387.435
2168881.0,1549375387.475
2166847.0,1549375387.516
2164604.0,1549375387.555
2163014.0,1549375387.596
2161262.0,1549375387.636
2160429.0,1549375387.675
2160229.0,1549375387.715
2160368.0,1549375387.756
2161432.0,1549375387.796
2163206.0,1549375387.835
2166548.0,1549375387.876
2170797.0,1549375387.915
2173180.0,1549375387.956
2171810.0,1549375387.997
2168627.0,1549375388.036
2165895.0,1549375388.076
2162763.0,1549375388.117
2159405.0,1549375388.156
2157228.0,1549375388.197
2155653.0,1549375388.237
2153763.0,1549375388.276
2152085.0,1549375388.316
2150684.0,1549375388.357
2149567.0,1549375388.397
2149646.0,1549375388.436
2149436.0,1549375388.477
2149192.0,1549375388.517
2149391.0,1549375388.557
2150068.0,1549375388.637
2149992.0,1549375388.677
2149752.0,1549375388.598
2145826.0,1549375388.718
2140429.0,1549375388.757
2136014.0,1549375388.798
2130870.0,1549375388.839
2125348.0,1549375388.877
2119000.0,1549375388.917
2113853.0,1549375388.959
2109065.0,1549375388.998
2103317.0,1549375389.038
2099069.0,1549375389.079
2095379.0,1549375389.118
2092288.0,1549375389.158
2089357.0,1549375389.2
2087173.0,1549375389.238
2086198.0,1549375389.278
2085949.0,1549375389.319
2087084.0,1549375389.358
2089464.0,1549375389.399
2090263.0,1549375389.44
2087306.0,1549375389.479
2083398.0,1549375389.519
2079697.0,1549375389.56
2080716.0,1549375389.6
2091943.0,1549375389.639
2103605.0,1549375389.68
2108431.0,1549375389.719
2102800.0,1549375389.759
2100339.0,1549375389.801
2099044.0,1549375389.839
2097856.0,1549375389.879
2098757.0,1549375389.921
2101318.0,1549375389.96
2105610.0,1549375390.0
2111170.0,1549375390.041
2118686.0,1549375390.08
2126754.0,1549375390.12
2132711.0,1549375390.161
2137487.0,1549375390.201
2138516.0,1549375390.24
2138253.0,1549375390.281
2147012.0,1549375390.32
2151181.0,1549375390.36
2151074.0,1549375390.402
2148117.0,1549375390.441
2141876.0,1549375390.481
2135788.0,1549375390.522
2132198.0,1549375390.561
2128749.0,1549375390.602
2124321.0,1549375390.642
2119697.0,1549375390.681
2114169.0,1549375390.721
2110291.0,1549375390.762
2107649.0,1549375390.802
2104709.0,1549375390.841
2102616.0,1549375390.883
2101515.0,1549375390.922
2100216.0,1549375390.962
2097448.0,1549375391.004
2091079.0,1549375391.042
2084002.0,1549375391.082
2078158.0,1549375391.123
2072269.0,1549375391.162
2066522.0,1549375391.203
2062309.0,1549375391.243
2059450.0,1549375391.282
2057128.0,1549375391.322
2054740.0,1549375391.363
2052928.0,1549375391.403
2052029.0,1549375391.443
2051764.0,1549375391.484
2051351.0,1549375391.523
2051021.0,1549375391.563
2051568.0,1549375391.605
2051949.0,1549375391.643
2052917.0,1549375391.683
2054149.0,1549375391.724
2055061.0,1549375391.763
2053473.0,1549375391.804
2048483.0,1549375391.845
2043651.0,1549375391.884
2039727.0,1549375391.924
2036026.0,1549375391.965
2032695.0,1549375392.005
2030534.0,1549375392.044
2029081.0,1549375392.085
2027168.0,1549375392.124
2025796.0,1549375392.164
2025022.0,1549375392.206
2025330.0,1549375392.245
2026427.0,1549375392.285
2028941.0,1549375392.326
2031745.0,1549375392.365
2034045.0,1549375392.406
2036780.0,1549375392.446
2039850.0,1549375392.485
2044420.0,1549375392.525
2048989.0,1549375392.566
2050936.0,1549375392.606
2049627.0,1549375392.645
2049054.0,1549375392.687
2047912.0,1549375392.726
2046174.0,1549375392.766
2044057.0,1549375392.807
2042910.0,1549375392.846
2042813.0,1549375392.886
2042156.0,1549375392.927
2041355.0,1549375392.966
2041596.0,1549375393.007
2043981.0,1549375393.047
2046288.0,1549375393.086
2048305.0,1549375393.126
2049488.0,1549375393.168
2050231.0,1549375393.207
2050065.0,1549375393.247
2049575.0,1549375393.288
2049989.0,1549375393.327
2050143.0,1549375393.367
2050232.0,1549375393.409
2046224.0,1549375393.447
2039603.0,1549375393.487
2034100.0,1549375393.528
2028877.0,1549375393.567
2023914.0,1549375393.608
2019748.0,1549375393.649
2017439.0,1549375393.688
2016216.0,1549375393.728
2015372.0,1549375393.769
2015184.0,1549375393.809
2016101.0,1549375393.848
2017249.0,1549375393.889
2019330.0,1549375393.928
2022207.0,1549375393.969
2026439.0,1549375394.01
2030649.0,1549375394.049
2032051.0,1549375394.089
2034025.0,1549375394.13
2037779.0,1549375394.169
2049151.0,1549375394.21
2060677.0,1549375394.25
2062527.0,1549375394.289
2061137.0,1549375394.329
2057834.0,1549375394.37
2053540.0,1549375394.41
2050070.0,1549375394.45
2048323.0,1549375394.491
2048285.0,1549375394.53
2049474.0,1549375394.57
2050571.0,1549375394.612
2052423.0,1549375394.65
2054767.0,1549375394.69
2057158.0,1549375394.731
2059032.0,1549375394.77
2061040.0,1549375394.81
2062299.0,1549375394.851
2064434.0,1549375394.89
2072081.0,1549375395.011
2071681.0,1549375395.05
2067585.0,1549375395.091
2064426.0,1549375395.13
2069644.0,1549375394.971
2060813.0,1549375395.17
2066818.0,1549375394.93
2057204.0,1549375395.212
2054448.0,1549375395.25
2051854.0,1549375395.291
2051002.0,1549375395.332
2049722.0,1549375395.371
2048751.0,1549375395.412
2048117.0,1549375395.452
2047896.0,1549375395.491
2047860.0,1549375395.531
2048989.0,1549375395.572
2050949.0,1549375395.612
2052199.0,1549375395.651
2054280.0,1549375395.693
2058538.0,1549375395.772
2056473.0,1549375395.732
2060288.0,1549375395.814
2057742.0,1549375395.853
2054693.0,1549375395.892
2052309.0,1549375395.933
2049495.0,1549375395.972
2046797.0,1549375396.013
2045438.0,1549375396.053
2044361.0,1549375396.092
2042983.0,1549375396.132
2042062.0,1549375396.173
2041937.0,1549375396.213
2042575.0,1549375396.252
2043249.0,1549375396.293
2043656.0,1549375396.333
2044150.0,1549375396.373
2046163.0,1549375396.414
2049196.0,1549375396.453
2051411.0,1549375396.493
2053306.0,1549375396.573
2050559.0,1549375396.614
2048554.0,1549375396.654
2046568.0,1549375396.693
2053508.0,1549375396.534
2044377.0,1549375396.733
2041847.0,1549375396.774
2040450.0,1549375396.814
2039560.0,1549375396.854
2038481.0,1549375396.894
2038125.0,1549375396.934
2038189.0,1549375396.974
2038509.0,1549375397.015
2039351.0,1549375397.054
2040304.0,1549375397.094
2041938.0,1549375397.135
2043169.0,1549375397.174
2044416.0,1549375397.215
2046369.0,1549375397.255
2049082.0,1549375397.334
2042476.0,1549375397.415
2039378.0,1549375397.454
2046606.0,1549375397.375
2048038.0,1549375397.294
2036460.0,1549375397.496
2033700.0,1549375397.535
2031639.0,1549375397.575
2030690.0,1549375397.616
2030430.0,1549375397.655
2030304.0,1549375397.695
2030541.0,1549375397.736
2032613.0,1549375397.816
2031463.0,1549375397.775
2034043.0,1549375397.856
2035787.0,1549375397.895
2037668.0,1549375397.935
2039833.0,1549375397.976
2041976.0,1549375398.016
2044054.0,1549375398.055
2046512.0,1549375398.097
2048851.0,1549375398.136
2049209.0,1549375398.176
2045968.0,1549375398.217
2042359.0,1549375398.256
2039910.0,1549375398.296
2037504.0,1549375398.337
2035179.0,1549375398.376
2033501.0,1549375398.417
2032399.0,1549375398.457
2031645.0,1549375398.496
2030655.0,1549375398.536
2029604.0,1549375398.577
2029620.0,1549375398.617
2030317.0,1549375398.656
2031510.0,1549375398.697
2032624.0,1549375398.736
2034151.0,1549375398.777
2035876.0,1549375398.818
2037763.0,1549375398.857
2039667.0,1549375398.897
2040350.0,1549375398.938
2036635.0,1549375398.977
2031937.0,1549375399.018
2028572.0,1549375399.058
2024919.0,1549375399.097
2021767.0,1549375399.137
2018930.0,1549375399.179
2016283.0,1549375399.218
2013632.0,1549375399.258
2011261.0,1549375399.299
2010226.0,1549375399.338
2008790.0,1549375399.378
2009505.0,1549375399.42
2010278.0,1549375399.458
2012827.0,1549375399.498
2016405.0,1549375399.539
2020446.0,1549375399.578
2021922.0,1549375399.619
2023659.0,1549375399.66
2026779.0,1549375399.699
2029348.0,1549375399.739
2027555.0,1549375399.78
2027064.0,1549375399.82
2027822.0,1549375399.859
2026448.0,1549375399.9
2023882.0,1549375399.939
2022744.0,1549375399.979
2023090.0,1549375400.021
2023866.0,1549375400.059
2023599.0,1549375400.099
2023044.0,1549375400.141
2023685.0,1549375400.18
2023282.0,1549375400.22
2024047.0,1549375400.261
2024499.0,1549375400.3
2026926.0,1549375400.381
2028275.0,1549375400.421
2025805.0,1549375400.34
2030116.0,1549375400.46
2032018.0,1549375400.501
2031498.0,1549375400.54
2027390.0,1549375400.58
2023312.0,1549375400.622
2020559.0,1549375400.661
2017844.0,1549375400.701
2015461.0,1549375400.742
2014391.0,1549375400.781
2013961.0,1549375400.822
2013409.0,1549375400.901
2013729.0,1549375400.941
2013625.0,1549375400.863
2014894.0,1549375400.982
2016116.0,1549375401.022
2017375.0,1549375401.061
2019374.0,1549375401.182
2018402.0,1549375401.141
2017953.0,1549375401.102
2020926.0,1549375401.223
2022786.0,1549375401.262
2023148.0,1549375401.302
2013743.0,1549375401.382
2019304.0,1549375401.343
2009352.0,1549375401.423
2001616.0,1549375401.502
2005436.0,1549375401.463
1998240.0,1549375401.542
1996889.0,1549375401.583
1994746.0,1549375401.663
1995961.0,1549375401.623
1991838.0,1549375401.743
1993376.0,1549375401.704
1989708.0,1549375401.863
1990776.0,1549375401.783
1989432.0,1549375401.903
1990397.0,1549375401.825
1988881.0,1549375401.944
1988590.0,1549375401.983
1988506.0,1549375402.024
1987205.0,1549375402.064
1982263.0,1549375402.103
1974377.0,1549375402.185
1978047.0,1549375402.144
1970676.0,1549375402.224
1966732.0,1549375402.264
1965151.0,1549375402.305
1965705.0,1549375402.344
1965437.0,1549375402.426
1965695.0,1549375402.384
1966050.0,1549375402.464
1967768.0,1549375402.504
1970092.0,1549375402.545
1973005.0,1549375402.584
1976297.0,1549375402.625
1980391.0,1549375402.666
1985243.0,1549375402.705
1989950.0,1549375402.745
1993871.0,1549375402.786
1993813.0,1549375402.826
1991637.0,1549375402.865
1990339.0,1549375402.906
1989033.0,1549375402.945
1988163.0,1549375402.985
1987508.0,1549375403.027
1988321.0,1549375403.066
1988862.0,1549375403.106
1988870.0,1549375403.147
1989289.0,1549375403.186
1990185.0,1549375403.227
1992067.0,1549375403.267
1994307.0,1549375403.306
1996543.0,1549375403.346
1998865.0,1549375403.387
2001169.0,1549375403.427
2003792.0,1549375403.467
2005694.0,1549375403.508
2004895.0,1549375403.547
2000948.0,1549375403.587
1997411.0,1549375403.629
1995085.0,1549375403.667
1993061.0,1549375403.707
1991351.0,1549375403.748
1990905.0,1549375403.787
1991010.0,1549375403.828
1990876.0,1549375403.868
1990772.0,1549375403.908
1991458.0,1549375403.948
1993220.0,1549375403.989
1994927.0,1549375404.028
1997638.0,1549375404.068
2000454.0,1549375404.109
2002946.0,1549375404.148
2005919.0,1549375404.188
2009524.0,1549375404.23
2011618.0,1549375404.268
2010152.0,1549375404.308
2006837.0,1549375404.349
2004368.0,1549375404.388
2003304.0,1549375404.429
2001846.0,1549375404.47
2001271.0,1549375404.509
2001776.0,1549375404.549
2002262.0,1549375404.59
2002552.0,1549375404.63
2003187.0,1549375404.669
2004166.0,1549375404.71
2006065.0,1549375404.749
2008095.0,1549375404.789
2010164.0,1549375404.831
2012513.0,1549375404.87
2015066.0,1549375404.91
2017030.0,1549375404.951
2018018.0,1549375404.99
2014833.0,1549375405.031
2011634.0,1549375405.071
2009386.0,1549375405.11
2010493.0,1549375405.15
2010592.0,1549375405.191
2011609.0,1549375405.231
2014921.0,1549375405.271
2018852.0,1549375405.312
2021553.0,1549375405.351
2023553.0,1549375405.391
2027343.0,1549375405.433
2030424.0,1549375405.471
2032324.0,1549375405.511
2034018.0,1549375405.552
2035084.0,1549375405.591
2035783.0,1549375405.632
2036146.0,1549375405.673
2034992.0,1549375405.712
2029171.0,1549375405.752
2021831.0,1549375405.793
2014945.0,1549375405.833
2009043.0,1549375405.872
2003619.0,1549375405.913
1999034.0,1549375405.952
1996354.0,1549375405.992
1993988.0,1549375406.034
1992865.0,1549375406.073
1992311.0,1549375406.113
1992931.0,1549375406.154
1994643.0,1549375406.193
1996416.0,1549375406.234
1997775.0,1549375406.274
1999447.0,1549375406.313
2001284.0,1549375406.353
2002749.0,1549375406.394
2004510.0,1549375406.434
2006444.0,1549375406.474
2007978.0,1549375406.515
2005794.0,1549375406.554
2002662.0,1549375406.594
2000744.0,1549375406.636
1999209.0,1549375406.674
1998255.0,1549375406.714
1997649.0,1549375406.756
1998519.0,1549375406.795
1999478.0,1549375406.836
2001090.0,1549375406.878
2002941.0,1549375406.916
2004938.0,1549375406.956
2008033.0,1549375406.997
2011366.0,1549375407.037
2014626.0,1549375407.076
2017485.0,1549375407.117
2020640.0,1549375407.156
2023828.0,1549375407.196
2029995.0,1549375407.317
2026806.0,1549375407.358
2026631.0,1549375407.238
2023687.0,1549375407.397
2029631.0,1549375407.276
2017495.0,1549375407.478
2020362.0,1549375407.437
2015698.0,1549375407.517
2015028.0,1549375407.598
2015024.0,1549375407.638
2033026.0,1549375408.039
2027312.0,1549375408.118
2030857.0,1549375407.998
2019402.0,1549375407.797
2024553.0,1549375408.158
2028071.0,1549375407.959
2015187.0,1549375407.677
2017592.0,1549375407.757
2022756.0,1549375408.199
2020935.0,1549375408.239
2016329.0,1549375407.718
2025638.0,1549375407.918
2019768.0,1549375408.279
2021542.0,1549375407.839
2023530.0,1549375407.878
2014892.0,1549375407.557
2030725.0,1549375408.079
2019851.0,1549375408.399
2020294.0,1549375408.441
2021402.0,1549375408.479
2023308.0,1549375408.519
2019875.0,1549375408.359
2019621.0,1549375408.32
2027418.0,1549375408.599
2029736.0,1549375408.64
2032058.0,1549375408.68
2025440.0,1549375408.56
2035000.0,1549375408.719
2037805.0,1549375408.759
2039518.0,1549375408.801
2037877.0,1549375408.84
2034073.0,1549375408.88
2030199.0,1549375408.96
2028511.0,1549375409.0
2027519.0,1549375409.042
2027977.0,1549375409.08
2032101.0,1549375408.921
2028402.0,1549375409.12
2029113.0,1549375409.161
2032842.0,1549375409.282
2029546.0,1549375409.2
2035110.0,1549375409.321
2038107.0,1549375409.361
2030872.0,1549375409.241
2041198.0,1549375409.402
2043718.0,1549375409.442
2046203.0,1549375409.481
2048448.0,1549375409.522
2050674.0,1549375409.561
2051290.0,1549375409.601
2048477.0,1549375409.643
2045449.0,1549375409.681
2043408.0,1549375409.721
2041996.0,1549375409.763
2040293.0,1549375409.842
2040744.0,1549375409.883
2040818.0,1549375409.962
2041518.0,1549375410.003
2040813.0,1549375409.802
2040470.0,1549375409.922
2042604.0,1549375410.043
2043963.0,1549375410.082
2045808.0,1549375410.123
2047662.0,1549375410.162
2051126.0,1549375410.244
2049358.0,1549375410.202
2052916.0,1549375410.282
2055002.0,1549375410.323
2056254.0,1549375410.364
2054060.0,1549375410.403
2049905.0,1549375410.443
2046864.0,1549375410.484
2044653.0,1549375410.523
2042819.0,1549375410.563
2041389.0,1549375410.604
2041306.0,1549375410.644
2041547.0,1549375410.683
2041981.0,1549375410.724
2041949.0,1549375410.763
2042605.0,1549375410.804
2043131.0,1549375410.845
2043957.0,1549375410.884
2045049.0,1549375410.924
2046101.0,1549375410.965
2047379.0,1549375411.004
2048639.0,1549375411.045
2050090.0,1549375411.085
2051565.0,1549375411.124
2051099.0,1549375411.164
2047314.0,1549375411.206
2043610.0,1549375411.245
2040972.0,1549375411.285
2038501.0,1549375411.326
2036023.0,1549375411.365
2034969.0,1549375411.405
2034320.0,1549375411.447
2032977.0,1549375411.485
2031936.0,1549375411.525
2031884.0,1549375411.566
2032078.0,1549375411.605
2032533.0,1549375411.646
2033325.0,1549375411.687
2033944.0,1549375411.726
2034412.0,1549375411.766
2036918.0,1549375411.807
2052412.0,1549375411.847
2065808.0,1549375411.886
2069047.0,1549375411.927
2069555.0,1549375411.966
2066072.0,1549375412.006
2060342.0,1549375412.048
2056624.0,1549375412.087
2052244.0,1549375412.127
2048404.0,1549375412.168
2044745.0,1549375412.207
2043240.0,1549375412.248
2041452.0,1549375412.288
2039863.0,1549375412.327
2038554.0,1549375412.367
2038012.0,1549375412.408
2038005.0,1549375412.448
2038094.0,1549375412.487
2038858.0,1549375412.529
2039803.0,1549375412.568
2040710.0,1549375412.608
2041967.0,1549375412.65
2042865.0,1549375412.688
2044849.0,1549375412.728
2046916.0,1549375412.769
2046299.0,1549375412.808
2042305.0,1549375412.849
2038031.0,1549375412.89
2035115.0,1549375412.929
2032509.0,1549375412.969
2029540.0,1549375413.01
2028101.0,1549375413.05
2026976.0,1549375413.089
2025551.0,1549375413.13
2024248.0,1549375413.169
2023598.0,1549375413.209
2023155.0,1549375413.251
2023401.0,1549375413.289
2024268.0,1549375413.33
2024788.0,1549375413.371
2026113.0,1549375413.41
2026857.0,1549375413.451
2027797.0,1549375413.491
2029371.0,1549375413.53
2030524.0,1549375413.57
2028175.0,1549375413.611
2022926.0,1549375413.651
2018560.0,1549375413.69
2016087.0,1549375413.732
2015158.0,1549375413.771
2014425.0,1549375413.811
2014954.0,1549375413.853
2015765.0,1549375413.891
2016121.0,1549375413.931
2016194.0,1549375413.972
2015428.0,1549375414.011
2015608.0,1549375414.052
2015927.0,1549375414.093
2015770.0,1549375414.132
2016435.0,1549375414.172
2017619.0,1549375414.213
2018706.0,1549375414.253
2019764.0,1549375414.292
2020865.0,1549375414.333
2020882.0,1549375414.372
2016444.0,1549375414.412
2012362.0,1549375414.454
2009602.0,1549375414.492
2007132.0,1549375414.533
2004458.0,1549375414.574
2002814.0,1549375414.613
2002311.0,1549375414.653
2000509.0,1549375414.694
1997048.0,1549375414.733
1995203.0,1549375414.773
1992908.0,1549375414.814
1990187.0,1549375414.854
1988641.0,1549375414.893
1988169.0,1549375414.935
1988217.0,1549375414.974
1991504.0,1549375415.014
1997177.0,1549375415.056
2004089.0,1549375415.094
2008932.0,1549375415.134
2013971.0,1549375415.175
2015755.0,1549375415.214
2013415.0,1549375415.255
2010648.0,1549375415.296
2007645.0,1549375415.335
2002952.0,1549375415.375
2000251.0,1549375415.416
1998182.0,1549375415.456
1996122.0,1549375415.495
1993668.0,1549375415.536
1991246.0,1549375415.575
1990210.0,1549375415.615
1990026.0,1549375415.657
1990121.0,1549375415.695
1991148.0,1549375415.736
1992410.0,1549375415.777
1993667.0,1549375415.816
1995155.0,1549375415.857
1996648.0,1549375415.898
1998463.0,1549375415.936
1998293.0,1549375415.976
1994108.0,1549375416.017
1990130.0,1549375416.057
1987029.0,1549375416.097
1983931.0,1549375416.138
1981365.0,1549375416.177
1980049.0,1549375416.217
1980041.0,1549375416.259
1979663.0,1549375416.297
1979347.0,1549375416.337
1979599.0,1549375416.378
1980006.0,1549375416.417
1981160.0,1549375416.458
1982830.0,1549375416.499
1984914.0,1549375416.538
1986700.0,1549375416.578
1988568.0,1549375416.619
1990132.0,1549375416.659
1991769.0,1549375416.698
1987812.0,1549375416.739
1982453.0,1549375416.778
1977974.0,1549375416.818
1974034.0,1549375416.86
1970023.0,1549375416.898
1966716.0,1549375416.939
1965253.0,1549375416.98
1964611.0,1549375417.019
1963649.0,1549375417.059
1962458.0,1549375417.1
1962078.0,1549375417.139
1961962.0,1549375417.179
1961910.0,1549375417.22
1962477.0,1549375417.26
1962899.0,1549375417.299
1963497.0,1549375417.34
1964226.0,1549375417.379
1965117.0,1549375417.419
1966381.0,1549375417.461
1964613.0,1549375417.499
1960215.0,1549375417.54
1957816.0,1549375417.581
1955545.0,1549375417.62
1953473.0,1549375417.66
1950134.0,1549375417.701
1947717.0,1549375417.74
1946914.0,1549375417.78
1945900.0,1549375417.821
1945368.0,1549375417.861
1945892.0,1549375417.9
1948586.0,1549375417.941
1952702.0,1549375417.98
1959138.0,1549375418.02
1965728.0,1549375418.062
1971524.0,1549375418.101
1977165.0,1549375418.141
1981833.0,1549375418.182
1986748.0,1549375418.221
1991660.0,1549375418.262
1995160.0,1549375418.302
1994178.0,1549375418.341
1992650.0,1549375418.381
1992711.0,1549375418.422
1992587.0,1549375418.462
1991214.0,1549375418.501
1990720.0,1549375418.542
1991309.0,1549375418.581
1992239.0,1549375418.622
1993394.0,1549375418.663
1996581.0,1549375418.702
2000169.0,1549375418.742
2004866.0,1549375418.783
2008427.0,1549375418.822
2010754.0,1549375418.863
2012432.0,1549375418.903
2014398.0,1549375418.942
2016412.0,1549375418.982
2018661.0,1549375419.023
2021317.0,1549375419.063
2023630.0,1549375419.102
2023664.0,1549375419.144
2018762.0,1549375419.183
2014095.0,1549375419.223
2010139.0,1549375419.265
2006560.0,1549375419.303
2003304.0,1549375419.343
2001514.0,1549375419.384
2000879.0,1549375419.423
2000685.0,1549375419.464
1999753.0,1549375419.504
1999991.0,1549375419.544
2002627.0,1549375419.625
2001164.0,1549375419.584
2004133.0,1549375419.664
2006501.0,1549375419.704
2008981.0,1549375419.745
2011147.0,1549375419.784
2013451.0,1549375419.824
2016371.0,1549375419.866
2018983.0,1549375419.905
2021911.0,1549375419.944
2023162.0,1549375419.986
2020093.0,1549375420.025
2016238.0,1549375420.065
2013712.0,1549375420.106
2011776.0,1549375420.145
2010052.0,1549375420.185
2009139.0,1549375420.226
2009553.0,1549375420.346
2009501.0,1549375420.305
2010950.0,1549375420.426
2012577.0,1549375420.467
2014438.0,1549375420.506
2010010.0,1549375420.385
2009333.0,1549375420.266
2018968.0,1549375420.587
2016481.0,1549375420.546
2026807.0,1549375420.707
2029540.0,1549375420.746
2032121.0,1549375420.786
2031389.0,1549375420.827
2023985.0,1549375420.667
2027124.0,1549375420.867
2023400.0,1549375420.907
2020373.0,1549375420.948
2017884.0,1549375420.987
2015589.0,1549375421.027
2014481.0,1549375421.069
2014156.0,1549375421.107
2013777.0,1549375421.147
2013196.0,1549375421.188
2013023.0,1549375421.227
2014005.0,1549375421.268
2015301.0,1549375421.309
2016924.0,1549375421.348
2018846.0,1549375421.388
2020727.0,1549375421.429
2022904.0,1549375421.469
2027392.0,1549375421.549
2030183.0,1549375421.588
2024982.0,1549375421.508
2033035.0,1549375421.628
2033093.0,1549375421.67
2028846.0,1549375421.708
2021396.0,1549375420.626
2024731.0,1549375421.748
2021895.0,1549375421.79
2019248.0,1549375421.829
2016238.0,1549375421.869
2014780.0,1549375421.91
2014269.0,1549375421.949
2013053.0,1549375421.989
2012009.0,1549375422.03
2011901.0,1549375422.07
2012213.0,1549375422.109
2013762.0,1549375422.15
2016247.0,1549375422.189
2019840.0,1549375422.229
2024896.0,1549375422.309
2027109.0,1549375422.35
2022535.0,1549375422.271
2033448.0,1549375422.47
2030640.0,1549375422.511
2025827.0,1549375422.55
2021978.0,1549375422.59
2019881.0,1549375422.631
2031513.0,1549375422.43
2029473.0,1549375422.391
2017553.0,1549375422.671
2015628.0,1549375422.71
2015508.0,1549375422.751
2015111.0,1549375422.791
2014320.0,1549375422.831
2014273.0,1549375422.872
2014702.0,1549375422.911
2015994.0,1549375422.951
2017034.0,1549375422.992
2018549.0,1549375423.031
2020201.0,1549375423.072
2021730.0,1549375423.112
2023651.0,1549375423.151
2026395.0,1549375423.192
2028297.0,1549375423.233
2030238.0,1549375423.272
2028462.0,1549375423.312
2023043.0,1549375423.353
2018160.0,1549375423.392
2014399.0,1549375423.432
2010355.0,1549375423.474
2007053.0,1549375423.512
2004612.0,1549375423.553
2004289.0,1549375423.594
2005337.0,1549375423.633
2008335.0,1549375423.674
2011385.0,1549375423.714
2014988.0,1549375423.753
2018589.0,1549375423.793
2022444.0,1549375423.834
2024507.0,1549375423.874
2025000.0,1549375423.913
2025899.0,1549375423.955
2027352.0,1549375423.994
2030186.0,1549375424.034
2033110.0,1549375424.075
2035594.0,1549375424.114
2034602.0,1549375424.154
2030576.0,1549375424.195
2026988.0,1549375424.234
2023911.0,1549375424.275
2020668.0,1549375424.315
2017919.0,1549375424.354
2016788.0,1549375424.394
2016262.0,1549375424.435
2015643.0,1549375424.475
2015277.0,1549375424.515
2015494.0,1549375424.556
2016272.0,1549375424.595
2017151.0,1549375424.635
2019006.0,1549375424.677
2020695.0,1549375424.715
2022286.0,1549375424.755
2024036.0,1549375424.796
2026124.0,1549375424.835
2028445.0,1549375424.876
2030737.0,1549375424.917
2031671.0,1549375424.956
2028475.0,1549375424.996
2024243.0,1549375425.037
2021384.0,1549375425.077
2019181.0,1549375425.116
2017039.0,1549375425.157
2016274.0,1549375425.196
2016058.0,1549375425.236
2015657.0,1549375425.278
2015393.0,1549375425.317
2015582.0,1549375425.357
2016430.0,1549375425.398
2017551.0,1549375425.437
2019530.0,1549375425.478
2021794.0,1549375425.518
2023846.0,1549375425.557
2026020.0,1549375425.597
2027932.0,1549375425.638
2030066.0,1549375425.678
2032351.0,1549375425.718
2030894.0,1549375425.759
2026286.0,1549375425.798
2022086.0,1549375425.838
2019340.0,1549375425.88
2016865.0,1549375425.918
2013829.0,1549375425.958
2012874.0,1549375426.0
2012091.0,1549375426.039
2010094.0,1549375426.079
2008308.0,1549375426.12
2006013.0,1549375426.159
2004799.0,1549375426.199
2004122.0,1549375426.24
2003524.0,1549375426.28
2004278.0,1549375426.319
2005323.0,1549375426.361
2007056.0,1549375426.4
2009106.0,1549375426.44
2010122.0,1549375426.482
2008667.0,1549375426.52
2007230.0,1549375426.56
2004927.0,1549375426.601
2002229.0,1549375426.64
1999289.0,1549375426.681
1998258.0,1549375426.722
1998644.0,1549375426.761
1998304.0,1549375426.801
1998113.0,1549375426.842
1998742.0,1549375426.882
1999688.0,1549375426.921
2000910.0,1549375426.962
2002759.0,1549375427.001
2005095.0,1549375427.041
2007000.0,1549375427.083
2009298.0,1549375427.121
2012287.0,1549375427.161
2015064.0,1549375427.202
2017450.0,1549375427.241
2014797.0,1549375427.282
2010289.0,1549375427.323
2006463.0,1549375427.362
2002913.0,1549375427.402
1999728.0,1549375427.443
1996567.0,1549375427.482
1995625.0,1549375427.522
1995260.0,1549375427.563
1994777.0,1549375427.602
1994639.0,1549375427.642
1995410.0,1549375427.684
1996200.0,1549375427.722
1997515.0,1549375427.762
1999279.0,1549375427.803
2001089.0,1549375427.842
2003075.0,1549375427.883
2005520.0,1549375427.924
2007827.0,1549375427.963
2010537.0,1549375428.003
2012785.0,1549375428.044
2012077.0,1549375428.084
2007386.0,1549375428.123
2002796.0,1549375428.164
1998988.0,1549375428.203
1995232.0,1549375428.243
1991645.0,1549375428.285
1989272.0,1549375428.323
1988877.0,1549375428.363
1988450.0,1549375428.405
1987866.0,1549375428.444
1987950.0,1549375428.484
1988658.0,1549375428.525
1989991.0,1549375428.564
1991408.0,1549375428.604
1993495.0,1549375428.645
1995643.0,1549375428.685
1997673.0,1549375428.724
1999583.0,1549375428.765
2002094.0,1549375428.804
2004759.0,1549375428.844
2007631.0,1549375428.886
2009462.0,1549375428.925
2007349.0,1549375428.965
2002592.0,1549375429.006
1998758.0,1549375429.045
1995268.0,1549375429.086
1992110.0,1549375429.126
1989477.0,1549375429.165
1988394.0,1549375429.205
1988041.0,1549375429.246
1987616.0,1549375429.286
1987277.0,1549375429.326
1987659.0,1549375429.367
1988487.0,1549375429.406
1990047.0,1549375429.446
1991846.0,1549375429.487
1993565.0,1549375429.526
1995623.0,1549375429.566
1997646.0,1549375429.607
1999414.0,1549375429.646
2002037.0,1549375429.687
2004628.0,1549375429.727
2007148.0,1549375429.766
2008999.0,1549375429.806
2005958.0,1549375429.848
2001433.0,1549375429.887
1998271.0,1549375429.927
1995886.0,1549375429.968
1993345.0,1549375430.007
1991562.0,1549375430.047
1991677.0,1549375430.089
1991541.0,1549375430.127
1991247.0,1549375430.167
1991289.0,1549375430.208
1992129.0,1549375430.248
1993693.0,1549375430.288
1995719.0,1549375430.329
1997423.0,1549375430.368
1999663.0,1549375430.408
2001709.0,1549375430.449
2003980.0,1549375430.489
2006071.0,1549375430.528
2008741.0,1549375430.57
2011523.0,1549375430.609
2013568.0,1549375430.649
2011090.0,1549375430.69
2006331.0,1549375430.729
2002348.0,1549375430.769
1999406.0,1549375430.81
1996346.0,1549375430.849
1993274.0,1549375430.89
1992522.0,1549375430.93
1992179.0,1549375430.969
1991358.0,1549375431.009
1991197.0,1549375431.05
1991711.0,1549375431.09
1992766.0,1549375431.13
1995513.0,1549375431.21
1997663.0,1549375431.25
1999415.0,1549375431.292
2001342.0,1549375431.33
2003326.0,1549375431.37
1994045.0,1549375431.171
2005699.0,1549375431.412
2008202.0,1549375431.451
2010874.0,1549375431.491
2013234.0,1549375431.532
2011106.0,1549375431.571
2005969.0,1549375431.611
2001987.0,1549375431.652
1999013.0,1549375431.692
1996071.0,1549375431.731
1993454.0,1549375431.772
1992538.0,1549375431.812
1991595.0,1549375431.893
1991399.0,1549375431.932
1991447.0,1549375431.972
1992296.0,1549375431.852
1992361.0,1549375432.013
1993494.0,1549375432.052
1994804.0,1549375432.093
2005215.0,1549375432.293
2000415.0,1549375432.213
2009974.0,1549375432.374
2011438.0,1549375432.413
1998314.0,1549375432.172
2008371.0,1549375432.453
2007781.0,1549375432.333
2002654.0,1549375432.254
1996345.0,1549375432.133
2004058.0,1549375432.495
2001400.0,1549375432.534
1999673.0,1549375432.574
1997644.0,1549375432.654
1998617.0,1549375432.695
1998867.0,1549375432.735
1998568.0,1549375432.774
1997915.0,1549375432.615
1998085.0,1549375432.814
2002888.0,1549375432.935
2000926.0,1549375432.895
1999198.0,1549375432.856
2005056.0,1549375432.976
2006931.0,1549375433.015
2008850.0,1549375433.055
2010516.0,1549375433.097
2012757.0,1549375433.135
2014494.0,1549375433.175
2016978.0,1549375433.217
2020142.0,1549375433.297
2016532.0,1549375433.337
2010854.0,1549375433.376
2006649.0,1549375433.416
2003202.0,1549375433.457
1999890.0,1549375433.497
2019321.0,1549375433.256
1996970.0,1549375433.537
1994499.0,1549375433.617
1992717.0,1549375433.699
1993460.0,1549375433.657
1995390.0,1549375433.578
1992891.0,1549375433.737
1993442.0,1549375433.777
1994045.0,1549375433.818
1995296.0,1549375433.857
1996666.0,1549375433.898
2000373.0,1549375433.978
1998369.0,1549375433.939
2003121.0,1549375434.018
2008961.0,1549375434.099
2012161.0,1549375434.138
2013270.0,1549375434.179
2006019.0,1549375434.059
2009197.0,1549375434.218
2004744.0,1549375434.259
2002030.0,1549375434.3
1999653.0,1549375434.339
1996803.0,1549375434.379
1995331.0,1549375434.42
1994862.0,1549375434.459
1994291.0,1549375434.5
1993580.0,1549375434.54
1994061.0,1549375434.58
1995158.0,1549375434.62
1996360.0,1549375434.661
1998110.0,1549375434.701
2000549.0,1549375434.74
2003420.0,1549375434.781
2006218.0,1549375434.82
2009045.0,1549375434.86
2012304.0,1549375434.902
2015507.0,1549375434.94
2019016.0,1549375434.981
2022231.0,1549375435.022
2021818.0,1549375435.061
2017146.0,1549375435.102
2012773.0,1549375435.142
2009333.0,1549375435.181
2007298.0,1549375435.221
2006971.0,1549375435.262
2008349.0,1549375435.302
2009253.0,1549375435.342
2009973.0,1549375435.383
2010428.0,1549375435.422
2010527.0,1549375435.462
2010816.0,1549375435.504
2010481.0,1549375435.542
2010612.0,1549375435.582
2011362.0,1549375435.623
2012217.0,1549375435.662
2014316.0,1549375435.703
2016776.0,1549375435.744
2020211.0,1549375435.783
2023348.0,1549375435.823
2025604.0,1549375435.864
2023099.0,1549375435.903
2018214.0,1549375435.943
2013800.0,1549375435.984
2010517.0,1549375436.023
2007688.0,1549375436.063
2004371.0,1549375436.105
2003067.0,1549375436.143
2002544.0,1549375436.183
2001135.0,1549375436.225
2000679.0,1549375436.304
2000712.0,1549375436.264
2001457.0,1549375436.345
2002663.0,1549375436.384
2004359.0,1549375436.424
2006392.0,1549375436.465
2008397.0,1549375436.505
2010392.0,1549375436.544
2012569.0,1549375436.585
2015056.0,1549375436.624
2017844.0,1549375436.664
2020631.0,1549375436.706
2023209.0,1549375436.745
2022238.0,1549375436.785
2018032.0,1549375436.826
2014367.0,1549375436.865
2011686.0,1549375436.906
2008727.0,1549375436.946
2006261.0,1549375436.985
2005682.0,1549375437.025
2005787.0,1549375437.066
2005127.0,1549375437.106
2004831.0,1549375437.145
2005087.0,1549375437.187
2006122.0,1549375437.226
2007342.0,1549375437.266
2009022.0,1549375437.307
2010715.0,1549375437.346
2012631.0,1549375437.386
2014204.0,1549375437.427
2016233.0,1549375437.466
2018281.0,1549375437.507
2020629.0,1549375437.547
2022426.0,1549375437.586
2022925.0,1549375437.626
2019103.0,1549375437.668
2014071.0,1549375437.707
2010474.0,1549375437.747
2008050.0,1549375437.788
2005330.0,1549375437.827
2004141.0,1549375437.867
2004316.0,1549375437.909
2004389.0,1549375437.947
2004157.0,1549375437.987
2005647.0,1549375438.028
2007829.0,1549375438.067
2009811.0,1549375438.108
2012044.0,1549375438.149
2013375.0,1549375438.188
2014961.0,1549375438.228
2016457.0,1549375438.269
2017696.0,1549375438.309
2018724.0,1549375438.348
2019861.0,1549375438.389
2020774.0,1549375438.428
2019334.0,1549375438.468
2015384.0,1549375438.51
2011776.0,1549375438.549
2008584.0,1549375438.589
2004316.0,1549375438.63
2000713.0,1549375438.669
1999185.0,1549375438.71
1998513.0,1549375438.75
1998506.0,1549375438.789
1999061.0,1549375438.829
2000474.0,1549375438.87
2001402.0,1549375438.91
2002959.0,1549375438.949
2005582.0,1549375438.99
2007507.0,1549375439.029
2008614.0,1549375439.07
2010470.0,1549375439.112
2011960.0,1549375439.15
2014305.0,1549375439.19
2016574.0,1549375439.231
2017888.0,1549375439.27
2015245.0,1549375439.311
2010154.0,1549375439.351
2006146.0,1549375439.39
2002844.0,1549375439.43
1999689.0,1549375439.471
1996946.0,1549375439.511
1995103.0,1549375439.55
1993506.0,1549375439.592
1992023.0,1549375439.631
1990740.0,1549375439.671
1990398.0,1549375439.712
1989933.0,1549375439.751
1990223.0,1549375439.791
1990461.0,1549375439.832
1991787.0,1549375439.871
1993759.0,1549375439.912
1998259.0,1549375439.952
2003226.0,1549375439.991
2006903.0,1549375440.031
2010172.0,1549375440.072
2012743.0,1549375440.112
2011071.0,1549375440.152
2005470.0,1549375440.193
2000710.0,1549375440.232
1996720.0,1549375440.272
1992700.0,1549375440.314
1988924.0,1549375440.352
1986759.0,1549375440.392
1986076.0,1549375440.433
1984886.0,1549375440.472
1984198.0,1549375440.513
1983957.0,1549375440.553
1983726.0,1549375440.592
1984145.0,1549375440.633
1985673.0,1549375440.674
1987829.0,1549375440.713
1990408.0,1549375440.753
1992877.0,1549375440.794
1994780.0,1549375440.833
1996659.0,1549375440.873
1999362.0,1549375440.915
2002224.0,1549375440.953
2005104.0,1549375440.993
2004154.0,1549375441.034
1999259.0,1549375441.073
1994747.0,1549375441.114
1991508.0,1549375441.155
1987730.0,1549375441.194
1984436.0,1549375441.234
1982496.0,1549375441.275
1982031.0,1549375441.315
1981508.0,1549375441.354
1981026.0,1549375441.395
1981241.0,1549375441.434
1982286.0,1549375441.474
1983771.0,1549375441.516
1985365.0,1549375441.555
1987300.0,1549375441.595
1989101.0,1549375441.636
1991215.0,1549375441.675
1993345.0,1549375441.716
1996084.0,1549375441.756
1998894.0,1549375441.795
2001439.0,1549375441.835
2004455.0,1549375441.876
2005222.0,1549375441.916
2001120.0,1549375441.956
1996930.0,1549375441.997
1994195.0,1549375442.036
1991950.0,1549375442.076
1989841.0,1549375442.117
1988569.0,1549375442.156
1989280.0,1549375442.196
1989566.0,1549375442.237
1989699.0,1549375442.276
1990224.0,1549375442.317
1991582.0,1549375442.357
1993697.0,1549375442.396
1995803.0,1549375442.436
1998431.0,1549375442.478
2001307.0,1549375442.517
2004276.0,1549375442.557
2007341.0,1549375442.598
2010474.0,1549375442.637
2013800.0,1549375442.677
2017272.0,1549375442.719
2018513.0,1549375442.757
2016083.0,1549375442.797
2012604.0,1549375442.838
2010623.0,1549375442.878
2009010.0,1549375442.918
2007655.0,1549375442.959
2007088.0,1549375442.998
2007843.0,1549375443.038
2008233.0,1549375443.079
2008041.0,1549375443.119
2008551.0,1549375443.158
2009984.0,1549375443.199
2012077.0,1549375443.238
2014447.0,1549375443.279
2016917.0,1549375443.32
2019437.0,1549375443.359
2021656.0,1549375443.399
2024310.0,1549375443.44
2026355.0,1549375443.479
2027683.0,1549375443.52
2025483.0,1549375443.56
2021350.0,1549375443.6
2018209.0,1549375443.64
2016214.0,1549375443.681
2013914.0,1549375443.721
2012636.0,1549375443.76
2012569.0,1549375443.801
2011961.0,1549375443.84
2011853.0,1549375443.88
2011984.0,1549375443.961
2013308.0,1549375444.001
2014650.0,1549375444.042
2016673.0,1549375444.081
2018709.0,1549375444.122
2023023.0,1549375444.201
2020700.0,1549375444.162
2025503.0,1549375444.241
2028075.0,1549375444.283
2029649.0,1549375444.322
2027460.0,1549375444.362
2022871.0,1549375444.403
2019543.0,1549375444.442
2017018.0,1549375444.482
2014743.0,1549375444.524
2012907.0,1549375444.562
2012607.0,1549375444.603
2012364.0,1549375444.644
2012205.0,1549375444.724
2013034.0,1549375444.764
2012184.0,1549375444.683
2011383.0,1549375443.922
2014091.0,1549375444.803
2015663.0,1549375444.843
2017615.0,1549375444.884
2019571.0,1549375444.924
2027964.0,1549375445.084
2030815.0,1549375445.126
2032739.0,1549375445.164
2030549.0,1549375445.204
2025555.0,1549375445.246
2021607.0,1549375445.285
2019096.0,1549375445.325
2016280.0,1549375445.366
2012225.0,1549375445.405
2009374.0,1549375445.445
2021160.0,1549375444.964
2023317.0,1549375445.005
2007503.0,1549375445.486
2005302.0,1549375445.565
2025672.0,1549375445.044
2005963.0,1549375445.526
2006296.0,1549375445.606
2014603.0,1549375445.685
2010415.0,1549375445.645
2019815.0,1549375445.766
2017159.0,1549375445.727
2023200.0,1549375445.806
2026465.0,1549375445.847
2029701.0,1549375445.886
2032072.0,1549375445.927
2034026.0,1549375445.967
2037558.0,1549375446.046
2035467.0,1549375446.006
2039832.0,1549375446.127
2040058.0,1549375446.087
2031088.0,1549375446.208
2035638.0,1549375446.167
2027758.0,1549375446.247
2024335.0,1549375446.287
2017847.0,1549375446.407
2020884.0,1549375446.329
2018787.0,1549375446.367
2016326.0,1549375446.487
2017038.0,1549375446.448
2016562.0,1549375446.528
2016875.0,1549375446.568
2017934.0,1549375446.608
2019642.0,1549375446.648
2020719.0,1549375446.689
2022599.0,1549375446.728
2024736.0,1549375446.768
2026489.0,1549375446.809
2028351.0,1549375446.848
2030711.0,1549375446.888
2033306.0,1549375446.93
2035917.0,1549375446.968
2038230.0,1549375447.008
2035968.0,1549375447.049
2027067.0,1549375447.129
2024224.0,1549375447.17
2021442.0,1549375447.209
2031173.0,1549375447.088
2018815.0,1549375447.249
2017833.0,1549375447.29
2017218.0,1549375447.33
2016191.0,1549375447.369
2015885.0,1549375447.449
2015664.0,1549375447.41
2016804.0,1549375447.489
2017875.0,1549375447.531
2019503.0,1549375447.569
2020784.0,1549375447.609
2022721.0,1549375447.65
2024302.0,1549375447.689
2026366.0,1549375447.73
2027907.0,1549375447.771
2030380.0,1549375447.81
2032740.0,1549375447.85
2033720.0,1549375447.891
2030199.0,1549375447.931
2024474.0,1549375447.97
2020781.0,1549375448.011
2017341.0,1549375448.05
2013892.0,1549375448.09
2011192.0,1549375448.132
2010922.0,1549375448.171
2009745.0,1549375448.211
2008234.0,1549375448.252
2007527.0,1549375448.291
2007565.0,1549375448.332
2009668.0,1549375448.372
2014266.0,1549375448.411
2019124.0,1549375448.451
2022568.0,1549375448.492
2024823.0,1549375448.532
2026845.0,1549375448.572
2030587.0,1549375448.613
2037234.0,1549375448.652
2042641.0,1549375448.692
2045866.0,1549375448.734
2046154.0,1549375448.772
2042862.0,1549375448.812
2036324.0,1549375448.853
2030825.0,1549375448.892
2027282.0,1549375448.933
2025261.0,1549375448.974
2023530.0,1549375449.013
2023039.0,1549375449.053
2022322.0,1549375449.094
2021385.0,1549375449.134
2021033.0,1549375449.173
2021143.0,1549375449.214
2021793.0,1549375449.253
2022571.0,1549375449.293
2023830.0,1549375449.335
2025069.0,1549375449.373
2026607.0,1549375449.413
2028215.0,1549375449.455
2029890.0,1549375449.494
2031365.0,1549375449.534
2033606.0,1549375449.575
2036257.0,1549375449.614
2038692.0,1549375449.654
2039526.0,1549375449.695
2035652.0,1549375449.735
2030635.0,1549375449.774
2027125.0,1549375449.815
2024551.0,1549375449.854
2021383.0,1549375449.894
2019284.0,1549375449.936
2018437.0,1549375449.975
2017807.0,1549375450.015
2017286.0,1549375450.056
2016618.0,1549375450.095
2017073.0,1549375450.136
2018121.0,1549375450.176
2018994.0,1549375450.215
2020818.0,1549375450.255
2022294.0,1549375450.296
2023937.0,1549375450.336
2025624.0,1549375450.375
2027947.0,1549375450.417
2029943.0,1549375450.456
2032531.0,1549375450.496
2034973.0,1549375450.537
2035789.0,1549375450.576
2031845.0,1549375450.616
2027548.0,1549375450.657
2024382.0,1549375450.696
2022093.0,1549375450.737
2020132.0,1549375450.777
2018936.0,1549375450.816
2018869.0,1549375450.857
2018454.0,1549375450.898
2017757.0,1549375450.937
2018165.0,1549375450.977
2018720.0,1549375451.018
2019590.0,1549375451.057
2021350.0,1549375451.097
2023062.0,1549375451.139
2024923.0,1549375451.177
2026864.0,1549375451.217
2028511.0,1549375451.258
2030463.0,1549375451.297
2032604.0,1549375451.338
2034912.0,1549375451.379
2037494.0,1549375451.418
2037819.0,1549375451.458
2033661.0,1549375451.499
2028844.0,1549375451.539
2025794.0,1549375451.578
2023102.0,1549375451.619
2020449.0,1549375451.658
2018809.0,1549375451.698
2018295.0,1549375451.74
2017882.0,1549375451.779
2017427.0,1549375451.819
2017508.0,1549375451.86
2018175.0,1549375451.899
2019410.0,1549375451.94
2021251.0,1549375451.98
2022783.0,1549375452.019
2024728.0,1549375452.059
2026634.0,1549375452.1
2028586.0,1549375452.14
2030934.0,1549375452.18
2033516.0,1549375452.221
2036149.0,1549375452.26
2038844.0,1549375452.3
2040717.0,1549375452.342
2037478.0,1549375452.38
2032546.0,1549375452.42
2028854.0,1549375452.461
2025963.0,1549375452.5
2022935.0,1549375452.541
2020367.0,1549375452.582
2019308.0,1549375452.621
2018847.0,1549375452.661
2018164.0,1549375452.702
2017996.0,1549375452.742
2018391.0,1549375452.781
2019406.0,1549375452.822
2021100.0,1549375452.861
2022614.0,1549375452.901
2024567.0,1549375452.943
2026518.0,1549375452.982
2028101.0,1549375453.022
2030346.0,1549375453.063
2032780.0,1549375453.102
2035029.0,1549375453.143
2037478.0,1549375453.183
2041350.0,1549375453.222
2040502.0,1549375453.262
2034651.0,1549375453.303
2028635.0,1549375453.343
2024363.0,1549375453.383
2021368.0,1549375453.424
2020828.0,1549375453.463
2021161.0,1549375453.503
2021557.0,1549375453.545
2020800.0,1549375453.583
2019407.0,1549375453.623
2019727.0,1549375453.664
2020852.0,1549375453.703
2021939.0,1549375453.744
2022413.0,1549375453.785
2023796.0,1549375453.824
2025053.0,1549375453.864
2027007.0,1549375453.905
2028242.0,1549375453.945
2030957.0,1549375453.984
2034751.0,1549375454.025
2037675.0,1549375454.065
2040337.0,1549375454.105
2043242.0,1549375454.147
2042334.0,1549375454.186
2037523.0,1549375454.225
2033045.0,1549375454.266
2029892.0,1549375454.305
2026368.0,1549375454.346
2023141.0,1549375454.386
2020866.0,1549375454.426
2020215.0,1549375454.466
2019458.0,1549375454.507
2018623.0,1549375454.547
2018382.0,1549375454.586
2018955.0,1549375454.627
2019660.0,1549375454.666
2020971.0,1549375454.706
2022524.0,1549375454.748
2024358.0,1549375454.787
2027751.0,1549375454.827
2029805.0,1549375454.868
2032098.0,1549375454.907
2034575.0,1549375454.947
2036967.0,1549375454.987
2035496.0,1549375455.026
2030396.0,1549375455.066
2026233.0,1549375455.107
2023002.0,1549375455.147
2019933.0,1549375455.186
2015845.0,1549375455.267
2015062.0,1549375455.307
2014624.0,1549375455.348
2014175.0,1549375455.387
2014588.0,1549375455.427
2017189.0,1549375455.228
2015342.0,1549375455.468
2016507.0,1549375455.507
2018164.0,1549375455.548
2019916.0,1549375455.588
2021178.0,1549375455.627
2023116.0,1549375455.667
2025114.0,1549375455.709
2027411.0,1549375455.748
2028884.0,1549375455.788
2026698.0,1549375455.908
2020486.0,1549375455.95
2013047.0,1549375456.069
2013959.0,1549375456.108
2013642.0,1549375456.189
2014134.0,1549375456.149
2013651.0,1549375456.028
2031482.0,1549375455.868
2011931.0,1549375456.228
2030998.0,1549375455.829
2016276.0,1549375455.988
2010047.0,1549375456.31
2010770.0,1549375456.269
2008674.0,1549375456.349
2007443.0,1549375456.389
2006199.0,1549375456.43
2004914.0,1549375456.469
2004771.0,1549375456.509
2006403.0,1549375456.589
2005050.0,1549375456.551
2008827.0,1549375456.629
2011102.0,1549375456.67
2014102.0,1549375456.709
2014731.0,1549375456.75
2012705.0,1549375456.791
2010903.0,1549375456.83
2009955.0,1549375456.87
2007738.0,1549375456.911
2005700.0,1549375456.95
2004426.0,1549375457.032
2003998.0,1549375457.11
2004060.0,1549375457.07
2004898.0,1549375457.152
2006190.0,1549375457.19
2008460.0,1549375457.23
2010442.0,1549375457.271
2015239.0,1549375457.351
2012687.0,1549375457.31
2004774.0,1549375456.99
2019800.0,1549375457.431
2022441.0,1549375457.471
2017478.0,1549375457.392
2025160.0,1549375457.512
2027771.0,1549375457.552
2029513.0,1549375457.632
2020888.0,1549375457.711
2017762.0,1549375457.753
2025099.0,1549375457.671
2030231.0,1549375457.591
2014837.0,1549375457.791
2012144.0,1549375457.831
2010692.0,1549375457.873
2010278.0,1549375457.912
2009300.0,1549375457.993
2009566.0,1549375457.952
2009559.0,1549375458.032
2010467.0,1549375458.072
2011689.0,1549375458.113
2013327.0,1549375458.153
2015163.0,1549375458.192
2017533.0,1549375458.233
2019553.0,1549375458.272
2024039.0,1549375458.354
2021813.0,1549375458.313
2026571.0,1549375458.393
2029321.0,1549375458.433
2031473.0,1549375458.474
2029784.0,1549375458.513
2024934.0,1549375458.554
2019733.0,1549375458.594
2015655.0,1549375458.633
2011382.0,1549375458.673
2007477.0,1549375458.714
2005385.0,1549375458.754
2003829.0,1549375458.794
2002070.0,1549375458.835
2001201.0,1549375458.874
2000873.0,1549375458.914
2001805.0,1549375458.956
2003248.0,1549375458.994
2005112.0,1549375459.034
2007337.0,1549375459.075
2009334.0,1549375459.114
2010909.0,1549375459.155
2012679.0,1549375459.195
2015210.0,1549375459.234
2017953.0,1549375459.275
2020797.0,1549375459.316
2021150.0,1549375459.355
2017567.0,1549375459.395
2013652.0,1549375459.436
2010777.0,1549375459.475
2008277.0,1549375459.515
2006221.0,1549375459.557
2004848.0,1549375459.595
2004916.0,1549375459.635
2004669.0,1549375459.677
2004839.0,1549375459.716
2004867.0,1549375459.756
2006141.0,1549375459.797
2007411.0,1549375459.836
2009152.0,1549375459.876
2011334.0,1549375459.917
2013432.0,1549375459.957
2015534.0,1549375459.996
2017732.0,1549375460.037
2019864.0,1549375460.077
2022641.0,1549375460.117
2025594.0,1549375460.158
2028255.0,1549375460.197
2028466.0,1549375460.237
2024382.0,1549375460.278
2020547.0,1549375460.317
2017743.0,1549375460.358
2015361.0,1549375460.398
2012839.0,1549375460.437
2011116.0,1549375460.477
2011122.0,1549375460.519
2010948.0,1549375460.558
2010837.0,1549375460.598
2010982.0,1549375460.639
2012124.0,1549375460.678
2013466.0,1549375460.718
2015026.0,1549375460.76
2017048.0,1549375460.798
2019064.0,1549375460.838
2021166.0,1549375460.879
2023097.0,1549375460.918
2025416.0,1549375460.959
2028100.0,1549375461.0
2030874.0,1549375461.039
2032314.0,1549375461.079
2029227.0,1549375461.12
2024855.0,1549375461.16
2022231.0,1549375461.199
2019757.0,1549375461.24
2017487.0,1549375461.279
2015611.0,1549375461.32
2015527.0,1549375461.361
2016304.0,1549375461.4
2016387.0,1549375461.44
2018503.0,1549375461.481
2021085.0,1549375461.52
2025089.0,1549375461.561
2028949.0,1549375461.601
2031592.0,1549375461.64
2033686.0,1549375461.681
2035670.0,1549375461.722
2037754.0,1549375461.761
2040011.0,1549375461.801
2042124.0,1549375461.842
2044673.0,1549375461.881
2046180.0,1549375461.921
2043680.0,1549375461.963
2039262.0,1549375462.001
2035669.0,1549375462.042
2033262.0,1549375462.083
2030445.0,1549375462.122
2027683.0,1549375462.163
2027408.0,1549375462.203
2027125.0,1549375462.242
2026809.0,1549375462.282
2026581.0,1549375462.323
2026964.0,1549375462.363
2028356.0,1549375462.403
2029889.0,1549375462.444
2031552.0,1549375462.483
2033452.0,1549375462.523
2035648.0,1549375462.565
2037722.0,1549375462.603
2039791.0,1549375462.643
2042260.0,1549375462.684
2044885.0,1549375462.723
2047441.0,1549375462.764
2048298.0,1549375462.805
2044688.0,1549375462.844
2040905.0,1549375462.884
2038306.0,1549375462.925
2036283.0,1549375462.965
2033670.0,1549375463.004
2032547.0,1549375463.045
2032652.0,1549375463.085
2032648.0,1549375463.125
2032418.0,1549375463.166
2032848.0,1549375463.205
2033568.0,1549375463.245
2034797.0,1549375463.286
2036642.0,1549375463.325
2038349.0,1549375463.366
2040027.0,1549375463.406
2041833.0,1549375463.446
2044061.0,1549375463.486
2046381.0,1549375463.527
2048424.0,1549375463.567
2050915.0,1549375463.606
2050989.0,1549375463.647
2046791.0,1549375463.686
2042606.0,1549375463.726
2040523.0,1549375463.768
2037981.0,1549375463.807
2035923.0,1549375463.847
2035136.0,1549375463.888
2034746.0,1549375463.927
2033964.0,1549375463.968
2033229.0,1549375464.008
2033620.0,1549375464.047
2034509.0,1549375464.088
2035457.0,1549375464.129
2036945.0,1549375464.168
2038585.0,1549375464.208
2040243.0,1549375464.249
2041964.0,1549375464.288
2043783.0,1549375464.328
2045507.0,1549375464.37
2047615.0,1549375464.408
2047068.0,1549375464.448
2042154.0,1549375464.489
2037978.0,1549375464.528
2034576.0,1549375464.569
2031217.0,1549375464.61
2028152.0,1549375464.649
2026506.0,1549375464.689
2025951.0,1549375464.73
2025187.0,1549375464.769
2024714.0,1549375464.809
2024373.0,1549375464.85
2024745.0,1549375464.889
2025597.0,1549375464.929
2026656.0,1549375464.971
2027752.0,1549375465.009
2029572.0,1549375465.049
2030991.0,1549375465.09
2032916.0,1549375465.13
2035683.0,1549375465.17
2038428.0,1549375465.211
2040581.0,1549375465.25
2038753.0,1549375465.29
2033290.0,1549375465.331
2028695.0,1549375465.371
2024993.0,1549375465.41
2021058.0,1549375465.451
2017788.0,1549375465.49
2015676.0,1549375465.53
2014854.0,1549375465.572
2014087.0,1549375465.611
2013823.0,1549375465.651
2013685.0,1549375465.692
2014337.0,1549375465.731
2015289.0,1549375465.772
2016740.0,1549375465.812
2018348.0,1549375465.851
2020002.0,1549375465.891
2021767.0,1549375465.933
2023668.0,1549375465.972
2025835.0,1549375466.012
2028077.0,1549375466.053
2030422.0,1549375466.092
2029182.0,1549375466.132
2024665.0,1549375466.174
2020659.0,1549375466.212
2017804.0,1549375466.252
2015594.0,1549375466.293
2013307.0,1549375466.332
2012299.0,1549375466.373
2011313.0,1549375466.414
2010688.0,1549375466.453
2009937.0,1549375466.493
2009765.0,1549375466.534
2010260.0,1549375466.574
2010981.0,1549375466.613
2012237.0,1549375466.654
2013721.0,1549375466.693
2015253.0,1549375466.733
2017207.0,1549375466.775
2019104.0,1549375466.813
2021067.0,1549375466.854
2023722.0,1549375466.895
2026140.0,1549375466.934
2028023.0,1549375466.975
2025704.0,1549375467.016
2021218.0,1549375467.055
2017330.0,1549375467.095
2014576.0,1549375467.136
2011800.0,1549375467.176
2009237.0,1549375467.215
2008429.0,1549375467.256
2007962.0,1549375467.295
2007092.0,1549375467.336
2007098.0,1549375467.377
2007458.0,1549375467.416
2008449.0,1549375467.456
2010179.0,1549375467.497
2011645.0,1549375467.536
2015772.0,1549375467.617
2013630.0,1549375467.577
2017556.0,1549375467.656
2019898.0,1549375467.696
2022047.0,1549375467.738
2024814.0,1549375467.777
2027616.0,1549375467.817
2026761.0,1549375467.858
2022268.0,1549375467.897
2018886.0,1549375467.937
2016154.0,1549375467.979
2013772.0,1549375468.017
2011135.0,1549375468.057
2010141.0,1549375468.098
2010103.0,1549375468.137
2009782.0,1549375468.178
2009777.0,1549375468.219
2010042.0,1549375468.258
2011303.0,1549375468.298
2012885.0,1549375468.339
2014844.0,1549375468.379
2018658.0,1549375468.459
2016718.0,1549375468.418
2020063.0,1549375468.498
2024727.0,1549375468.58
2027084.0,1549375468.619
2029102.0,1549375468.659
2027147.0,1549375468.7
2024637.0,1549375468.739
2022899.0,1549375468.78
2020728.0,1549375468.82
2018654.0,1549375468.859
2016264.0,1549375468.94
2016805.0,1549375469.02
2016590.0,1549375468.98
2016522.0,1549375469.061
2016563.0,1549375468.899
2015644.0,1549375469.1
2014483.0,1549375469.14
2014494.0,1549375469.182
2022105.0,1549375468.538
2015582.0,1549375469.22
2018496.0,1549375469.26
2023939.0,1549375469.301
2030232.0,1549375469.381
2034087.0,1549375469.422
2037665.0,1549375469.461
2041298.0,1549375469.501
2042488.0,1549375469.542
2038265.0,1549375469.582
2029988.0,1549375469.662
2033221.0,1549375469.621
2026121.0,1549375469.741
2028056.0,1549375469.701
2024239.0,1549375469.783
2022780.0,1549375469.822
2021718.0,1549375469.862
2020766.0,1549375469.903
2020647.0,1549375469.942
2027717.0,1549375469.34
2020435.0,1549375469.983
2021588.0,1549375470.023
2022630.0,1549375470.062
2024318.0,1549375470.102
2026290.0,1549375470.144
2028172.0,1549375470.183
2029968.0,1549375470.223
2033627.0,1549375470.303
2035650.0,1549375470.343
2032139.0,1549375470.264
2037650.0,1549375470.385
2038755.0,1549375470.423
2035879.0,1549375470.463
2031178.0,1549375470.505
2027472.0,1549375470.544
2024638.0,1549375470.584
2022157.0,1549375470.625
2020097.0,1549375470.664
2019533.0,1549375470.704
2019068.0,1549375470.745
2018040.0,1549375470.785
2017455.0,1549375470.824
2017956.0,1549375470.866
2018883.0,1549375470.905
2020388.0,1549375470.945
2021995.0,1549375470.987
2023761.0,1549375471.025
2025568.0,1549375471.065
2027848.0,1549375471.106
2030179.0,1549375471.145
2032746.0,1549375471.186
2035283.0,1549375471.226
2035640.0,1549375471.265
2032039.0,1549375471.306
2028603.0,1549375471.347
2025868.0,1549375471.386
2023455.0,1549375471.426
2021178.0,1549375471.467
2020507.0,1549375471.506
2021109.0,1549375471.546
2021507.0,1549375471.588
2021933.0,1549375471.626
2024079.0,1549375471.666
2026553.0,1549375471.708
2029629.0,1549375471.747
2031825.0,1549375471.787
2033647.0,1549375471.828
2035506.0,1549375471.867
2036914.0,1549375471.907
2039021.0,1549375471.948
2041708.0,1549375471.988
2044966.0,1549375472.027
2047797.0,1549375472.068
2048626.0,1549375472.107
2045046.0,1549375472.148
2040402.0,1549375472.189
2036763.0,1549375472.228
2033222.0,1549375472.268
2029760.0,1549375472.309
2027460.0,1549375472.348
2026417.0,1549375472.389
2026160.0,1549375472.429
2025593.0,1549375472.468
2025411.0,1549375472.508
2026643.0,1549375472.55
2027875.0,1549375472.589
2029494.0,1549375472.629
2031070.0,1549375472.67
2033121.0,1549375472.709
2035287.0,1549375472.749
2037464.0,1549375472.791
2039656.0,1549375472.829
2041943.0,1549375472.869
2044246.0,1549375472.91
2046715.0,1549375472.949
2046921.0,1549375472.99
2042483.0,1549375473.031
2038211.0,1549375473.07
2035153.0,1549375473.11
2032321.0,1549375473.151
2029298.0,1549375473.191
2027284.0,1549375473.23
2026884.0,1549375473.271
2026364.0,1549375473.31
2026196.0,1549375473.35
2026291.0,1549375473.392
2027368.0,1549375473.431
2028664.0,1549375473.471
2030273.0,1549375473.512
2031891.0,1549375473.551
2033419.0,1549375473.592
2035187.0,1549375473.632
2037409.0,1549375473.671
2039848.0,1549375473.711
2041698.0,1549375473.752
2042936.0,1549375473.792
2039742.0,1549375473.831
2035180.0,1549375473.872
2032085.0,1549375473.911
2029500.0,1549375473.952
2027026.0,1549375473.993
2025184.0,1549375474.032
2024679.0,1549375474.072
2023720.0,1549375474.113
2023249.0,1549375474.152
2022812.0,1549375474.193
2023288.0,1549375474.233
2024418.0,1549375474.272
2025870.0,1549375474.312
2027135.0,1549375474.353
2028987.0,1549375474.393
2030216.0,1549375474.432
2032110.0,1549375474.473
2033880.0,1549375474.512
2035973.0,1549375474.553
2038262.0,1549375474.594
2040982.0,1549375474.633
2040655.0,1549375474.673
2035952.0,1549375474.714
2031265.0,1549375474.753
2027566.0,1549375474.794
2024212.0,1549375474.834
2020491.0,1549375474.873
2018338.0,1549375474.913
2017376.0,1549375474.954
2016672.0,1549375474.994
2015905.0,1549375475.033
2015719.0,1549375475.074
2016370.0,1549375475.113
2017380.0,1549375475.154
2018959.0,1549375475.195
2020478.0,1549375475.234
2022375.0,1549375475.274
2024271.0,1549375475.315
2025956.0,1549375475.354
2028105.0,1549375475.395
2030530.0,1549375475.435
2033157.0,1549375475.474
2035476.0,1549375475.514
2029039.0,1549375475.595
2033620.0,1549375475.555
2024868.0,1549375475.635
2021480.0,1549375475.676
2018436.0,1549375475.715
2015268.0,1549375475.755
2013807.0,1549375475.797
2013422.0,1549375475.835
2012054.0,1549375475.916
2012611.0,1549375475.996
2012033.0,1549375475.955
2012530.0,1549375475.875
2013804.0,1549375476.037
2015095.0,1549375476.076
2016447.0,1549375476.116
2017777.0,1549375476.157
2019419.0,1549375476.196
2021142.0,1549375476.236
2023224.0,1549375476.277
2025730.0,1549375476.316
2027220.0,1549375476.356
2024770.0,1549375476.398
2020032.0,1549375476.436
2016004.0,1549375476.477
2012754.0,1549375476.518
2007037.0,1549375476.598
2009780.0,1549375476.557
2006193.0,1549375476.638
2005285.0,1549375476.677
2004825.0,1549375476.717
2004502.0,1549375476.758
2004975.0,1549375476.798
2005913.0,1549375476.838
2007065.0,1549375476.879
2008587.0,1549375476.918
2010257.0,1549375476.958
2012112.0,1549375477.0
2014111.0,1549375477.038
2016230.0,1549375477.078
2018608.0,1549375477.119
2020632.0,1549375477.159
2022343.0,1549375477.199
2020223.0,1549375477.24
2015536.0,1549375477.279
2011473.0,1549375477.319
2008319.0,1549375477.36
2004805.0,1549375477.4
2001757.0,1549375477.439
2000602.0,1549375477.48
2000282.0,1549375477.519
1999984.0,1549375477.559
1999681.0,1549375477.601
2000124.0,1549375477.64
2001297.0,1549375477.68
2002564.0,1549375477.721
2004366.0,1549375477.76
2006149.0,1549375477.801
2008059.0,1549375477.841
2010007.0,1549375477.88
2012054.0,1549375477.921
2014717.0,1549375477.962
2016957.0,1549375478.001
2019595.0,1549375478.041
2020318.0,1549375478.082
2016769.0,1549375478.121
2012036.0,1549375478.161
2008623.0,1549375478.203
2005790.0,1549375478.241
2002371.0,1549375478.282
2000354.0,1549375478.323
1999877.0,1549375478.362
1999508.0,1549375478.403
1998910.0,1549375478.443
1998933.0,1549375478.482
1999862.0,1549375478.522
2001088.0,1549375478.563
2002515.0,1549375478.603
2003637.0,1549375478.643
2005118.0,1549375478.684
2006334.0,1549375478.723
2008009.0,1549375478.763
2009593.0,1549375478.805
2011753.0,1549375478.843
2014281.0,1549375478.883
2016521.0,1549375478.924
2016182.0,1549375478.964
2011609.0,1549375479.003
2007130.0,1549375479.044
2003960.0,1549375479.083
2000609.0,1549375479.123
1997555.0,1549375479.164
1996106.0,1549375479.204
1995681.0,1549375479.243
1995185.0,1549375479.285
1994972.0,1549375479.324
1994850.0,1549375479.364
1995476.0,1549375479.406
1996659.0,1549375479.444
1997885.0,1549375479.484
1999617.0,1549375479.525
2012398.0,1549375479.766
2007190.0,1549375479.685
2015095.0,1549375479.806
2016357.0,1549375479.845
2013673.0,1549375479.886
2008939.0,1549375479.925
2005545.0,1549375479.966
2005314.0,1549375479.646
2001391.0,1549375479.564
2002552.0,1549375480.007
1999211.0,1549375480.046
2009521.0,1549375479.725
2003127.0,1549375479.605
1996905.0,1549375480.086
1996264.0,1549375480.127
1995864.0,1549375480.166
1995337.0,1549375480.207
1995591.0,1549375480.247
1996418.0,1549375480.287
1997587.0,1549375480.327
1998993.0,1549375480.368
2000882.0,1549375480.408
2002719.0,1549375480.447
2004681.0,1549375480.488
2006788.0,1549375480.527
2009097.0,1549375480.567
2011664.0,1549375480.609
2013993.0,1549375480.648
2016876.0,1549375480.688
2019688.0,1549375480.729
2022410.0,1549375480.768
2023547.0,1549375480.809
2019891.0,1549375480.849
2013043.0,1549375480.929
2016118.0,1549375480.889
2010879.0,1549375480.97
2008183.0,1549375481.01
2006744.0,1549375481.049
2006496.0,1549375481.09
2006045.0,1549375481.129
2006044.0,1549375481.17
2005956.0,1549375481.211
2006851.0,1549375481.25
2008233.0,1549375481.29
2011653.0,1549375481.37
2013594.0,1549375481.411
2009922.0,1549375481.331
2015816.0,1549375481.452
2022675.0,1549375481.572
2025735.0,1549375481.612
2028632.0,1549375481.651
2030185.0,1549375481.692
2028123.0,1549375481.731
2017907.0,1549375481.491
2020130.0,1549375481.531
2024234.0,1549375481.771
2020865.0,1549375481.813
2018884.0,1549375481.852
2014520.0,1549375481.933
2016570.0,1549375481.892
2014802.0,1549375481.972
2014282.0,1549375482.013
2014112.0,1549375482.053
2014310.0,1549375482.092
2015264.0,1549375482.132
2016313.0,1549375482.173
2017955.0,1549375482.213
2019475.0,1549375482.253
2021275.0,1549375482.294
2023431.0,1549375482.333
2025846.0,1549375482.373
2027491.0,1549375482.415
2030006.0,1549375482.453
2032702.0,1549375482.493
2035220.0,1549375482.534
2037971.0,1549375482.573
2038577.0,1549375482.614
2034427.0,1549375482.655
2029884.0,1549375482.694
2027077.0,1549375482.734
2024207.0,1549375482.775
2021125.0,1549375482.815
2018964.0,1549375482.854
2018350.0,1549375482.895
2017958.0,1549375482.934
2017724.0,1549375482.974
2017432.0,1549375483.016
2018352.0,1549375483.055
2019139.0,1549375483.095
2020488.0,1549375483.136
2022056.0,1549375483.175
2023817.0,1549375483.216
2026052.0,1549375483.256
2028015.0,1549375483.295
2030261.0,1549375483.335
2032565.0,1549375483.376
2035237.0,1549375483.416
2038058.0,1549375483.456
2040760.0,1549375483.497
2040784.0,1549375483.536
2036507.0,1549375483.576
2032680.0,1549375483.618
2029587.0,1549375483.656
2027054.0,1549375483.696
2024495.0,1549375483.737
2023040.0,1549375483.776
2022433.0,1549375483.817
2022278.0,1549375483.858
2021346.0,1549375483.897
2021522.0,1549375483.937
2022220.0,1549375483.978
2023351.0,1549375484.018
2024376.0,1549375484.057
2026058.0,1549375484.098
2028011.0,1549375484.137
2029251.0,1549375484.177
2031166.0,1549375484.219
2033119.0,1549375484.258
2035298.0,1549375484.298
2037544.0,1549375484.339
2038159.0,1549375484.378
2034152.0,1549375484.419
2029815.0,1549375484.459
2026780.0,1549375484.498
2024510.0,1549375484.538
2022265.0,1549375484.58
2021038.0,1549375484.619
2020880.0,1549375484.659
2020001.0,1549375484.7
2019633.0,1549375484.739
2019670.0,1549375484.779
2020588.0,1549375484.821
2021861.0,1549375484.859
2023242.0,1549375484.899
2025005.0,1549375484.941
2026774.0,1549375484.98
2028420.0,1549375485.02
2030112.0,1549375485.061
2032188.0,1549375485.1
2034778.0,1549375485.14
2036946.0,1549375485.181
2038705.0,1549375485.221
2035816.0,1549375485.26
2030279.0,1549375485.302
2026355.0,1549375485.341
2022764.0,1549375485.381
2019149.0,1549375485.423
2015671.0,1549375485.461
2014111.0,1549375485.501
2013004.0,1549375485.542
2012144.0,1549375485.581
2011365.0,1549375485.622
2011275.0,1549375485.663
2011916.0,1549375485.702
2012819.0,1549375485.742
2013585.0,1549375485.783
2014873.0,1549375485.823
2016262.0,1549375485.862
2017596.0,1549375485.903
2019504.0,1549375485.942
2021650.0,1549375485.982
2023466.0,1549375486.024
2025441.0,1549375486.063
2023933.0,1549375486.103
2018964.0,1549375486.144
2014282.0,1549375486.183
2010620.0,1549375486.224
2006784.0,1549375486.264
2003082.0,1549375486.303
2000723.0,1549375486.343
1999960.0,1549375486.384
1998906.0,1549375486.424
1998126.0,1549375486.464
1997584.0,1549375486.505
1998067.0,1549375486.544
1998896.0,1549375486.584
1999884.0,1549375486.626
2001664.0,1549375486.664
2002883.0,1549375486.704
2004478.0,1549375486.745
2006058.0,1549375486.784
2008284.0,1549375486.825
2010385.0,1549375486.866
2012249.0,1549375486.905
2013012.0,1549375486.945
2009014.0,1549375486.986
2004021.0,1549375487.026
2000530.0,1549375487.065
1997374.0,1549375487.107
1993916.0,1549375487.145
1991220.0,1549375487.185
1990762.0,1549375487.227
1990192.0,1549375487.266
1989604.0,1549375487.306
1988647.0,1549375487.347
1988775.0,1549375487.386
1988643.0,1549375487.427
1988261.0,1549375487.467
1988332.0,1549375487.506
1988284.0,1549375487.547
1988434.0,1549375487.588
1989076.0,1549375487.627
1990308.0,1549375487.667
1991477.0,1549375487.708
1992987.0,1549375487.747
1994547.0,1549375487.787
1994963.0,1549375487.829
1992885.0,1549375487.868
1994429.0,1549375487.908
1996667.0,1549375487.949
1996267.0,1549375487.988
1994459.0,1549375488.029
1993551.0,1549375488.069
1994004.0,1549375488.108
1993994.0,1549375488.148
1993530.0,1549375488.189
1994671.0,1549375488.229
1996710.0,1549375488.269
1998709.0,1549375488.31
2000363.0,1549375488.349
2001922.0,1549375488.389
2003743.0,1549375488.431
2005456.0,1549375488.469
2007145.0,1549375488.51
2008722.0,1549375488.551
2010766.0,1549375488.59
2013223.0,1549375488.631
2015470.0,1549375488.671
2017592.0,1549375488.71
2015443.0,1549375488.75
2010958.0,1549375488.791
2007368.0,1549375488.831
2004449.0,1549375488.871
2000785.0,1549375488.912
1997089.0,1549375488.951
1994842.0,1549375488.991
1993975.0,1549375489.033
1992392.0,1549375489.071
1991459.0,1549375489.111
1991390.0,1549375489.153
1992174.0,1549375489.192
1993218.0,1549375489.232
1994617.0,1549375489.273
1996241.0,1549375489.312
1998616.0,1549375489.352
2001269.0,1549375489.393
2004753.0,1549375489.433
2008422.0,1549375489.472
2011607.0,1549375489.513
2014336.0,1549375489.553
2012127.0,1549375489.593
2008152.0,1549375489.634
2006045.0,1549375489.673
2003936.0,1549375489.713
2001671.0,1549375489.754
2000164.0,1549375489.793
2000667.0,1549375489.834
2000716.0,1549375489.874
2000530.0,1549375489.913
2001311.0,1549375489.953
2002747.0,1549375489.994
2004492.0,1549375490.034
2006545.0,1549375490.074
2008667.0,1549375490.115
2010680.0,1549375490.154
2013111.0,1549375490.194
2015409.0,1549375490.236
2018505.0,1549375490.274
2023182.0,1549375490.314
2028124.0,1549375490.355
2033393.0,1549375490.394
2034790.0,1549375490.435
2030848.0,1549375490.476
2026672.0,1549375490.515
2023861.0,1549375490.555
2021672.0,1549375490.596
2019593.0,1549375490.636
2018648.0,1549375490.675
2018733.0,1549375490.716
2018468.0,1549375490.755
2017304.0,1549375490.795
2017184.0,1549375490.837
2017718.0,1549375490.875
2018840.0,1549375490.915
2020296.0,1549375490.957
2021676.0,1549375490.996
2023479.0,1549375491.037
2025153.0,1549375491.078
2027581.0,1549375491.117
2029796.0,1549375491.157
2032491.0,1549375491.198
2035381.0,1549375491.238
2038447.0,1549375491.277
2041459.0,1549375491.318
2041328.0,1549375491.357
2037527.0,1549375491.397
2033490.0,1549375491.439
2031237.0,1549375491.478
2028997.0,1549375491.518
2023836.0,1549375491.718
2024130.0,1549375491.758
2024667.0,1549375491.8
2024846.0,1549375491.598
2024841.0,1549375491.639
2024489.0,1549375491.679
2025928.0,1549375491.839
2026444.0,1549375491.559
2027275.0,1549375491.879
2029427.0,1549375491.92
2031310.0,1549375491.959
2033211.0,1549375491.999
2035621.0,1549375492.041
2037523.0,1549375492.079
2039692.0,1549375492.119
2036631.0,1549375492.32
2038677.0,1549375492.281
2033676.0,1549375492.401
2033005.0,1549375492.441
2041949.0,1549375492.24
2041797.0,1549375492.16
2043966.0,1549375492.199
2035285.0,1549375492.36
2033030.0,1549375492.48
2033301.0,1549375492.521
2032806.0,1549375492.56
2033055.0,1549375492.6
2034322.0,1549375492.642
2035675.0,1549375492.681
2037755.0,1549375492.721
2039955.0,1549375492.762
2042754.0,1549375492.801
2045334.0,1549375492.842
2047895.0,1549375492.882
2050743.0,1549375492.921
2053772.0,1549375492.961
2056714.0,1549375493.003
2059545.0,1549375493.042
2058469.0,1549375493.082
2053731.0,1549375493.123
2037653.0,1549375493.443
2047008.0,1549375493.202
2038822.0,1549375493.363
2039242.0,1549375493.322
2049581.0,1549375493.162
2043568.0,1549375493.244
2037990.0,1549375493.403
2040712.0,1549375493.282
2037592.0,1549375493.484
2038411.0,1549375493.523
2039946.0,1549375493.563
2041720.0,1549375493.604
2043553.0,1549375493.644
2045429.0,1549375493.683
2047448.0,1549375493.725
2049299.0,1549375493.764
2052049.0,1549375493.804
2054746.0,1549375493.846
2057454.0,1549375493.884
2057529.0,1549375493.924
2052963.0,1549375493.965
2048079.0,1549375494.004
2043612.0,1549375494.045
2035201.0,1549375494.125
2039255.0,1549375494.086
2031976.0,1549375494.165
2030985.0,1549375494.206
2029159.0,1549375494.246
2027558.0,1549375494.285
2027779.0,1549375494.326
2028477.0,1549375494.365
2030772.0,1549375494.405
2034365.0,1549375494.447
2038178.0,1549375494.486
2041755.0,1549375494.526
2044093.0,1549375494.567
2048216.0,1549375494.647
2050474.0,1549375494.687
2053094.0,1549375494.726
2046319.0,1549375494.606
2052841.0,1549375494.808
2047667.0,1549375494.847
2055069.0,1549375494.766
2043425.0,1549375494.887
2039672.0,1549375494.928
2036218.0,1549375494.967
2032098.0,1549375495.049
2033481.0,1549375495.007
2031433.0,1549375495.087
2030499.0,1549375495.127
2029837.0,1549375495.169
2029818.0,1549375495.208
2030411.0,1549375495.248
2031570.0,1549375495.289
2032959.0,1549375495.328
2034514.0,1549375495.368
2036252.0,1549375495.409
2037886.0,1549375495.449
2040208.0,1549375495.488
2042695.0,1549375495.53
2045049.0,1549375495.569
2046976.0,1549375495.609
2044988.0,1549375495.651
2040132.0,1549375495.689
2036093.0,1549375495.729
2032498.0,1549375495.77
2028872.0,1549375495.809
2025685.0,1549375495.85
2024193.0,1549375495.891
2023715.0,1549375495.93
2023184.0,1549375495.97
2022599.0,1549375496.011
2022705.0,1549375496.051
2023813.0,1549375496.09
2025190.0,1549375496.131
2027097.0,1549375496.171
2028990.0,1549375496.211
2031011.0,1549375496.253
2032824.0,1549375496.291
2034881.0,1549375496.331
2037537.0,1549375496.372
2039907.0,1549375496.411
2042253.0,1549375496.452
2040719.0,1549375496.493
2035879.0,1549375496.532
2031809.0,1549375496.572
2028417.0,1549375496.613
2025020.0,1549375496.653
2021921.0,1549375496.692
2020909.0,1549375496.733
2020989.0,1549375496.772
2020448.0,1549375496.813
2019799.0,1549375496.854
2020232.0,1549375496.893
2021032.0,1549375496.933
2022459.0,1549375496.974
2023875.0,1549375497.013
2025406.0,1549375497.054
2027219.0,1549375497.094
2029577.0,1549375497.134
2032015.0,1549375497.174
2034330.0,1549375497.215
2036487.0,1549375497.255
2034951.0,1549375497.294
2030467.0,1549375497.335
2027188.0,1549375497.374
2024362.0,1549375497.414
2021564.0,1549375497.456
2019629.0,1549375497.495
2019245.0,1549375497.535
2018971.0,1549375497.576
2018086.0,1549375497.615
2018131.0,1549375497.656
2019953.0,1549375497.735
2018446.0,1549375497.696
2021554.0,1549375497.775
2023366.0,1549375497.816
2025362.0,1549375497.856
2027128.0,1549375497.895
2029503.0,1549375497.937
2031887.0,1549375497.976
2034667.0,1549375498.016
2037443.0,1549375498.057
2038377.0,1549375498.096
2034820.0,1549375498.136
2031042.0,1549375498.177
2028198.0,1549375498.216
2025030.0,1549375498.257
2022202.0,1549375498.297
2020853.0,1549375498.336
2020409.0,1549375498.376
2019985.0,1549375498.417
2019554.0,1549375498.457
2019643.0,1549375498.497
2020572.0,1549375498.538
2021835.0,1549375498.577
2023513.0,1549375498.617
2025117.0,1549375498.659
2027052.0,1549375498.697
2028907.0,1549375498.737
2031243.0,1549375498.778
2033718.0,1549375498.817
2036508.0,1549375498.858
2038980.0,1549375498.899
2038352.0,1549375498.938
2034086.0,1549375498.978
2030363.0,1549375499.019
2027437.0,1549375499.059
2024412.0,1549375499.098
2021157.0,1549375499.139
2019298.0,1549375499.178
2018902.0,1549375499.218
2018498.0,1549375499.26
2018371.0,1549375499.298
2018717.0,1549375499.338
2019806.0,1549375499.379
2021059.0,1549375499.418
2023165.0,1549375499.459
2025108.0,1549375499.5
2027300.0,1549375499.539
2029878.0,1549375499.579
2032297.0,1549375499.62
2035065.0,1549375499.66
2037799.0,1549375499.699
2040696.0,1549375499.74
2043592.0,1549375499.779
2042697.0,1549375499.819
2038906.0,1549375499.861
2035792.0,1549375499.899
2033620.0,1549375499.939
2031150.0,1549375499.981
2029024.0,1549375500.02
2028595.0,1549375500.06
2029210.0,1549375500.101
2029463.0,1549375500.14
2029598.0,1549375500.18
2030905.0,1549375500.221
2032627.0,1549375500.261
2034665.0,1549375500.3
2036796.0,1549375500.341
2038995.0,1549375500.38
2041442.0,1549375500.42
2043933.0,1549375500.462
2046669.0,1549375500.501
2049650.0,1549375500.541
2052221.0,1549375500.582
2055675.0,1549375500.621
2057097.0,1549375500.662
2053902.0,1549375500.702
2050616.0,1549375500.741
2048188.0,1549375500.781
2046269.0,1549375500.822
2043875.0,1549375500.862
2042826.0,1549375500.902
2043139.0,1549375500.943
2043464.0,1549375500.982
2043678.0,1549375501.022
2044614.0,1549375501.064
2045738.0,1549375501.102
2047241.0,1549375501.142
2048981.0,1549375501.183
2051053.0,1549375501.222
2052893.0,1549375501.263
2055396.0,1549375501.303
2057572.0,1549375501.342
2060211.0,1549375501.383
2062682.0,1549375501.424
2065112.0,1549375501.463
2064321.0,1549375501.503
2060822.0,1549375501.544
2058242.0,1549375501.583
2056303.0,1549375501.623
2054232.0,1549375501.665
2052412.0,1549375501.703
2052205.0,1549375501.743
2052522.0,1549375501.784
2052622.0,1549375501.823
2052863.0,1549375501.864
2053474.0,1549375501.905
2054485.0,1549375501.944
2056268.0,1549375501.984
2058251.0,1549375502.025
2060093.0,1549375502.065
2062012.0,1549375502.104
2064192.0,1549375502.145
2066635.0,1549375502.184
2069201.0,1549375502.224
2071977.0,1549375502.266
2074642.0,1549375502.305
2073766.0,1549375502.345
2069634.0,1549375502.386
2066285.0,1549375502.425
2063620.0,1549375502.466
2060914.0,1549375502.506
2058438.0,1549375502.545
2057264.0,1549375502.585
2057272.0,1549375502.627
2056763.0,1549375502.666
2056624.0,1549375502.706
2057202.0,1549375502.747
2058430.0,1549375502.786
2060123.0,1549375502.826
2061705.0,1549375502.868
2063561.0,1549375502.906
2065832.0,1549375502.946
2067846.0,1549375502.987
2069976.0,1549375503.026
2072111.0,1549375503.066
2074762.0,1549375503.107
2077046.0,1549375503.146
2079035.0,1549375503.186
2076931.0,1549375503.227
2072445.0,1549375503.267
2069086.0,1549375503.306
2066707.0,1549375503.347
2063945.0,1549375503.386
2061816.0,1549375503.426
2061127.0,1549375503.468
2061139.0,1549375503.506
2060598.0,1549375503.546
2060491.0,1549375503.588
2061166.0,1549375503.627
2062420.0,1549375503.667
2064208.0,1549375503.708
2065634.0,1549375503.747
2069906.0,1549375503.828
2074037.0,1549375503.907
2075946.0,1549375503.948
2067740.0,1549375503.787
2078375.0,1549375503.987
2071884.0,1549375503.868
2081053.0,1549375504.028
2083222.0,1549375504.069
2080945.0,1549375504.108
2076658.0,1549375504.148
2073205.0,1549375504.189
2070861.0,1549375504.228
2068279.0,1549375504.269
2066263.0,1549375504.309
2065921.0,1549375504.348
2064897.0,1549375504.43
2065008.0,1549375504.469
2065216.0,1549375504.388
2065261.0,1549375504.509
2070776.0,1549375504.671
2072463.0,1549375504.709
2074111.0,1549375504.749
2068949.0,1549375504.629
2076341.0,1549375504.791
2078513.0,1549375504.83
2067496.0,1549375504.589
2066451.0,1549375504.55
2080995.0,1549375504.87
2083304.0,1549375504.911
2083357.0,1549375504.95
2079195.0,1549375504.99
2075093.0,1549375505.031
2072761.0,1549375505.071
2070039.0,1549375505.11
2067002.0,1549375505.151
2064035.0,1549375505.19
2063516.0,1549375505.231
2063697.0,1549375505.272
2064102.0,1549375505.311
2065342.0,1549375505.351
2067829.0,1549375505.392
2070648.0,1549375505.431
2077479.0,1549375505.512
2079815.0,1549375505.551
2082147.0,1549375505.591
2074326.0,1549375505.472
2084141.0,1549375505.633
2085836.0,1549375505.672
2088019.0,1549375505.712
2090187.0,1549375505.753
2092726.0,1549375505.792
2094541.0,1549375505.832
2093482.0,1549375505.874
2089589.0,1549375505.912
2084067.0,1549375505.993
2082241.0,1549375506.033
2086371.0,1549375505.952
2079364.0,1549375506.114
2078957.0,1549375506.193
2078282.0,1549375506.234
2079149.0,1549375506.153
2080085.0,1549375506.073
2078580.0,1549375506.274
2079387.0,1549375506.313
2080301.0,1549375506.354
2083147.0,1549375506.434
2082102.0,1549375506.393
2084883.0,1549375506.475
2090430.0,1549375506.595
2092592.0,1549375506.634
2094807.0,1549375506.715
2091165.0,1549375506.754
2087318.0,1549375506.795
2085141.0,1549375506.836
2095203.0,1549375506.675
2082604.0,1549375506.875
2086465.0,1549375506.514
2088558.0,1549375506.554
2080532.0,1549375506.915
2080494.0,1549375506.956
2080834.0,1549375506.995
2082220.0,1549375507.016
2083717.0,1549375507.057
2085625.0,1549375507.096
2087579.0,1549375507.136
2089093.0,1549375507.177
2090140.0,1549375507.216
2091419.0,1549375507.257
2093190.0,1549375507.297
2095237.0,1549375507.336
2097851.0,1549375507.376
2100589.0,1549375507.417
2103189.0,1549375507.457
2105408.0,1549375507.496
2105505.0,1549375507.537
2101478.0,1549375507.577
2096987.0,1549375507.617
2093611.0,1549375507.658
2090263.0,1549375507.697
2086855.0,1549375507.737
2084628.0,1549375507.778
2083979.0,1549375507.817
2083152.0,1549375507.858
2082354.0,1549375507.898
2081600.0,1549375507.937
2081900.0,1549375507.977
2082881.0,1549375508.018
2083829.0,1549375508.058
2085144.0,1549375508.098
2086522.0,1549375508.139
2088004.0,1549375508.178
2089643.0,1549375508.218
2091642.0,1549375508.26
2093941.0,1549375508.298
2096516.0,1549375508.338
2098566.0,1549375508.379
2097115.0,1549375508.418
2092337.0,1549375508.459
2087974.0,1549375508.499
2084959.0,1549375508.538
2081707.0,1549375508.579
2078790.0,1549375508.62
2077284.0,1549375508.659
2076531.0,1549375508.699
2075862.0,1549375508.74
2074906.0,1549375508.779
2074932.0,1549375508.819
2075529.0,1549375508.861
2076308.0,1549375508.899
2077488.0,1549375508.939
2078609.0,1549375508.98
2079675.0,1549375509.019
2081124.0,1549375509.06
2082751.0,1549375509.101
2084326.0,1549375509.14
2086075.0,1549375509.18
2087707.0,1549375509.221
2085319.0,1549375509.261
2080524.0,1549375509.3
2076686.0,1549375509.341
2073401.0,1549375509.38
2070575.0,1549375509.42
2067824.0,1549375509.462
2066775.0,1549375509.5
2066034.0,1549375509.541
2065248.0,1549375509.582
2064756.0,1549375509.621
2064519.0,1549375509.661
2065239.0,1549375509.702
2066433.0,1549375509.741
2067718.0,1549375509.781
2068917.0,1549375509.822
2070615.0,1549375509.862
2072519.0,1549375509.901
2074868.0,1549375509.942
2076756.0,1549375509.982
2078574.0,1549375510.022
2076867.0,1549375510.063
2072543.0,1549375510.102
2068458.0,1549375510.142
2065596.0,1549375510.183
2062332.0,1549375510.222
2059802.0,1549375510.263
2058863.0,1549375510.303
2058410.0,1549375510.342
2057721.0,1549375510.382
2057534.0,1549375510.424
2057253.0,1549375510.463
2058229.0,1549375510.503
2059488.0,1549375510.544
2060810.0,1549375510.583
2062441.0,1549375510.623
2064064.0,1549375510.665
2066172.0,1549375510.703
2067811.0,1549375510.743
2070004.0,1549375510.784
2072261.0,1549375510.823
2072507.0,1549375510.864
2068384.0,1549375510.905
2063537.0,1549375510.944
2059522.0,1549375510.984
2055968.0,1549375511.025
2052283.0,1549375511.065
2049270.0,1549375511.104
2048081.0,1549375511.145
2047513.0,1549375511.184
2046622.0,1549375511.224
2045977.0,1549375511.266
2046467.0,1549375511.305
2047569.0,1549375511.345
2049057.0,1549375511.386
2050552.0,1549375511.425
2052489.0,1549375511.466
2054765.0,1549375511.506
2056706.0,1549375511.545
2058221.0,1549375511.585
2059978.0,1549375511.626
2062745.0,1549375511.666
2066342.0,1549375511.705
2068957.0,1549375511.747
2066697.0,1549375511.786
2063111.0,1549375511.826
2060288.0,1549375511.867
2057275.0,1549375511.906
2054365.0,1549375511.946
2051693.0,1549375511.987
2050834.0,1549375512.026
2049942.0,1549375512.067
2049375.0,1549375512.107
2049179.0,1549375512.146
2049365.0,1549375512.186
2050402.0,1549375512.228
2051570.0,1549375512.267
2053502.0,1549375512.307
2055091.0,1549375512.348
2057408.0,1549375512.387
2059446.0,1549375512.427
2061901.0,1549375512.469
2064281.0,1549375512.507
2066846.0,1549375512.547
2069547.0,1549375512.588
2070996.0,1549375512.627
2068141.0,1549375512.668
2063253.0,1549375512.709
2060094.0,1549375512.748
2057811.0,1549375512.788
2055166.0,1549375512.829
2053466.0,1549375512.869
2053218.0,1549375512.908
2053097.0,1549375512.949
2052791.0,1549375512.988
2052679.0,1549375513.028
2053448.0,1549375513.07
2054782.0,1549375513.109
2056240.0,1549375513.149
2058230.0,1549375513.19
2059852.0,1549375513.229
2061849.0,1549375513.27
2064107.0,1549375513.31
2066052.0,1549375513.349
2067992.0,1549375513.389
2066854.0,1549375513.43
2061928.0,1549375513.47
2057981.0,1549375513.509
2055200.0,1549375513.551
2052218.0,1549375513.59
2049886.0,1549375513.63
2049029.0,1549375513.671
2048848.0,1549375513.71
2048436.0,1549375513.75
2048119.0,1549375513.791
2048611.0,1549375513.83
2049800.0,1549375513.871
2051122.0,1549375513.911
2052894.0,1549375513.95
2054701.0,1549375513.991
2056241.0,1549375514.032
2058419.0,1549375514.071
2060642.0,1549375514.111
2063382.0,1549375514.152
2064865.0,1549375514.191
2061872.0,1549375514.231
2056236.0,1549375514.273
2052109.0,1549375514.311
2048146.0,1549375514.352
2044706.0,1549375514.393
2041421.0,1549375514.432
2040174.0,1549375514.473
2039405.0,1549375514.513
2038647.0,1549375514.552
2037937.0,1549375514.592
2038149.0,1549375514.633
2039368.0,1549375514.673
2040448.0,1549375514.713
2042371.0,1549375514.754
2044144.0,1549375514.793
2045765.0,1549375514.833
2047997.0,1549375514.875
2050485.0,1549375514.913
2052846.0,1549375514.953
2055240.0,1549375514.994
2055573.0,1549375515.033
2046093.0,1549375515.116
2051200.0,1549375515.075
2042544.0,1549375515.155
2039170.0,1549375515.195
2035893.0,1549375515.236
2033538.0,1549375515.276
2033342.0,1549375515.356
2033144.0,1549375515.315
2032998.0,1549375515.395
2034165.0,1549375515.477
2035743.0,1549375515.516
2033347.0,1549375515.436
2037502.0,1549375515.556
2039427.0,1549375515.597
2041613.0,1549375515.636
2043780.0,1549375515.677
2046150.0,1549375515.717
2049323.0,1549375515.756
2053243.0,1549375515.797
2056520.0,1549375515.838
2055060.0,1549375515.877
2051036.0,1549375515.917
2046572.0,1549375515.958
2042466.0,1549375515.997
2038683.0,1549375516.037
2035759.0,1549375516.079
2036340.0,1549375516.117
2041425.0,1549375516.278
2043720.0,1549375516.319
2039572.0,1549375516.237
2045972.0,1549375516.358
2048118.0,1549375516.398
2037792.0,1549375516.198
2050072.0,1549375516.439
2052164.0,1549375516.479
2054488.0,1549375516.518
2057200.0,1549375516.559
2057089.0,1549375516.598
2036448.0,1549375516.157
2047588.0,1549375516.68
2043832.0,1549375516.718
2040591.0,1549375516.758
2037814.0,1549375516.799
2035811.0,1549375516.838
2035793.0,1549375516.879
2052308.0,1549375516.638
2034895.0,1549375516.959
2035160.0,1549375516.999
2035280.0,1549375516.92
2035939.0,1549375517.04
2037156.0,1549375517.08
2040906.0,1549375517.161
2039104.0,1549375517.119
2043350.0,1549375517.199
2045024.0,1549375517.239
2047521.0,1549375517.281
2050172.0,1549375517.319
2053011.0,1549375517.359
2055110.0,1549375517.401
2052801.0,1549375517.439
2048494.0,1549375517.48
2036881.0,1549375517.6
2041757.0,1549375517.56
2044514.0,1549375517.521
2034160.0,1549375517.641
2032237.0,1549375517.72
2032607.0,1549375517.761
2034118.0,1549375517.8
2036255.0,1549375517.84
2038172.0,1549375517.882
2039927.0,1549375517.92
2032559.0,1549375517.681
2044018.0,1549375518.002
2048601.0,1549375518.081
2050914.0,1549375518.122
2046365.0,1549375518.041
2042076.0,1549375517.961
2054017.0,1549375518.161
2057507.0,1549375518.201
2059812.0,1549375518.242
2057703.0,1549375518.282
2053039.0,1549375518.321
2050196.0,1549375518.362
2047489.0,1549375518.401
2044752.0,1549375518.441
2042611.0,1549375518.483
2042900.0,1549375518.522
2043079.0,1549375518.562
2043005.0,1549375518.603
2043435.0,1549375518.642
2044898.0,1549375518.683
2046607.0,1549375518.723
2049130.0,1549375518.762
2051367.0,1549375518.802
2054040.0,1549375518.843
2056477.0,1549375518.883
2059361.0,1549375518.922
2062064.0,1549375518.964
2065285.0,1549375519.003
2068108.0,1549375519.043
2067342.0,1549375519.084
2063403.0,1549375519.123
2060325.0,1549375519.163
2058116.0,1549375519.204
2055488.0,1549375519.243
2053833.0,1549375519.284
2053854.0,1549375519.324
2053415.0,1549375519.363
2052983.0,1549375519.403
2052304.0,1549375519.444
2053285.0,1549375519.484
2054503.0,1549375519.524
2055151.0,1549375519.565
2056497.0,1549375519.604
2057709.0,1549375519.644
2060327.0,1549375519.686
2065911.0,1549375519.724
2071901.0,1549375519.764
2076250.0,1549375519.805
2078796.0,1549375519.844
2076530.0,1549375519.885
2071890.0,1549375519.925
2068741.0,1549375519.964
2066312.0,1549375520.005
2064230.0,1549375520.046
2063307.0,1549375520.085
2063936.0,1549375520.125
2064555.0,1549375520.166
2064910.0,1549375520.205
2065617.0,1549375520.245
2067017.0,1549375520.287
2068841.0,1549375520.325
2071252.0,1549375520.365
2073503.0,1549375520.406
2075436.0,1549375520.445
2077744.0,1549375520.486
2080212.0,1549375520.527
2082706.0,1549375520.566
2085387.0,1549375520.606
2087140.0,1549375520.647
2083927.0,1549375520.687
2079267.0,1549375520.726
2075208.0,1549375520.767
2071972.0,1549375520.806
2068719.0,1549375520.847
2066225.0,1549375520.888
2065248.0,1549375520.927
2065308.0,1549375520.967
2064837.0,1549375521.008
2064474.0,1549375521.047
2065052.0,1549375521.088
2066224.0,1549375521.128
2067506.0,1549375521.167
2069062.0,1549375521.207
2070950.0,1549375521.249
2072698.0,1549375521.288
2074918.0,1549375521.328
2076691.0,1549375521.369
2079575.0,1549375521.408
2082244.0,1549375521.448
2082223.0,1549375521.49
2077565.0,1549375521.528
2072824.0,1549375521.568
2069348.0,1549375521.61
2065674.0,1549375521.649
2063133.0,1549375521.689
2061697.0,1549375521.73
2061654.0,1549375521.769
2061432.0,1549375521.809
2061274.0,1549375521.85
2061585.0,1549375521.89
2062609.0,1549375521.929
2064458.0,1549375521.97
2066741.0,1549375522.01
2069273.0,1549375522.05
2072052.0,1549375522.092
2075279.0,1549375522.13
2077850.0,1549375522.17
2081079.0,1549375522.211
2084489.0,1549375522.25
2087489.0,1549375522.291
2090218.0,1549375522.331
2088774.0,1549375522.371
2084576.0,1549375522.411
2081108.0,1549375522.452
2078209.0,1549375522.492
2075211.0,1549375522.531
2072372.0,1549375522.572
2071560.0,1549375522.611
2071960.0,1549375522.651
2071797.0,1549375522.693
2071407.0,1549375522.732
2071851.0,1549375522.772
2073466.0,1549375522.813
2074706.0,1549375522.852
2076940.0,1549375522.893
2078834.0,1549375522.933
2080896.0,1549375522.972
2083247.0,1549375523.012
2085382.0,1549375523.053
2087915.0,1549375523.093
2090214.0,1549375523.133
2090839.0,1549375523.174
2087265.0,1549375523.213
2083043.0,1549375523.253
2080268.0,1549375523.295
2077755.0,1549375523.333
2075882.0,1549375523.373
2074658.0,1549375523.414
2074790.0,1549375523.453
2074938.0,1549375523.494
2074637.0,1549375523.535
2074934.0,1549375523.574
2075850.0,1549375523.614
2077472.0,1549375523.655
2078964.0,1549375523.695
2081053.0,1549375523.734
2083227.0,1549375523.775
2085358.0,1549375523.814
2088078.0,1549375523.855
2090492.0,1549375523.896
2093028.0,1549375523.935
2096329.0,1549375523.975
2097094.0,1549375524.016
2093934.0,1549375524.055
2090990.0,1549375524.096
2088386.0,1549375524.136
2084966.0,1549375524.175
2081421.0,1549375524.215
2079288.0,1549375524.257
2079136.0,1549375524.296
2078831.0,1549375524.336
2079551.0,1549375524.377
2080742.0,1549375524.416
2083008.0,1549375524.456
2084994.0,1549375524.498
2086688.0,1549375524.536
2088872.0,1549375524.576
2090988.0,1549375524.618
2092782.0,1549375524.657
2093518.0,1549375524.697
2093620.0,1549375524.738
2093857.0,1549375524.777
2094266.0,1549375524.817
2094983.0,1549375524.858
2092744.0,1549375524.898
2086123.0,1549375524.937
2079838.0,1549375524.979
2075189.0,1549375525.018
2071349.0,1549375525.058
2067630.0,1549375525.1
2066191.0,1549375525.138
2067306.0,1549375525.178
2067068.0,1549375525.219
2067279.0,1549375525.258
2068693.0,1549375525.299
2070587.0,1549375525.339
2071873.0,1549375525.379
2073605.0,1549375525.419
2075767.0,1549375525.46
2078225.0,1549375525.499
2080462.0,1549375525.539
2082640.0,1549375525.58
2085370.0,1549375525.619
2088009.0,1549375525.659
2090758.0,1549375525.701
2093050.0,1549375525.739
2090686.0,1549375525.779
2086148.0,1549375525.82
2082389.0,1549375525.859
2079646.0,1549375525.9
2076774.0,1549375525.94
2074211.0,1549375525.979
2073188.0,1549375526.02
2072630.0,1549375526.061
2072260.0,1549375526.1
2072069.0,1549375526.14
2072240.0,1549375526.181
2073269.0,1549375526.22
2074593.0,1549375526.26
2076334.0,1549375526.302
2077741.0,1549375526.34
2079528.0,1549375526.38
2081652.0,1549375526.421
2083370.0,1549375526.46
2085687.0,1549375526.501
2088429.0,1549375526.542
2090909.0,1549375526.581
2089670.0,1549375526.621
2085442.0,1549375526.662
2081836.0,1549375526.702
2079169.0,1549375526.741
2077116.0,1549375526.782
2075124.0,1549375526.821
2074399.0,1549375526.861
2074824.0,1549375526.903
2075087.0,1549375526.941
2075193.0,1549375526.981
2075786.0,1549375527.022
2077196.0,1549375527.061
2078842.0,1549375527.102
2080679.0,1549375527.143
2082961.0,1549375527.182
2085306.0,1549375527.222
2087702.0,1549375527.263
2089887.0,1549375527.303
2092773.0,1549375527.342
2095239.0,1549375527.383
2096662.0,1549375527.422
2093124.0,1549375527.462
2089514.0,1549375527.504
2086749.0,1549375527.543
2085037.0,1549375527.583
2083277.0,1549375527.624
2082175.0,1549375527.663
2082407.0,1549375527.704
2082463.0,1549375527.744
2082287.0,1549375527.783
2082432.0,1549375527.823
2083728.0,1549375527.864
2084768.0,1549375527.904
2086494.0,1549375527.943
2088798.0,1549375527.985
2090431.0,1549375528.024
2092336.0,1549375528.064
2096598.0,1549375528.144
2098488.0,1549375528.184
2094374.0,1549375528.106
2097253.0,1549375528.225
2092366.0,1549375528.264
2090523.0,1549375528.906
2088197.0,1549375528.305
2079928.0,1549375528.425
2079190.0,1549375528.466
2092739.0,1549375528.947
2078781.0,1549375528.505
2078442.0,1549375528.545
2078009.0,1549375528.586
2079452.0,1549375528.665
2080833.0,1549375528.707
2082385.0,1549375528.745
2085308.0,1549375528.345
2084207.0,1549375528.785
2086247.0,1549375528.827
2082463.0,1549375528.384
2088486.0,1549375528.866
2095237.0,1549375528.986
2078270.0,1549375528.625
2096530.0,1549375529.026
2092815.0,1549375529.067
2087768.0,1549375529.107
2084443.0,1549375529.146
2081172.0,1549375529.187
2077977.0,1549375529.226
2075178.0,1549375529.308
2074242.0,1549375529.346
2075899.0,1549375529.266
2073609.0,1549375529.387
2073189.0,1549375529.428
2073530.0,1549375529.467
2074201.0,1549375529.508
2075385.0,1549375529.548
2077126.0,1549375529.587
2078671.0,1549375529.627
2080219.0,1549375529.668
2082485.0,1549375529.708
2084126.0,1549375529.748
2086255.0,1549375529.789
2088832.0,1549375529.828
2087733.0,1549375529.868
2082506.0,1549375529.91
2077589.0,1549375529.948
2074009.0,1549375529.988
2069992.0,1549375530.029
2066445.0,1549375530.068
2062621.0,1549375530.149
2063804.0,1549375530.109
2058435.0,1549375530.309
2060461.0,1549375530.229
2061660.0,1549375530.188
2057775.0,1549375530.349
2057182.0,1549375530.39
2056759.0,1549375530.429
2056089.0,1549375530.469
2055130.0,1549375530.511
2059523.0,1549375530.27
2054795.0,1549375530.549
2054809.0,1549375530.589
2056221.0,1549375530.631
2060947.0,1549375530.67
2066806.0,1549375530.71
2066347.0,1549375530.751
2060002.0,1549375530.83
2062252.0,1549375530.79
2057309.0,1549375530.871
2053040.0,1549375530.911
2044491.0,1549375531.031
2042893.0,1549375531.071
2042632.0,1549375531.151
2046586.0,1549375530.992
2042044.0,1549375531.113
2048910.0,1549375530.95
2044776.0,1549375531.191
2047631.0,1549375531.232
2050478.0,1549375531.271
2056314.0,1549375531.353
2053730.0,1549375531.312
2059350.0,1549375531.392
2062540.0,1549375531.432
2066911.0,1549375531.473
2071549.0,1549375531.513
2075591.0,1549375531.552
2073667.0,1549375531.593
2065493.0,1549375531.672
2069106.0,1549375531.632
2057836.0,1549375531.753
2061618.0,1549375531.714
2054819.0,1549375531.793
2053759.0,1549375531.834
2052562.0,1549375531.873
2051523.0,1549375531.914
2050427.0,1549375531.954
2050660.0,1549375531.993
2051197.0,1549375532.033
2052063.0,1549375532.074
2054801.0,1549375532.153
2056433.0,1549375532.195
2053369.0,1549375532.114
2058707.0,1549375532.234
2060730.0,1549375532.274
2062573.0,1549375532.315
2064579.0,1549375532.354
2060990.0,1549375532.394
2054832.0,1549375532.435
2049675.0,1549375532.474
2045275.0,1549375532.515
2040700.0,1549375532.555
2036794.0,1549375532.594
2034836.0,1549375532.635
2033923.0,1549375532.676
2032579.0,1549375532.715
2031518.0,1549375532.755
2032049.0,1549375532.875
2033314.0,1549375532.917
2034717.0,1549375532.955
2036255.0,1549375532.996
2031338.0,1549375532.835
2030963.0,1549375532.796
2037854.0,1549375533.037
2041571.0,1549375533.117
2039408.0,1549375533.076
2043915.0,1549375533.157
2038502.0,1549375533.236
2032475.0,1549375533.277
2028169.0,1549375533.317
2043677.0,1549375533.196
2024339.0,1549375533.357
2017547.0,1549375533.437
2020158.0,1549375533.398
2016676.0,1549375533.477
2015781.0,1549375533.519
2014510.0,1549375533.597
2015399.0,1549375533.638
2014849.0,1549375533.557
2017086.0,1549375533.678
2021073.0,1549375533.759
2018599.0,1549375533.718
2023105.0,1549375533.798
2025189.0,1549375533.838
2027759.0,1549375533.879
2033469.0,1549375533.958
2030422.0,1549375533.919
2033505.0,1549375533.999
2028420.0,1549375534.038
2023211.0,1549375534.079
2019485.0,1549375534.12
2013328.0,1549375534.199
2016223.0,1549375534.159
2011894.0,1549375534.24
2011602.0,1549375534.279
2011353.0,1549375534.32
2010649.0,1549375534.36
2011074.0,1549375534.399
2012204.0,1549375534.44
2015558.0,1549375534.481
2017939.0,1549375534.521
2019711.0,1549375534.56
2021649.0,1549375534.601
2024393.0,1549375534.64
2027258.0,1549375534.68
2029236.0,1549375534.722
2025448.0,1549375534.76
2019190.0,1549375534.8
2013878.0,1549375534.841
2009874.0,1549375534.88
2005405.0,1549375534.921
2001225.0,1549375534.962
1999918.0,1549375535.001
1998908.0,1549375535.041
1998308.0,1549375535.082
1998781.0,1549375535.122
1998962.0,1549375535.161
1999866.0,1549375535.202
2002678.0,1549375535.241
2006873.0,1549375535.281
2010746.0,1549375535.323
2012884.0,1549375535.361
2015416.0,1549375535.402
2018129.0,1549375535.443
2020522.0,1549375535.482
2018673.0,1549375535.522
2014465.0,1549375535.563
2011040.0,1549375535.602
2007472.0,1549375535.642
2002987.0,1549375535.683
1999520.0,1549375535.723
1997799.0,1549375535.762
1996613.0,1549375535.803
1995607.0,1549375535.842
1995267.0,1549375535.882
1996015.0,1549375535.924
1997341.0,1549375535.963
1999208.0,1549375536.003
2001332.0,1549375536.044
2004035.0,1549375536.083
2007154.0,1549375536.124
2009722.0,1549375536.164
2011576.0,1549375536.203
2007863.0,1549375536.243
2002029.0,1549375536.284
1997622.0,1549375536.324
1994152.0,1549375536.363
1990783.0,1549375536.405
1988772.0,1549375536.444
1989103.0,1549375536.484
1989500.0,1549375536.525
1989922.0,1549375536.564
1990656.0,1549375536.604
1991840.0,1549375536.645
1993896.0,1549375536.684
1995919.0,1549375536.725
1998336.0,1549375536.765
2000758.0,1549375536.804
2003409.0,1549375536.844
2006467.0,1549375536.886
2009323.0,1549375536.925
2010125.0,1549375536.965
2004852.0,1549375537.006
1999755.0,1549375537.045
1995483.0,1549375537.085
1991350.0,1549375537.127
1987913.0,1549375537.165
1986054.0,1549375537.205
1985718.0,1549375537.246
1985417.0,1549375537.285
1985384.0,1549375537.326
1986200.0,1549375537.366
1987921.0,1549375537.405
1989445.0,1549375537.445
1991249.0,1549375537.487
1993356.0,1549375537.526
1995871.0,1549375537.566
1997993.0,1549375537.607
2000006.0,1549375537.646
2001677.0,1549375537.686
1998782.0,1549375537.728
1995541.0,1549375537.766
1993624.0,1549375537.806
1992015.0,1549375537.847
1989919.0,1549375537.887
1989018.0,1549375537.927
1989941.0,1549375537.968
1989875.0,1549375538.007
1990221.0,1549375538.047
1991355.0,1549375538.088
1993395.0,1549375538.128
1995609.0,1549375538.167
1998160.0,1549375538.208
2000607.0,1549375538.247
2003364.0,1549375538.287
2006381.0,1549375538.329
2009198.0,1549375538.368
2012060.0,1549375538.408
2012030.0,1549375538.449
2006511.0,1549375538.488
2000264.0,1549375538.529
1995949.0,1549375538.569
1991391.0,1549375538.608
1987422.0,1549375538.648
1984974.0,1549375538.689
1984787.0,1549375538.729
1984717.0,1549375538.768
1984866.0,1549375538.81
1985260.0,1549375538.849
1986627.0,1549375538.889
1988390.0,1549375538.93
1990446.0,1549375538.969
1992805.0,1549375539.009
1995478.0,1549375539.05
1997696.0,1549375539.089
2000648.0,1549375539.13
2003700.0,1549375539.17
2006937.0,1549375539.209
2008923.0,1549375539.249
2005556.0,1549375539.291
1999395.0,1549375539.33
1994692.0,1549375539.37
1990157.0,1549375539.411
1986338.0,1549375539.45
1983132.0,1549375539.49
1982394.0,1549375539.532
1982176.0,1549375539.61
1982517.0,1549375539.57
1983591.0,1549375539.69
1988156.0,1549375539.772
1982396.0,1549375539.651
1985459.0,1549375539.731
2000660.0,1549375539.932
2004361.0,1549375539.971
1997341.0,1549375539.892
2008148.0,1549375540.012
1990818.0,1549375539.811
1994209.0,1549375539.851
2011916.0,1549375540.051
2015984.0,1549375540.092
2017250.0,1549375540.133
2013067.0,1549375540.172
2008000.0,1549375540.212
2004822.0,1549375540.253
2001914.0,1549375540.292
1998955.0,1549375540.333
1997048.0,1549375540.373
1997555.0,1549375540.412
1997385.0,1549375540.452
1997109.0,1549375540.493
1997708.0,1549375540.533
1999195.0,1549375540.573
2001520.0,1549375540.614
2006217.0,1549375540.693
2008383.0,1549375540.735
2011334.0,1549375540.773
2014396.0,1549375540.813
2003627.0,1549375540.653
2020308.0,1549375540.893
2017198.0,1549375540.854
2020676.0,1549375540.934
2016162.0,1549375540.975
2012037.0,1549375541.014
2009538.0,1549375541.054
2007382.0,1549375541.095
2006046.0,1549375541.135
2006280.0,1549375541.174
2007203.0,1549375541.215
2007585.0,1549375541.254
2007715.0,1549375541.294
2008916.0,1549375541.336
2010560.0,1549375541.375
2012814.0,1549375541.415
2015253.0,1549375541.456
2017635.0,1549375541.495
2025627.0,1549375541.615
2028560.0,1549375541.655
2023159.0,1549375541.576
2029677.0,1549375541.697
2020548.0,1549375541.536
2025685.0,1549375541.736
2020333.0,1549375541.776
2016802.0,1549375541.817
2011763.0,1549375541.896
2014282.0,1549375541.856
2010677.0,1549375541.938
2011016.0,1549375541.976
2011692.0,1549375542.016
2012223.0,1549375542.058
2013772.0,1549375542.097
2015964.0,1549375542.137
2018585.0,1549375542.178
2020856.0,1549375542.217
2023960.0,1549375542.257
2027000.0,1549375542.298
2029630.0,1549375542.338
2032912.0,1549375542.377
2035967.0,1549375542.418
2039148.0,1549375542.457
2040608.0,1549375542.498
2036318.0,1549375542.539
2031396.0,1549375542.578
2027660.0,1549375542.618
2024931.0,1549375542.659
2021609.0,1549375542.698
2019411.0,1549375542.739
2019730.0,1549375542.779
2020333.0,1549375542.818
2020326.0,1549375542.859
2021277.0,1549375542.9
2022781.0,1549375542.939
2025016.0,1549375542.979
2027713.0,1549375543.02
2030306.0,1549375543.059
2033383.0,1549375543.099
2036045.0,1549375543.141
2039677.0,1549375543.18
2042738.0,1549375543.22
2045973.0,1549375543.261
2048866.0,1549375543.3
2046076.0,1549375543.341
2041237.0,1549375543.381
2037042.0,1549375543.42
2034129.0,1549375543.46
2031005.0,1549375543.502
2028142.0,1549375543.541
2027849.0,1549375543.581
2027227.0,1549375543.622
2025302.0,1549375543.661
2024226.0,1549375543.701
2024780.0,1549375543.743
2027192.0,1549375543.781
2029925.0,1549375543.821
2033168.0,1549375543.862
2036255.0,1549375543.901
2038627.0,1549375543.942
2040379.0,1549375543.983
2043059.0,1549375544.022
2044884.0,1549375544.062
2045451.0,1549375544.103
2040081.0,1549375544.143
2031623.0,1549375544.182
2024283.0,1549375544.223
2019067.0,1549375544.262
2013516.0,1549375544.302
2009571.0,1549375544.344
2008561.0,1549375544.382
2008125.0,1549375544.422
2009127.0,1549375544.463
2011604.0,1549375544.502
2015706.0,1549375544.543
2022337.0,1549375544.584
2026917.0,1549375544.623
2030311.0,1549375544.663
2033004.0,1549375544.704
2035593.0,1549375544.744
2038128.0,1549375544.783
2041092.0,1549375544.824
2043924.0,1549375544.863
2046501.0,1549375544.903
2045863.0,1549375544.945
2040366.0,1549375544.984
2035665.0,1549375545.024
2031722.0,1549375545.065
2028309.0,1549375545.104
2025101.0,1549375545.145
2024264.0,1549375545.185
2024153.0,1549375545.224
2023553.0,1549375545.264
2023192.0,1549375545.305
2023771.0,1549375545.345
2024674.0,1549375545.385
2026398.0,1549375545.426
2028426.0,1549375545.465
2030834.0,1549375545.505
2033290.0,1549375545.547
2035752.0,1549375545.585
2038280.0,1549375545.625
2041194.0,1549375545.666
2044403.0,1549375545.705
2046227.0,1549375545.746
2042576.0,1549375545.786
2036218.0,1549375545.825
2031282.0,1549375545.866
2027115.0,1549375545.907
2022913.0,1549375545.946
2020011.0,1549375545.986
2019333.0,1549375546.027
2019146.0,1549375546.066
2018492.0,1549375546.106
2018440.0,1549375546.148
2019269.0,1549375546.186
2020120.0,1549375546.226
2020669.0,1549375546.267
2021095.0,1549375546.306
2022090.0,1549375546.347
2024735.0,1549375546.388
2026916.0,1549375546.427
2028051.0,1549375546.467
2030839.0,1549375546.508
2034378.0,1549375546.548
2036189.0,1549375546.587
2035195.0,1549375546.628
2032118.0,1549375546.667
2029163.0,1549375546.707
2025466.0,1549375546.749
2021699.0,1549375546.788
2019732.0,1549375546.828
2019384.0,1549375546.869
2018922.0,1549375546.908
2018548.0,1549375546.949
2019161.0,1549375546.989
2020836.0,1549375547.028
2022772.0,1549375547.068
2025069.0,1549375547.109
2027564.0,1549375547.149
2030172.0,1549375547.189
2032685.0,1549375547.231
2035354.0,1549375547.269
2038659.0,1549375547.309
2042194.0,1549375547.351
2041765.0,1549375547.389
2036001.0,1549375547.429
2030363.0,1549375547.47
2026434.0,1549375547.509
2022537.0,1549375547.55
2019516.0,1549375547.591
2017964.0,1549375547.63
2017733.0,1549375547.67
2017496.0,1549375547.711
2017084.0,1549375547.751
2017355.0,1549375547.79
2018334.0,1549375547.831
2019713.0,1549375547.87
2021888.0,1549375547.91
2023934.0,1549375547.952
2025879.0,1549375547.991
2028050.0,1549375548.031
2030479.0,1549375548.072
2033235.0,1549375548.111
2036034.0,1549375548.152
2035081.0,1549375548.192
2028995.0,1549375548.231
2022859.0,1549375548.271
2017722.0,1549375548.312
2013172.0,1549375548.352
2008704.0,1549375548.391
2006961.0,1549375548.433
2007704.0,1549375548.472
2009033.0,1549375548.512
2010283.0,1549375548.554
2011556.0,1549375548.592
2012700.0,1549375548.632
2014408.0,1549375548.673
2016273.0,1549375548.712
2018497.0,1549375548.753
2020433.0,1549375548.793
2022722.0,1549375548.833
2025162.0,1549375548.873
2027931.0,1549375548.914
2030493.0,1549375548.954
2033495.0,1549375548.993
2036959.0,1549375549.034
2035642.0,1549375549.073
2029614.0,1549375549.113
2024561.0,1549375549.155
2020933.0,1549375549.193
2017222.0,1549375549.234
2013537.0,1549375549.275
2012026.0,1549375549.314
2011447.0,1549375549.354
2010937.0,1549375549.395
2010271.0,1549375549.434
2010829.0,1549375549.474
2011901.0,1549375549.515
2013264.0,1549375549.555
2015429.0,1549375549.594
2017523.0,1549375549.636
2019769.0,1549375549.675
2022344.0,1549375549.715
2024971.0,1549375549.757
2027439.0,1549375549.795
2030781.0,1549375549.835
2033514.0,1549375549.876
2031218.0,1549375549.915
2025725.0,1549375549.956
2021351.0,1549375549.996
2018776.0,1549375550.036
2015744.0,1549375550.076
2014002.0,1549375550.117
2014299.0,1549375550.157
2014781.0,1549375550.196
2014746.0,1549375550.237
2015416.0,1549375550.276
2016561.0,1549375550.316
2018590.0,1549375550.358
2020937.0,1549375550.397
2023678.0,1549375550.437
2027542.0,1549375550.478
2032352.0,1549375550.517
2037003.0,1549375550.558
2040402.0,1549375550.598
2042799.0,1549375550.637
2041048.0,1549375550.677
2035710.0,1549375550.718
2031696.0,1549375550.758
2029356.0,1549375550.797
2027345.0,1549375550.839
2025851.0,1549375550.878
2025682.0,1549375550.918
2025747.0,1549375550.96
2025187.0,1549375550.998
2024287.0,1549375551.038
2024953.0,1549375551.079
2026345.0,1549375551.118
2028557.0,1549375551.158
2030418.0,1549375551.198
2032820.0,1549375551.238
2035354.0,1549375551.278
2037806.0,1549375551.319
2040284.0,1549375551.358
2042215.0,1549375551.398
2032859.0,1549375551.478
2038861.0,1549375551.439
2028422.0,1549375551.518
2024261.0,1549375551.56
2020570.0,1549375551.598
2017632.0,1549375551.639
2017111.0,1549375551.68
2016946.0,1549375551.719
2016721.0,1549375551.76
2016784.0,1549375551.8
2018182.0,1549375551.839
2019546.0,1549375551.879
2021186.0,1549375551.92
2023450.0,1549375551.96
2025749.0,1549375552.0
2028221.0,1549375552.041
2030505.0,1549375552.08
2033576.0,1549375552.12
2036893.0,1549375552.162
2036688.0,1549375552.2
2031418.0,1549375552.24
2026284.0,1549375552.281
2021920.0,1549375552.32
2018800.0,1549375552.361
2015744.0,1549375552.402
2015793.0,1549375552.441
2018222.0,1549375552.481
2019661.0,1549375552.522
2021702.0,1549375552.601
2020131.0,1549375552.562
2023973.0,1549375552.642
2026337.0,1549375552.681
2029496.0,1549375552.722
2032222.0,1549375552.763
2035126.0,1549375552.802
2037670.0,1549375552.842
2040878.0,1549375552.883
2044289.0,1549375552.922
2047643.0,1549375552.963
2047624.0,1549375553.003
2042933.0,1549375553.042
2038619.0,1549375553.082
2035396.0,1549375553.123
2032200.0,1549375553.163
2028740.0,1549375553.202
2027182.0,1549375553.243
2027204.0,1549375553.282
2027085.0,1549375553.323
2027261.0,1549375553.364
2028002.0,1549375553.403
2029277.0,1549375553.443
2031419.0,1549375553.484
2033704.0,1549375553.523
2038891.0,1549375553.604
2036351.0,1549375553.564
2041549.0,1549375553.643
2044157.0,1549375553.683
2047095.0,1549375553.724
2050393.0,1549375553.764
2053573.0,1549375553.804
2053803.0,1549375553.845
2049250.0,1549375553.884
2044616.0,1549375553.924
2041301.0,1549375553.966
2038254.0,1549375554.004
2035314.0,1549375554.044
2034059.0,1549375554.085
2034350.0,1549375554.165
2035426.0,1549375554.245
2036556.0,1549375554.285
2034297.0,1549375554.124
2034380.0,1549375554.206
2038561.0,1549375554.326
2040561.0,1549375554.366
2042792.0,1549375554.405
2045287.0,1549375554.446
2047877.0,1549375554.485
2050637.0,1549375554.525
2053399.0,1549375554.567
2056374.0,1549375554.605
2055449.0,1549375554.646
2050656.0,1549375554.687
2046968.0,1549375554.726
2044068.0,1549375554.767
2041696.0,1549375554.807
2039760.0,1549375554.846
2039692.0,1549375554.886
2040079.0,1549375554.927
2039924.0,1549375554.967
2040622.0,1549375555.006
2041373.0,1549375555.047
2043484.0,1549375555.087
2045352.0,1549375555.127
2047890.0,1549375555.168
2050189.0,1549375555.207
2053076.0,1549375555.247
2055366.0,1549375555.288
2058255.0,1549375555.327
2061241.0,1549375555.368
2064354.0,1549375555.408
2064584.0,1549375555.447
2059950.0,1549375555.487
2055348.0,1549375555.529
2051331.0,1549375555.568
2047214.0,1549375555.608
2043354.0,1549375555.649
2041070.0,1549375555.688
2040923.0,1549375555.728
2040696.0,1549375555.77
2040182.0,1549375555.808
2040343.0,1549375555.848
2041413.0,1549375555.889
2044874.0,1549375555.969
2043087.0,1549375555.929
2047122.0,1549375556.01
2049289.0,1549375556.049
2051817.0,1549375556.089
2054333.0,1549375556.13
2059563.0,1549375556.209
2057005.0,1549375556.17
2054497.0,1549375556.289
2059456.0,1549375556.25
2044879.0,1549375556.371
2049289.0,1549375556.329
2040849.0,1549375556.41
2037084.0,1549375556.45
2034944.0,1549375556.491
2034524.0,1549375556.53
2033810.0,1549375556.571
2033338.0,1549375556.611
2033364.0,1549375556.65
2034111.0,1549375556.69
2035526.0,1549375556.732
2037413.0,1549375556.771
2039459.0,1549375556.811
2042156.0,1549375556.852
2046467.0,1549375556.891
2051601.0,1549375556.931
2056215.0,1549375556.973
2059721.0,1549375557.011
2062796.0,1549375557.051
2062628.0,1549375557.092
2057670.0,1549375557.131
2052988.0,1549375557.172
2049778.0,1549375557.213
2046727.0,1549375557.252
2043547.0,1549375557.292
2042403.0,1549375557.333
2041779.0,1549375557.373
2041474.0,1549375557.412
2041078.0,1549375557.453
2041335.0,1549375557.492
2042336.0,1549375557.532
2044349.0,1549375557.574
2045932.0,1549375557.613
2048047.0,1549375557.653
2050419.0,1549375557.694
2052791.0,1549375557.733
2055312.0,1549375557.774
2057934.0,1549375557.814
2061153.0,1549375557.853
2063944.0,1549375557.894
2067231.0,1549375557.935
2067921.0,1549375557.974
2063282.0,1549375558.014
2058231.0,1549375558.055
2054449.0,1549375558.094
2051385.0,1549375558.134
2048207.0,1549375558.176
2046917.0,1549375558.214
2046881.0,1549375558.255
2047145.0,1549375558.296
2046968.0,1549375558.335
2046919.0,1549375558.375
2048468.0,1549375558.416
2049988.0,1549375558.455
2052039.0,1549375558.495
2054113.0,1549375558.536
2056456.0,1549375558.576
2058898.0,1549375558.616
2061628.0,1549375558.657
2064106.0,1549375558.696
2067180.0,1549375558.736
2068573.0,1549375558.778
2065125.0,1549375558.816
2060179.0,1549375558.856
2057187.0,1549375558.897
2055435.0,1549375558.937
2053602.0,1549375558.977
2053292.0,1549375559.018
2053382.0,1549375559.057
2052832.0,1549375559.097
2053005.0,1549375559.138
2054476.0,1549375559.178
2057200.0,1549375559.217
2060594.0,1549375559.258
2064645.0,1549375559.298
2068460.0,1549375559.338
2072207.0,1549375559.379
2075232.0,1549375559.418
2078438.0,1549375559.458
2081156.0,1549375559.499
2082458.0,1549375559.538
2078510.0,1549375559.579
2072317.0,1549375559.62
2067638.0,1549375559.659
2063772.0,1549375559.699
2059835.0,1549375559.74
2057473.0,1549375559.78
2056979.0,1549375559.819
2056901.0,1549375559.86
2056631.0,1549375559.899
2056894.0,1549375559.94
2057601.0,1549375559.981
2058402.0,1549375560.02
2059635.0,1549375560.06
2061151.0,1549375560.101
2062684.0,1549375560.14
2064491.0,1549375560.181
2066424.0,1549375560.221
2068854.0,1549375560.261
2070449.0,1549375560.301
2066881.0,1549375560.342
2060157.0,1549375560.382
2054059.0,1549375560.421
2049304.0,1549375560.462
2044194.0,1549375560.501
2039931.0,1549375560.542
2037980.0,1549375560.583
2036588.0,1549375560.622
2035428.0,1549375560.662
2034225.0,1549375560.703
2033919.0,1549375560.742
2034516.0,1549375560.783
2035643.0,1549375560.823
2037647.0,1549375560.863
2039542.0,1549375560.903
2041270.0,1549375560.944
2043162.0,1549375560.983
2045643.0,1549375561.023
2048163.0,1549375561.064
2050136.0,1549375561.103
2046883.0,1549375561.143
2039954.0,1549375561.185
2034052.0,1549375561.223
2028892.0,1549375561.263
2023862.0,1549375561.304
2018971.0,1549375561.343
2016603.0,1549375561.384
2015599.0,1549375561.425
2014354.0,1549375561.464
2013595.0,1549375561.504
2013436.0,1549375561.545
2014179.0,1549375561.585
