bvp,time
-32.56,1651396913.234375
-37.58,1651396913.25
-43.56,1651396913.265625
-46.3,1651396913.28125
-42.35,1651396913.296875
-30.27,1651396913.3125
-11.28,1651396913.328125
11.03,1651396913.34375
32.0,1651396913.359375
47.62,1651396913.375
56.3,1651396913.390625
60.0,1651396913.40625
63.68,1651396913.421875
73.38,1651396913.4375
93.43,1651396913.453125
124.04,1651396913.46875
160.88,1651396913.484375
196.69,1651396913.5
224.42,1651396913.515625
239.87,1651396913.53125
242.74,1651396913.546875
235.42,1651396913.5625
220.78,1651396913.578125
200.39,1651396913.59375
174.33,1651396913.609375
142.59,1651396913.625
106.74,1651396913.640625
70.68,1651396913.65625
39.59,1651396913.671875
17.89,1651396913.6875
7.06,1651396913.703125
4.97,1651396913.71875
6.95,1651396913.734375
7.84,1651396913.75
4.21,1651396913.765625
-4.64,1651396913.78125
-16.92,1651396913.796875
-29.71,1651396913.8125
-40.5,1651396913.828125
-48.18,1651396913.84375
-53.2,1651396913.859375
-56.8,1651396913.875
-60.02,1651396913.890625
-63.11,1651396913.90625
-65.58,1651396913.921875
-66.59,1651396913.9375
-65.47,1651396913.953125
-62.18,1651396913.96875
-57.15,1651396913.984375
-51.12,1651396914.0
-44.77,1651396914.015625
-38.57,1651396914.03125
-32.63,1651396914.046875
-26.68,1651396914.0625
-20.14,1651396914.078125
-12.29,1651396914.09375
-2.48,1651396914.109375
9.52,1651396914.125
23.38,1651396914.140625
38.36,1651396914.15625
53.42,1651396914.171875
67.47,1651396914.1875
79.48,1651396914.203125
88.57,1651396914.21875
94.18,1651396914.234375
96.34,1651396914.25
95.88,1651396914.265625
94.55,1651396914.28125
94.71,1651396914.296875
98.6,1651396914.3125
107.59,1651396914.328125
121.64,1651396914.34375
139.21,1651396914.359375
157.55,1651396914.375
173.49,1651396914.390625
184.18,1651396914.40625
187.71,1651396914.421875
183.42,1651396914.4375
171.83,1651396914.453125
154.28,1651396914.46875
132.46,1651396914.484375
107.89,1651396914.5
81.67,1651396914.515625
54.56,1651396914.53125
27.27,1651396914.546875
0.7,1651396914.5625
-24.03,1651396914.578125
-45.85,1651396914.59375
-64.1,1651396914.609375
-79.02,1651396914.625
-91.87,1651396914.640625
-104.62,1651396914.65625
-119.23,1651396914.671875
-136.8,1651396914.6875
-156.9,1651396914.703125
-177.5,1651396914.71875
-195.61,1651396914.734375
-208.38,1651396914.75
-214.0,1651396914.765625
-212.38,1651396914.78125
-204.7,1651396914.796875
-192.96,1651396914.8125
-179.35,1651396914.828125
-166.05,1651396914.84375
-155.14,1651396914.859375
-148.52,1651396914.875
-147.46,1651396914.890625
-152.01,1651396914.90625
-160.63,1651396914.921875
-170.25,1651396914.9375
-177.17,1651396914.953125
-178.16,1651396914.96875
-171.41,1651396914.984375
-156.9,1651396915.0
-136.2,1651396915.015625
-111.77,1651396915.03125
-86.26,1651396915.046875
-62.02,1651396915.0625
-40.65,1651396915.078125
-22.91,1651396915.09375
-8.68,1651396915.109375
2.73,1651396915.125
12.32,1651396915.140625
20.82,1651396915.15625
28.54,1651396915.171875
35.43,1651396915.1875
41.21,1651396915.203125
45.69,1651396915.21875
48.93,1651396915.234375
51.16,1651396915.25
52.71,1651396915.265625
53.86,1651396915.28125
54.84,1651396915.296875
55.84,1651396915.3125
57.02,1651396915.328125
58.49,1651396915.34375
60.21,1651396915.359375
61.89,1651396915.375
63.09,1651396915.390625
63.33,1651396915.40625
62.22,1651396915.421875
59.77,1651396915.4375
56.22,1651396915.453125
52.1,1651396915.46875
47.88,1651396915.484375
43.93,1651396915.5
40.33,1651396915.515625
36.96,1651396915.53125
33.62,1651396915.546875
30.14,1651396915.5625
26.46,1651396915.578125
22.73,1651396915.59375
19.2,1651396915.609375
16.06,1651396915.625
13.3,1651396915.640625
10.65,1651396915.65625
7.7,1651396915.671875
4.0,1651396915.6875
-0.69,1651396915.703125
-6.27,1651396915.71875
-12.34,1651396915.734375
-18.34,1651396915.75
-23.88,1651396915.765625
-28.8,1651396915.78125
-33.25,1651396915.796875
-37.6,1651396915.8125
-42.36,1651396915.828125
-48.02,1651396915.84375
-54.99,1651396915.859375
-63.35,1651396915.875
-72.65,1651396915.890625
-81.76,1651396915.90625
-88.91,1651396915.921875
-92.1,1651396915.9375
-89.69,1651396915.953125
-81.02,1651396915.96875
-66.8,1651396915.984375
-48.91,1651396916.0
-29.83,1651396916.015625
-11.92,1651396916.03125
3.25,1651396916.046875
15.11,1651396916.0625
23.92,1651396916.078125
30.35,1651396916.09375
35.15,1651396916.109375
38.87,1651396916.125
41.83,1651396916.140625
44.16,1651396916.15625
46.0,1651396916.171875
47.49,1651396916.1875
48.79,1651396916.203125
50.05,1651396916.21875
51.31,1651396916.234375
52.54,1651396916.25
53.63,1651396916.265625
54.51,1651396916.28125
55.2,1651396916.296875
55.82,1651396916.3125
56.49,1651396916.328125
57.24,1651396916.34375
57.87,1651396916.359375
58.06,1651396916.375
57.45,1651396916.390625
55.77,1651396916.40625
53.01,1651396916.421875
49.43,1651396916.4375
45.43,1651396916.453125
41.49,1651396916.46875
37.97,1651396916.484375
35.0,1651396916.5
32.55,1651396916.515625
30.32,1651396916.53125
28.06,1651396916.546875
25.54,1651396916.5625
22.87,1651396916.578125
20.29,1651396916.59375
18.11,1651396916.609375
16.47,1651396916.625
15.28,1651396916.640625
14.13,1651396916.65625
12.58,1651396916.671875
10.37,1651396916.6875
7.54,1651396916.703125
4.39,1651396916.71875
1.31,1651396916.734375
-1.51,1651396916.75
-4.21,1651396916.765625
-7.13,1651396916.78125
-10.61,1651396916.796875
-14.85,1651396916.8125
-19.73,1651396916.828125
-24.92,1651396916.84375
-30.01,1651396916.859375
-34.75,1651396916.875
-39.12,1651396916.890625
-43.26,1651396916.90625
-47.5,1651396916.921875
-52.25,1651396916.9375
-57.94,1651396916.953125
-64.95,1651396916.96875
-73.4,1651396916.984375
-82.83,1651396917.0
-92.0,1651396917.015625
-98.91,1651396917.03125
-101.32,1651396917.046875
-97.5,1651396917.0625
-86.99,1651396917.078125
-70.89,1651396917.09375
-51.59,1651396917.109375
-31.98,1651396917.125
-14.45,1651396917.140625
-0.31,1651396917.15625
10.26,1651396917.171875
17.93,1651396917.1875
23.62,1651396917.203125
28.02,1651396917.21875
31.5,1651396917.234375
34.15,1651396917.25
36.03,1651396917.265625
37.25,1651396917.28125
38.01,1651396917.296875
38.49,1651396917.3125
38.85,1651396917.328125
39.11,1651396917.34375
39.28,1651396917.359375
39.36,1651396917.375
39.45,1651396917.390625
39.69,1651396917.40625
40.34,1651396917.421875
41.54,1651396917.4375
43.25,1651396917.453125
45.22,1651396917.46875
46.97,1651396917.484375
48.02,1651396917.5
48.01,1651396917.515625
46.85,1651396917.53125
44.7,1651396917.546875
41.99,1651396917.5625
39.2,1651396917.578125
36.7,1651396917.59375
34.66,1651396917.609375
33.01,1651396917.625
31.44,1651396917.640625
29.57,1651396917.65625
27.07,1651396917.671875
23.81,1651396917.6875
19.89,1651396917.703125
15.63,1651396917.71875
11.44,1651396917.734375
7.67,1651396917.75
4.4,1651396917.765625
1.42,1651396917.78125
-1.64,1651396917.796875
-5.23,1651396917.8125
-9.54,1651396917.828125
-14.43,1651396917.84375
-19.51,1651396917.859375
-24.26,1651396917.875
-28.29,1651396917.890625
-31.48,1651396917.90625
-34.03,1651396917.921875
-36.38,1651396917.9375
-39.01,1651396917.953125
-42.44,1651396917.96875
-47.13,1651396917.984375
-53.28,1651396918.0
-60.69,1651396918.015625
-68.44,1651396918.03125
-74.95,1651396918.046875
-78.26,1651396918.0625
-76.66,1651396918.078125
-69.34,1651396918.09375
-56.85,1651396918.109375
-40.88,1651396918.125
-23.79,1651396918.140625
-7.81,1651396918.15625
5.57,1651396918.171875
15.77,1651396918.1875
23.04,1651396918.203125
27.99,1651396918.21875
31.17,1651396918.234375
32.89,1651396918.25
33.32,1651396918.265625
32.54,1651396918.28125
30.85,1651396918.296875
28.74,1651396918.3125
26.72,1651396918.328125
25.23,1651396918.34375
24.4,1651396918.359375
24.16,1651396918.375
24.22,1651396918.390625
24.38,1651396918.40625
24.61,1651396918.421875
24.99,1651396918.4375
25.63,1651396918.453125
26.56,1651396918.46875
27.63,1651396918.484375
28.59,1651396918.5
29.14,1651396918.515625
28.97,1651396918.53125
27.84,1651396918.546875
25.63,1651396918.5625
22.4,1651396918.578125
18.44,1651396918.59375
14.13,1651396918.609375
9.92,1651396918.625
6.0,1651396918.640625
2.34,1651396918.65625
-1.41,1651396918.671875
-5.72,1651396918.6875
-10.97,1651396918.703125
-17.3,1651396918.71875
-24.48,1651396918.734375
-32.03,1651396918.75
-39.32,1651396918.765625
-45.84,1651396918.78125
-51.27,1651396918.796875
-55.66,1651396918.8125
-59.33,1651396918.828125
-62.84,1651396918.84375
-66.89,1651396918.859375
-72.06,1651396918.875
-78.6,1651396918.890625
-86.16,1651396918.90625
-93.62,1651396918.921875
-99.26,1651396918.9375
-101.14,1651396918.953125
-97.67,1651396918.96875
-88.22,1651396918.984375
-73.35,1651396919.0
-54.77,1651396919.015625
-34.74,1651396919.03125
-15.51,1651396919.046875
1.27,1651396919.0625
14.76,1651396919.078125
24.96,1651396919.09375
32.4,1651396919.109375
37.89,1651396919.125
42.11,1651396919.140625
45.59,1651396919.15625
48.57,1651396919.171875
51.18,1651396919.1875
53.47,1651396919.203125
55.53,1651396919.21875
57.44,1651396919.234375
59.23,1651396919.25
60.73,1651396919.265625
61.74,1651396919.28125
62.07,1651396919.296875
61.82,1651396919.3125
61.37,1651396919.328125
61.24,1651396919.34375
61.88,1651396919.359375
63.32,1651396919.375
65.05,1651396919.390625
66.15,1651396919.40625
65.65,1651396919.421875
62.99,1651396919.4375
58.23,1651396919.453125
52.09,1651396919.46875
45.63,1651396919.484375
39.82,1651396919.5
35.15,1651396919.515625
31.47,1651396919.53125
28.2,1651396919.546875
24.6,1651396919.5625
20.09,1651396919.578125
14.54,1651396919.59375
8.28,1651396919.609375
1.94,1651396919.625
-3.87,1651396919.640625
-8.72,1651396919.65625
-12.6,1651396919.671875
-15.88,1651396919.6875
-19.17,1651396919.703125
-23.23,1651396919.71875
-28.69,1651396919.734375
-35.82,1651396919.75
-44.34,1651396919.765625
-53.27,1651396919.78125
-60.96,1651396919.796875
-65.49,1651396919.8125
-65.14,1651396919.828125
-59.04,1651396919.84375
-47.6,1651396919.859375
-32.43,1651396919.875
-15.82,1651396919.890625
-0.01,1651396919.90625
13.44,1651396919.921875
23.95,1651396919.9375
31.79,1651396919.953125
37.62,1651396919.96875
42.15,1651396919.984375
45.79,1651396920.0
48.77,1651396920.015625
51.1,1651396920.03125
52.77,1651396920.046875
53.71,1651396920.0625
53.88,1651396920.078125
53.17,1651396920.09375
51.49,1651396920.109375
48.83,1651396920.125
45.26,1651396920.140625
41.06,1651396920.15625
36.66,1651396920.171875
32.49,1651396920.1875
28.97,1651396920.203125
26.23,1651396920.21875
24.07,1651396920.234375
22.04,1651396920.25
19.63,1651396920.265625
16.44,1651396920.28125
12.46,1651396920.296875
8.0,1651396920.3125
3.57,1651396920.328125
-0.41,1651396920.34375
-3.69,1651396920.359375
-6.38,1651396920.375
-8.82,1651396920.390625
-11.34,1651396920.40625
-14.15,1651396920.421875
-17.22,1651396920.4375
-20.29,1651396920.453125
-23.01,1651396920.46875
-25.12,1651396920.484375
-26.53,1651396920.5
-27.38,1651396920.515625
-28.03,1651396920.53125
-28.94,1651396920.546875
-30.54,1651396920.5625
-32.97,1651396920.578125
-35.88,1651396920.59375
-38.29,1651396920.609375
-38.73,1651396920.625
-35.57,1651396920.640625
-27.59,1651396920.65625
-14.5,1651396920.671875
2.85,1651396920.6875
22.66,1651396920.703125
42.76,1651396920.71875
61.18,1651396920.734375
76.61,1651396920.75
88.5,1651396920.765625
96.85,1651396920.78125
101.92,1651396920.796875
103.99,1651396920.8125
103.31,1651396920.828125
100.2,1651396920.84375
95.11,1651396920.859375
88.65,1651396920.875
81.5,1651396920.890625
74.24,1651396920.90625
67.2,1651396920.921875
60.43,1651396920.9375
53.78,1651396920.953125
47.02,1651396920.96875
40.02,1651396920.984375
32.83,1651396921.0
25.68,1651396921.015625
18.8,1651396921.03125
12.25,1651396921.046875
5.86,1651396921.0625
-0.74,1651396921.078125
-7.96,1651396921.09375
-16.07,1651396921.109375
-25.15,1651396921.125
-35.14,1651396921.140625
-45.81,1651396921.15625
-56.94,1651396921.171875
-68.17,1651396921.1875
-79.04,1651396921.203125
-89.06,1651396921.21875
-97.83,1651396921.234375
-105.26,1651396921.25
-111.64,1651396921.265625
-117.6,1651396921.28125
-123.84,1651396921.296875
-130.83,1651396921.3125
-138.6,1651396921.328125
-146.53,1651396921.34375
-153.42,1651396921.359375
-157.66,1651396921.375
-157.57,1651396921.390625
-151.91,1651396921.40625
-140.26,1651396921.421875
-123.43,1651396921.4375
-103.26,1651396921.453125
-82.29,1651396921.46875
-62.84,1651396921.484375
-46.5,1651396921.5
-33.72,1651396921.515625
-24.05,1651396921.53125
-16.57,1651396921.546875
-10.47,1651396921.5625
-5.33,1651396921.578125
-1.09,1651396921.59375
2.19,1651396921.609375
4.5,1651396921.625
5.98,1651396921.640625
6.88,1651396921.65625
7.39,1651396921.671875
7.55,1651396921.6875
7.26,1651396921.703125
6.34,1651396921.71875
4.58,1651396921.734375
2.03,1651396921.75
-1.05,1651396921.765625
-4.1,1651396921.78125
-6.57,1651396921.796875
-8.0,1651396921.8125
-8.3,1651396921.828125
-7.85,1651396921.84375
-7.32,1651396921.859375
-7.51,1651396921.875
-9.1,1651396921.890625
-12.37,1651396921.90625
-17.1,1651396921.921875
-22.53,1651396921.9375
-27.59,1651396921.953125
-31.15,1651396921.96875
-32.42,1651396921.984375
-31.21,1651396922.0
-28.12,1651396922.015625
-24.34,1651396922.03125
-21.32,1651396922.046875
-20.16,1651396922.0625
-21.19,1651396922.078125
-23.88,1651396922.09375
-27.12,1651396922.109375
-29.84,1651396922.125
-31.52,1651396922.140625
-32.51,1651396922.15625
-33.88,1651396922.171875
-37.03,1651396922.1875
-43.18,1651396922.203125
-52.82,1651396922.21875
-65.4,1651396922.234375
-79.0,1651396922.25
-90.51,1651396922.265625
-96.07,1651396922.28125
-92.17,1651396922.296875
-76.86,1651396922.3125
-50.71,1651396922.328125
-16.88,1651396922.34375
19.6,1651396922.359375
53.57,1651396922.375
81.14,1651396922.390625
100.72,1651396922.40625
112.89,1651396922.421875
119.53,1651396922.4375
122.66,1651396922.453125
123.63,1651396922.46875
122.88,1651396922.484375
120.3,1651396922.5
115.65,1651396922.515625
109.09,1651396922.53125
101.14,1651396922.546875
92.39,1651396922.5625
83.38,1651396922.578125
74.36,1651396922.59375
65.43,1651396922.609375
56.79,1651396922.625
48.96,1651396922.640625
42.64,1651396922.65625
38.49,1651396922.671875
36.67,1651396922.6875
36.67,1651396922.703125
37.37,1651396922.71875
37.54,1651396922.734375
36.29,1651396922.75
33.45,1651396922.765625
29.41,1651396922.78125
24.84,1651396922.796875
20.36,1651396922.8125
16.24,1651396922.828125
12.51,1651396922.84375
9.09,1651396922.859375
5.87,1651396922.875
2.89,1651396922.890625
0.17,1651396922.90625
-2.24,1651396922.921875
-4.38,1651396922.9375
-6.29,1651396922.953125
-7.99,1651396922.96875
-9.47,1651396922.984375
-10.72,1651396923.0
-11.87,1651396923.015625
-13.13,1651396923.03125
-14.65,1651396923.046875
-16.61,1651396923.0625
-19.07,1651396923.078125
-22.0,1651396923.09375
-25.48,1651396923.109375
-29.74,1651396923.125
-35.11,1651396923.140625
-41.83,1651396923.15625
-49.72,1651396923.171875
-57.87,1651396923.1875
-64.74,1651396923.203125
-68.46,1651396923.21875
-67.42,1651396923.234375
-60.99,1651396923.25
-49.76,1651396923.265625
-35.41,1651396923.28125
-20.27,1651396923.296875
-6.59,1651396923.3125
4.22,1651396923.328125
11.72,1651396923.34375
16.47,1651396923.359375
19.53,1651396923.375
22.01,1651396923.390625
24.67,1651396923.40625
27.81,1651396923.421875
31.3,1651396923.4375
34.77,1651396923.453125
37.8,1651396923.46875
39.99,1651396923.484375
41.06,1651396923.5
40.91,1651396923.515625
39.58,1651396923.53125
37.37,1651396923.546875
34.78,1651396923.5625
32.39,1651396923.578125
30.7,1651396923.59375
29.94,1651396923.609375
29.95,1651396923.625
30.28,1651396923.640625
30.4,1651396923.65625
29.82,1651396923.671875
28.4,1651396923.6875
26.24,1651396923.703125
23.68,1651396923.71875
21.1,1651396923.734375
18.81,1651396923.75
16.91,1651396923.765625
15.3,1651396923.78125
13.76,1651396923.796875
11.98,1651396923.8125
9.73,1651396923.828125
6.94,1651396923.84375
3.75,1651396923.859375
0.45,1651396923.875
-2.67,1651396923.890625
-5.45,1651396923.90625
-7.95,1651396923.921875
-10.51,1651396923.9375
-13.6,1651396923.953125
-17.67,1651396923.96875
-22.87,1651396923.984375
-28.91,1651396924.0
-34.89,1651396924.015625
-39.47,1651396924.03125
-41.21,1651396924.046875
-39.1,1651396924.0625
-32.94,1651396924.078125
-23.57,1651396924.09375
-12.56,1651396924.109375
-1.72,1651396924.125
7.48,1651396924.140625
14.36,1651396924.15625
18.98,1651396924.171875
21.83,1651396924.1875
23.49,1651396924.203125
24.29,1651396924.21875
24.36,1651396924.234375
23.7,1651396924.25
22.51,1651396924.265625
21.13,1651396924.28125
19.96,1651396924.296875
19.29,1651396924.3125
19.13,1651396924.328125
19.23,1651396924.34375
19.26,1651396924.359375
18.95,1651396924.375
18.26,1651396924.390625
17.35,1651396924.40625
16.47,1651396924.421875
15.75,1651396924.4375
15.2,1651396924.453125
14.6,1651396924.46875
13.67,1651396924.484375
12.19,1651396924.5
10.09,1651396924.515625
7.44,1651396924.53125
4.51,1651396924.546875
1.64,1651396924.5625
-0.89,1651396924.578125
-2.86,1651396924.59375
-4.27,1651396924.609375
-5.32,1651396924.625
-6.33,1651396924.640625
-7.63,1651396924.65625
-9.44,1651396924.671875
-11.79,1651396924.6875
-14.51,1651396924.703125
-17.3,1651396924.71875
-19.86,1651396924.734375
-21.99,1651396924.75
-23.69,1651396924.765625
-25.13,1651396924.78125
-26.57,1651396924.796875
-28.37,1651396924.8125
-30.88,1651396924.828125
-34.35,1651396924.84375
-38.79,1651396924.859375
-43.73,1651396924.875
-48.19,1651396924.890625
-50.82,1651396924.90625
-50.27,1651396924.921875
-45.73,1651396924.9375
-37.25,1651396924.953125
-25.85,1651396924.96875
-13.17,1651396924.984375
-1.01,1651396925.0
9.21,1651396925.015625
16.83,1651396925.03125
21.85,1651396925.046875
24.79,1651396925.0625
26.32,1651396925.078125
27.0,1651396925.09375
27.2,1651396925.109375
27.09,1651396925.125
26.71,1651396925.140625
26.08,1651396925.15625
25.27,1651396925.171875
24.38,1651396925.1875
23.53,1651396925.203125
22.8,1651396925.21875
22.24,1651396925.234375
21.84,1651396925.25
21.6,1651396925.265625
21.54,1651396925.28125
21.62,1651396925.296875
21.77,1651396925.3125
21.86,1651396925.328125
21.69,1651396925.34375
21.15,1651396925.359375
20.18,1651396925.375
18.83,1651396925.390625
17.13,1651396925.40625
15.14,1651396925.421875
12.84,1651396925.4375
10.32,1651396925.453125
7.72,1651396925.46875
5.29,1651396925.484375
3.31,1651396925.5
1.89,1651396925.515625
0.96,1651396925.53125
0.18,1651396925.546875
-0.74,1651396925.5625
-2.13,1651396925.578125
-3.99,1651396925.59375
-6.25,1651396925.609375
-8.67,1651396925.625
-11.09,1651396925.640625
-13.37,1651396925.65625
-15.51,1651396925.671875
-17.57,1651396925.6875
-19.62,1651396925.703125
-21.82,1651396925.71875
-24.31,1651396925.734375
-27.27,1651396925.75
-30.86,1651396925.765625
-35.12,1651396925.78125
-39.84,1651396925.796875
-44.41,1651396925.8125
-47.84,1651396925.828125
-48.9,1651396925.84375
-46.55,1651396925.859375
-40.3,1651396925.875
-30.55,1651396925.890625
-18.56,1651396925.90625
-6.09,1651396925.921875
5.2,1651396925.9375
14.19,1651396925.953125
20.59,1651396925.96875
24.74,1651396925.984375
27.3,1651396926.0
28.79,1651396926.015625
29.48,1651396926.03125
29.38,1651396926.046875
28.5,1651396926.0625
27.02,1651396926.078125
25.33,1651396926.09375
23.89,1651396926.109375
23.08,1651396926.125
22.95,1651396926.140625
23.29,1651396926.15625
23.74,1651396926.171875
24.0,1651396926.1875
23.98,1651396926.203125
23.85,1651396926.21875
23.83,1651396926.234375
24.09,1651396926.25
24.61,1651396926.265625
25.13,1651396926.28125
25.26,1651396926.296875
24.65,1651396926.3125
23.11,1651396926.328125
20.71,1651396926.34375
17.76,1651396926.359375
14.7,1651396926.375
11.98,1651396926.390625
9.88,1651396926.40625
8.39,1651396926.421875
7.29,1651396926.4375
6.17,1651396926.453125
4.72,1651396926.46875
2.79,1651396926.484375
0.49,1651396926.5
-1.89,1651396926.515625
-4.1,1651396926.53125
-6.0,1651396926.546875
-7.72,1651396926.5625
-9.47,1651396926.578125
-11.58,1651396926.59375
-14.33,1651396926.609375
-17.89,1651396926.625
-22.27,1651396926.640625
-27.28,1651396926.65625
-32.33,1651396926.671875
-36.5,1651396926.6875
-38.61,1651396926.703125
-37.44,1651396926.71875
-32.2,1651396926.734375
-22.85,1651396926.75
-10.16,1651396926.765625
4.38,1651396926.78125
18.96,1651396926.796875
31.98,1651396926.8125
42.35,1651396926.828125
49.59,1651396926.84375
53.79,1651396926.859375
55.19,1651396926.875
54.12,1651396926.890625
50.94,1651396926.90625
46.07,1651396926.921875
40.15,1651396926.9375
33.92,1651396926.953125
28.01,1651396926.96875
22.62,1651396926.984375
17.42,1651396927.0
11.68,1651396927.015625
4.7,1651396927.03125
-3.85,1651396927.046875
-13.63,1651396927.0625
-23.7,1651396927.078125
-32.86,1651396927.09375
-40.05,1651396927.109375
-44.74,1651396927.125
-47.0,1651396927.140625
-47.46,1651396927.15625
-47.03,1651396927.171875
-46.65,1651396927.1875
-47.05,1651396927.203125
-48.54,1651396927.21875
-51.04,1651396927.234375
-54.06,1651396927.25
-56.92,1651396927.265625
-58.88,1651396927.28125
-59.38,1651396927.296875
-58.1,1651396927.3125
-55.16,1651396927.328125
-51.04,1651396927.34375
-46.41,1651396927.359375
-41.98,1651396927.375
-38.12,1651396927.390625
-34.68,1651396927.40625
-31.1,1651396927.421875
-26.67,1651396927.4375
-21.11,1651396927.453125
-14.97,1651396927.46875
-9.65,1651396927.484375
-6.9,1651396927.5
-8.16,1651396927.515625
-13.83,1651396927.53125
-22.99,1651396927.546875
-33.73,1651396927.5625
-43.73,1651396927.578125
-50.92,1651396927.59375
-53.93,1651396927.609375
-52.21,1651396927.625
-45.98,1651396927.640625
-36.1,1651396927.65625
-23.85,1651396927.671875
-10.74,1651396927.6875
1.77,1651396927.703125
12.55,1651396927.71875
21.07,1651396927.734375
27.3,1651396927.75
31.69,1651396927.765625
34.82,1651396927.78125
37.22,1651396927.796875
39.3,1651396927.8125
41.15,1651396927.828125
42.66,1651396927.84375
43.53,1651396927.859375
43.42,1651396927.875
42.16,1651396927.890625
39.92,1651396927.90625
37.29,1651396927.921875
35.01,1651396927.9375
33.76,1651396927.953125
33.81,1651396927.96875
34.93,1651396927.984375
36.53,1651396928.0
37.9,1651396928.015625
38.55,1651396928.03125
38.16,1651396928.046875
36.62,1651396928.0625
33.89,1651396928.078125
29.93,1651396928.09375
24.71,1651396928.109375
18.36,1651396928.125
11.19,1651396928.140625
3.63,1651396928.15625
-3.84,1651396928.171875
-10.78,1651396928.1875
-16.87,1651396928.203125
-21.93,1651396928.21875
-25.91,1651396928.234375
-28.83,1651396928.25
-30.91,1651396928.265625
-32.49,1651396928.28125
-33.96,1651396928.296875
-35.64,1651396928.3125
-37.69,1651396928.328125
-39.98,1651396928.34375
-42.27,1651396928.359375
-44.38,1651396928.375
-46.32,1651396928.390625
-48.46,1651396928.40625
-51.32,1651396928.421875
-55.4,1651396928.4375
-60.84,1651396928.453125
-67.31,1651396928.46875
-73.91,1651396928.484375
-79.28,1651396928.5
-82.0,1651396928.515625
-80.86,1651396928.53125
-75.25,1651396928.546875
-65.5,1651396928.5625
-52.75,1651396928.578125
-38.66,1651396928.59375
-25.05,1651396928.609375
-13.3,1651396928.625
-4.1,1651396928.640625
2.54,1651396928.65625
7.16,1651396928.671875
10.42,1651396928.6875
12.87,1651396928.703125
14.83,1651396928.71875
16.34,1651396928.734375
17.4,1651396928.75
17.92,1651396928.765625
17.97,1651396928.78125
17.69,1651396928.796875
17.35,1651396928.8125
17.26,1651396928.828125
17.68,1651396928.84375
18.81,1651396928.859375
20.67,1651396928.875
23.14,1651396928.890625
25.97,1651396928.90625
28.82,1651396928.921875
31.32,1651396928.9375
33.08,1651396928.953125
33.73,1651396928.96875
33.08,1651396928.984375
31.16,1651396929.0
28.32,1651396929.015625
25.11,1651396929.03125
22.14,1651396929.046875
19.8,1651396929.0625
18.15,1651396929.078125
16.97,1651396929.09375
15.83,1651396929.109375
14.33,1651396929.125
12.33,1651396929.140625
9.87,1651396929.15625
7.18,1651396929.171875
4.49,1651396929.1875
1.99,1651396929.203125
-0.26,1651396929.21875
-2.26,1651396929.234375
-4.06,1651396929.25
-5.7,1651396929.265625
-7.24,1651396929.28125
-8.76,1651396929.296875
-10.32,1651396929.3125
-11.95,1651396929.328125
-13.62,1651396929.34375
-15.25,1651396929.359375
-16.78,1651396929.375
-18.2,1651396929.390625
-19.67,1651396929.40625
-21.63,1651396929.421875
-24.63,1651396929.4375
-29.16,1651396929.453125
-35.3,1651396929.46875
-42.46,1651396929.484375
-49.39,1651396929.5
-54.36,1651396929.515625
-55.75,1651396929.53125
-52.48,1651396929.546875
-44.55,1651396929.5625
-33.0,1651396929.578125
-19.63,1651396929.59375
-6.32,1651396929.609375
5.41,1651396929.625
14.82,1651396929.640625
21.83,1651396929.65625
26.77,1651396929.671875
30.08,1651396929.6875
32.1,1651396929.703125
33.05,1651396929.71875
33.19,1651396929.734375
32.82,1651396929.75
32.33,1651396929.765625
31.97,1651396929.78125
31.85,1651396929.796875
31.89,1651396929.8125
31.91,1651396929.828125
31.77,1651396929.84375
31.49,1651396929.859375
31.18,1651396929.875
31.01,1651396929.890625
31.03,1651396929.90625
31.21,1651396929.921875
31.46,1651396929.9375
31.54,1651396929.953125
31.27,1651396929.96875
30.4,1651396929.984375
28.85,1651396930.0
26.63,1651396930.015625
23.98,1651396930.03125
21.24,1651396930.046875
18.83,1651396930.0625
17.0,1651396930.078125
15.85,1651396930.09375
15.21,1651396930.109375
14.81,1651396930.125
14.33,1651396930.140625
13.52,1651396930.15625
12.25,1651396930.171875
10.52,1651396930.1875
8.45,1651396930.203125
6.22,1651396930.21875
3.95,1651396930.234375
1.66,1651396930.25
-0.75,1651396930.265625
-3.48,1651396930.28125
-6.71,1651396930.296875
-10.43,1651396930.3125
-14.44,1651396930.328125
-18.4,1651396930.34375
-21.89,1651396930.359375
-24.76,1651396930.375
-27.0,1651396930.390625
-28.97,1651396930.40625
-31.19,1651396930.421875
-34.28,1651396930.4375
-38.69,1651396930.453125
-44.6,1651396930.46875
-51.54,1651396930.484375
-58.31,1651396930.5
-63.23,1651396930.515625
-64.52,1651396930.53125
-60.95,1651396930.546875
-52.43,1651396930.5625
-40.07,1651396930.578125
-25.86,1651396930.59375
-11.99,1651396930.609375
-0.09,1651396930.625
9.11,1651396930.640625
15.72,1651396930.65625
20.36,1651396930.671875
23.68,1651396930.6875
26.04,1651396930.703125
27.6,1651396930.71875
28.38,1651396930.734375
28.49,1651396930.75
28.2,1651396930.765625
27.82,1651396930.78125
27.51,1651396930.796875
27.3,1651396930.8125
27.04,1651396930.828125
26.62,1651396930.84375
26.07,1651396930.859375
25.63,1651396930.875
25.62,1651396930.890625
26.25,1651396930.90625
27.49,1651396930.921875
28.91,1651396930.9375
30.0,1651396930.953125
30.26,1651396930.96875
29.52,1651396930.984375
27.98,1651396931.0
26.05,1651396931.015625
24.11,1651396931.03125
22.46,1651396931.046875
21.16,1651396931.0625
20.12,1651396931.078125
19.26,1651396931.09375
18.5,1651396931.109375
17.83,1651396931.125
17.27,1651396931.140625
16.73,1651396931.15625
16.03,1651396931.171875
15.04,1651396931.1875
13.66,1651396931.203125
11.96,1651396931.21875
10.13,1651396931.234375
8.34,1651396931.25
6.6,1651396931.265625
4.72,1651396931.28125
2.36,1651396931.296875
-0.78,1651396931.3125
-4.68,1651396931.328125
-8.99,1651396931.34375
-13.11,1651396931.359375
-16.42,1651396931.375
-18.62,1651396931.390625
-19.87,1651396931.40625
-20.72,1651396931.421875
-21.9,1651396931.4375
-24.11,1651396931.453125
-27.76,1651396931.46875
-32.99,1651396931.484375
-39.46,1651396931.5
-46.38,1651396931.515625
-52.45,1651396931.53125
-56.09,1651396931.546875
-55.82,1651396931.5625
-50.84,1651396931.578125
-41.33,1651396931.59375
-28.55,1651396931.609375
-14.47,1651396931.625
-1.08,1651396931.640625
10.1,1651396931.65625
18.39,1651396931.671875
23.86,1651396931.6875
27.0,1651396931.703125
28.4,1651396931.71875
28.58,1651396931.734375
27.93,1651396931.75
26.79,1651396931.765625
25.52,1651396931.78125
24.39,1651396931.796875
23.65,1651396931.8125
23.33,1651396931.828125
23.39,1651396931.84375
23.71,1651396931.859375
24.16,1651396931.875
24.67,1651396931.890625
25.22,1651396931.90625
25.84,1651396931.921875
26.53,1651396931.9375
27.25,1651396931.953125
27.88,1651396931.96875
28.22,1651396931.984375
28.09,1651396932.0
27.36,1651396932.015625
25.97,1651396932.03125
23.99,1651396932.046875
21.55,1651396932.0625
18.85,1651396932.078125
16.07,1651396932.09375
13.35,1651396932.109375
10.78,1651396932.125
8.4,1651396932.140625
6.21,1651396932.15625
4.11,1651396932.171875
1.95,1651396932.1875
-0.5,1651396932.203125
-3.45,1651396932.21875
-7.0,1651396932.234375
-11.06,1651396932.25
-15.37,1651396932.265625
-19.54,1651396932.28125
-23.22,1651396932.296875
-26.26,1651396932.3125
-28.75,1651396932.328125
-31.07,1651396932.34375
-33.72,1651396932.359375
-37.26,1651396932.375
-42.06,1651396932.390625
-48.1,1651396932.40625
-54.78,1651396932.421875
-60.88,1651396932.4375
-64.83,1651396932.453125
-65.08,1651396932.46875
-60.7,1651396932.484375
-51.75,1651396932.5
-39.32,1651396932.515625
-25.22,1651396932.53125
-11.33,1651396932.546875
0.92,1651396932.5625
10.77,1651396932.578125
18.11,1651396932.59375
23.15,1651396932.609375
26.18,1651396932.625
27.48,1651396932.640625
27.36,1651396932.65625
26.25,1651396932.671875
24.69,1651396932.6875
23.26,1651396932.703125
22.4,1651396932.71875
22.27,1651396932.734375
22.84,1651396932.75
23.93,1651396932.765625
25.33,1651396932.78125
26.86,1651396932.796875
28.38,1651396932.8125
29.73,1651396932.828125
30.8,1651396932.84375
31.47,1651396932.859375
31.6,1651396932.875
31.06,1651396932.890625
29.69,1651396932.90625
27.38,1651396932.921875
24.15,1651396932.9375
20.18,1651396932.953125
15.84,1651396932.96875
11.5,1651396932.984375
7.52,1651396933.0
4.1,1651396933.015625
1.3,1651396933.03125
-1.01,1651396933.046875
-3.04,1651396933.0625
-5.04,1651396933.078125
-7.24,1651396933.09375
-9.82,1651396933.109375
-12.78,1651396933.125
-15.96,1651396933.140625
-19.06,1651396933.15625
-21.81,1651396933.171875
-24.1,1651396933.1875
-26.08,1651396933.203125
-28.18,1651396933.21875
-30.97,1651396933.234375
-35.04,1651396933.25
-40.72,1651396933.265625
-47.97,1651396933.28125
-56.16,1651396933.296875
-64.04,1651396933.3125
-69.94,1651396933.328125
-72.17,1651396933.34375
-69.53,1651396933.359375
-61.82,1651396933.375
-49.9,1651396933.390625
-35.49,1651396933.40625
-20.61,1651396933.421875
-7.04,1651396933.4375
4.12,1651396933.453125
12.59,1651396933.46875
18.67,1651396933.484375
23.01,1651396933.5
26.3,1651396933.515625
28.97,1651396933.53125
31.24,1651396933.546875
33.12,1651396933.5625
34.55,1651396933.578125
35.53,1651396933.59375
36.11,1651396933.609375
36.36,1651396933.625
36.26,1651396933.640625
35.77,1651396933.65625
34.83,1651396933.671875
33.54,1651396933.6875
32.19,1651396933.703125
31.19,1651396933.71875
30.83,1651396933.734375
31.17,1651396933.75
31.88,1651396933.765625
32.48,1651396933.78125
32.52,1651396933.796875
31.83,1651396933.8125
30.49,1651396933.828125
28.69,1651396933.84375
26.62,1651396933.859375
24.23,1651396933.875
21.43,1651396933.890625
18.15,1651396933.90625
14.46,1651396933.921875
10.62,1651396933.9375
6.91,1651396933.953125
3.53,1651396933.96875
0.5,1651396933.984375
-2.33,1651396934.0
-5.25,1651396934.015625
-8.43,1651396934.03125
-11.93,1651396934.046875
-15.63,1651396934.0625
-19.25,1651396934.078125
-22.53,1651396934.09375
-25.28,1651396934.109375
-27.47,1651396934.125
-29.34,1651396934.140625
-31.33,1651396934.15625
-34.02,1651396934.171875
-38.03,1651396934.1875
-43.77,1651396934.203125
-51.12,1651396934.21875
-59.35,1651396934.234375
-66.98,1651396934.25
-72.15,1651396934.265625
-73.15,1651396934.28125
-68.99,1651396934.296875
-59.86,1651396934.3125
-47.06,1651396934.328125
-32.61,1651396934.34375
-18.6,1651396934.359375
-6.56,1651396934.375
2.76,1651396934.390625
9.41,1651396934.40625
13.85,1651396934.421875
16.79,1651396934.4375
18.79,1651396934.453125
20.32,1651396934.46875
21.69,1651396934.484375
23.1,1651396934.5
24.58,1651396934.515625
26.14,1651396934.53125
27.73,1651396934.546875
29.31,1651396934.5625
30.85,1651396934.578125
32.36,1651396934.59375
33.82,1651396934.609375
35.22,1651396934.625
36.52,1651396934.640625
37.63,1651396934.65625
38.52,1651396934.671875
39.1,1651396934.6875
39.3,1651396934.703125
39.02,1651396934.71875
38.14,1651396934.734375
36.56,1651396934.75
34.19,1651396934.765625
31.03,1651396934.78125
27.16,1651396934.796875
22.81,1651396934.8125
18.39,1651396934.828125
14.33,1651396934.84375
10.98,1651396934.859375
8.39,1651396934.875
6.27,1651396934.890625
4.12,1651396934.90625
1.38,1651396934.921875
-2.22,1651396934.9375
-6.56,1651396934.953125
-11.22,1651396934.96875
-15.63,1651396934.984375
-19.36,1651396935.0
-22.36,1651396935.015625
-24.87,1651396935.03125
-27.41,1651396935.046875
-30.46,1651396935.0625
-34.41,1651396935.078125
-39.44,1651396935.09375
-45.46,1651396935.109375
-51.96,1651396935.125
-57.98,1651396935.140625
-62.23,1651396935.15625
-63.34,1651396935.171875
-60.28,1651396935.1875
-52.79,1651396935.203125
-41.46,1651396935.21875
-27.76,1651396935.234375
-13.5,1651396935.25
-0.41,1651396935.265625
10.43,1651396935.28125
18.61,1651396935.296875
24.37,1651396935.3125
28.26,1651396935.328125
30.77,1651396935.34375
32.26,1651396935.359375
32.84,1651396935.375
32.57,1651396935.390625
31.61,1651396935.40625
30.3,1651396935.421875
29.03,1651396935.4375
28.19,1651396935.453125
27.96,1651396935.46875
28.23,1651396935.484375
28.77,1651396935.5
29.34,1651396935.515625
29.8,1651396935.53125
30.03,1651396935.546875
29.86,1651396935.5625
29.12,1651396935.578125
27.58,1651396935.59375
25.16,1651396935.609375
21.9,1651396935.625
18.02,1651396935.640625
13.79,1651396935.65625
9.44,1651396935.671875
5.04,1651396935.6875
0.54,1651396935.703125
-4.09,1651396935.71875
-8.81,1651396935.734375
-13.42,1651396935.75
-17.7,1651396935.765625
-21.44,1651396935.78125
-24.56,1651396935.796875
-27.19,1651396935.8125
-29.61,1651396935.828125
-32.21,1651396935.84375
-35.46,1651396935.859375
-39.82,1651396935.875
-45.54,1651396935.890625
-52.45,1651396935.90625
-59.8,1651396935.921875
-66.23,1651396935.9375
-70.07,1651396935.953125
-69.75,1651396935.96875
-64.4,1651396935.984375
-54.26,1651396936.0
-40.66,1651396936.015625
-25.59,1651396936.03125
-11.12,1651396936.046875
1.3,1651396936.0625
11.05,1651396936.078125
18.32,1651396936.09375
23.73,1651396936.109375
27.88,1651396936.125
31.24,1651396936.140625
33.96,1651396936.15625
36.11,1651396936.171875
37.72,1651396936.1875
38.79,1651396936.203125
39.31,1651396936.21875
39.28,1651396936.234375
38.71,1651396936.25
37.68,1651396936.265625
36.38,1651396936.28125
35.09,1651396936.296875
34.07,1651396936.3125
33.46,1651396936.328125
33.23,1651396936.34375
33.31,1651396936.359375
33.58,1651396936.375
33.89,1651396936.390625
34.05,1651396936.40625
33.78,1651396936.421875
32.7,1651396936.4375
30.56,1651396936.453125
27.32,1651396936.46875
23.26,1651396936.484375
18.95,1651396936.5
15.01,1651396936.515625
11.83,1651396936.53125
9.34,1651396936.546875
7.11,1651396936.5625
4.45,1651396936.578125
0.79,1651396936.59375
-4.05,1651396936.609375
-9.81,1651396936.625
-15.87,1651396936.640625
-21.57,1651396936.65625
-26.43,1651396936.671875
-30.29,1651396936.6875
-33.4,1651396936.703125
-36.33,1651396936.71875
-39.78,1651396936.734375
-44.43,1651396936.75
-50.71,1651396936.765625
-58.54,1651396936.78125
-67.17,1651396936.796875
-75.13,1651396936.8125
-80.5,1651396936.828125
-81.51,1651396936.84375
-77.07,1651396936.859375
-67.25,1651396936.875
-53.3,1651396936.890625
-37.21,1651396936.90625
-21.15,1651396936.921875
-6.83,1651396936.9375
4.8,1651396936.953125
13.63,1651396936.96875
20.09,1651396936.984375
24.81,1651396937.0
28.44,1651396937.015625
31.46,1651396937.03125
34.18,1651396937.046875
36.73,1651396937.0625
39.14,1651396937.078125
41.3,1651396937.09375
43.07,1651396937.109375
44.38,1651396937.125
45.15,1651396937.140625
45.42,1651396937.15625
45.27,1651396937.171875
44.86,1651396937.1875
44.41,1651396937.203125
44.16,1651396937.21875
44.29,1651396937.234375
44.79,1651396937.25
45.44,1651396937.265625
45.85,1651396937.28125
45.58,1651396937.296875
44.37,1651396937.3125
42.17,1651396937.328125
39.19,1651396937.34375
35.8,1651396937.359375
32.37,1651396937.375
29.13,1651396937.390625
26.12,1651396937.40625
23.2,1651396937.421875
20.13,1651396937.4375
16.69,1651396937.453125
12.82,1651396937.46875
8.66,1651396937.484375
4.53,1651396937.5
0.82,1651396937.515625
-2.21,1651396937.53125
-4.56,1651396937.546875
-6.56,1651396937.5625
-8.71,1651396937.578125
-11.46,1651396937.59375
-15.01,1651396937.609375
-19.23,1651396937.625
-23.72,1651396937.640625
-27.99,1651396937.65625
-31.71,1651396937.671875
-34.84,1651396937.6875
-37.61,1651396937.703125
-40.54,1651396937.71875
-44.29,1651396937.734375
-49.45,1651396937.75
-56.27,1651396937.765625
-64.4,1651396937.78125
-72.67,1651396937.796875
-79.3,1651396937.8125
-82.29,1651396937.828125
-80.08,1651396937.84375
-72.19,1651396937.859375
-59.44,1651396937.875
-43.71,1651396937.890625
-27.31,1651396937.90625
-12.28,1651396937.921875
0.14,1651396937.9375
9.64,1651396937.953125
16.56,1651396937.96875
21.59,1651396937.984375
25.48,1651396938.0
28.78,1651396938.015625
31.85,1651396938.03125
34.83,1651396938.046875
37.7,1651396938.0625
40.27,1651396938.078125
42.31,1651396938.09375
43.62,1651396938.109375
44.15,1651396938.125
44.02,1651396938.140625
43.53,1651396938.15625
42.98,1651396938.171875
42.59,1651396938.1875
42.51,1651396938.203125
42.72,1651396938.21875
43.12,1651396938.234375
43.56,1651396938.25
43.86,1651396938.265625
43.84,1651396938.28125
43.4,1651396938.296875
42.53,1651396938.3125
41.29,1651396938.328125
39.81,1651396938.34375
38.24,1651396938.359375
36.62,1651396938.375
34.9,1651396938.390625
32.95,1651396938.40625
30.64,1651396938.421875
27.97,1651396938.4375
25.06,1651396938.453125
22.09,1651396938.46875
19.22,1651396938.484375
16.45,1651396938.5
13.67,1651396938.515625
10.65,1651396938.53125
7.3,1651396938.546875
3.75,1651396938.5625
0.3,1651396938.578125
-2.78,1651396938.59375
-5.33,1651396938.609375
-7.53,1651396938.625
-9.77,1651396938.640625
-12.47,1651396938.65625
-15.85,1651396938.671875
-19.81,1651396938.6875
-23.97,1651396938.703125
-27.85,1651396938.71875
-31.13,1651396938.734375
-33.71,1651396938.75
-35.73,1651396938.765625
-37.46,1651396938.78125
-39.23,1651396938.796875
-41.43,1651396938.8125
-44.49,1651396938.828125
-48.72,1651396938.84375
-54.14,1651396938.859375
-60.08,1651396938.875
-65.2,1651396938.890625
-67.73,1651396938.90625
-66.03,1651396938.921875
-59.32,1651396938.9375
-48.05,1651396938.953125
-33.85,1651396938.96875
-18.96,1651396938.984375
-5.47,1651396939.0
5.4,1651396939.015625
13.35,1651396939.03125
18.91,1651396939.046875
22.88,1651396939.0625
25.93,1651396939.078125
28.39,1651396939.09375
30.3,1651396939.109375
31.6,1651396939.125
32.34,1651396939.140625
32.68,1651396939.15625
32.82,1651396939.171875
32.95,1651396939.1875
33.09,1651396939.203125
33.13,1651396939.21875
32.98,1651396939.234375
32.57,1651396939.25
31.99,1651396939.265625
31.4,1651396939.28125
31.0,1651396939.296875
30.89,1651396939.3125
31.04,1651396939.328125
31.27,1651396939.34375
31.32,1651396939.359375
30.89,1651396939.375
29.78,1651396939.390625
27.99,1651396939.40625
25.7,1651396939.421875
23.26,1651396939.4375
21.07,1651396939.453125
19.38,1651396939.46875
18.19,1651396939.484375
17.23,1651396939.5
16.15,1651396939.515625
14.65,1651396939.53125
12.62,1651396939.546875
10.22,1651396939.5625
7.75,1651396939.578125
5.57,1651396939.59375
3.83,1651396939.609375
2.45,1651396939.625
1.11,1651396939.640625
-0.66,1651396939.65625
-3.25,1651396939.671875
-6.81,1651396939.6875
-11.21,1651396939.703125
-16.09,1651396939.71875
-20.97,1651396939.734375
-25.47,1651396939.75
-29.36,1651396939.765625
-32.66,1651396939.78125
-35.63,1651396939.796875
-38.7,1651396939.8125
-42.43,1651396939.828125
-47.41,1651396939.84375
-53.92,1651396939.859375
-61.66,1651396939.875
-69.5,1651396939.890625
-75.62,1651396939.90625
-77.98,1651396939.921875
-75.06,1651396939.9375
-66.52,1651396939.953125
-53.27,1651396939.96875
-37.33,1651396939.984375
-21.04,1651396940.0
-6.34,1651396940.015625
5.59,1651396940.03125
14.5,1651396940.046875
20.69,1651396940.0625
24.71,1651396940.078125
27.1,1651396940.09375
28.31,1651396940.109375
28.66,1651396940.125
28.52,1651396940.140625
28.2,1651396940.15625
27.97,1651396940.171875
28.03,1651396940.1875
28.44,1651396940.203125
29.19,1651396940.21875
30.19,1651396940.234375
31.33,1651396940.25
32.54,1651396940.265625
33.81,1651396940.28125
35.14,1651396940.296875
36.54,1651396940.3125
37.93,1651396940.328125
39.13,1651396940.34375
39.91,1651396940.359375
40.06,1651396940.375
39.47,1651396940.390625
38.2,1651396940.40625
36.48,1651396940.421875
34.51,1651396940.4375
32.47,1651396940.453125
30.38,1651396940.46875
28.15,1651396940.484375
25.72,1651396940.5
23.09,1651396940.515625
20.4,1651396940.53125
17.82,1651396940.546875
15.43,1651396940.5625
13.15,1651396940.578125
10.78,1651396940.59375
8.17,1651396940.609375
5.27,1651396940.625
2.3,1651396940.640625
-0.39,1651396940.65625
-2.5,1651396940.671875
-4.01,1651396940.6875
-5.19,1651396940.703125
-6.58,1651396940.71875
-8.71,1651396940.734375
-11.86,1651396940.75
-15.95,1651396940.765625
-20.63,1651396940.78125
-25.38,1651396940.796875
-29.77,1651396940.8125
-33.59,1651396940.828125
-36.85,1651396940.84375
-39.83,1651396940.859375
-42.98,1651396940.875
-46.83,1651396940.890625
-51.85,1651396940.90625
-58.26,1651396940.921875
-65.7,1651396940.9375
-73.12,1651396940.953125
-78.9,1651396940.96875
-81.17,1651396940.984375
-78.49,1651396941.0
-70.38,1651396941.015625
-57.56,1651396941.03125
-41.77,1651396941.046875
-25.27,1651396941.0625
-10.14,1651396941.078125
2.24,1651396941.09375
11.38,1651396941.109375
17.54,1651396941.125
21.37,1651396941.140625
23.62,1651396941.15625
24.91,1651396941.171875
25.66,1651396941.1875
26.16,1651396941.203125
26.68,1651396941.21875
27.43,1651396941.234375
28.53,1651396941.25
29.99,1651396941.265625
31.57,1651396941.28125
32.94,1651396941.296875
33.82,1651396941.3125
34.11,1651396941.328125
34.02,1651396941.34375
33.94,1651396941.359375
34.23,1651396941.375
34.95,1651396941.390625
35.82,1651396941.40625
36.34,1651396941.421875
35.9,1651396941.4375
34.21,1651396941.453125
31.32,1651396941.46875
27.65,1651396941.484375
23.83,1651396941.5
20.47,1651396941.515625
17.96,1651396941.53125
16.36,1651396941.546875
15.43,1651396941.5625
14.81,1651396941.578125
14.07,1651396941.59375
12.93,1651396941.609375
11.31,1651396941.625
9.24,1651396941.640625
6.9,1651396941.65625
4.55,1651396941.671875
2.41,1651396941.6875
0.58,1651396941.703125
-1.02,1651396941.71875
-2.67,1651396941.734375
-4.75,1651396941.75
-7.59,1651396941.765625
-11.32,1651396941.78125
-15.77,1651396941.796875
-20.52,1651396941.8125
-25.06,1651396941.828125
-29.03,1651396941.84375
-32.37,1651396941.859375
-35.33,1651396941.875
-38.42,1651396941.890625
-42.24,1651396941.90625
-47.36,1651396941.921875
-54.01,1651396941.9375
-61.99,1651396941.953125
-70.39,1651396941.96875
-77.71,1651396941.984375
-82.08,1651396942.0
-81.84,1651396942.015625
-76.07,1651396942.03125
-64.96,1651396942.046875
-49.85,1651396942.0625
-32.84,1651396942.078125
-16.13,1651396942.09375
-1.55,1651396942.109375
9.85,1651396942.125
17.84,1651396942.140625
22.8,1651396942.15625
25.4,1651396942.171875
26.45,1651396942.1875
26.61,1651396942.203125
26.34,1651396942.21875
25.94,1651396942.234375
25.52,1651396942.25
25.13,1651396942.265625
24.81,1651396942.28125
24.63,1651396942.296875
24.66,1651396942.3125
24.93,1651396942.328125
25.43,1651396942.34375
26.1,1651396942.359375
26.83,1651396942.375
27.56,1651396942.390625
28.23,1651396942.40625
28.74,1651396942.421875
28.99,1651396942.4375
28.76,1651396942.453125
27.82,1651396942.46875
25.91,1651396942.484375
22.94,1651396942.5
19.01,1651396942.515625
14.52,1651396942.53125
9.97,1651396942.546875
5.85,1651396942.5625
2.44,1651396942.578125
-0.33,1651396942.59375
-2.84,1651396942.609375
-5.52,1651396942.625
-8.72,1651396942.640625
-12.48,1651396942.65625
-16.58,1651396942.671875
-20.66,1651396942.6875
-24.38,1651396942.703125
-27.63,1651396942.71875
-30.43,1651396942.734375
-33.05,1651396942.75
-35.78,1651396942.765625
-38.98,1651396942.78125
-42.97,1651396942.796875
-48.05,1651396942.8125
-54.23,1651396942.828125
-61.04,1651396942.84375
-67.39,1651396942.859375
-71.65,1651396942.875
-72.14,1651396942.890625
-67.66,1651396942.90625
-58.02,1651396942.921875
-44.28,1651396942.9375
-28.4,1651396942.953125
-12.59,1651396942.96875
1.31,1651396942.984375
12.3,1651396943.0
20.22,1651396943.015625
25.49,1651396943.03125
28.74,1651396943.046875
30.5,1651396943.0625
31.21,1651396943.078125
31.14,1651396943.09375
30.58,1651396943.109375
29.76,1651396943.125
28.89,1651396943.140625
28.08,1651396943.15625
27.31,1651396943.171875
26.54,1651396943.1875
25.74,1651396943.203125
24.94,1651396943.21875
24.25,1651396943.234375
23.82,1651396943.25
23.75,1651396943.265625
24.04,1651396943.28125
24.59,1651396943.296875
25.15,1651396943.3125
25.46,1651396943.328125
25.34,1651396943.34375
24.69,1651396943.359375
23.55,1651396943.375
22.02,1651396943.390625
20.15,1651396943.40625
17.96,1651396943.421875
15.44,1651396943.4375
12.62,1651396943.453125
9.63,1651396943.46875
6.64,1651396943.484375
3.83,1651396943.5
1.27,1651396943.515625
-1.15,1651396943.53125
-3.7,1651396943.546875
-6.69,1651396943.5625
-10.25,1651396943.578125
-14.36,1651396943.59375
-18.75,1651396943.609375
-23.11,1651396943.625
-27.18,1651396943.640625
-30.8,1651396943.65625
-34.02,1651396943.671875
-37.1,1651396943.6875
-40.43,1651396943.703125
-44.59,1651396943.71875
-50.07,1651396943.734375
-57.04,1651396943.75
-65.01,1651396943.765625
-72.66,1651396943.78125
-78.05,1651396943.796875
-79.19,1651396943.8125
-74.79,1651396943.828125
-64.79,1651396943.84375
-50.47,1651396943.859375
-34.02,1651396943.875
-17.79,1651396943.890625
-3.67,1651396943.90625
7.42,1651396943.921875
15.42,1651396943.9375
20.9,1651396943.953125
24.67,1651396943.96875
27.42,1651396943.984375
29.62,1651396944.0
31.51,1651396944.015625
33.13,1651396944.03125
34.44,1651396944.046875
35.43,1651396944.0625
36.12,1651396944.078125
36.59,1651396944.09375
36.99,1651396944.109375
37.54,1651396944.125
38.38,1651396944.140625
39.67,1651396944.15625
41.49,1651396944.171875
43.82,1651396944.1875
46.59,1651396944.203125
49.57,1651396944.21875
52.42,1651396944.234375
54.75,1651396944.25
56.22,1651396944.265625
56.66,1651396944.28125
56.14,1651396944.296875
54.96,1651396944.3125
53.44,1651396944.328125
51.82,1651396944.34375
50.06,1651396944.359375
47.99,1651396944.375
45.38,1651396944.390625
42.2,1651396944.40625
38.65,1651396944.421875
35.06,1651396944.4375
31.76,1651396944.453125
28.85,1651396944.46875
26.15,1651396944.484375
23.26,1651396944.5
19.82,1651396944.515625
15.58,1651396944.53125
10.55,1651396944.546875
4.96,1651396944.5625
-0.86,1651396944.578125
-6.56,1651396944.59375
-11.92,1651396944.609375
-16.97,1651396944.625
-21.98,1651396944.640625
-27.48,1651396944.65625
-34.05,1651396944.671875
-42.14,1651396944.6875
-51.59,1651396944.703125
-61.52,1651396944.71875
-70.28,1651396944.734375
-75.88,1651396944.75
-76.59,1651396944.765625
-71.56,1651396944.78125
-61.24,1651396944.796875
-47.25,1651396944.8125
-31.93,1651396944.828125
-17.61,1651396944.84375
-5.96,1651396944.859375
2.31,1651396944.875
7.43,1651396944.890625
10.29,1651396944.90625
11.88,1651396944.921875
13.01,1651396944.9375
14.06,1651396944.953125
14.99,1651396944.96875
15.52,1651396944.984375
15.3,1651396945.0
14.17,1651396945.015625
12.16,1651396945.03125
9.55,1651396945.046875
6.74,1651396945.0625
4.19,1651396945.078125
2.28,1651396945.09375
1.28,1651396945.109375
1.38,1651396945.125
2.59,1651396945.140625
4.78,1651396945.15625
7.64,1651396945.171875
10.76,1651396945.1875
13.64,1651396945.203125
15.83,1651396945.21875
17.07,1651396945.234375
17.31,1651396945.25
16.82,1651396945.265625
15.99,1651396945.28125
15.21,1651396945.296875
14.66,1651396945.3125
14.21,1651396945.328125
13.49,1651396945.34375
11.93,1651396945.359375
9.13,1651396945.375
4.87,1651396945.390625
-0.67,1651396945.40625
-7.1,1651396945.421875
-13.87,1651396945.4375
-20.48,1651396945.453125
-26.58,1651396945.46875
-32.09,1651396945.484375
-37.28,1651396945.5
-42.64,1651396945.515625
-48.75,1651396945.53125
-55.98,1651396945.546875
-64.17,1651396945.5625
-72.44,1651396945.578125
-79.24,1651396945.59375
-82.77,1651396945.609375
-81.52,1651396945.625
-74.8,1651396945.640625
-62.99,1651396945.65625
-47.52,1651396945.671875
-30.32,1651396945.6875
-13.4,1651396945.703125
1.71,1651396945.71875
14.14,1651396945.734375
23.65,1651396945.75
30.48,1651396945.765625
35.09,1651396945.78125
37.99,1651396945.796875
39.67,1651396945.8125
40.51,1651396945.828125
40.83,1651396945.84375
40.91,1651396945.859375
40.96,1651396945.875
41.16,1651396945.890625
41.61,1651396945.90625
42.31,1651396945.921875
43.08,1651396945.9375
43.63,1651396945.953125
43.64,1651396945.96875
42.94,1651396945.984375
41.56,1651396946.0
39.75,1651396946.015625
37.81,1651396946.03125
35.89,1651396946.046875
33.95,1651396946.0625
31.76,1651396946.078125
29.07,1651396946.09375
25.74,1651396946.109375
21.8,1651396946.125
17.44,1651396946.140625
12.88,1651396946.15625
8.38,1651396946.171875
4.1,1651396946.1875
0.14,1651396946.203125
-3.53,1651396946.21875
-7.09,1651396946.234375
-10.79,1651396946.25
-14.9,1651396946.265625
-19.5,1651396946.28125
-24.41,1651396946.296875
-29.2,1651396946.3125
-33.43,1651396946.328125
-36.84,1651396946.34375
-39.47,1651396946.359375
-41.78,1651396946.375
-44.39,1651396946.390625
-47.97,1651396946.40625
-53.05,1651396946.421875
-59.94,1651396946.4375
-68.52,1651396946.453125
-78.1,1651396946.46875
-87.27,1651396946.484375
-94.05,1651396946.5
-96.37,1651396946.515625
-92.61,1651396946.53125
-82.38,1651396946.546875
-66.64,1651396946.5625
-47.56,1651396946.578125
-27.76,1651396946.59375
-9.64,1651396946.609375
5.32,1651396946.625
16.7,1651396946.640625
24.97,1651396946.65625
31.02,1651396946.671875
35.75,1651396946.6875
39.79,1651396946.703125
43.41,1651396946.71875
46.62,1651396946.734375
49.36,1651396946.75
51.56,1651396946.765625
53.3,1651396946.78125
54.76,1651396946.796875
56.08,1651396946.8125
57.36,1651396946.828125
58.62,1651396946.84375
59.86,1651396946.859375
61.05,1651396946.875
62.24,1651396946.890625
63.42,1651396946.90625
64.47,1651396946.921875
65.19,1651396946.9375
65.32,1651396946.953125
64.61,1651396946.96875
62.88,1651396946.984375
60.11,1651396947.0
56.38,1651396947.015625
51.88,1651396947.03125
46.96,1651396947.046875
42.0,1651396947.0625
37.36,1651396947.078125
33.28,1651396947.09375
29.78,1651396947.109375
26.71,1651396947.125
23.75,1651396947.140625
20.67,1651396947.15625
17.29,1651396947.171875
13.62,1651396947.1875
9.79,1651396947.203125
5.97,1651396947.21875
2.37,1651396947.234375
-0.9,1651396947.25
-3.86,1651396947.265625
-6.71,1651396947.28125
-9.79,1651396947.296875
-13.48,1651396947.3125
-18.04,1651396947.328125
-23.45,1651396947.34375
-29.41,1651396947.359375
-35.48,1651396947.375
-41.22,1651396947.390625
-46.38,1651396947.40625
-51.04,1651396947.421875
-55.52,1651396947.4375
-60.24,1651396947.453125
-65.68,1651396947.46875
-72.24,1651396947.484375
-80.12,1651396947.5
-89.07,1651396947.515625
-98.22,1651396947.53125
-105.95,1651396947.546875
-110.17,1651396947.5625
-109.01,1651396947.578125
-101.4,1651396947.59375
-87.73,1651396947.609375
-69.74,1651396947.625
-50.04,1651396947.640625
-31.17,1651396947.65625
-14.97,1651396947.671875
-2.18,1651396947.6875
7.31,1651396947.703125
14.09,1651396947.71875
18.87,1651396947.734375
22.17,1651396947.75
24.46,1651396947.765625
26.17,1651396947.78125
27.75,1651396947.796875
29.5,1651396947.8125
31.52,1651396947.828125
33.63,1651396947.84375
35.45,1651396947.859375
36.63,1651396947.875
37.05,1651396947.890625
36.87,1651396947.90625
36.55,1651396947.921875
36.56,1651396947.9375
37.26,1651396947.953125
38.65,1651396947.96875
40.4,1651396947.984375
41.96,1651396948.0
42.82,1651396948.015625
42.69,1651396948.03125
41.55,1651396948.046875
39.68,1651396948.0625
37.4,1651396948.078125
34.98,1651396948.09375
32.53,1651396948.109375
30.03,1651396948.125
27.36,1651396948.140625
24.36,1651396948.15625
20.95,1651396948.171875
17.16,1651396948.1875
13.12,1651396948.203125
9.09,1651396948.21875
5.36,1651396948.234375
2.09,1651396948.25
-0.82,1651396948.265625
-3.67,1651396948.28125
-6.88,1651396948.296875
-10.76,1651396948.3125
-15.28,1651396948.328125
-20.12,1651396948.34375
-24.84,1651396948.359375
-29.01,1651396948.375
-32.5,1651396948.390625
-35.53,1651396948.40625
-38.47,1651396948.421875
-41.88,1651396948.4375
-46.32,1651396948.453125
-52.2,1651396948.46875
-59.54,1651396948.484375
-67.68,1651396948.5
-75.23,1651396948.515625
-80.16,1651396948.53125
-80.42,1651396948.546875
-74.69,1651396948.5625
-63.01,1651396948.578125
-46.86,1651396948.59375
-28.75,1651396948.609375
-11.33,1651396948.625
3.41,1651396948.640625
14.61,1651396948.65625
22.49,1651396948.671875
27.94,1651396948.6875
31.9,1651396948.703125
35.0,1651396948.71875
37.53,1651396948.734375
39.46,1651396948.75
40.8,1651396948.765625
41.65,1651396948.78125
42.23,1651396948.796875
42.66,1651396948.8125
42.99,1651396948.828125
43.1,1651396948.84375
42.82,1651396948.859375
42.14,1651396948.875
41.29,1651396948.890625
40.61,1651396948.90625
40.44,1651396948.921875
40.86,1651396948.9375
41.65,1651396948.953125
42.36,1651396948.96875
42.46,1651396948.984375
41.65,1651396949.0
39.85,1651396949.015625
37.25,1651396949.03125
34.16,1651396949.046875
30.86,1651396949.0625
27.6,1651396949.078125
24.55,1651396949.09375
21.78,1651396949.109375
19.23,1651396949.125
16.79,1651396949.140625
14.2,1651396949.15625
11.2,1651396949.171875
7.61,1651396949.1875
3.42,1651396949.203125
-1.13,1651396949.21875
-5.63,1651396949.234375
-9.74,1651396949.25
-13.31,1651396949.265625
-16.51,1651396949.28125
-19.73,1651396949.296875
-23.42,1651396949.3125
-27.8,1651396949.328125
-32.71,1651396949.34375
-37.71,1651396949.359375
-42.26,1651396949.375
-45.99,1651396949.390625
-48.88,1651396949.40625
-51.27,1651396949.421875
-53.71,1651396949.4375
-56.82,1651396949.453125
-61.11,1651396949.46875
-66.88,1651396949.484375
-74.0,1651396949.5
-81.76,1651396949.515625
-88.82,1651396949.53125
-93.39,1651396949.546875
-93.57,1651396949.5625
-88.09,1651396949.578125
-76.79,1651396949.59375
-60.81,1651396949.609375
-42.33,1651396949.625
-23.91,1651396949.640625
-7.68,1651396949.65625
5.14,1651396949.671875
14.4,1651396949.6875
20.73,1651396949.703125
25.04,1651396949.71875
28.23,1651396949.734375
30.87,1651396949.75
33.29,1651396949.765625
35.6,1651396949.78125
37.8,1651396949.796875
39.85,1651396949.8125
41.63,1651396949.828125
43.02,1651396949.84375
43.87,1651396949.859375
44.14,1651396949.875
43.89,1651396949.890625
43.42,1651396949.90625
43.1,1651396949.921875
43.33,1651396949.9375
44.25,1651396949.953125
45.7,1651396949.96875
47.14,1651396949.984375
47.9,1651396950.0
47.41,1651396950.015625
45.44,1651396950.03125
42.2,1651396950.046875
38.17,1651396950.0625
33.9,1651396950.078125
29.78,1651396950.09375
25.86,1651396950.109375
21.99,1651396950.125
17.88,1651396950.140625
13.39,1651396950.15625
8.62,1651396950.171875
3.85,1651396950.1875
-0.51,1651396950.203125
-4.15,1651396950.21875
-7.0,1651396950.234375
-9.27,1651396950.25
-11.37,1651396950.265625
-13.71,1651396950.28125
-16.54,1651396950.296875
-19.91,1651396950.3125
-23.61,1651396950.328125
-27.36,1651396950.34375
-30.87,1651396950.359375
-34.03,1651396950.375
-36.99,1651396950.390625
-40.0,1651396950.40625
-43.51,1651396950.421875
-47.94,1651396950.4375
-53.55,1651396950.453125
-60.24,1651396950.46875
-67.36,1651396950.484375
-73.64,1651396950.5
-77.39,1651396950.515625
-76.98,1651396950.53125
-71.42,1651396950.546875
-60.77,1651396950.5625
-46.26,1651396950.578125
-29.96,1651396950.59375
-14.09,1651396950.609375
-0.49,1651396950.625
9.96,1651396950.640625
17.21,1651396950.65625
21.87,1651396950.671875
24.73,1651396950.6875
26.48,1651396950.703125
27.56,1651396950.71875
28.2,1651396950.734375
28.54,1651396950.75
28.69,1651396950.765625
28.85,1651396950.78125
29.22,1651396950.796875
30.0,1651396950.8125
31.2,1651396950.828125
32.69,1651396950.84375
34.2,1651396950.859375
35.45,1651396950.875
36.28,1651396950.890625
36.68,1651396950.90625
36.8,1651396950.921875
36.74,1651396950.9375
36.54,1651396950.953125
35.98,1651396950.96875
34.73,1651396950.984375
32.42,1651396951.0
28.85,1651396951.015625
24.13,1651396951.03125
18.61,1651396951.046875
12.84,1651396951.0625
7.37,1651396951.078125
2.63,1651396951.09375
-1.22,1651396951.109375
-4.27,1651396951.125
-6.82,1651396951.140625
-9.28,1651396951.15625
-11.97,1651396951.171875
-15.08,1651396951.1875
-18.54,1651396951.203125
-22.14,1651396951.21875
-25.6,1651396951.234375
-28.77,1651396951.25
-31.66,1651396951.265625
-34.47,1651396951.28125
-37.53,1651396951.296875
-41.18,1651396951.3125
-45.81,1651396951.328125
-51.65,1651396951.34375
-58.73,1651396951.359375
-66.57,1651396951.375
-74.07,1651396951.390625
-79.52,1651396951.40625
-81.02,1651396951.421875
-77.16,1651396951.4375
-67.55,1651396951.453125
-53.19,1651396951.46875
-36.09,1651396951.484375
-18.72,1651396951.5
-3.24,1651396951.515625
9.03,1651396951.53125
17.76,1651396951.546875
23.46,1651396951.5625
26.99,1651396951.578125
29.28,1651396951.59375
31.03,1651396951.609375
32.63,1651396951.625
34.27,1651396951.640625
35.97,1651396951.65625
37.58,1651396951.671875
39.02,1651396951.6875
40.18,1651396951.703125
41.01,1651396951.71875
41.58,1651396951.734375
41.98,1651396951.75
42.32,1651396951.765625
42.73,1651396951.78125
43.25,1651396951.796875
43.84,1651396951.8125
44.35,1651396951.828125
44.53,1651396951.84375
44.08,1651396951.859375
42.81,1651396951.875
40.62,1651396951.890625
37.59,1651396951.90625
33.95,1651396951.921875
30.04,1651396951.9375
26.16,1651396951.953125
22.5,1651396951.96875
19.05,1651396951.984375
15.63,1651396952.0
12.02,1651396952.015625
8.1,1651396952.03125
3.94,1651396952.046875
-0.22,1651396952.0625
-4.08,1651396952.078125
-7.48,1651396952.09375
-10.43,1651396952.109375
-13.18,1651396952.125
-16.07,1651396952.140625
-19.35,1651396952.15625
-23.13,1651396952.171875
-27.3,1651396952.1875
-31.64,1651396952.203125
-35.91,1651396952.21875
-39.93,1651396952.234375
-43.67,1651396952.25
-47.27,1651396952.265625
-51.13,1651396952.28125
-55.78,1651396952.296875
-61.72,1651396952.3125
-69.02,1651396952.328125
-76.98,1651396952.34375
-84.01,1651396952.359375
-87.93,1651396952.375
-86.68,1651396952.390625
-79.18,1651396952.40625
-65.81,1651396952.421875
-48.43,1651396952.4375
-29.66,1651396952.453125
-12.07,1651396952.46875
2.6,1651396952.484375
13.74,1651396952.5
21.64,1651396952.515625
27.09,1651396952.53125
30.84,1651396952.546875
33.5,1651396952.5625
35.4,1651396952.578125
36.77,1651396952.59375
37.78,1651396952.609375
38.59,1651396952.625
39.3,1651396952.640625
39.99,1651396952.65625
40.69,1651396952.671875
41.35,1651396952.6875
41.92,1651396952.703125
42.35,1651396952.71875
42.63,1651396952.734375
42.81,1651396952.75
43.0,1651396952.765625
43.32,1651396952.78125
43.75,1651396952.796875
44.15,1651396952.8125
44.21,1651396952.828125
43.61,1651396952.84375
42.08,1651396952.859375
39.62,1651396952.875
36.39,1651396952.890625
32.79,1651396952.90625
29.25,1651396952.921875
26.06,1651396952.9375
23.38,1651396952.953125
21.14,1651396952.96875
19.14,1651396952.984375
17.11,1651396953.0
14.85,1651396953.015625
12.23,1651396953.03125
9.29,1651396953.046875
6.21,1651396953.0625
3.29,1651396953.078125
0.78,1651396953.09375
-1.15,1651396953.109375
-2.6,1651396953.125
-3.88,1651396953.140625
-5.43,1651396953.15625
-7.67,1651396953.171875
-10.84,1651396953.1875
-14.92,1651396953.203125
-19.7,1651396953.21875
-24.8,1651396953.234375
-29.9,1651396953.25
-34.77,1651396953.265625
-39.42,1651396953.28125
-43.92,1651396953.296875
-48.49,1651396953.3125
-53.49,1651396953.328125
-59.29,1651396953.34375
-66.26,1651396953.359375
-74.31,1651396953.375
-82.75,1651396953.390625
-90.11,1651396953.40625
-94.36,1651396953.421875
-93.56,1651396953.4375
-86.64,1651396953.453125
-73.82,1651396953.46875
-56.72,1651396953.484375
-37.85,1651396953.5
-19.72,1651396953.515625
-4.14,1651396953.53125
8.07,1651396953.546875
16.92,1651396953.5625
22.91,1651396953.578125
26.58,1651396953.59375
28.41,1651396953.609375
28.89,1651396953.625
28.58,1651396953.640625
28.09,1651396953.65625
27.98,1651396953.671875
28.5,1651396953.6875
29.49,1651396953.703125
30.58,1651396953.71875
31.36,1651396953.734375
31.64,1651396953.75
31.58,1651396953.765625
31.59,1651396953.78125
32.04,1651396953.796875
33.09,1651396953.8125
34.55,1651396953.828125
35.94,1651396953.84375
36.72,1651396953.859375
36.56,1651396953.875
35.39,1651396953.890625
33.45,1651396953.90625
31.12,1651396953.921875
28.69,1651396953.9375
26.27,1651396953.953125
23.79,1651396953.96875
21.11,1651396953.984375
18.17,1651396954.0
15.02,1651396954.015625
11.85,1651396954.03125
8.93,1651396954.046875
6.47,1651396954.0625
4.54,1651396954.078125
3.0,1651396954.09375
1.51,1651396954.109375
-0.45,1651396954.125
-3.29,1651396954.140625
-7.27,1651396954.15625
-12.32,1651396954.171875
-18.04,1651396954.1875
-23.86,1651396954.203125
-29.35,1651396954.21875
-34.24,1651396954.234375
-38.6,1651396954.25
-42.75,1651396954.265625
-47.17,1651396954.28125
-52.44,1651396954.296875
-59.03,1651396954.3125
-67.06,1651396954.328125
-76.0,1651396954.34375
-84.56,1651396954.359375
-90.71,1651396954.375
-92.36,1651396954.390625
-87.97,1651396954.40625
-77.37,1651396954.421875
-61.78,1651396954.4375
-43.49,1651396954.453125
-25.12,1651396954.46875
-8.79,1651396954.484375
4.37,1651396954.5
14.14,1651396954.515625
20.9,1651396954.53125
25.26,1651396954.546875
27.82,1651396954.5625
29.05,1651396954.578125
29.48,1651396954.59375
29.64,1651396954.609375
29.95,1651396954.625
30.67,1651396954.640625
31.77,1651396954.65625
33.0,1651396954.671875
34.09,1651396954.6875
34.87,1651396954.703125
35.39,1651396954.71875
35.89,1651396954.734375
36.59,1651396954.75
37.55,1651396954.765625
38.7,1651396954.78125
39.73,1651396954.796875
40.32,1651396954.8125
40.2,1651396954.828125
39.27,1651396954.84375
37.54,1651396954.859375
35.19,1651396954.875
32.38,1651396954.890625
29.3,1651396954.90625
26.07,1651396954.921875
22.72,1651396954.9375
19.21,1651396954.953125
15.54,1651396954.96875
11.73,1651396954.984375
7.92,1651396955.0
4.35,1651396955.015625
1.17,1651396955.03125
-1.6,1651396955.046875
-4.15,1651396955.0625
-6.85,1651396955.078125
-10.08,1651396955.09375
-14.02,1651396955.109375
-18.61,1651396955.125
-23.49,1651396955.140625
-28.23,1651396955.15625
-32.49,1651396955.171875
-36.13,1651396955.1875
-39.35,1651396955.203125
-42.68,1651396955.21875
-46.76,1651396955.234375
-52.28,1651396955.25
-59.67,1651396955.265625
-68.76,1651396955.28125
-78.49,1651396955.296875
-86.95,1651396955.3125
-91.74,1651396955.328125
-90.79,1651396955.34375
-83.14,1651396955.359375
-69.44,1651396955.375
-51.78,1651396955.390625
-33.0,1651396955.40625
-15.71,1651396955.421875
-1.5,1651396955.4375
9.22,1651396955.453125
16.95,1651396955.46875
22.55,1651396955.484375
26.74,1651396955.5
29.96,1651396955.515625
32.44,1651396955.53125
34.32,1651396955.546875
35.78,1651396955.5625
37.02,1651396955.578125
38.14,1651396955.59375
39.1,1651396955.609375
39.72,1651396955.625
39.78,1651396955.640625
39.2,1651396955.65625
38.13,1651396955.671875
36.86,1651396955.6875
35.81,1651396955.703125
35.29,1651396955.71875
35.38,1651396955.734375
35.92,1651396955.75
36.52,1651396955.765625
36.7,1651396955.78125
36.02,1651396955.796875
34.24,1651396955.8125
31.39,1651396955.828125
27.77,1651396955.84375
23.83,1651396955.859375
20.0,1651396955.875
16.59,1651396955.890625
13.66,1651396955.90625
10.98,1651396955.921875
8.16,1651396955.9375
4.81,1651396955.953125
0.73,1651396955.96875
-3.99,1651396955.984375
-9.0,1651396956.0
-13.9,1651396956.015625
-18.37,1651396956.03125
-22.33,1651396956.046875
-26.01,1651396956.0625
-29.9,1651396956.078125
-34.64,1651396956.09375
-40.77,1651396956.109375
-48.56,1651396956.125
-57.8,1651396956.140625
-67.64,1651396956.15625
-76.49,1651396956.171875
-82.39,1651396956.1875
-83.43,1651396956.203125
-78.39,1651396956.21875
-67.32,1651396956.234375
-51.59,1651396956.25
-33.51,1651396956.265625
-15.62,1651396956.28125
0.06,1651396956.296875
12.54,1651396956.3125
21.75,1651396956.328125
28.26,1651396956.34375
32.73,1651396956.359375
35.68,1651396956.375
37.33,1651396956.390625
37.83,1651396956.40625
37.42,1651396956.421875
36.46,1651396956.4375
35.42,1651396956.453125
34.72,1651396956.46875
34.52,1651396956.484375
34.71,1651396956.5
34.99,1651396956.515625
35.0,1651396956.53125
34.59,1651396956.546875
33.86,1651396956.5625
33.12,1651396956.578125
32.71,1651396956.59375
32.74,1651396956.609375
32.99,1651396956.625
33.01,1651396956.640625
32.23,1651396956.65625
30.29,1651396956.671875
27.12,1651396956.6875
23.03,1651396956.703125
18.53,1651396956.71875
14.18,1651396956.734375
10.36,1651396956.75
7.11,1651396956.765625
4.15,1651396956.78125
1.04,1651396956.796875
-2.64,1651396956.8125
-7.06,1651396956.828125
-12.08,1651396956.84375
-17.33,1651396956.859375
-22.43,1651396956.875
-27.13,1651396956.890625
-31.42,1651396956.90625
-35.47,1651396956.921875
-39.56,1651396956.9375
-43.98,1651396956.953125
-49.16,1651396956.96875
-55.61,1651396956.984375
-63.74,1651396957.0
-73.48,1651396957.015625
-83.94,1651396957.03125
-93.27,1651396957.046875
-99.02,1651396957.0625
-98.92,1651396957.078125
-91.78,1651396957.09375
-78.01,1651396957.109375
-59.58,1651396957.125
-39.29,1651396957.140625
-19.89,1651396957.15625
-3.29,1651396957.171875
9.71,1651396957.1875
19.36,1651396957.203125
26.43,1651396957.21875
31.75,1651396957.234375
35.95,1651396957.25
39.35,1651396957.265625
42.08,1651396957.28125
44.14,1651396957.296875
45.54,1651396957.3125
46.36,1651396957.328125
46.68,1651396957.34375
46.6,1651396957.359375
46.26,1651396957.375
45.71,1651396957.390625
45.0,1651396957.40625
44.21,1651396957.421875
43.46,1651396957.4375
42.93,1651396957.453125
42.74,1651396957.46875
42.95,1651396957.484375
43.41,1651396957.5
43.8,1651396957.515625
43.78,1651396957.53125
42.97,1651396957.546875
41.17,1651396957.5625
38.37,1651396957.578125
34.77,1651396957.59375
30.67,1651396957.609375
26.42,1651396957.625
22.27,1651396957.640625
18.37,1651396957.65625
14.76,1651396957.671875
11.31,1651396957.6875
7.85,1651396957.703125
4.12,1651396957.71875
-0.1,1651396957.734375
-4.88,1651396957.75
-10.16,1651396957.765625
-15.75,1651396957.78125
-21.36,1651396957.796875
-26.73,1651396957.8125
-31.69,1651396957.828125
-36.24,1651396957.84375
-40.59,1651396957.859375
-45.19,1651396957.875
-50.57,1651396957.890625
-57.31,1651396957.90625
-65.68,1651396957.921875
-75.35,1651396957.9375
-85.18,1651396957.953125
-93.23,1651396957.96875
-97.23,1651396957.984375
-95.32,1651396958.0
-86.73,1651396958.015625
-72.16,1651396958.03125
-53.71,1651396958.046875
-34.12,1651396958.0625
-15.93,1651396958.078125
-0.71,1651396958.09375
11.11,1651396958.109375
20.03,1651396958.125
26.93,1651396958.140625
32.49,1651396958.15625
37.07,1651396958.171875
40.69,1651396958.1875
43.36,1651396958.203125
45.23,1651396958.21875
46.58,1651396958.234375
47.67,1651396958.25
48.6,1651396958.265625
49.27,1651396958.28125
49.45,1651396958.296875
49.09,1651396958.3125
48.44,1651396958.328125
47.96,1651396958.34375
48.16,1651396958.359375
49.26,1651396958.375
51.03,1651396958.390625
52.82,1651396958.40625
53.88,1651396958.421875
53.6,1651396958.4375
51.77,1651396958.453125
48.62,1651396958.46875
44.66,1651396958.484375
40.44,1651396958.5
36.35,1651396958.515625
32.56,1651396958.53125
29.0,1651396958.546875
25.5,1651396958.5625
21.82,1651396958.578125
17.84,1651396958.59375
13.63,1651396958.609375
9.39,1651396958.625
5.47,1651396958.640625
2.19,1651396958.65625
-0.3,1651396958.671875
-2.15,1651396958.6875
-3.74,1651396958.703125
-5.63,1651396958.71875
-8.31,1651396958.734375
-11.97,1651396958.75
-16.53,1651396958.765625
-21.58,1651396958.78125
-26.63,1651396958.796875
-31.24,1651396958.8125
-35.21,1651396958.828125
-38.62,1651396958.84375
-41.83,1651396958.859375
-45.43,1651396958.875
-50.08,1651396958.890625
-56.32,1651396958.90625
-64.25,1651396958.921875
-73.17,1651396958.9375
-81.53,1651396958.953125
-87.09,1651396958.96875
-87.67,1651396958.984375
-81.86,1651396959.0
-69.69,1651396959.015625
-52.67,1651396959.03125
-33.4,1651396959.046875
-14.66,1651396959.0625
1.43,1651396959.078125
13.84,1651396959.09375
22.62,1651396959.109375
28.48,1651396959.125
32.25,1651396959.140625
34.61,1651396959.15625
35.91,1651396959.171875
36.35,1651396959.1875
36.16,1651396959.203125
35.57,1651396959.21875
34.91,1651396959.234375
34.44,1651396959.25
34.28,1651396959.265625
34.42,1651396959.28125
34.77,1651396959.296875
35.24,1651396959.3125
35.84,1651396959.328125
36.64,1651396959.34375
37.68,1651396959.359375
38.86,1651396959.375
39.9,1651396959.390625
40.44,1651396959.40625
40.18,1651396959.421875
39.01,1651396959.4375
37.09,1651396959.453125
34.75,1651396959.46875
32.31,1651396959.484375
29.97,1651396959.5
27.67,1651396959.515625
25.19,1651396959.53125
22.31,1651396959.546875
18.95,1651396959.5625
15.21,1651396959.578125
11.36,1651396959.59375
7.66,1651396959.609375
4.26,1651396959.625
1.01,1651396959.640625
-2.4,1651396959.65625
-6.27,1651396959.671875
-10.78,1651396959.6875
-15.71,1651396959.703125
-20.7,1651396959.71875
-25.3,1651396959.734375
-29.27,1651396959.75
-32.67,1651396959.765625
-35.89,1651396959.78125
-39.46,1651396959.796875
-43.97,1651396959.8125
-49.94,1651396959.828125
-57.6,1651396959.84375
-66.75,1651396959.859375
-76.48,1651396959.875
-85.16,1651396959.890625
-90.67,1651396959.90625
-90.95,1651396959.921875
-84.83,1651396959.9375
-72.54,1651396959.953125
-55.79,1651396959.96875
-37.21,1651396959.984375
-19.44,1651396960.0
-4.38,1651396960.015625
7.24,1651396960.03125
15.68,1651396960.046875
21.75,1651396960.0625
26.29,1651396960.078125
29.9,1651396960.09375
32.88,1651396960.109375
35.45,1651396960.125
37.77,1651396960.140625
39.92,1651396960.15625
41.91,1651396960.171875
43.55,1651396960.1875
44.67,1651396960.203125
45.17,1651396960.21875
45.25,1651396960.234375
45.24,1651396960.25
45.5,1651396960.265625
46.2,1651396960.28125
47.18,1651396960.296875
48.01,1651396960.3125
48.2,1651396960.328125
47.39,1651396960.34375
45.45,1651396960.359375
42.54,1651396960.375
38.98,1651396960.390625
35.18,1651396960.40625
31.45,1651396960.421875
28.04,1651396960.4375
25.04,1651396960.453125
22.32,1651396960.46875
19.6,1651396960.484375
16.53,1651396960.5
12.84,1651396960.515625
8.57,1651396960.53125
4.01,1651396960.546875
-0.33,1651396960.5625
-4.0,1651396960.578125
-6.78,1651396960.59375
-8.85,1651396960.609375
-10.67,1651396960.625
-12.76,1651396960.640625
-15.56,1651396960.65625
-19.16,1651396960.671875
-23.33,1651396960.6875
-27.65,1651396960.703125
-31.7,1651396960.71875
-35.32,1651396960.734375
-38.59,1651396960.75
-41.97,1651396960.765625
-46.16,1651396960.78125
-51.81,1651396960.796875
-59.27,1651396960.8125
-68.16,1651396960.828125
-77.25,1651396960.84375
-84.54,1651396960.859375
-87.86,1651396960.875
-85.51,1651396960.890625
-76.93,1651396960.90625
-63.0,1651396960.921875
-45.71,1651396960.9375
-27.59,1651396960.953125
-10.89,1651396960.96875
2.89,1651396960.984375
13.22,1651396961.0
20.38,1651396961.015625
25.12,1651396961.03125
28.27,1651396961.046875
30.55,1651396961.0625
32.45,1651396961.078125
34.3,1651396961.09375
36.2,1651396961.109375
38.2,1651396961.125
40.21,1651396961.140625
42.08,1651396961.15625
43.6,1651396961.171875
44.57,1651396961.1875
44.92,1651396961.203125
44.77,1651396961.21875
44.44,1651396961.234375
44.27,1651396961.25
44.51,1651396961.265625
45.15,1651396961.28125
45.84,1651396961.296875
46.11,1651396961.3125
45.45,1651396961.328125
43.67,1651396961.34375
40.82,1651396961.359375
37.28,1651396961.375
33.45,1651396961.390625
29.7,1651396961.40625
26.2,1651396961.421875
22.88,1651396961.4375
19.62,1651396961.453125
16.32,1651396961.46875
13.01,1651396961.484375
9.81,1651396961.5
6.84,1651396961.515625
4.08,1651396961.53125
1.25,1651396961.546875
-1.99,1651396961.5625
-5.99,1651396961.578125
-10.81,1651396961.59375
-16.21,1651396961.609375
-21.7,1651396961.625
-26.78,1651396961.640625
-31.13,1651396961.65625
-34.77,1651396961.671875
-38.0,1651396961.6875
-41.31,1651396961.703125
-45.26,1651396961.71875
-50.3,1651396961.734375
-56.73,1651396961.75
-64.41,1651396961.765625
-72.57,1651396961.78125
-79.72,1651396961.796875
-83.9,1651396961.8125
-83.24,1651396961.828125
-76.67,1651396961.84375
-64.44,1651396961.859375
-48.16,1651396961.875
-30.28,1651396961.890625
-13.35,1651396961.90625
0.8,1651396961.921875
11.42,1651396961.9375
18.66,1651396961.953125
23.34,1651396961.96875
26.3,1651396961.984375
28.22,1651396962.0
29.49,1651396962.015625
30.33,1651396962.03125
30.86,1651396962.046875
31.23,1651396962.0625
31.56,1651396962.078125
31.93,1651396962.09375
32.32,1651396962.109375
32.65,1651396962.125
32.8,1651396962.140625
32.73,1651396962.15625
32.5,1651396962.171875
32.27,1651396962.1875
32.22,1651396962.203125
32.45,1651396962.21875
32.9,1651396962.234375
33.35,1651396962.25
33.43,1651396962.265625
32.76,1651396962.28125
31.07,1651396962.296875
28.36,1651396962.3125
24.83,1651396962.328125
20.95,1651396962.34375
17.23,1651396962.359375
14.05,1651396962.375
11.48,1651396962.390625
9.21,1651396962.40625
6.69,1651396962.421875
3.37,1651396962.4375
-1.09,1651396962.453125
-6.6,1651396962.46875
-12.7,1651396962.484375
-18.77,1651396962.5
-24.26,1651396962.515625
-28.88,1651396962.53125
-32.67,1651396962.546875
-35.92,1651396962.5625
-39.11,1651396962.578125
-42.81,1651396962.59375
-47.6,1651396962.609375
-53.86,1651396962.625
-61.51,1651396962.640625
-69.72,1651396962.65625
-76.95,1651396962.671875
-81.18,1651396962.6875
-80.54,1651396962.703125
-74.03,1651396962.71875
-61.93,1651396962.734375
-45.79,1651396962.75
-27.96,1651396962.765625
-10.79,1651396962.78125
3.95,1651396962.796875
15.45,1651396962.8125
23.72,1651396962.828125
29.32,1651396962.84375
32.94,1651396962.859375
35.19,1651396962.875
36.52,1651396962.890625
37.26,1651396962.90625
37.62,1651396962.921875
37.75,1651396962.9375
37.71,1651396962.953125
37.55,1651396962.96875
37.25,1651396962.984375
36.85,1651396963.0
36.38,1651396963.015625
35.92,1651396963.03125
35.55,1651396963.046875
35.36,1651396963.0625
35.38,1651396963.078125
35.56,1651396963.09375
35.78,1651396963.109375
35.88,1651396963.125
35.61,1651396963.140625
34.74,1651396963.15625
33.15,1651396963.171875
30.86,1651396963.1875
28.03,1651396963.203125
24.94,1651396963.21875
21.77,1651396963.234375
18.63,1651396963.25
15.43,1651396963.265625
12.03,1651396963.28125
8.42,1651396963.296875
4.73,1651396963.3125
1.24,1651396963.328125
-1.87,1651396963.34375
-4.6,1651396963.359375
-7.26,1651396963.375
-10.32,1651396963.390625
-14.17,1651396963.40625
-18.82,1651396963.421875
-23.96,1651396963.4375
-28.99,1651396963.453125
-33.36,1651396963.46875
-36.85,1651396963.484375
-39.63,1651396963.5
-42.26,1651396963.515625
-45.55,1651396963.53125
-50.2,1651396963.546875
-56.68,1651396963.5625
-64.91,1651396963.578125
-74.11,1651396963.59375
-82.78,1651396963.609375
-88.93,1651396963.625
-90.52,1651396963.640625
-86.2,1651396963.65625
-75.79,1651396963.671875
-60.47,1651396963.6875
-42.45,1651396963.703125
-24.32,1651396963.71875
-8.22,1651396963.734375
4.58,1651396963.75
13.89,1651396963.765625
20.32,1651396963.78125
24.78,1651396963.796875
28.07,1651396963.8125
30.68,1651396963.828125
32.79,1651396963.84375
34.41,1651396963.859375
35.58,1651396963.875
36.43,1651396963.890625
37.16,1651396963.90625
38.02,1651396963.921875
39.12,1651396963.9375
40.48,1651396963.953125
42.02,1651396963.96875
43.63,1651396963.984375
45.26,1651396964.0
46.91,1651396964.015625
48.53,1651396964.03125
49.96,1651396964.046875
50.91,1651396964.0625
51.02,1651396964.078125
49.95,1651396964.09375
47.64,1651396964.109375
44.21,1651396964.125
40.03,1651396964.140625
35.59,1651396964.15625
31.33,1651396964.171875
27.54,1651396964.1875
24.4,1651396964.203125
21.85,1651396964.21875
19.77,1651396964.234375
17.9,1651396964.25
15.97,1651396964.265625
13.71,1651396964.28125
10.98,1651396964.296875
7.77,1651396964.3125
4.25,1651396964.328125
0.75,1651396964.34375
-2.49,1651396964.359375
-5.29,1651396964.375
-7.77,1651396964.390625
-10.22,1651396964.40625
-13.07,1651396964.421875
-16.64,1651396964.4375
-21.01,1651396964.453125
-25.98,1651396964.46875
-31.18,1651396964.484375
-36.18,1651396964.5
-40.65,1651396964.515625
-44.53,1651396964.53125
-48.02,1651396964.546875
-51.52,1651396964.5625
-55.56,1651396964.578125
-60.61,1651396964.59375
-66.87,1651396964.609375
-74.02,1651396964.625
-81.04,1651396964.640625
-86.3,1651396964.65625
-87.93,1651396964.671875
-84.41,1651396964.6875
-75.15,1651396964.703125
-60.87,1651396964.71875
-43.39,1651396964.734375
-25.13,1651396964.75
-8.34,1651396964.765625
5.51,1651396964.78125
15.89,1651396964.796875
23.09,1651396964.8125
27.83,1651396964.828125
30.86,1651396964.84375
32.75,1651396964.859375
33.84,1651396964.875
34.37,1651396964.890625
34.56,1651396964.90625
34.59,1651396964.921875
34.57,1651396964.9375
34.53,1651396964.953125
34.37,1651396964.96875
34.05,1651396964.984375
33.59,1651396965.0
33.21,1651396965.015625
33.2,1651396965.03125
33.79,1651396965.046875
35.03,1651396965.0625
36.65,1651396965.078125
38.23,1651396965.09375
39.24,1651396965.109375
39.32,1651396965.125
38.34,1651396965.140625
36.45,1651396965.15625
33.97,1651396965.171875
31.26,1651396965.1875
28.61,1651396965.203125
26.15,1651396965.21875
23.79,1651396965.234375
21.31,1651396965.25
18.5,1651396965.265625
15.27,1651396965.28125
11.74,1651396965.296875
8.27,1651396965.3125
5.23,1651396965.328125
2.89,1651396965.34375
1.22,1651396965.359375
-0.12,1651396965.375
-1.71,1651396965.390625
-4.0,1651396965.40625
-7.19,1651396965.421875
-11.05,1651396965.4375
-15.09,1651396965.453125
-18.82,1651396965.46875
-21.99,1651396965.484375
-24.74,1651396965.5
-27.55,1651396965.515625
-31.05,1651396965.53125
-35.85,1651396965.546875
-42.28,1651396965.5625
-50.25,1651396965.578125
-59.08,1651396965.59375
-67.45,1651396965.609375
-73.55,1651396965.625
-75.59,1651396965.640625
-72.28,1651396965.65625
-63.4,1651396965.671875
-49.97,1651396965.6875
-34.09,1651396965.703125
-18.15,1651396965.71875
-4.15,1651396965.734375
6.8,1651396965.75
14.61,1651396965.765625
19.82,1651396965.78125
23.08,1651396965.796875
24.93,1651396965.8125
25.58,1651396965.828125
25.19,1651396965.84375
24.05,1651396965.859375
22.7,1651396965.875
21.69,1651396965.890625
21.43,1651396965.90625
21.99,1651396965.921875
23.07,1651396965.9375
24.28,1651396965.953125
25.31,1651396965.96875
26.14,1651396965.984375
26.93,1651396966.0
27.83,1651396966.015625
28.83,1651396966.03125
29.68,1651396966.046875
29.97,1651396966.0625
29.4,1651396966.078125
27.78,1651396966.09375
25.12,1651396966.109375
21.6,1651396966.125
17.42,1651396966.140625
12.79,1651396966.15625
7.95,1651396966.171875
3.14,1651396966.1875
-1.35,1651396966.203125
-5.28,1651396966.21875
-8.49,1651396966.234375
-11.05,1651396966.25
-13.21,1651396966.265625
-15.37,1651396966.28125
-17.89,1651396966.296875
-20.98,1651396966.3125
-24.56,1651396966.328125
-28.26,1651396966.34375
-31.63,1651396966.359375
-34.32,1651396966.375
-36.27,1651396966.390625
-37.86,1651396966.40625
-39.73,1651396966.421875
-42.67,1651396966.4375
-47.38,1651396966.453125
-54.19,1651396966.46875
-62.79,1651396966.484375
-72.1,1651396966.5
-80.36,1651396966.515625
-85.46,1651396966.53125
-85.61,1651396966.546875
-79.93,1651396966.5625
-68.82,1651396966.578125
-53.87,1651396966.59375
-37.31,1651396966.609375
-21.31,1651396966.625
-7.41,1651396966.640625
3.7,1651396966.65625
12.07,1651396966.671875
18.14,1651396966.6875
22.51,1651396966.703125
25.66,1651396966.71875
28.0,1651396966.734375
29.84,1651396966.75
31.38,1651396966.765625
32.72,1651396966.78125
33.84,1651396966.796875
34.7,1651396966.8125
35.26,1651396966.828125
35.56,1651396966.84375
35.65,1651396966.859375
35.67,1651396966.875
35.7,1651396966.890625
35.86,1651396966.90625
36.16,1651396966.921875
36.56,1651396966.9375
36.95,1651396966.953125
37.11,1651396966.96875
36.81,1651396966.984375
35.86,1651396967.0
34.2,1651396967.015625
31.87,1651396967.03125
29.02,1651396967.046875
25.83,1651396967.0625
22.46,1651396967.078125
19.09,1651396967.09375
15.84,1651396967.109375
12.76,1651396967.125
9.83,1651396967.140625
6.89,1651396967.15625
3.63,1651396967.171875
-0.18,1651396967.1875
-4.64,1651396967.203125
-9.62,1651396967.21875
-14.73,1651396967.234375
-19.57,1651396967.25
-23.85,1651396967.265625
-27.53,1651396967.28125
-30.83,1651396967.296875
-34.1,1651396967.3125
-37.71,1651396967.328125
-42.02,1651396967.34375
-47.41,1651396967.359375
-54.15,1651396967.375
-62.25,1651396967.390625
-71.06,1651396967.40625
-79.18,1651396967.421875
-84.66,1651396967.4375
-85.5,1651396967.453125
-80.45,1651396967.46875
-69.56,1651396967.484375
-54.26,1651396967.5
-36.92,1651396967.515625
-20.04,1651396967.53125
-5.44,1651396967.546875
6.07,1651396967.5625
14.64,1651396967.578125
20.92,1651396967.59375
25.72,1651396967.609375
29.55,1651396967.625
32.73,1651396967.640625
35.41,1651396967.65625
37.62,1651396967.671875
39.45,1651396967.6875
40.96,1651396967.703125
42.19,1651396967.71875
43.2,1651396967.734375
44.01,1651396967.75
44.56,1651396967.765625
44.8,1651396967.78125
44.73,1651396967.796875
44.35,1651396967.8125
43.82,1651396967.828125
43.32,1651396967.84375
42.97,1651396967.859375
42.74,1651396967.875
42.38,1651396967.890625
41.5,1651396967.90625
39.66,1651396967.921875
36.63,1651396967.9375
32.42,1651396967.953125
27.37,1651396967.96875
22.01,1651396967.984375
16.91,1651396968.0
12.52,1651396968.015625
9.04,1651396968.03125
6.39,1651396968.046875
4.21,1651396968.0625
2.0,1651396968.078125
-0.77,1651396968.09375
-4.44,1651396968.109375
-9.02,1651396968.125
-14.2,1651396968.140625
-19.44,1651396968.15625
-24.24,1651396968.171875
-28.33,1651396968.1875
-31.75,1651396968.203125
-34.9,1651396968.21875
-38.39,1651396968.234375
-42.86,1651396968.25
-48.81,1651396968.265625
-56.35,1651396968.28125
-64.99,1651396968.296875
-73.56,1651396968.3125
-80.23,1651396968.328125
-82.99,1651396968.34375
-80.29,1651396968.359375
-71.62,1651396968.375
-57.85,1651396968.390625
-40.96,1651396968.40625
-23.48,1651396968.421875
-7.62,1651396968.4375
5.26,1651396968.453125
14.85,1651396968.46875
21.63,1651396968.484375
26.42,1651396968.5
29.88,1651396968.515625
32.42,1651396968.53125
34.11,1651396968.546875
34.94,1651396968.5625
34.96,1651396968.578125
34.32,1651396968.59375
33.29,1651396968.609375
32.14,1651396968.625
31.1,1651396968.640625
30.33,1651396968.65625
29.95,1651396968.671875
30.02,1651396968.6875
30.58,1651396968.703125
31.53,1651396968.71875
32.64,1651396968.734375
33.56,1651396968.75
33.86,1651396968.765625
33.16,1651396968.78125
31.31,1651396968.796875
28.38,1651396968.8125
24.68,1651396968.828125
20.55,1651396968.84375
16.33,1651396968.859375
12.15,1651396968.875
8.0,1651396968.890625
3.72,1651396968.90625
-0.84,1651396968.921875
-5.73,1651396968.9375
-10.83,1651396968.953125
-15.9,1651396968.96875
-20.7,1651396968.984375
-25.06,1651396969.0
-29.01,1651396969.015625
-32.72,1651396969.03125
-36.62,1651396969.046875
-41.26,1651396969.0625
-47.16,1651396969.078125
-54.5,1651396969.09375
-62.81,1651396969.109375
-70.8,1651396969.125
-76.57,1651396969.140625
-78.18,1651396969.15625
-74.31,1651396969.171875
-64.89,1651396969.1875
-51.12,1651396969.203125
-35.11,1651396969.21875
-19.14,1651396969.234375
-4.98,1651396969.25
6.46,1651396969.265625
15.09,1651396969.28125
21.32,1651396969.296875
25.8,1651396969.3125
29.14,1651396969.328125
31.84,1651396969.34375
34.16,1651396969.359375
36.23,1651396969.375
38.0,1651396969.390625
39.36,1651396969.40625
40.27,1651396969.421875
40.76,1651396969.4375
41.04,1651396969.453125
41.29,1651396969.46875
41.72,1651396969.484375
42.33,1651396969.5
43.13,1651396969.515625
44.03,1651396969.53125
44.84,1651396969.546875
45.36,1651396969.5625
45.36,1651396969.578125
44.66,1651396969.59375
43.18,1651396969.609375
41.04,1651396969.625
38.51,1651396969.640625
35.83,1651396969.65625
33.16,1651396969.671875
30.46,1651396969.6875
27.56,1651396969.703125
24.26,1651396969.71875
20.5,1651396969.734375
16.38,1651396969.75
12.11,1651396969.765625
7.81,1651396969.78125
3.54,1651396969.796875
-0.8,1651396969.8125
-5.37,1651396969.828125
-10.25,1651396969.84375
-15.35,1651396969.859375
-20.47,1651396969.875
-25.36,1651396969.890625
-29.9,1651396969.90625
-34.13,1651396969.921875
-38.3,1651396969.9375
-42.75,1651396969.953125
-47.82,1651396969.96875
-53.83,1651396969.984375
-60.97,1651396970.0
-69.21,1651396970.015625
-78.0,1651396970.03125
-86.2,1651396970.046875
-92.1,1651396970.0625
-93.82,1651396970.078125
-89.93,1651396970.09375
-80.12,1651396970.109375
-65.41,1651396970.125
-47.89,1651396970.140625
-30.03,1651396970.15625
-13.89,1651396970.171875
-0.54,1651396970.1875
9.95,1651396970.203125
18.14,1651396970.21875
24.77,1651396970.234375
30.39,1651396970.25
35.19,1651396970.265625
39.21,1651396970.28125
42.37,1651396970.296875
44.76,1651396970.3125
46.52,1651396970.328125
47.88,1651396970.34375
48.98,1651396970.359375
49.88,1651396970.375
50.58,1651396970.390625
51.03,1651396970.40625
51.22,1651396970.421875
51.23,1651396970.4375
51.2,1651396970.453125
51.28,1651396970.46875
51.5,1651396970.484375
51.71,1651396970.5
51.63,1651396970.515625
50.95,1651396970.53125
49.42,1651396970.546875
47.02,1651396970.5625
43.9,1651396970.578125
40.4,1651396970.59375
36.84,1651396970.609375
33.55,1651396970.625
30.7,1651396970.640625
28.29,1651396970.65625
26.17,1651396970.671875
24.07,1651396970.6875
21.77,1651396970.703125
19.16,1651396970.71875
16.36,1651396970.734375
13.65,1651396970.75
11.35,1651396970.765625
9.59,1651396970.78125
8.2,1651396970.796875
6.71,1651396970.8125
4.54,1651396970.828125
1.2,1651396970.84375
-3.43,1651396970.859375
-9.15,1651396970.875
-15.44,1651396970.890625
-21.73,1651396970.90625
-27.55,1651396970.921875
-32.69,1651396970.9375
-37.16,1651396970.953125
-41.19,1651396970.96875
-45.21,1651396970.984375
-49.67,1651396971.0
-55.14,1651396971.015625
-61.93,1651396971.03125
-69.89,1651396971.046875
-78.1,1651396971.0625
-84.91,1651396971.078125
-88.23,1651396971.09375
-86.32,1651396971.109375
-78.41,1651396971.125
-65.2,1651396971.140625
-48.63,1651396971.15625
-31.24,1651396971.171875
-15.35,1651396971.1875
-2.36,1651396971.203125
7.44,1651396971.21875
14.61,1651396971.234375
20.03,1651396971.25
24.44,1651396971.265625
28.24,1651396971.28125
31.5,1651396971.296875
34.16,1651396971.3125
36.15,1651396971.328125
37.49,1651396971.34375
38.31,1651396971.359375
38.79,1651396971.375
39.07,1651396971.390625
39.17,1651396971.40625
39.07,1651396971.421875
38.72,1651396971.4375
38.17,1651396971.453125
37.57,1651396971.46875
37.13,1651396971.484375
37.07,1651396971.5
37.37,1651396971.515625
37.82,1651396971.53125
37.99,1651396971.546875
37.45,1651396971.5625
35.86,1651396971.578125
33.12,1651396971.59375
29.44,1651396971.609375
25.21,1651396971.625
20.92,1651396971.640625
16.97,1651396971.65625
13.59,1651396971.671875
10.73,1651396971.6875
8.14,1651396971.703125
5.44,1651396971.71875
2.29,1651396971.734375
-1.41,1651396971.75
-5.56,1651396971.765625
-9.87,1651396971.78125
-13.98,1651396971.796875
-17.65,1651396971.8125
-20.8,1651396971.828125
-23.55,1651396971.84375
-26.19,1651396971.859375
-29.19,1651396971.875
-33.07,1651396971.890625
-38.31,1651396971.90625
-45.11,1651396971.921875
-53.21,1651396971.9375
-61.65,1651396971.953125
-68.88,1651396971.96875
-73.08,1651396971.984375
-72.69,1651396972.0
-67.01,1651396972.015625
-56.42,1651396972.03125
-42.37,1651396972.046875
-26.82,1651396972.0625
-11.71,1651396972.078125
1.51,1651396972.09375
12.2,1651396972.109375
20.37,1651396972.125
26.45,1651396972.140625
30.99,1651396972.15625
34.44,1651396972.171875
37.12,1651396972.1875
39.17,1651396972.203125
40.64,1651396972.21875
41.49,1651396972.234375
41.75,1651396972.25
41.45,1651396972.265625
40.64,1651396972.28125
39.45,1651396972.296875
38.06,1651396972.3125
36.73,1651396972.328125
35.72,1651396972.34375
35.31,1651396972.359375
35.59,1651396972.375
36.48,1651396972.390625
37.67,1651396972.40625
38.73,1651396972.421875
39.23,1651396972.4375
38.91,1651396972.453125
37.74,1651396972.46875
35.86,1651396972.484375
33.53,1651396972.5
30.98,1651396972.515625
28.4,1651396972.53125
25.91,1651396972.546875
23.46,1651396972.5625
20.95,1651396972.578125
18.21,1651396972.59375
15.1,1651396972.609375
11.59,1651396972.625
7.83,1651396972.640625
4.09,1651396972.65625
0.69,1651396972.671875
-2.12,1651396972.6875
-4.26,1651396972.703125
-5.82,1651396972.71875
-7.14,1651396972.734375
-8.63,1651396972.75
-10.65,1651396972.765625
-13.41,1651396972.78125
-16.82,1651396972.796875
-20.6,1651396972.8125
-24.38,1651396972.828125
-27.94,1651396972.84375
-31.26,1651396972.859375
-34.65,1651396972.875
-38.64,1651396972.890625
-43.82,1651396972.90625
-50.55,1651396972.921875
-58.86,1651396972.9375
-68.15,1651396972.953125
-77.15,1651396972.96875
-84.07,1651396972.984375
-86.99,1651396973.0
-84.47,1651396973.015625
-76.12,1651396973.03125
-62.8,1651396973.046875
-46.45,1651396973.0625
-29.5,1651396973.078125
-14.11,1651396973.09375
-1.57,1651396973.109375
7.78,1651396973.125
14.38,1651396973.140625
18.98,1651396973.15625
22.27,1651396973.171875
24.71,1651396973.1875
26.55,1651396973.203125
27.95,1651396973.21875
29.03,1651396973.234375
29.88,1651396973.25
30.54,1651396973.265625
31.01,1651396973.28125
31.27,1651396973.296875
31.33,1651396973.3125
31.24,1651396973.328125
31.07,1651396973.34375
30.96,1651396973.359375
31.03,1651396973.375
31.35,1651396973.390625
31.95,1651396973.40625
32.68,1651396973.421875
33.28,1651396973.4375
33.35,1651396973.453125
32.54,1651396973.46875
30.69,1651396973.484375
27.92,1651396973.5
24.66,1651396973.515625
21.49,1651396973.53125
18.9,1651396973.546875
17.1,1651396973.5625
15.92,1651396973.578125
14.91,1651396973.59375
13.54,1651396973.609375
11.48,1651396973.625
8.76,1651396973.640625
5.69,1651396973.65625
2.78,1651396973.671875
0.38,1651396973.6875
-1.45,1651396973.703125
-3.03,1651396973.71875
-4.76,1651396973.734375
-7.04,1651396973.75
-9.99,1651396973.765625
-13.48,1651396973.78125
-17.15,1651396973.796875
-20.7,1651396973.8125
-23.89,1651396973.828125
-26.75,1651396973.84375
-29.51,1651396973.859375
-32.52,1651396973.875
-36.22,1651396973.890625
-41.06,1651396973.90625
-47.38,1651396973.921875
-55.11,1651396973.9375
-63.65,1651396973.953125
-71.7,1651396973.96875
-77.47,1651396973.984375
-79.23,1651396974.0
-75.81,1651396974.015625
-67.13,1651396974.03125
-54.24,1651396974.046875
-39.01,1651396974.0625
-23.55,1651396974.078125
-9.68,1651396974.09375
1.54,1651396974.109375
9.84,1651396974.125
15.57,1651396974.140625
19.42,1651396974.15625
22.02,1651396974.171875
23.84,1651396974.1875
25.17,1651396974.203125
26.08,1651396974.21875
26.6,1651396974.234375
26.81,1651396974.25
26.89,1651396974.265625
26.99,1651396974.28125
27.24,1651396974.296875
27.62,1651396974.3125
28.01,1651396974.328125
28.32,1651396974.34375
28.49,1651396974.359375
28.63,1651396974.375
28.89,1651396974.390625
29.32,1651396974.40625
29.78,1651396974.421875
29.95,1651396974.4375
29.38,1651396974.453125
27.73,1651396974.46875
24.97,1651396974.484375
21.37,1651396974.5
17.43,1651396974.515625
13.72,1651396974.53125
10.57,1651396974.546875
8.01,1651396974.5625
5.84,1651396974.578125
3.63,1651396974.59375
0.98,1651396974.609375
-2.36,1651396974.625
-6.4,1651396974.640625
-10.95,1651396974.65625
-15.53,1651396974.671875
-19.71,1651396974.6875
-23.11,1651396974.703125
-25.66,1651396974.71875
-27.67,1651396974.734375
-29.78,1651396974.75
-32.72,1651396974.765625
-37.12,1651396974.78125
-43.22,1651396974.796875
-50.58,1651396974.8125
-58.16,1651396974.828125
-64.39,1651396974.84375
-67.47,1651396974.859375
-66.03,1651396974.875
-59.48,1651396974.890625
-48.36,1651396974.90625
-34.22,1651396974.921875
-19.16,1651396974.9375
-5.17,1651396974.953125
6.4,1651396974.96875
15.08,1651396974.984375
21.21,1651396975.0
25.48,1651396975.015625
28.52,1651396975.03125
30.71,1651396975.046875
32.12,1651396975.0625
32.78,1651396975.078125
32.73,1651396975.09375
32.14,1651396975.109375
31.24,1651396975.125
30.27,1651396975.140625
29.35,1651396975.15625
28.44,1651396975.171875
27.5,1651396975.1875
26.48,1651396975.203125
25.47,1651396975.21875
24.68,1651396975.234375
24.32,1651396975.25
24.46,1651396975.265625
24.89,1651396975.28125
25.25,1651396975.296875
25.04,1651396975.3125
23.92,1651396975.328125
21.75,1651396975.34375
18.67,1651396975.359375
15.05,1651396975.375
11.31,1651396975.390625
7.83,1651396975.40625
4.88,1651396975.421875
2.57,1651396975.4375
0.85,1651396975.453125
-0.47,1651396975.46875
-1.76,1651396975.484375
-3.43,1651396975.5
-5.77,1651396975.515625
-8.9,1651396975.53125
-12.72,1651396975.546875
-16.85,1651396975.5625
-20.92,1651396975.578125
-24.61,1651396975.59375
-27.77,1651396975.609375
-30.52,1651396975.625
-33.2,1651396975.640625
-36.29,1651396975.65625
-40.35,1651396975.671875
-45.82,1651396975.6875
-52.71,1651396975.703125
-60.38,1651396975.71875
-67.51,1651396975.734375
-72.32,1651396975.75
-73.12,1651396975.765625
-68.84,1651396975.78125
-59.55,1651396975.796875
-46.4,1651396975.8125
-31.34,1651396975.828125
-16.47,1651396975.84375
-3.47,1651396975.859375
6.74,1651396975.875
14.05,1651396975.890625
18.9,1651396975.90625
22.01,1651396975.921875
24.05,1651396975.9375
25.53,1651396975.953125
26.69,1651396975.96875
27.69,1651396975.984375
28.5,1651396976.0
29.11,1651396976.015625
29.59,1651396976.03125
30.05,1651396976.046875
30.62,1651396976.0625
31.42,1651396976.078125
32.39,1651396976.09375
33.44,1651396976.109375
34.4,1651396976.125
35.12,1651396976.140625
35.54,1651396976.15625
35.71,1651396976.171875
35.71,1651396976.1875
35.52,1651396976.203125
35.04,1651396976.21875
34.08,1651396976.234375
32.37,1651396976.25
29.83,1651396976.265625
26.45,1651396976.28125
22.45,1651396976.296875
18.12,1651396976.3125
13.79,1651396976.328125
9.74,1651396976.34375
6.21,1651396976.359375
3.25,1651396976.375
0.77,1651396976.390625
-1.5,1651396976.40625
-3.87,1651396976.421875
-6.64,1651396976.4375
-9.89,1651396976.453125
-13.53,1651396976.46875
-17.34,1651396976.484375
-21.09,1651396976.5
-24.65,1651396976.515625
-28.07,1651396976.53125
-31.46,1651396976.546875
-35.07,1651396976.5625
-39.19,1651396976.578125
-44.16,1651396976.59375
-50.25,1651396976.609375
-57.4,1651396976.625
-64.94,1651396976.640625
-71.51,1651396976.65625
-75.35,1651396976.671875
-74.76,1651396976.6875
-68.91,1651396976.703125
-58.18,1651396976.71875
-44.08,1651396976.734375
-28.8,1651396976.75
-14.37,1651396976.765625
-2.13,1651396976.78125
7.45,1651396976.796875
14.6,1651396976.8125
19.78,1651396976.828125
23.46,1651396976.84375
25.93,1651396976.859375
27.41,1651396976.875
28.16,1651396976.890625
28.47,1651396976.90625
28.6,1651396976.921875
28.68,1651396976.9375
28.7,1651396976.953125
28.56,1651396976.96875
28.23,1651396976.984375
27.75,1651396977.0
27.32,1651396977.015625
27.1,1651396977.03125
27.23,1651396977.046875
27.7,1651396977.0625
28.37,1651396977.078125
28.98,1651396977.09375
29.23,1651396977.109375
28.82,1651396977.125
27.52,1651396977.140625
25.28,1651396977.15625
22.27,1651396977.171875
18.87,1651396977.1875
15.56,1651396977.203125
12.67,1651396977.21875
10.26,1651396977.234375
8.05,1651396977.25
5.51,1651396977.265625
2.19,1651396977.28125
-2.06,1651396977.296875
-7.02,1651396977.3125
-12.19,1651396977.328125
-16.99,1651396977.34375
-21.07,1651396977.359375
-24.41,1651396977.375
-27.37,1651396977.390625
-30.52,1651396977.40625
-34.57,1651396977.421875
-40.12,1651396977.4375
-47.33,1651396977.453125
-55.73,1651396977.46875
-64.12,1651396977.484375
-70.7,1651396977.5
-73.65,1651396977.515625
-71.7,1651396977.53125
-64.58,1651396977.546875
-53.17,1651396977.5625
-39.11,1651396977.578125
-24.36,1651396977.59375
-10.58,1651396977.609375
1.22,1651396977.625
10.6,1651396977.640625
17.65,1651396977.65625
22.67,1651396977.671875
26.04,1651396977.6875
28.11,1651396977.703125
29.16,1651396977.71875
29.42,1651396977.734375
29.12,1651396977.75
28.48,1651396977.765625
27.72,1651396977.78125
27.06,1651396977.796875
26.56,1651396977.8125
26.2,1651396977.828125
25.93,1651396977.84375
25.69,1651396977.859375
25.51,1651396977.875
25.48,1651396977.890625
25.73,1651396977.90625
26.21,1651396977.921875
26.77,1651396977.9375
27.08,1651396977.953125
26.76,1651396977.96875
25.52,1651396977.984375
23.24,1651396978.0
20.05,1651396978.015625
16.25,1651396978.03125
12.21,1651396978.046875
8.26,1651396978.0625
4.52,1651396978.078125
0.9,1651396978.09375
-2.84,1651396978.109375
-6.98,1651396978.125
-11.7,1651396978.140625
-16.96,1651396978.15625
-22.54,1651396978.171875
-28.06,1651396978.1875
-33.12,1651396978.203125
-37.46,1651396978.21875
-41.03,1651396978.234375
-44.03,1651396978.25
-46.95,1651396978.265625
-50.48,1651396978.28125
-55.2,1651396978.296875
-61.37,1651396978.3125
-68.56,1651396978.328125
-75.56,1651396978.34375
-80.51,1651396978.359375
-81.56,1651396978.375
-77.42,1651396978.390625
-67.98,1651396978.40625
-54.3,1651396978.421875
-38.29,1651396978.4375
-22.02,1651396978.453125
-7.18,1651396978.46875
5.27,1651396978.484375
15.01,1651396978.5
22.14,1651396978.515625
26.97,1651396978.53125
29.87,1651396978.546875
31.31,1651396978.5625
31.89,1651396978.578125
32.11,1651396978.59375
32.41,1651396978.609375
32.97,1651396978.625
33.76,1651396978.640625
34.67,1651396978.65625
35.58,1651396978.671875
36.39,1651396978.6875
37.08,1651396978.703125
37.63,1651396978.71875
38.02,1651396978.734375
38.22,1651396978.75
38.28,1651396978.765625
38.22,1651396978.78125
38.05,1651396978.796875
37.65,1651396978.8125
36.8,1651396978.828125
35.26,1651396978.84375
32.83,1651396978.859375
29.49,1651396978.875
25.34,1651396978.890625
20.66,1651396978.90625
15.85,1651396978.921875
11.35,1651396978.9375
7.5,1651396978.953125
4.47,1651396978.96875
2.09,1651396978.984375
-0.08,1651396979.0
-2.58,1651396979.015625
-5.83,1651396979.03125
-9.87,1651396979.046875
-14.34,1651396979.0625
-18.7,1651396979.078125
-22.51,1651396979.09375
-25.69,1651396979.109375
-28.56,1651396979.125
-31.7,1651396979.140625
-35.72,1651396979.15625
-41.03,1651396979.171875
-47.79,1651396979.1875
-55.78,1651396979.203125
-64.31,1651396979.21875
-72.2,1651396979.234375
-77.89,1651396979.25
-79.76,1651396979.265625
-76.75,1651396979.28125
-68.66,1651396979.296875
-56.45,1651396979.3125
-41.91,1651396979.328125
-27.11,1651396979.34375
-13.77,1651396979.359375
-2.82,1651396979.375
5.62,1651396979.390625
12.02,1651396979.40625
17.01,1651396979.421875
21.13,1651396979.4375
24.68,1651396979.453125
27.76,1651396979.46875
30.36,1651396979.484375
32.51,1651396979.5
34.27,1651396979.515625
35.69,1651396979.53125
36.82,1651396979.546875
37.65,1651396979.5625
38.17,1651396979.578125
38.42,1651396979.59375
38.5,1651396979.609375
38.59,1651396979.625
38.84,1651396979.640625
39.31,1651396979.65625
39.84,1651396979.671875
40.15,1651396979.6875
39.84,1651396979.703125
38.59,1651396979.71875
36.24,1651396979.734375
32.83,1651396979.75
28.66,1651396979.765625
24.16,1651396979.78125
19.79,1651396979.796875
15.79,1651396979.8125
12.22,1651396979.828125
8.84,1651396979.84375
5.31,1651396979.859375
1.35,1651396979.875
-3.1,1651396979.890625
-7.84,1651396979.90625
-12.53,1651396979.921875
-16.79,1651396979.9375
-20.51,1651396979.953125
-23.85,1651396979.96875
-27.32,1651396979.984375
-31.5,1651396980.0
-36.96,1651396980.015625
-43.87,1651396980.03125
-51.83,1651396980.046875
-59.79,1651396980.0625
-66.12,1651396980.078125
-69.12,1651396980.09375
-67.44,1651396980.109375
-60.72,1651396980.125
-49.63,1651396980.140625
-35.75,1651396980.15625
-21.05,1651396980.171875
-7.28,1651396980.1875
4.46,1651396980.203125
13.83,1651396980.21875
21.05,1651396980.234375
26.54,1651396980.25
30.62,1651396980.265625
33.39,1651396980.28125
34.87,1651396980.296875
35.12,1651396980.3125
34.39,1651396980.328125
33.07,1651396980.34375
31.6,1651396980.359375
30.31,1651396980.375
29.42,1651396980.390625
28.91,1651396980.40625
28.65,1651396980.421875
28.51,1651396980.4375
28.35,1651396980.453125
28.03,1651396980.46875
27.38,1651396980.484375
26.25,1651396980.5
24.46,1651396980.515625
21.97,1651396980.53125
18.85,1651396980.546875
15.29,1651396980.5625
11.47,1651396980.578125
7.49,1651396980.59375
3.41,1651396980.609375
-0.83,1651396980.625
-5.17,1651396980.640625
-9.54,1651396980.65625
-13.78,1651396980.671875
-17.81,1651396980.6875
-21.63,1651396980.703125
-25.43,1651396980.71875
-29.47,1651396980.734375
-34.09,1651396980.75
-39.63,1651396980.765625
-46.31,1651396980.78125
-54.11,1651396980.796875
-62.55,1651396980.8125
-70.59,1651396980.828125
-76.69,1651396980.84375
-79.16,1651396980.859375
-76.72,1651396980.875
-68.95,1651396980.890625
-56.67,1651396980.90625
-41.6,1651396980.921875
-25.88,1651396980.9375
-11.33,1651396980.953125
0.99,1651396980.96875
10.88,1651396980.984375
18.71,1651396981.0
25.01,1651396981.015625
30.18,1651396981.03125
34.33,1651396981.046875
37.49,1651396981.0625
39.62,1651396981.078125
40.8,1651396981.09375
41.22,1651396981.109375
41.05,1651396981.125
40.44,1651396981.140625
39.51,1651396981.15625
38.36,1651396981.171875
37.14,1651396981.1875
36.03,1651396981.203125
35.17,1651396981.21875
34.59,1651396981.234375
34.2,1651396981.25
33.74,1651396981.265625
32.88,1651396981.28125
31.31,1651396981.296875
28.81,1651396981.3125
25.41,1651396981.328125
21.32,1651396981.34375
16.92,1651396981.359375
12.58,1651396981.375
8.55,1651396981.390625
4.84,1651396981.40625
1.26,1651396981.421875
-2.44,1651396981.4375
-6.42,1651396981.453125
-10.66,1651396981.46875
-14.98,1651396981.484375
-19.15,1651396981.5
-23.08,1651396981.515625
-26.94,1651396981.53125
-31.18,1651396981.546875
-36.4,1651396981.5625
-43.02,1651396981.578125
-51.08,1651396981.59375
-59.98,1651396981.609375
-68.47,1651396981.625
-74.82,1651396981.640625
-77.28,1651396981.65625
-74.66,1651396981.671875
-66.72,1651396981.6875
-54.33,1651396981.703125
-39.19,1651396981.71875
-23.35,1651396981.734375
-8.52,1651396981.75
4.29,1651396981.765625
14.85,1651396981.78125
23.51,1651396981.796875
30.83,1651396981.8125
37.22,1651396981.828125
42.78,1651396981.84375
47.4,1651396981.859375
50.87,1651396981.875
53.14,1651396981.890625
54.41,1651396981.90625
55.11,1651396981.921875
55.8,1651396981.9375
56.84,1651396981.953125
58.33,1651396981.96875
60.04,1651396981.984375
61.64,1651396982.0
62.84,1651396982.015625
63.6,1651396982.03125
64.09,1651396982.046875
64.51,1651396982.0625
64.98,1651396982.078125
65.36,1651396982.09375
65.35,1651396982.109375
64.54,1651396982.125
62.68,1651396982.140625
59.7,1651396982.15625
55.85,1651396982.171875
51.55,1651396982.1875
47.29,1651396982.203125
43.52,1651396982.21875
40.43,1651396982.234375
37.88,1651396982.25
35.38,1651396982.265625
32.3,1651396982.28125
28.06,1651396982.296875
22.47,1651396982.3125
15.82,1651396982.328125
8.75,1651396982.34375
2.08,1651396982.359375
-3.61,1651396982.375
-8.12,1651396982.390625
-11.73,1651396982.40625
-15.09,1651396982.421875
-18.92,1651396982.4375
-23.87,1651396982.453125
-30.21,1651396982.46875
-37.72,1651396982.484375
-45.58,1651396982.5
-52.46,1651396982.515625
-56.75,1651396982.53125
-57.08,1651396982.546875
-52.74,1651396982.5625
-44.15,1651396982.578125
-32.67,1651396982.59375
-20.23,1651396982.609375
-8.66,1651396982.625
0.87,1651396982.640625
8.01,1651396982.65625
13.14,1651396982.671875
16.86,1651396982.6875
19.63,1651396982.703125
21.61,1651396982.71875
22.78,1651396982.734375
23.17,1651396982.75
22.97,1651396982.765625
22.5,1651396982.78125
22.03,1651396982.796875
21.61,1651396982.8125
21.12,1651396982.828125
20.45,1651396982.84375
19.66,1651396982.859375
19.0,1651396982.875
18.76,1651396982.890625
19.09,1651396982.90625
19.83,1651396982.921875
20.5,1651396982.9375
20.54,1651396982.953125
19.55,1651396982.96875
17.41,1651396982.984375
14.34,1651396983.0
10.67,1651396983.015625
6.74,1651396983.03125
2.72,1651396983.046875
-1.33,1651396983.0625
-5.42,1651396983.078125
-9.52,1651396983.09375
-13.56,1651396983.109375
-17.37,1651396983.125
-20.78,1651396983.140625
-23.7,1651396983.15625
-26.12,1651396983.171875
-28.18,1651396983.1875
-30.11,1651396983.203125
-32.21,1651396983.21875
-34.86,1651396983.234375
-38.42,1651396983.25
-43.07,1651396983.265625
-48.64,1651396983.28125
-54.42,1651396983.296875
-59.21,1651396983.3125
-61.55,1651396983.328125
-60.16,1651396983.34375
-54.35,1651396983.359375
-44.45,1651396983.375
-31.64,1651396983.390625
-17.65,1651396983.40625
-4.21,1651396983.421875
7.4,1651396983.4375
16.71,1651396983.453125
23.9,1651396983.46875
29.51,1651396983.484375
34.09,1651396983.5
37.94,1651396983.515625
41.04,1651396983.53125
43.25,1651396983.546875
44.54,1651396983.5625
45.15,1651396983.578125
45.56,1651396983.59375
46.24,1651396983.609375
47.48,1651396983.625
49.25,1651396983.640625
51.32,1651396983.65625
53.48,1651396983.671875
55.69,1651396983.6875
58.06,1651396983.703125
60.66,1651396983.71875
63.29,1651396983.734375
65.41,1651396983.75
66.33,1651396983.765625
65.54,1651396983.78125
63.08,1651396983.796875
59.6,1651396983.8125
56.07,1651396983.828125
53.38,1651396983.84375
51.91,1651396983.859375
51.42,1651396983.875
51.12,1651396983.890625
50.12,1651396983.90625
47.73,1651396983.921875
43.75,1651396983.9375
38.42,1651396983.953125
32.22,1651396983.96875
25.72,1651396983.984375
19.42,1651396984.0
13.65,1651396984.015625
8.49,1651396984.03125
3.61,1651396984.046875
-1.8,1651396984.0625
-8.95,1651396984.078125
-18.99,1651396984.09375
-32.45,1651396984.109375
-48.53,1651396984.125
-65.11,1651396984.140625
-79.25,1651396984.15625
-88.28,1651396984.171875
-90.73,1651396984.1875
-86.95,1651396984.203125
-78.74,1651396984.21875
-68.54,1651396984.234375
-58.56,1651396984.25
-50.14,1651396984.265625
-43.68,1651396984.28125
-38.94,1651396984.296875
-35.38,1651396984.3125
-32.49,1651396984.328125
-29.9,1651396984.34375
-27.44,1651396984.359375
-25.03,1651396984.375
-22.74,1651396984.390625
-20.58,1651396984.40625
-18.28,1651396984.421875
-15.32,1651396984.4375
-11.07,1651396984.453125
-5.03,1651396984.46875
2.7,1651396984.484375
11.44,1651396984.5
20.04,1651396984.515625
27.43,1651396984.53125
32.89,1651396984.546875
36.37,1651396984.5625
38.25,1651396984.578125
38.99,1651396984.59375
38.81,1651396984.609375
37.62,1651396984.625
35.16,1651396984.640625
31.3,1651396984.65625
26.29,1651396984.671875
20.7,1651396984.6875
15.23,1651396984.703125
10.55,1651396984.71875
7.03,1651396984.734375
4.83,1651396984.75
3.95,1651396984.765625
4.3,1651396984.78125
5.53,1651396984.796875
7.08,1651396984.8125
8.17,1651396984.828125
8.06,1651396984.84375
6.51,1651396984.859375
3.94,1651396984.875
1.47,1651396984.890625
0.54,1651396984.90625
2.31,1651396984.921875
7.05,1651396984.9375
13.87,1651396984.953125
20.92,1651396984.96875
25.99,1651396984.984375
27.32,1651396985.0
24.3,1651396985.015625
17.76,1651396985.03125
9.66,1651396985.046875
2.45,1651396985.0625
-1.95,1651396985.078125
-2.72,1651396985.09375
-0.41,1651396985.109375
3.44,1651396985.125
7.09,1651396985.140625
9.32,1651396985.15625
9.9,1651396985.171875
9.4,1651396985.1875
8.81,1651396985.203125
8.9,1651396985.21875
9.92,1651396985.234375
11.5,1651396985.25
12.92,1651396985.265625
13.55,1651396985.28125
13.06,1651396985.296875
11.53,1651396985.3125
9.23,1651396985.328125
6.44,1651396985.34375
3.32,1651396985.359375
-0.13,1651396985.375
-3.86,1651396985.390625
-7.65,1651396985.40625
-10.98,1651396985.421875
-13.2,1651396985.4375
-13.69,1651396985.453125
-12.15,1651396985.46875
-8.63,1651396985.484375
-3.55,1651396985.5
2.47,1651396985.515625
8.75,1651396985.53125
14.73,1651396985.546875
20.0,1651396985.5625
24.26,1651396985.578125
27.45,1651396985.59375
29.66,1651396985.609375
31.12,1651396985.625
32.06,1651396985.640625
32.49,1651396985.65625
31.89,1651396985.671875
29.24,1651396985.6875
23.02,1651396985.703125
11.74,1651396985.71875
-5.55,1651396985.734375
-28.73,1651396985.75
-56.21,1651396985.765625
-85.12,1651396985.78125
-111.87,1651396985.796875
-132.98,1651396985.8125
-146.02,1651396985.828125
-150.18,1651396985.84375
-146.3,1651396985.859375
-136.33,1651396985.875
-122.64,1651396985.890625
-107.43,1651396985.90625
-92.47,1651396985.921875
-79.18,1651396985.9375
-68.74,1651396985.953125
-62.06,1651396985.96875
-59.59,1651396985.984375
-60.89,1651396986.0
-64.48,1651396986.015625
-68.22,1651396986.03125
-69.86,1651396986.046875
-67.84,1651396986.0625
-61.77,1651396986.078125
-52.53,1651396986.09375
-41.7,1651396986.109375
-31.02,1651396986.125
-21.86,1651396986.140625
-14.87,1651396986.15625
-10.14,1651396986.171875
-7.4,1651396986.1875
-6.4,1651396986.203125
-7.03,1651396986.21875
-9.19,1651396986.234375
-12.73,1651396986.25
-17.27,1651396986.265625
-22.32,1651396986.28125
-27.49,1651396986.296875
-32.8,1651396986.3125
-38.76,1651396986.328125
-46.19,1651396986.34375
-55.81,1651396986.359375
-67.86,1651396986.375
-81.8,1651396986.390625
-96.31,1651396986.40625
-109.78,1651396986.421875
-120.75,1651396986.4375
-128.43,1651396986.453125
-132.83,1651396986.46875
-134.71,1651396986.484375
-135.08,1651396986.5
-134.78,1651396986.515625
-134.29,1651396986.53125
-133.67,1651396986.546875
-132.75,1651396986.5625
-131.22,1651396986.578125
-128.49,1651396986.59375
-123.56,1651396986.609375
-115.02,1651396986.625
-101.44,1651396986.640625
-82.19,1651396986.65625
-58.11,1651396986.671875
-31.4,1651396986.6875
-4.92,1651396986.703125
19.29,1651396986.71875
40.98,1651396986.734375
61.89,1651396986.75
84.7,1651396986.765625
111.44,1651396986.78125
142.35,1651396986.796875
175.65,1651396986.8125
208.47,1651396986.828125
238.21,1651396986.84375
263.33,1651396986.859375
283.61,1651396986.875
299.56,1651396986.890625
311.81,1651396986.90625
320.86,1651396986.921875
327.17,1651396986.9375
331.38,1651396986.953125
334.24,1651396986.96875
336.11,1651396986.984375
336.32,1651396987.0
332.91,1651396987.015625
323.2,1651396987.03125
304.75,1651396987.046875
276.39,1651396987.0625
238.76,1651396987.078125
194.04,1651396987.09375
144.98,1651396987.109375
93.82,1651396987.125
41.82,1651396987.140625
-10.58,1651396987.15625
-62.9,1651396987.171875
-113.78,1651396987.1875
-160.76,1651396987.203125
-200.88,1651396987.21875
-231.78,1651396987.234375
-252.63,1651396987.25
-264.54,1651396987.265625
-269.93,1651396987.28125
-271.56,1651396987.296875
-271.48,1651396987.3125
-270.55,1651396987.328125
-268.62,1651396987.34375
-265.13,1651396987.359375
-259.74,1651396987.375
-252.55,1651396987.390625
-243.92,1651396987.40625
-234.04,1651396987.421875
-222.53,1651396987.4375
-208.57,1651396987.453125
-191.35,1651396987.46875
-170.65,1651396987.484375
-147.3,1651396987.5
-123.19,1651396987.515625
-100.6,1651396987.53125
-81.42,1651396987.546875
-66.41,1651396987.5625
-55.16,1651396987.578125
-46.38,1651396987.59375
-38.6,1651396987.609375
-30.69,1651396987.625
-22.04,1651396987.640625
-12.43,1651396987.65625
-1.85,1651396987.671875
9.64,1651396987.6875
21.83,1651396987.703125
34.21,1651396987.71875
45.98,1651396987.734375
56.26,1651396987.75
64.4,1651396987.765625
70.28,1651396987.78125
74.38,1651396987.796875
77.65,1651396987.8125
81.09,1651396987.828125
85.38,1651396987.84375
90.65,1651396987.859375
96.44,1651396987.875
101.95,1651396987.890625
106.32,1651396987.90625
108.96,1651396987.921875
109.79,1651396987.9375
109.17,1651396987.953125
107.65,1651396987.96875
105.7,1651396987.984375
103.59,1651396988.0
101.25,1651396988.015625
98.43,1651396988.03125
94.8,1651396988.046875
90.05,1651396988.0625
84.02,1651396988.078125
76.77,1651396988.09375
68.55,1651396988.109375
59.7,1651396988.125
50.56,1651396988.140625
41.4,1651396988.15625
32.35,1651396988.171875
23.44,1651396988.1875
14.68,1651396988.203125
6.01,1651396988.21875
-2.59,1651396988.234375
-11.16,1651396988.25
-19.68,1651396988.265625
-27.9,1651396988.28125
-35.44,1651396988.296875
-41.7,1651396988.3125
-46.14,1651396988.328125
-48.5,1651396988.34375
-49.0,1651396988.359375
-48.38,1651396988.375
-47.7,1651396988.390625
-47.92,1651396988.40625
-49.49,1651396988.421875
-52.13,1651396988.4375
-54.8,1651396988.453125
-56.03,1651396988.46875
-54.36,1651396988.484375
-48.84,1651396988.5
-39.31,1651396988.515625
-26.49,1651396988.53125
-11.65,1651396988.546875
3.74,1651396988.5625
18.39,1651396988.578125
31.42,1651396988.59375
42.44,1651396988.609375
51.33,1651396988.625
58.22,1651396988.640625
63.31,1651396988.65625
66.78,1651396988.671875
68.79,1651396988.6875
69.51,1651396988.703125
69.11,1651396988.71875
67.81,1651396988.734375
65.93,1651396988.75
63.71,1651396988.765625
61.29,1651396988.78125
58.52,1651396988.796875
55.08,1651396988.8125
50.63,1651396988.828125
45.08,1651396988.84375
38.76,1651396988.859375
32.25,1651396988.875
26.29,1651396988.890625
21.37,1651396988.90625
17.54,1651396988.921875
14.47,1651396988.9375
11.63,1651396988.953125
8.47,1651396988.96875
4.69,1651396988.984375
0.16,1651396989.0
-5.02,1651396989.015625
-10.68,1651396989.03125
-16.57,1651396989.046875
-22.39,1651396989.0625
-27.84,1651396989.078125
-32.73,1651396989.09375
-37.01,1651396989.109375
-40.91,1651396989.125
-44.71,1651396989.140625
-48.72,1651396989.15625
-53.15,1651396989.171875
-57.99,1651396989.1875
-63.15,1651396989.203125
-68.43,1651396989.21875
-73.8,1651396989.234375
-79.22,1651396989.25
-84.71,1651396989.265625
-90.05,1651396989.28125
-94.75,1651396989.296875
-97.97,1651396989.3125
-98.65,1651396989.328125
-95.84,1651396989.34375
-88.86,1651396989.359375
-77.67,1651396989.375
-62.97,1651396989.390625
-46.08,1651396989.40625
-28.79,1651396989.421875
-12.91,1651396989.4375
0.13,1651396989.453125
9.61,1651396989.46875
15.64,1651396989.484375
18.96,1651396989.5
20.57,1651396989.515625
21.3,1651396989.53125
21.62,1651396989.546875
21.58,1651396989.5625
21.14,1651396989.578125
20.43,1651396989.59375
19.82,1651396989.609375
19.75,1651396989.625
20.53,1651396989.640625
22.08,1651396989.65625
23.93,1651396989.671875
25.48,1651396989.6875
26.39,1651396989.703125
26.72,1651396989.71875
26.9,1651396989.734375
27.41,1651396989.75
28.42,1651396989.765625
29.6,1651396989.78125
30.2,1651396989.796875
29.52,1651396989.8125
27.26,1651396989.828125
23.71,1651396989.84375
19.66,1651396989.859375
15.99,1651396989.875
13.15,1651396989.890625
11.02,1651396989.90625
8.94,1651396989.921875
6.11,1651396989.9375
2.0,1651396989.953125
-3.42,1651396989.96875
-9.76,1651396989.984375
-16.38,1651396990.0
-22.69,1651396990.015625
-28.32,1651396990.03125
-33.12,1651396990.046875
-37.14,1651396990.0625
-40.64,1651396990.078125
-44.09,1651396990.09375
-48.14,1651396990.109375
-53.44,1651396990.125
-60.34,1651396990.140625
-68.59,1651396990.15625
-77.23,1651396990.171875
-84.78,1651396990.1875
-89.69,1651396990.203125
-90.75,1651396990.21875
-87.47,1651396990.234375
-80.19,1651396990.25
-69.92,1651396990.265625
-58.06,1651396990.28125
-45.94,1651396990.296875
-34.54,1651396990.3125
-24.24,1651396990.328125
-14.82,1651396990.34375
-5.8,1651396990.359375
3.17,1651396990.375
11.94,1651396990.390625
19.75,1651396990.40625
25.55,1651396990.421875
28.57,1651396990.4375
28.8,1651396990.453125
27.27,1651396990.46875
25.71,1651396990.484375
26.0,1651396990.5
29.39,1651396990.515625
36.03,1651396990.53125
