bvp,time
29.0,1709208565.203125
29.95,1709208565.21875
30.03,1709208565.234375
29.35,1709208565.25
28.21,1709208565.265625
26.92,1709208565.28125
25.67,1709208565.296875
24.5,1709208565.3125
23.3,1709208565.328125
21.91,1709208565.34375
20.26,1709208565.359375
18.34,1709208565.375
16.28,1709208565.390625
14.22,1709208565.40625
12.28,1709208565.421875
10.54,1709208565.4375
8.96,1709208565.453125
7.52,1709208565.46875
6.16,1709208565.484375
4.86,1709208565.5
3.6,1709208565.515625
2.34,1709208565.53125
0.99,1709208565.546875
-0.56,1709208565.5625
-2.42,1709208565.578125
-4.62,1709208565.59375
-7.09,1709208565.609375
-9.62,1709208565.625
-12.0,1709208565.640625
-14.08,1709208565.65625
-15.86,1709208565.671875
-17.51,1709208565.6875
-19.33,1709208565.703125
-21.57,1709208565.71875
-24.39,1709208565.734375
-27.73,1709208565.75
-31.39,1709208565.765625
-35.13,1709208565.78125
-38.71,1709208565.796875
-42.0,1709208565.8125
-45.01,1709208565.828125
-47.9,1709208565.84375
-50.96,1709208565.859375
-54.61,1709208565.875
-59.25,1709208565.890625
-65.17,1709208565.90625
-72.28,1709208565.921875
-80.04,1709208565.9375
-87.48,1709208565.953125
-93.37,1709208565.96875
-96.58,1709208565.984375
-96.46,1709208566.0
-92.96,1709208566.015625
-86.73,1709208566.03125
-78.88,1709208566.046875
-70.73,1709208566.0625
-63.48,1709208566.078125
-58.03,1709208566.09375
-54.89,1709208566.109375
-54.13,1709208566.125
-55.41,1709208566.140625
-58.04,1709208566.15625
-61.03,1709208566.171875
-63.17,1709208566.1875
-63.27,1709208566.203125
-60.33,1709208566.21875
-53.73,1709208566.234375
-43.32,1709208566.25
-29.35,1709208566.265625
-12.36,1709208566.28125
7.04,1709208566.296875
28.35,1709208566.3125
51.21,1709208566.328125
75.45,1709208566.34375
100.97,1709208566.359375
127.58,1709208566.375
154.78,1709208566.390625
181.73,1709208566.40625
207.29,1709208566.421875
230.28,1709208566.4375
249.92,1709208566.453125
266.07,1709208566.46875
279.19,1709208566.484375
289.91,1709208566.5
298.31,1709208566.515625
303.27,1709208566.53125
302.46,1709208566.546875
292.86,1709208566.5625
271.72,1709208566.578125
237.46,1709208566.59375
190.37,1709208566.609375
132.96,1709208566.625
69.9,1709208566.640625
7.41,1709208566.65625
-47.81,1709208566.671875
-90.16,1709208566.6875
-116.68,1709208566.703125
-127.89,1709208566.71875
-127.37,1709208566.734375
-120.34,1709208566.75
-111.67,1709208566.765625
-104.41,1709208566.78125
-99.38,1709208566.796875
-95.99,1709208566.8125
-93.35,1709208566.828125
-91.16,1709208566.84375
-89.72,1709208566.859375
-89.34,1709208566.875
-89.82,1709208566.890625
-90.32,1709208566.90625
-89.84,1709208566.921875
-87.77,1709208566.9375
-84.29,1709208566.953125
-80.23,1709208566.96875
-76.71,1709208566.984375
-74.59,1709208567.0
-74.06,1709208567.015625
-74.7,1709208567.03125
-75.64,1709208567.046875
-76.06,1709208567.0625
-75.47,1709208567.078125
-73.97,1709208567.09375
-72.12,1709208567.109375
-70.65,1709208567.125
-70.16,1709208567.140625
-70.88,1709208567.15625
-72.75,1709208567.171875
-75.46,1709208567.1875
-78.72,1709208567.203125
-82.15,1709208567.21875
-85.25,1709208567.234375
-87.31,1709208567.25
-87.39,1709208567.265625
-84.6,1709208567.28125
-78.35,1709208567.296875
-68.67,1709208567.3125
-56.23,1709208567.328125
-42.22,1709208567.34375
-28.0,1709208567.359375
-14.8,1709208567.375
-3.52,1709208567.390625
5.36,1709208567.40625
11.72,1709208567.421875
15.76,1709208567.4375
17.89,1709208567.453125
18.64,1709208567.46875
18.58,1709208567.484375
18.19,1709208567.5
17.78,1709208567.515625
17.51,1709208567.53125
17.4,1709208567.546875
17.37,1709208567.5625
17.42,1709208567.578125
17.58,1709208567.59375
17.99,1709208567.609375
18.87,1709208567.625
20.38,1709208567.640625
22.62,1709208567.65625
25.5,1709208567.671875
28.76,1709208567.6875
32.06,1709208567.703125
34.99,1709208567.71875
37.21,1709208567.734375
38.52,1709208567.75
38.87,1709208567.765625
38.34,1709208567.78125
37.11,1709208567.796875
35.35,1709208567.8125
33.21,1709208567.828125
30.82,1709208567.84375
28.31,1709208567.859375
25.81,1709208567.875
23.44,1709208567.890625
21.28,1709208567.90625
19.36,1709208567.921875
17.69,1709208567.9375
16.26,1709208567.953125
15.1,1709208567.96875
14.19,1709208567.984375
13.54,1709208568.0
13.04,1709208568.015625
12.58,1709208568.03125
12.03,1709208568.046875
11.34,1709208568.0625
10.53,1709208568.078125
9.71,1709208568.09375
8.93,1709208568.109375
8.21,1709208568.125
7.47,1709208568.140625
6.61,1709208568.15625
5.5,1709208568.171875
4.07,1709208568.1875
2.31,1709208568.203125
0.23,1709208568.21875
-2.06,1709208568.234375
-4.44,1709208568.25
-6.76,1709208568.265625
-8.9,1709208568.28125
-10.82,1709208568.296875
-12.6,1709208568.3125
-14.4,1709208568.328125
-16.41,1709208568.34375
-18.76,1709208568.359375
-21.45,1709208568.375
-24.33,1709208568.390625
-27.18,1709208568.40625
-29.79,1709208568.421875
-32.12,1709208568.4375
-34.3,1709208568.453125
-36.7,1709208568.46875
-39.74,1709208568.484375
-43.77,1709208568.5
-48.85,1709208568.515625
-54.58,1709208568.53125
-60.06,1709208568.546875
-64.06,1709208568.5625
-65.3,1709208568.578125
-62.87,1709208568.59375
-56.46,1709208568.609375
-46.55,1709208568.625
-34.22,1709208568.640625
-20.89,1709208568.65625
-7.94,1709208568.671875
3.55,1709208568.6875
12.9,1709208568.703125
19.86,1709208568.71875
24.46,1709208568.734375
26.96,1709208568.75
27.71,1709208568.765625
27.12,1709208568.78125
25.62,1709208568.796875
23.56,1709208568.8125
21.27,1709208568.828125
19.03,1709208568.84375
17.08,1709208568.859375
15.68,1709208568.875
15.04,1709208568.890625
15.32,1709208568.90625
16.57,1709208568.921875
18.73,1709208568.9375
21.59,1709208568.953125
24.92,1709208568.96875
28.42,1709208568.984375
31.84,1709208569.0
34.88,1709208569.015625
37.28,1709208569.03125
38.83,1709208569.046875
39.41,1709208569.0625
39.05,1709208569.078125
37.92,1709208569.09375
36.28,1709208569.109375
34.32,1709208569.125
32.19,1709208569.140625
29.91,1709208569.15625
27.48,1709208569.171875
24.92,1709208569.1875
22.36,1709208569.203125
19.91,1709208569.21875
17.67,1709208569.234375
15.66,1709208569.25
13.84,1709208569.265625
12.16,1709208569.28125
10.6,1709208569.296875
9.19,1709208569.3125
7.91,1709208569.328125
6.74,1709208569.34375
5.59,1709208569.359375
4.35,1709208569.375
3.0,1709208569.390625
1.55,1709208569.40625
0.06,1709208569.421875
-1.49,1709208569.4375
-3.19,1709208569.453125
-5.22,1709208569.46875
-7.74,1709208569.484375
-10.8,1709208569.5
-14.25,1709208569.515625
-17.86,1709208569.53125
-21.31,1709208569.546875
-24.44,1709208569.5625
-27.26,1709208569.578125
-30.0,1709208569.59375
-33.07,1709208569.609375
-36.88,1709208569.625
-41.64,1709208569.640625
-47.15,1709208569.65625
-52.69,1709208569.671875
-57.11,1709208569.6875
-59.16,1709208569.703125
-57.83,1709208569.71875
-52.7,1709208569.734375
-44.05,1709208569.75
-32.8,1709208569.765625
-20.18,1709208569.78125
-7.45,1709208569.796875
4.28,1709208569.8125
14.2,1709208569.828125
21.81,1709208569.84375
26.92,1709208569.859375
29.68,1709208569.875
30.48,1709208569.890625
29.89,1709208569.90625
28.5,1709208569.921875
26.8,1709208569.9375
25.09,1709208569.953125
23.51,1709208569.96875
22.11,1709208569.984375
20.91,1709208570.0
19.96,1709208570.015625
19.35,1709208570.03125
19.22,1709208570.046875
19.69,1709208570.0625
20.86,1709208570.078125
22.67,1709208570.09375
24.92,1709208570.109375
27.32,1709208570.125
29.5,1709208570.140625
31.2,1709208570.15625
32.25,1709208570.171875
32.63,1709208570.1875
32.39,1709208570.203125
31.6,1709208570.21875
30.34,1709208570.234375
28.7,1709208570.25
26.78,1709208570.265625
24.7,1709208570.28125
22.58,1709208570.296875
20.46,1709208570.3125
18.36,1709208570.328125
16.24,1709208570.34375
14.08,1709208570.359375
11.92,1709208570.375
9.85,1709208570.390625
8.02,1709208570.40625
6.51,1709208570.421875
5.34,1709208570.4375
4.39,1709208570.453125
3.45,1709208570.46875
2.29,1709208570.484375
0.78,1709208570.5
-1.07,1709208570.515625
-3.08,1709208570.53125
-5.02,1709208570.546875
-6.7,1709208570.5625
-8.1,1709208570.578125
-9.36,1709208570.59375
-10.78,1709208570.609375
-12.63,1709208570.625
-15.04,1709208570.640625
-17.92,1709208570.65625
-21.01,1709208570.671875
-24.02,1709208570.6875
-26.74,1709208570.703125
-29.13,1709208570.71875
-31.33,1709208570.734375
-33.58,1709208570.75
-36.18,1709208570.765625
-39.41,1709208570.78125
-43.45,1709208570.796875
-48.27,1709208570.8125
-53.49,1709208570.828125
-58.33,1709208570.84375
-61.65,1709208570.859375
-62.26,1709208570.875
-59.29,1709208570.890625
-52.53,1709208570.90625
-42.62,1709208570.921875
-30.84,1709208570.9375
-18.74,1709208570.953125
-7.62,1709208570.96875
1.72,1709208570.984375
9.06,1709208571.0
14.58,1709208571.015625
18.53,1709208571.03125
21.13,1709208571.046875
22.47,1709208571.0625
22.68,1709208571.078125
22.02,1709208571.09375
20.85,1709208571.109375
19.56,1709208571.125
18.43,1709208571.140625
17.54,1709208571.15625
16.84,1709208571.171875
16.27,1709208571.1875
15.91,1709208571.203125
15.97,1709208571.21875
16.71,1709208571.234375
18.3,1709208571.25
20.66,1709208571.265625
23.48,1709208571.28125
26.33,1709208571.296875
28.76,1709208571.3125
30.45,1709208571.328125
31.23,1709208571.34375
31.09,1709208571.359375
30.17,1709208571.375
28.67,1709208571.390625
26.87,1709208571.40625
25.01,1709208571.421875
23.24,1709208571.4375
21.62,1709208571.453125
20.04,1709208571.46875
18.36,1709208571.484375
16.42,1709208571.5
14.19,1709208571.515625
11.75,1709208571.53125
9.3,1709208571.546875
7.06,1709208571.5625
5.17,1709208571.578125
3.68,1709208571.59375
2.53,1709208571.609375
1.57,1709208571.625
0.64,1709208571.640625
-0.37,1709208571.65625
-1.54,1709208571.671875
-2.84,1709208571.6875
-4.2,1709208571.703125
-5.53,1709208571.71875
-6.79,1709208571.734375
-7.99,1709208571.75
-9.26,1709208571.765625
-10.81,1709208571.78125
-12.83,1709208571.796875
-15.42,1709208571.8125
-18.48,1709208571.828125
-21.73,1709208571.84375
-24.79,1709208571.859375
-27.36,1709208571.875
-29.37,1709208571.890625
-31.0,1709208571.90625
-32.63,1709208571.921875
-34.74,1709208571.9375
-37.72,1709208571.953125
-41.71,1709208571.96875
-46.47,1709208571.984375
-51.35,1709208572.0
-55.27,1709208572.015625
-57.04,1709208572.03125
-55.61,1709208572.046875
-50.48,1709208572.0625
-41.92,1709208572.078125
-30.87,1709208572.09375
-18.65,1709208572.109375
-6.48,1709208572.125
4.77,1709208572.140625
14.66,1709208572.15625
23.06,1709208572.171875
29.93,1709208572.1875
35.22,1709208572.203125
38.89,1709208572.21875
41.03,1709208572.234375
41.87,1709208572.25
41.78,1709208572.265625
41.23,1709208572.28125
40.69,1709208572.296875
40.61,1709208572.3125
41.39,1709208572.328125
43.17,1709208572.34375
45.61,1709208572.359375
47.67,1709208572.375
47.77,1709208572.390625
44.37,1709208572.40625
36.73,1709208572.421875
25.39,1709208572.4375
12.18,1709208572.453125
-0.47,1709208572.46875
-10.41,1709208572.484375
-16.49,1709208572.5
-18.65,1709208572.515625
-17.61,1709208572.53125
-14.3,1709208572.546875
-9.49,1709208572.5625
-3.7,1709208572.578125
2.55,1709208572.59375
8.63,1709208572.609375
13.77,1709208572.625
17.35,1709208572.640625
19.04,1709208572.65625
18.99,1709208572.671875
17.71,1709208572.6875
15.81,1709208572.703125
13.76,1709208572.71875
11.72,1709208572.734375
9.45,1709208572.75
6.48,1709208572.765625
2.3,1709208572.78125
-3.3,1709208572.796875
-10.06,1709208572.8125
-17.29,1709208572.828125
-24.1,1709208572.84375
-29.76,1709208572.859375
-33.95,1709208572.875
-36.81,1709208572.890625
-38.81,1709208572.90625
-40.45,1709208572.921875
-42.11,1709208572.9375
-43.98,1709208572.953125
-46.18,1709208572.96875
-48.77,1709208572.984375
-51.85,1709208573.0
-55.41,1709208573.015625
-59.28,1709208573.03125
-63.08,1709208573.046875
-66.3,1709208573.0625
-68.49,1709208573.078125
-69.48,1709208573.09375
-69.44,1709208573.109375
-68.9,1709208573.125
-68.45,1709208573.140625
-68.53,1709208573.15625
-69.09,1709208573.171875
-69.63,1709208573.1875
-69.25,1709208573.203125
-67.04,1709208573.21875
-62.41,1709208573.234375
-55.27,1709208573.25
-46.1,1709208573.265625
-35.64,1709208573.28125
-24.7,1709208573.296875
-13.86,1709208573.3125
-3.43,1709208573.328125
6.43,1709208573.34375
15.61,1709208573.359375
23.87,1709208573.375
30.99,1709208573.390625
36.83,1709208573.40625
41.44,1709208573.421875
45.01,1709208573.4375
47.79,1709208573.453125
49.89,1709208573.46875
51.27,1709208573.484375
51.84,1709208573.5
51.6,1709208573.515625
50.78,1709208573.53125
49.76,1709208573.546875
48.93,1709208573.5625
48.58,1709208573.578125
48.78,1709208573.59375
49.45,1709208573.609375
50.47,1709208573.625
51.73,1709208573.640625
53.12,1709208573.65625
54.5,1709208573.671875
55.68,1709208573.6875
56.4,1709208573.703125
56.45,1709208573.71875
55.68,1709208573.734375
54.1,1709208573.75
51.77,1709208573.765625
48.88,1709208573.78125
45.62,1709208573.796875
42.19,1709208573.8125
38.76,1709208573.828125
35.45,1709208573.84375
32.29,1709208573.859375
29.27,1709208573.875
26.38,1709208573.890625
23.64,1709208573.90625
21.09,1709208573.921875
18.79,1709208573.9375
16.81,1709208573.953125
15.12,1709208573.96875
13.66,1709208573.984375
12.36,1709208574.0
11.13,1709208574.015625
9.89,1709208574.03125
8.56,1709208574.046875
7.03,1709208574.0625
5.23,1709208574.078125
3.19,1709208574.09375
0.96,1709208574.109375
-1.33,1709208574.125
-3.57,1709208574.140625
-5.7,1709208574.15625
-7.71,1709208574.171875
-9.63,1709208574.1875
-11.52,1709208574.203125
-13.42,1709208574.21875
-15.39,1709208574.234375
-17.48,1709208574.25
-19.78,1709208574.265625
-22.27,1709208574.28125
-24.9,1709208574.296875
-27.61,1709208574.3125
-30.38,1709208574.328125
-33.36,1709208574.34375
-36.8,1709208574.359375
-40.91,1709208574.375
-45.62,1709208574.390625
-50.41,1709208574.40625
-54.35,1709208574.421875
-56.31,1709208574.4375
-55.38,1709208574.453125
-51.23,1709208574.46875
-44.21,1709208574.484375
-35.24,1709208574.5
-25.5,1709208574.515625
-16.03,1709208574.53125
-7.55,1709208574.546875
-0.38,1709208574.5625
5.43,1709208574.578125
9.93,1709208574.59375
13.21,1709208574.609375
15.32,1709208574.625
16.34,1709208574.640625
16.39,1709208574.65625
15.66,1709208574.671875
14.34,1709208574.6875
12.67,1709208574.703125
10.84,1709208574.71875
9.07,1709208574.734375
7.58,1709208574.75
6.61,1709208574.765625
6.35,1709208574.78125
6.89,1709208574.796875
8.19,1709208574.8125
10.08,1709208574.828125
12.23,1709208574.84375
14.32,1709208574.859375
16.07,1709208574.875
17.28,1709208574.890625
17.87,1709208574.90625
17.8,1709208574.921875
17.09,1709208574.9375
15.75,1709208574.953125
13.81,1709208574.96875
11.34,1709208574.984375
8.51,1709208575.0
5.51,1709208575.015625
2.53,1709208575.03125
-0.34,1709208575.046875
-3.15,1709208575.0625
-6.05,1709208575.078125
-9.18,1709208575.09375
-12.54,1709208575.109375
-15.95,1709208575.125
-19.09,1709208575.140625
-21.6,1709208575.15625
-23.24,1709208575.171875
-23.92,1709208575.1875
-23.68,1709208575.203125
-22.59,1709208575.21875
-20.68,1709208575.234375
-17.98,1709208575.25
-14.57,1709208575.265625
-10.62,1709208575.28125
-6.4,1709208575.296875
-2.19,1709208575.3125
1.8,1709208575.328125
5.42,1709208575.34375
8.53,1709208575.359375
10.9,1709208575.375
12.23,1709208575.390625
12.23,1709208575.40625
10.77,1709208575.421875
8.0,1709208575.4375
4.42,1709208575.453125
0.82,1709208575.46875
-1.95,1709208575.484375
-3.09,1709208575.5
-2.13,1709208575.515625
0.98,1709208575.53125
5.86,1709208575.546875
11.81,1709208575.5625
18.0,1709208575.578125
23.69,1709208575.59375
28.37,1709208575.609375
31.79,1709208575.625
33.94,1709208575.640625
34.88,1709208575.65625
34.76,1709208575.671875
33.67,1709208575.6875
31.72,1709208575.703125
28.98,1709208575.71875
25.59,1709208575.734375
21.73,1709208575.75
17.69,1709208575.765625
13.89,1709208575.78125
10.79,1709208575.796875
8.77,1709208575.8125
8.0,1709208575.828125
8.4,1709208575.84375
9.69,1709208575.859375
11.49,1709208575.875
13.5,1709208575.890625
15.48,1709208575.90625
17.3,1709208575.921875
18.8,1709208575.9375
19.8,1709208575.953125
20.17,1709208575.96875
19.91,1709208575.984375
19.16,1709208576.0
18.13,1709208576.015625
16.99,1709208576.03125
15.76,1709208576.046875
14.28,1709208576.0625
12.39,1709208576.078125
10.02,1709208576.09375
7.33,1709208576.109375
4.6,1709208576.125
2.17,1709208576.140625
0.25,1709208576.15625
-1.13,1709208576.171875
-2.12,1709208576.1875
-2.95,1709208576.203125
-3.82,1709208576.21875
-4.87,1709208576.234375
-6.15,1709208576.25
-7.66,1709208576.265625
-9.39,1709208576.28125
-11.26,1709208576.296875
-13.24,1709208576.3125
-15.27,1709208576.328125
-17.27,1709208576.34375
-19.25,1709208576.359375
-21.29,1709208576.375
-23.61,1709208576.390625
-26.49,1709208576.40625
-30.12,1709208576.421875
-34.4,1709208576.4375
-38.83,1709208576.453125
-42.54,1709208576.46875
-44.56,1709208576.484375
-44.11,1709208576.5
-40.89,1709208576.515625
-35.19,1709208576.53125
-27.76,1709208576.546875
-19.52,1709208576.5625
-11.36,1709208576.578125
-3.89,1709208576.59375
2.51,1709208576.609375
7.66,1709208576.625
11.54,1709208576.640625
14.21,1709208576.65625
15.87,1709208576.671875
16.78,1709208576.6875
17.22,1709208576.703125
17.38,1709208576.71875
17.37,1709208576.734375
17.21,1709208576.75
16.91,1709208576.765625
16.47,1709208576.78125
15.99,1709208576.796875
15.61,1709208576.8125
15.5,1709208576.828125
15.74,1709208576.84375
16.41,1709208576.859375
17.48,1709208576.875
18.88,1709208576.890625
20.46,1709208576.90625
22.03,1709208576.921875
23.35,1709208576.9375
24.2,1709208576.953125
24.44,1709208576.96875
24.07,1709208576.984375
23.21,1709208577.0
22.07,1709208577.015625
20.84,1709208577.03125
19.62,1709208577.046875
18.36,1709208577.0625
16.95,1709208577.078125
15.3,1709208577.09375
13.41,1709208577.109375
11.42,1709208577.125
9.48,1709208577.140625
7.7,1709208577.15625
6.07,1709208577.171875
4.51,1709208577.1875
2.92,1709208577.203125
1.28,1709208577.21875
-0.36,1709208577.234375
-1.88,1709208577.25
-3.2,1709208577.265625
-4.34,1709208577.28125
-5.4,1709208577.296875
-6.54,1709208577.3125
-7.91,1709208577.328125
-9.58,1709208577.34375
-11.57,1709208577.359375
-13.78,1709208577.375
-16.11,1709208577.390625
-18.42,1709208577.40625
-20.61,1709208577.421875
-22.67,1709208577.4375
-24.65,1709208577.453125
-26.75,1709208577.46875
-29.23,1709208577.484375
-32.33,1709208577.5
-36.12,1709208577.515625
-40.35,1709208577.53125
-44.41,1709208577.546875
-47.42,1709208577.5625
-48.5,1709208577.578125
-47.04,1709208577.59375
-42.93,1709208577.609375
-36.58,1709208577.625
-28.75,1709208577.640625
-20.36,1709208577.65625
-12.17,1709208577.671875
-4.75,1709208577.6875
1.54,1709208577.703125
6.51,1709208577.71875
10.09,1709208577.734375
12.35,1709208577.75
13.52,1709208577.765625
13.97,1709208577.78125
14.09,1709208577.796875
14.18,1709208577.8125
14.31,1709208577.828125
14.4,1709208577.84375
14.31,1709208577.859375
13.98,1709208577.875
13.48,1709208577.890625
12.99,1709208577.90625
12.75,1709208577.921875
12.91,1709208577.9375
13.52,1709208577.953125
14.54,1709208577.96875
15.85,1709208577.984375
17.34,1709208578.0
18.89,1709208578.015625
20.39,1709208578.03125
21.69,1709208578.046875
22.65,1709208578.0625
23.04,1709208578.078125
22.76,1709208578.09375
21.78,1709208578.109375
20.27,1709208578.125
18.47,1709208578.140625
16.66,1709208578.15625
15.03,1709208578.171875
13.64,1709208578.1875
12.43,1709208578.203125
11.31,1709208578.21875
10.25,1709208578.234375
9.27,1709208578.25
8.39,1709208578.265625
7.56,1709208578.28125
6.69,1709208578.296875
5.68,1709208578.3125
4.52,1709208578.328125
3.3,1709208578.34375
2.19,1709208578.359375
1.34,1709208578.375
0.74,1709208578.390625
0.27,1709208578.40625
-0.29,1709208578.421875
-1.09,1709208578.4375
-2.18,1709208578.453125
-3.49,1709208578.46875
-4.9,1709208578.484375
-6.32,1709208578.5
-7.74,1709208578.515625
-9.25,1709208578.53125
-10.9,1709208578.546875
-12.71,1709208578.5625
-14.64,1709208578.578125
-16.63,1709208578.59375
-18.64,1709208578.609375
-20.66,1709208578.625
-22.72,1709208578.640625
-24.86,1709208578.65625
-27.09,1709208578.671875
-29.44,1709208578.6875
-32.0,1709208578.703125
-34.91,1709208578.71875
-38.28,1709208578.734375
-42.03,1709208578.75
-45.73,1709208578.765625
-48.67,1709208578.78125
-49.97,1709208578.796875
-48.91,1709208578.8125
-45.21,1709208578.828125
-39.12,1709208578.84375
-31.4,1709208578.859375
-23.0,1709208578.875
-14.78,1709208578.890625
-7.38,1709208578.90625
-1.13,1709208578.921875
3.86,1709208578.9375
7.56,1709208578.953125
10.05,1709208578.96875
11.44,1709208578.984375
12.0,1709208579.0
12.03,1709208579.015625
11.86,1709208579.03125
11.68,1709208579.046875
11.55,1709208579.0625
11.39,1709208579.078125
11.11,1709208579.09375
10.7,1709208579.109375
10.32,1709208579.125
10.17,1709208579.140625
10.48,1709208579.15625
11.33,1709208579.171875
12.67,1709208579.1875
14.38,1709208579.203125
16.27,1709208579.21875
18.19,1709208579.234375
19.98,1709208579.25
21.46,1709208579.265625
22.46,1709208579.28125
22.84,1709208579.296875
22.55,1709208579.3125
21.68,1709208579.328125
20.43,1709208579.34375
19.02,1709208579.359375
17.64,1709208579.375
16.35,1709208579.390625
15.1,1709208579.40625
13.86,1709208579.421875
12.58,1709208579.4375
11.27,1709208579.453125
9.99,1709208579.46875
8.8,1709208579.484375
7.7,1709208579.5
6.69,1709208579.515625
5.76,1709208579.53125
4.89,1709208579.546875
4.09,1709208579.5625
3.36,1709208579.578125
2.69,1709208579.59375
2.04,1709208579.609375
1.34,1709208579.625
0.52,1709208579.640625
-0.43,1709208579.65625
-1.48,1709208579.671875
-2.53,1709208579.6875
-3.51,1709208579.703125
-4.43,1709208579.71875
-5.43,1709208579.734375
-6.68,1709208579.75
-8.32,1709208579.765625
-10.35,1709208579.78125
-12.64,1709208579.796875
-14.97,1709208579.8125
-17.14,1709208579.828125
-19.08,1709208579.84375
-20.9,1709208579.859375
-22.84,1709208579.875
-25.15,1709208579.890625
-28.03,1709208579.90625
-31.54,1709208579.921875
-35.51,1709208579.9375
-39.51,1709208579.953125
-42.87,1709208579.96875
-44.79,1709208579.984375
-44.53,1709208580.0
-41.69,1709208580.015625
-36.35,1709208580.03125
-29.14,1709208580.046875
-21.02,1709208580.0625
-13.06,1709208580.078125
-6.08,1709208580.09375
-0.55,1709208580.109375
3.43,1709208580.125
6.0,1709208580.140625
7.41,1709208580.15625
7.88,1709208580.171875
7.6,1709208580.1875
6.71,1709208580.203125
5.34,1709208580.21875
3.6,1709208580.234375
1.65,1709208580.25
-0.35,1709208580.265625
-2.29,1709208580.28125
-4.09,1709208580.296875
-5.71,1709208580.3125
-7.09,1709208580.328125
-8.18,1709208580.34375
-8.87,1709208580.359375
-9.08,1709208580.375
-8.78,1709208580.390625
-8.06,1709208580.40625
-7.09,1709208580.421875
-6.05,1709208580.4375
-5.06,1709208580.453125
-4.08,1709208580.46875
-2.94,1709208580.484375
-1.41,1709208580.5
0.66,1709208580.515625
3.32,1709208580.53125
6.48,1709208580.546875
10.0,1709208580.5625
13.73,1709208580.578125
17.55,1709208580.59375
21.31,1709208580.609375
24.83,1709208580.625
27.87,1709208580.640625
30.24,1709208580.65625
31.79,1709208580.671875
32.51,1709208580.6875
32.47,1709208580.703125
31.77,1709208580.71875
30.51,1709208580.734375
28.76,1709208580.75
26.57,1709208580.765625
24.04,1709208580.78125
21.33,1709208580.796875
18.55,1709208580.8125
15.77,1709208580.828125
13.01,1709208580.84375
10.2,1709208580.859375
7.31,1709208580.875
4.32,1709208580.890625
1.25,1709208580.90625
-1.86,1709208580.921875
-5.0,1709208580.9375
-8.18,1709208580.953125
-11.44,1709208580.96875
-14.75,1709208580.984375
-18.07,1709208581.0
-21.37,1709208581.015625
-24.69,1709208581.03125
-28.21,1709208581.046875
-32.18,1709208581.0625
-36.73,1709208581.078125
-41.69,1709208581.09375
-46.47,1709208581.109375
-50.13,1709208581.125
-51.69,1709208581.140625
-50.44,1709208581.15625
-46.27,1709208581.171875
-39.7,1709208581.1875
-31.64,1709208581.203125
-23.11,1709208581.21875
-14.92,1709208581.234375
-7.54,1709208581.25
-1.16,1709208581.265625
4.18,1709208581.28125
8.44,1709208581.296875
11.61,1709208581.3125
13.73,1709208581.328125
14.92,1709208581.34375
15.39,1709208581.359375
15.33,1709208581.375
14.91,1709208581.390625
14.22,1709208581.40625
13.36,1709208581.421875
12.46,1709208581.4375
11.7,1709208581.453125
11.27,1709208581.46875
11.32,1709208581.484375
11.94,1709208581.5
13.11,1709208581.515625
14.76,1709208581.53125
16.8,1709208581.546875
19.11,1709208581.5625
21.49,1709208581.578125
23.71,1709208581.59375
25.5,1709208581.609375
26.66,1709208581.625
27.11,1709208581.640625
26.92,1709208581.65625
26.27,1709208581.671875
25.39,1709208581.6875
24.4,1709208581.703125
23.29,1709208581.71875
21.95,1709208581.734375
20.27,1709208581.75
18.27,1709208581.765625
16.12,1709208581.78125
14.05,1709208581.796875
12.26,1709208581.8125
10.81,1709208581.828125
9.59,1709208581.84375
8.45,1709208581.859375
7.3,1709208581.875
6.16,1709208581.890625
5.12,1709208581.90625
4.25,1709208581.921875
3.49,1709208581.9375
2.65,1709208581.953125
1.56,1709208581.96875
0.13,1709208581.984375
-1.54,1709208582.0
-3.22,1709208582.015625
-4.73,1709208582.03125
-6.01,1709208582.046875
-7.18,1709208582.0625
-8.49,1709208582.078125
-10.15,1709208582.09375
-12.27,1709208582.109375
-14.76,1709208582.125
-17.48,1709208582.140625
-20.26,1709208582.15625
-22.99,1709208582.171875
-25.63,1709208582.1875
-28.2,1709208582.203125
-30.77,1709208582.21875
-33.47,1709208582.234375
-36.5,1709208582.25
-40.04,1709208582.265625
-44.18,1709208582.28125
-48.72,1709208582.296875
-53.12,1709208582.3125
-56.55,1709208582.328125
-58.11,1709208582.34375
-57.08,1709208582.359375
-53.18,1709208582.375
-46.64,1709208582.390625
-38.08,1709208582.40625
-28.34,1709208582.421875
-18.31,1709208582.4375
-8.78,1709208582.453125
-0.35,1709208582.46875
6.56,1709208582.484375
11.76,1709208582.5
15.28,1709208582.515625
17.34,1709208582.53125
18.28,1709208582.546875
18.49,1709208582.5625
18.29,1709208582.578125
17.87,1709208582.59375
17.34,1709208582.609375
16.77,1709208582.625
16.23,1709208582.640625
15.81,1709208582.65625
15.61,1709208582.671875
15.74,1709208582.6875
16.28,1709208582.703125
17.32,1709208582.71875
18.88,1709208582.734375
20.93,1709208582.75
23.36,1709208582.765625
25.91,1709208582.78125
28.29,1709208582.796875
30.2,1709208582.8125
31.46,1709208582.828125
31.99,1709208582.84375
31.87,1709208582.859375
31.23,1709208582.875
30.17,1709208582.890625
28.77,1709208582.90625
27.11,1709208582.921875
25.24,1709208582.9375
23.22,1709208582.953125
21.14,1709208582.96875
19.06,1709208582.984375
17.02,1709208583.0
15.07,1709208583.015625
13.25,1709208583.03125
11.6,1709208583.046875
10.15,1709208583.0625
8.9,1709208583.078125
7.81,1709208583.09375
6.82,1709208583.109375
5.85,1709208583.125
4.88,1709208583.140625
3.86,1709208583.15625
2.76,1709208583.171875
1.58,1709208583.1875
0.27,1709208583.203125
-1.19,1709208583.21875
-2.87,1709208583.234375
-4.84,1709208583.25
-7.15,1709208583.265625
-9.79,1709208583.28125
-12.63,1709208583.296875
-15.44,1709208583.3125
-18.0,1709208583.328125
-20.19,1709208583.34375
-22.07,1709208583.359375
-23.87,1709208583.375
-25.95,1709208583.390625
-28.63,1709208583.40625
-32.11,1709208583.421875
-36.34,1709208583.4375
-41.03,1709208583.453125
-45.58,1709208583.46875
-49.17,1709208583.484375
-50.91,1709208583.5
-50.05,1709208583.515625
-46.14,1709208583.53125
-39.26,1709208583.546875
-30.02,1709208583.5625
-19.42,1709208583.578125
-8.68,1709208583.59375
1.09,1709208583.609375
9.12,1709208583.625
15.11,1709208583.640625
19.15,1709208583.65625
21.63,1709208583.671875
22.99,1709208583.6875
23.56,1709208583.703125
23.5,1709208583.71875
22.86,1709208583.734375
21.69,1709208583.75
20.15,1709208583.765625
18.48,1709208583.78125
16.96,1709208583.796875
15.82,1709208583.8125
15.19,1709208583.828125
15.13,1709208583.84375
15.65,1709208583.859375
16.75,1709208583.875
18.41,1709208583.890625
20.53,1709208583.90625
22.92,1709208583.921875
25.33,1709208583.9375
27.48,1709208583.953125
29.1,1709208583.96875
30.0,1709208583.984375
30.06,1709208584.0
29.32,1709208584.015625
27.96,1709208584.03125
26.28,1709208584.046875
24.59,1709208584.0625
23.08,1709208584.078125
21.72,1709208584.09375
20.34,1709208584.109375
18.72,1709208584.125
16.75,1709208584.140625
14.55,1709208584.15625
12.35,1709208584.171875
10.4,1709208584.1875
8.81,1709208584.203125
7.54,1709208584.21875
6.42,1709208584.234375
5.27,1709208584.25
3.99,1709208584.265625
2.58,1709208584.28125
1.09,1709208584.296875
-0.41,1709208584.3125
-1.89,1709208584.328125
-3.35,1709208584.34375
-4.83,1709208584.359375
-6.42,1709208584.375
-8.22,1709208584.390625
-10.28,1709208584.40625
-12.6,1709208584.421875
-15.09,1709208584.4375
-17.67,1709208584.453125
-20.25,1709208584.46875
-22.83,1709208584.484375
-25.48,1709208584.5
-28.24,1709208584.515625
-31.14,1709208584.53125
-34.23,1709208584.546875
-37.59,1709208584.5625
-41.31,1709208584.578125
-45.45,1709208584.59375
-49.81,1709208584.609375
-53.84,1709208584.625
-56.68,1709208584.640625
-57.34,1709208584.65625
-55.08,1709208584.671875
-49.73,1709208584.6875
-41.69,1709208584.703125
-31.9,1709208584.71875
-21.46,1709208584.734375
-11.38,1709208584.75
-2.4,1709208584.765625
5.08,1709208584.78125
10.89,1709208584.796875
15.07,1709208584.8125
17.8,1709208584.828125
19.44,1709208584.84375
20.36,1709208584.859375
20.89,1709208584.875
21.18,1709208584.890625
21.21,1709208584.90625
20.83,1709208584.921875
19.98,1709208584.9375
18.77,1709208584.953125
17.52,1709208584.96875
16.64,1709208584.984375
16.47,1709208585.0
17.12,1709208585.015625
18.51,1709208585.03125
20.4,1709208585.046875
22.49,1709208585.0625
24.56,1709208585.078125
26.45,1709208585.09375
28.0,1709208585.109375
29.12,1709208585.125
29.71,1709208585.140625
29.72,1709208585.15625
29.19,1709208585.171875
28.21,1709208585.1875
26.92,1709208585.203125
25.46,1709208585.21875
23.9,1709208585.234375
22.26,1709208585.25
20.55,1709208585.265625
18.78,1709208585.28125
16.98,1709208585.296875
15.21,1709208585.3125
13.54,1709208585.328125
11.98,1709208585.34375
10.54,1709208585.359375
9.25,1709208585.375
8.11,1709208585.390625
7.15,1709208585.40625
6.36,1709208585.421875
5.66,1709208585.4375
4.92,1709208585.453125
4.0,1709208585.46875
2.81,1709208585.484375
1.32,1709208585.5
-0.35,1709208585.515625
-2.07,1709208585.53125
-3.7,1709208585.546875
-5.17,1709208585.5625
-6.55,1709208585.578125
-7.93,1709208585.59375
-9.46,1709208585.609375
-11.19,1709208585.625
-13.11,1709208585.640625
-15.12,1709208585.65625
-17.13,1709208585.671875
-19.11,1709208585.6875
-21.07,1709208585.703125
-23.1,1709208585.71875
-25.31,1709208585.734375
-27.76,1709208585.75
-30.57,1709208585.765625
-33.82,1709208585.78125
-37.59,1709208585.796875
-41.73,1709208585.8125
-45.76,1709208585.828125
-48.83,1709208585.84375
-49.92,1709208585.859375
-48.17,1709208585.875
-43.25,1709208585.890625
-35.53,1709208585.90625
-25.98,1709208585.921875
-15.9,1709208585.9375
-6.42,1709208585.953125
1.69,1709208585.96875
8.13,1709208585.984375
12.96,1709208586.0
16.4,1709208586.015625
18.71,1709208586.03125
20.05,1709208586.046875
20.6,1709208586.0625
20.47,1709208586.078125
19.82,1709208586.09375
18.83,1709208586.109375
17.68,1709208586.125
16.56,1709208586.140625
15.62,1709208586.15625
15.0,1709208586.171875
14.79,1709208586.1875
15.09,1709208586.203125
15.94,1709208586.21875
17.34,1709208586.234375
19.2,1709208586.25
21.33,1709208586.265625
23.52,1709208586.28125
25.51,1709208586.296875
27.12,1709208586.3125
28.22,1709208586.328125
28.71,1709208586.34375
28.56,1709208586.359375
27.78,1709208586.375
26.46,1709208586.390625
24.77,1709208586.40625
22.92,1709208586.421875
21.1,1709208586.4375
19.4,1709208586.453125
17.8,1709208586.46875
16.19,1709208586.484375
14.52,1709208586.5
12.77,1709208586.515625
11.05,1709208586.53125
9.46,1709208586.546875
8.1,1709208586.5625
6.99,1709208586.578125
6.08,1709208586.59375
5.31,1709208586.609375
4.59,1709208586.625
3.85,1709208586.640625
2.97,1709208586.65625
1.91,1709208586.671875
0.64,1709208586.6875
-0.79,1709208586.703125
-2.27,1709208586.71875
-3.72,1709208586.734375
-5.15,1709208586.75
-6.64,1709208586.765625
-8.33,1709208586.78125
-10.33,1709208586.796875
-12.61,1709208586.8125
-15.04,1709208586.828125
-17.39,1709208586.84375
-19.49,1709208586.859375
-21.31,1709208586.875
-23.0,1709208586.890625
-24.88,1709208586.90625
-27.24,1709208586.921875
-30.27,1709208586.9375
-33.9,1709208586.953125
-37.8,1709208586.96875
-41.42,1709208586.984375
-44.13,1709208587.0
-45.32,1709208587.015625
-44.53,1709208587.03125
-41.51,1709208587.046875
-36.3,1709208587.0625
-29.24,1709208587.078125
-21.0,1709208587.09375
-12.4,1709208587.109375
-4.34,1709208587.125
2.48,1709208587.140625
7.66,1709208587.15625
11.17,1709208587.171875
13.32,1709208587.1875
14.51,1709208587.203125
15.13,1709208587.21875
15.39,1709208587.234375
15.38,1709208587.25
15.1,1709208587.265625
14.55,1709208587.28125
13.83,1709208587.296875
13.13,1709208587.3125
12.63,1709208587.328125
12.48,1709208587.34375
12.69,1709208587.359375
13.22,1709208587.375
13.96,1709208587.390625
14.9,1709208587.40625
16.04,1709208587.421875
17.43,1709208587.4375
19.06,1709208587.453125
20.8,1709208587.46875
22.42,1709208587.484375
23.67,1709208587.5
24.33,1709208587.515625
24.28,1709208587.53125
23.54,1709208587.546875
22.22,1709208587.5625
20.51,1709208587.578125
18.65,1709208587.59375
16.85,1709208587.609375
15.25,1709208587.625
13.88,1709208587.640625
12.68,1709208587.65625
11.58,1709208587.671875
10.5,1709208587.6875
9.48,1709208587.703125
8.57,1709208587.71875
7.79,1709208587.734375
7.1,1709208587.75
6.36,1709208587.765625
5.47,1709208587.78125
4.41,1709208587.796875
3.28,1709208587.8125
2.26,1709208587.828125
1.5,1709208587.84375
1.03,1709208587.859375
0.77,1709208587.875
0.54,1709208587.890625
0.21,1709208587.90625
-0.32,1709208587.921875
-1.06,1709208587.9375
-1.99,1709208587.953125
-3.09,1709208587.96875
-4.35,1709208587.984375
-5.75,1709208588.0
-7.29,1709208588.015625
-8.98,1709208588.03125
-10.81,1709208588.046875
-12.79,1709208588.0625
-14.91,1709208588.078125
-17.13,1709208588.09375
-19.37,1709208588.109375
-21.55,1709208588.125
-23.56,1709208588.140625
-25.36,1709208588.15625
-26.95,1709208588.171875
-28.51,1709208588.1875
-30.29,1709208588.203125
-32.6,1709208588.21875
-35.67,1709208588.234375
-39.46,1709208588.25
-43.58,1709208588.265625
-47.28,1709208588.28125
-49.66,1709208588.296875
-49.85,1709208588.3125
-47.34,1709208588.328125
-42.12,1709208588.34375
-34.76,1709208588.359375
-26.19,1709208588.375
-17.48,1709208588.390625
-9.56,1709208588.40625
-3.02,1709208588.421875
1.93,1709208588.4375
5.4,1709208588.453125
7.67,1709208588.46875
9.05,1709208588.484375
9.77,1709208588.5
9.99,1709208588.515625
9.85,1709208588.53125
9.48,1709208588.546875
9.02,1709208588.5625
8.61,1709208588.578125
8.31,1709208588.59375
8.17,1709208588.609375
8.19,1709208588.625
8.41,1709208588.640625
8.9,1709208588.65625
9.75,1709208588.671875
11.02,1709208588.6875
12.66,1709208588.703125
14.54,1709208588.71875
16.48,1709208588.734375
18.28,1709208588.75
19.75,1709208588.765625
20.8,1709208588.78125
21.34,1709208588.796875
21.37,1709208588.8125
20.89,1709208588.828125
19.99,1709208588.84375
18.82,1709208588.859375
17.53,1709208588.875
16.29,1709208588.890625
15.2,1709208588.90625
14.31,1709208588.921875
13.56,1709208588.9375
12.85,1709208588.953125
12.12,1709208588.96875
11.35,1709208588.984375
10.56,1709208589.0
9.81,1709208589.015625
9.19,1709208589.03125
8.71,1709208589.046875
8.34,1709208589.0625
7.98,1709208589.078125
7.54,1709208589.09375
6.94,1709208589.109375
6.16,1709208589.125
5.23,1709208589.140625
4.18,1709208589.15625
3.03,1709208589.171875
1.81,1709208589.1875
0.54,1709208589.203125
-0.73,1709208589.21875
-1.94,1709208589.234375
-3.08,1709208589.25
-4.21,1709208589.265625
-5.45,1709208589.28125
-6.93,1709208589.296875
-8.7,1709208589.3125
-10.7,1709208589.328125
-12.75,1709208589.34375
-14.66,1709208589.359375
-16.31,1709208589.375
-17.72,1709208589.390625
-19.08,1709208589.40625
-20.67,1709208589.421875
-22.75,1709208589.4375
-25.5,1709208589.453125
-28.89,1709208589.46875
-32.61,1709208589.484375
-36.13,1709208589.5
-38.72,1709208589.515625
-39.68,1709208589.53125
-38.5,1709208589.546875
-35.04,1709208589.5625
-29.52,1709208589.578125
-22.54,1709208589.59375
-14.89,1709208589.609375
-7.35,1709208589.625
-0.61,1709208589.640625
4.91,1709208589.65625
9.03,1709208589.671875
11.82,1709208589.6875
13.49,1709208589.703125
14.31,1709208589.71875
14.48,1709208589.734375
14.15,1709208589.75
13.43,1709208589.765625
12.41,1709208589.78125
11.28,1709208589.796875
10.24,1709208589.8125
9.52,1709208589.828125
9.21,1709208589.84375
9.35,1709208589.859375
9.86,1709208589.875
10.67,1709208589.890625
11.74,1709208589.90625
13.03,1709208589.921875
14.54,1709208589.9375
16.19,1709208589.953125
17.8,1709208589.96875
19.14,1709208589.984375
19.99,1709208590.0
20.18,1709208590.015625
19.72,1709208590.03125
18.76,1709208590.046875
17.52,1709208590.0625
16.25,1709208590.078125
15.11,1709208590.09375
14.13,1709208590.109375
13.26,1709208590.125
12.44,1709208590.140625
11.62,1709208590.15625
10.81,1709208590.171875
10.04,1709208590.1875
9.32,1709208590.203125
8.65,1709208590.21875
8.0,1709208590.234375
7.32,1709208590.25
6.61,1709208590.265625
5.87,1709208590.28125
5.14,1709208590.296875
4.45,1709208590.3125
3.78,1709208590.328125
3.14,1709208590.34375
2.47,1709208590.359375
1.72,1709208590.375
0.84,1709208590.390625
-0.22,1709208590.40625
-1.47,1709208590.421875
-2.86,1709208590.4375
-4.34,1709208590.453125
-5.82,1709208590.46875
-7.26,1709208590.484375
-8.68,1709208590.5
-10.15,1709208590.515625
-11.72,1709208590.53125
-13.42,1709208590.546875
-15.23,1709208590.5625
-17.08,1709208590.578125
-18.85,1709208590.59375
-20.48,1709208590.609375
-21.99,1709208590.625
-23.47,1709208590.640625
-25.06,1709208590.65625
-26.94,1709208590.671875
-29.24,1709208590.6875
-32.05,1709208590.703125
-35.38,1709208590.71875
-39.07,1709208590.734375
-42.76,1709208590.75
-45.8,1709208590.765625
-47.42,1709208590.78125
-46.86,1709208590.796875
-43.71,1709208590.8125
-38.04,1709208590.828125
-30.49,1709208590.84375
-22.04,1709208590.859375
-13.76,1709208590.875
-6.47,1709208590.890625
-0.62,1709208590.90625
3.72,1709208590.921875
6.75,1709208590.9375
8.77,1709208590.953125
10.07,1709208590.96875
10.87,1709208590.984375
11.32,1709208591.0
11.54,1709208591.015625
11.62,1709208591.03125
11.65,1709208591.046875
11.69,1709208591.0625
11.75,1709208591.078125
11.83,1709208591.09375
11.87,1709208591.109375
11.9,1709208591.125
12.05,1709208591.140625
12.52,1709208591.15625
13.5,1709208591.171875
15.04,1709208591.1875
16.99,1709208591.203125
19.05,1709208591.21875
20.84,1709208591.234375
22.12,1709208591.25
22.81,1709208591.265625
22.99,1709208591.28125
22.82,1709208591.296875
22.37,1709208591.3125
21.71,1709208591.328125
20.82,1709208591.34375
19.73,1709208591.359375
18.53,1709208591.375
17.34,1709208591.390625
16.25,1709208591.40625
15.24,1709208591.421875
14.28,1709208591.4375
13.29,1709208591.453125
12.27,1709208591.46875
11.25,1709208591.484375
10.32,1709208591.5
9.52,1709208591.515625
8.85,1709208591.53125
8.25,1709208591.546875
7.66,1709208591.5625
7.06,1709208591.578125
6.47,1709208591.59375
5.93,1709208591.609375
5.44,1709208591.625
4.89,1709208591.640625
4.17,1709208591.65625
3.11,1709208591.671875
1.68,1709208591.6875
0.0,1709208591.703125
-1.69,1709208591.71875
-3.14,1709208591.734375
-4.26,1709208591.75
-5.14,1709208591.765625
-6.07,1709208591.78125
-7.33,1709208591.796875
-9.09,1709208591.8125
-11.28,1709208591.828125
-13.65,1709208591.84375
-15.91,1709208591.859375
-17.86,1709208591.875
-19.49,1709208591.890625
-20.97,1709208591.90625
-22.52,1709208591.921875
-24.33,1709208591.9375
-26.54,1709208591.953125
-29.19,1709208591.96875
-32.31,1709208591.984375
-35.82,1709208592.0
-39.5,1709208592.015625
-42.9,1709208592.03125
-45.35,1709208592.046875
-46.08,1709208592.0625
-44.51,1709208592.078125
-40.41,1709208592.09375
-34.09,1709208592.109375
-26.3,1709208592.125
-18.05,1709208592.140625
-10.32,1709208592.15625
-3.81,1709208592.171875
1.15,1709208592.1875
4.64,1709208592.203125
6.97,1709208592.21875
8.52,1709208592.234375
9.65,1709208592.25
10.52,1709208592.265625
11.18,1709208592.28125
11.58,1709208592.296875
11.72,1709208592.3125
11.65,1709208592.328125
11.46,1709208592.34375
11.34,1709208592.359375
11.4,1709208592.375
11.74,1709208592.390625
12.38,1709208592.40625
13.38,1709208592.421875
14.73,1709208592.4375
16.39,1709208592.453125
18.26,1709208592.46875
20.13,1709208592.484375
21.79,1709208592.5
23.06,1709208592.515625
23.83,1709208592.53125
24.06,1709208592.546875
23.79,1709208592.5625
23.1,1709208592.578125
22.1,1709208592.59375
20.91,1709208592.609375
19.64,1709208592.625
18.4,1709208592.640625
17.23,1709208592.65625
16.17,1709208592.671875
15.22,1709208592.6875
14.38,1709208592.703125
13.66,1709208592.71875
13.06,1709208592.734375
12.53,1709208592.75
11.99,1709208592.765625
11.36,1709208592.78125
10.57,1709208592.796875
9.64,1709208592.8125
8.62,1709208592.828125
7.63,1709208592.84375
6.73,1709208592.859375
5.99,1709208592.875
5.44,1709208592.890625
5.06,1709208592.90625
4.79,1709208592.921875
4.51,1709208592.9375
4.06,1709208592.953125
3.31,1709208592.96875
2.19,1709208592.984375
0.74,1709208593.0
-0.88,1709208593.015625
-2.44,1709208593.03125
-3.74,1709208593.046875
-4.74,1709208593.0625
-5.57,1709208593.078125
-6.48,1709208593.09375
-7.71,1709208593.109375
-9.39,1709208593.125
-11.44,1709208593.140625
-13.63,1709208593.15625
-15.68,1709208593.171875
-17.41,1709208593.1875
-18.78,1709208593.203125
-19.96,1709208593.21875
-21.19,1709208593.234375
-22.75,1709208593.25
-24.84,1709208593.265625
-27.53,1709208593.28125
-30.73,1709208593.296875
-34.12,1709208593.3125
-37.17,1709208593.328125
-39.21,1709208593.34375
-39.6,1709208593.359375
-37.92,1709208593.375
-34.11,1709208593.390625
-28.49,1709208593.40625
-21.68,1709208593.421875
-14.41,1709208593.4375
-7.3,1709208593.453125
-0.84,1709208593.46875
4.71,1709208593.484375
9.18,1709208593.5
12.51,1709208593.515625
14.68,1709208593.53125
15.75,1709208593.546875
15.85,1709208593.5625
15.23,1709208593.578125
14.18,1709208593.59375
12.98,1709208593.609375
11.85,1709208593.625
10.92,1709208593.640625
10.25,1709208593.65625
9.9,1709208593.671875
9.94,1709208593.6875
10.42,1709208593.703125
11.41,1709208593.71875
12.86,1709208593.734375
14.67,1709208593.75
16.65,1709208593.765625
18.57,1709208593.78125
20.23,1709208593.796875
21.45,1709208593.8125
22.18,1709208593.828125
22.4,1709208593.84375
22.17,1709208593.859375
21.57,1709208593.875
20.69,1709208593.890625
19.63,1709208593.90625
18.47,1709208593.921875
17.24,1709208593.9375
15.96,1709208593.953125
14.65,1709208593.96875
13.31,1709208593.984375
11.96,1709208594.0
10.64,1709208594.015625
9.36,1709208594.03125
8.15,1709208594.046875
7.01,1709208594.0625
5.95,1709208594.078125
4.99,1709208594.09375
4.15,1709208594.109375
3.43,1709208594.125
2.8,1709208594.140625
2.23,1709208594.15625
1.7,1709208594.171875
1.11,1709208594.1875
0.38,1709208594.203125
-0.56,1709208594.21875
-1.77,1709208594.234375
-3.24,1709208594.25
-4.89,1709208594.265625
-6.64,1709208594.28125
-8.39,1709208594.296875
-10.14,1709208594.3125
-11.95,1709208594.328125
-13.93,1709208594.34375
-16.14,1709208594.359375
-18.59,1709208594.375
-21.21,1709208594.390625
-23.93,1709208594.40625
-26.67,1709208594.421875
-29.41,1709208594.4375
-32.15,1709208594.453125
-34.87,1709208594.46875
-37.6,1709208594.484375
-40.42,1709208594.5
-43.51,1709208594.515625
-47.08,1709208594.53125
-51.15,1709208594.546875
-55.43,1709208594.5625
-59.26,1709208594.578125
-61.76,1709208594.59375
-62.15,1709208594.609375
-60.04,1709208594.625
-55.64,1709208594.640625
-49.63,1709208594.65625
-42.95,1709208594.671875
-36.39,1709208594.6875
-30.46,1709208594.703125
-25.28,1709208594.71875
-20.76,1709208594.734375
-16.65,1709208594.75
-12.7,1709208594.765625
-8.68,1709208594.78125
-4.4,1709208594.796875
0.29,1709208594.8125
5.41,1709208594.828125
10.85,1709208594.84375
16.4,1709208594.859375
21.74,1709208594.875
26.61,1709208594.890625
30.9,1709208594.90625
34.63,1709208594.921875
37.93,1709208594.9375
40.96,1709208594.953125
43.77,1709208594.96875
46.32,1709208594.984375
48.45,1709208595.0
49.99,1709208595.015625
50.8,1709208595.03125
50.83,1709208595.046875
50.12,1709208595.0625
48.7,1709208595.078125
46.69,1709208595.09375
44.22,1709208595.109375
41.5,1709208595.125
38.76,1709208595.140625
36.18,1709208595.15625
33.85,1709208595.171875
31.78,1709208595.1875
29.85,1709208595.203125
27.93,1709208595.21875
25.95,1709208595.234375
23.92,1709208595.25
21.92,1709208595.265625
20.04,1709208595.28125
18.37,1709208595.296875
16.96,1709208595.3125
15.8,1709208595.328125
14.85,1709208595.34375
14.03,1709208595.359375
13.23,1709208595.375
12.3,1709208595.390625
11.14,1709208595.40625
9.75,1709208595.421875
8.21,1709208595.4375
6.7,1709208595.453125
5.36,1709208595.46875
4.24,1709208595.484375
3.28,1709208595.5
2.33,1709208595.515625
1.22,1709208595.53125
-0.14,1709208595.546875
-1.77,1709208595.5625
-3.56,1709208595.578125
-5.39,1709208595.59375
-7.15,1709208595.609375
-8.8,1709208595.625
-10.37,1709208595.640625
-11.98,1709208595.65625
-13.76,1709208595.671875
-15.77,1709208595.6875
-17.97,1709208595.703125
-20.22,1709208595.71875
-22.32,1709208595.734375
-24.13,1709208595.75
-25.67,1709208595.765625
-27.11,1709208595.78125
-28.71,1709208595.796875
-30.79,1709208595.8125
-33.5,1709208595.828125
-36.83,1709208595.84375
-40.51,1709208595.859375
-44.01,1709208595.875
-46.6,1709208595.890625
-47.51,1709208595.90625
-46.11,1709208595.921875
-42.12,1709208595.9375
-35.78,1709208595.953125
-27.78,1709208595.96875
-19.08,1709208595.984375
-10.66,1709208596.0
-3.28,1709208596.015625
2.61,1709208596.03125
6.92,1709208596.046875
9.79,1709208596.0625
11.51,1709208596.078125
12.44,1709208596.09375
12.89,1709208596.109375
13.09,1709208596.125
13.18,1709208596.140625
13.16,1709208596.15625
13.01,1709208596.171875
12.75,1709208596.1875
12.44,1709208596.203125
12.25,1709208596.21875
12.34,1709208596.234375
12.83,1709208596.25
13.73,1709208596.265625
15.0,1709208596.28125
16.5,1709208596.296875
18.12,1709208596.3125
19.73,1709208596.328125
21.18,1709208596.34375
22.33,1709208596.359375
23.06,1709208596.375
23.29,1709208596.390625
23.02,1709208596.40625
22.32,1709208596.421875
21.31,1709208596.4375
20.14,1709208596.453125
18.91,1709208596.46875
17.71,1709208596.484375
16.57,1709208596.5
15.48,1709208596.515625
14.44,1709208596.53125
13.43,1709208596.546875
12.51,1709208596.5625
11.74,1709208596.578125
11.14,1709208596.59375
10.73,1709208596.609375
10.4,1709208596.625
10.05,1709208596.640625
9.57,1709208596.65625
8.93,1709208596.671875
8.17,1709208596.6875
7.37,1709208596.703125
6.61,1709208596.71875
5.9,1709208596.734375
5.24,1709208596.75
4.57,1709208596.765625
3.9,1709208596.78125
3.2,1709208596.796875
2.48,1709208596.8125
1.67,1709208596.828125
0.71,1709208596.84375
-0.44,1709208596.859375
-1.73,1709208596.875
-3.06,1709208596.890625
-4.37,1709208596.90625
-5.61,1709208596.921875
-6.85,1709208596.9375
-8.15,1709208596.953125
-9.58,1709208596.96875
-11.12,1709208596.984375
-12.72,1709208597.0
-14.32,1709208597.015625
-15.92,1709208597.03125
-17.55,1709208597.046875
-19.3,1709208597.0625
-21.25,1709208597.078125
-23.52,1709208597.09375
-26.21,1709208597.109375
-29.34,1709208597.125
-32.79,1709208597.140625
-36.15,1709208597.15625
-38.74,1709208597.171875
-39.73,1709208597.1875
-38.45,1709208597.203125
-34.61,1709208597.21875
-28.5,1709208597.234375
-20.91,1709208597.25
-12.87,1709208597.265625
-5.37,1709208597.28125
0.91,1709208597.296875
5.7,1709208597.3125
9.1,1709208597.328125
11.34,1709208597.34375
12.75,1709208597.359375
13.51,1709208597.375
13.8,1709208597.390625
13.7,1709208597.40625
13.3,1709208597.421875
12.73,1709208597.4375
12.08,1709208597.453125
11.43,1709208597.46875
10.85,1709208597.484375
10.38,1709208597.5
10.11,1709208597.515625
10.14,1709208597.53125
10.56,1709208597.546875
11.47,1709208597.5625
12.86,1709208597.578125
14.63,1709208597.59375
16.55,1709208597.609375
18.35,1709208597.625
19.76,1709208597.640625
20.61,1709208597.65625
20.87,1709208597.671875
20.59,1709208597.6875
19.92,1709208597.703125
19.03,1709208597.71875
18.04,1709208597.734375
17.03,1709208597.75
16.07,1709208597.765625
15.19,1709208597.78125
14.42,1709208597.796875
13.74,1709208597.8125
13.06,1709208597.828125
12.27,1709208597.84375
11.3,1709208597.859375
10.13,1709208597.875
8.9,1709208597.890625
7.76,1709208597.90625
6.86,1709208597.921875
6.25,1709208597.9375
5.84,1709208597.953125
5.53,1709208597.96875
5.21,1709208597.984375
4.83,1709208598.0
4.39,1709208598.015625
3.89,1709208598.03125
3.29,1709208598.046875
2.52,1709208598.0625
1.5,1709208598.078125
0.24,1709208598.09375
-1.22,1709208598.109375
-2.73,1709208598.125
-4.19,1709208598.140625
-5.54,1709208598.15625
-6.78,1709208598.171875
-7.98,1709208598.1875
-9.21,1709208598.203125
-10.49,1709208598.21875
-11.81,1709208598.234375
-13.13,1709208598.25
-14.46,1709208598.265625
-15.85,1709208598.28125
-17.36,1709208598.296875
-19.06,1709208598.3125
-20.91,1709208598.328125
-22.81,1709208598.34375
-24.67,1709208598.359375
-26.55,1709208598.375
-28.62,1709208598.390625
-31.12,1709208598.40625
-34.13,1709208598.421875
-37.35,1709208598.4375
-40.08,1709208598.453125
-41.4,1709208598.46875
-40.51,1709208598.484375
-37.09,1709208598.5
-31.43,1709208598.515625
-24.35,1709208598.53125
-16.87,1709208598.546875
-9.88,1709208598.5625
-3.9,1709208598.578125
0.88,1709208598.59375
4.54,1709208598.609375
7.22,1709208598.625
9.08,1709208598.640625
10.27,1709208598.65625
10.98,1709208598.671875
11.38,1709208598.6875
11.65,1709208598.703125
11.87,1709208598.71875
12.02,1709208598.734375
12.0,1709208598.75
11.76,1709208598.765625
11.34,1709208598.78125
10.91,1709208598.796875
10.74,1709208598.8125
11.06,1709208598.828125
11.94,1709208598.84375
13.32,1709208598.859375
15.04,1709208598.875
16.88,1709208598.890625
18.66,1709208598.90625
20.18,1709208598.921875
21.28,1709208598.9375
21.81,1709208598.953125
21.69,1709208598.96875
20.93,1709208598.984375
19.7,1709208599.0
18.24,1709208599.015625
16.77,1709208599.03125
15.44,1709208599.046875
14.27,1709208599.0625
13.17,1709208599.078125
12.08,1709208599.09375
11.0,1709208599.109375
9.98,1709208599.125
9.09,1709208599.140625
8.38,1709208599.15625
7.85,1709208599.171875
7.48,1709208599.1875
7.24,1709208599.203125
7.09,1709208599.21875
6.97,1709208599.234375
6.75,1709208599.25
6.29,1709208599.265625
5.52,1709208599.28125
4.51,1709208599.296875
3.44,1709208599.3125
2.55,1709208599.328125
2.01,1709208599.34375
1.78,1709208599.359375
1.62,1709208599.375
1.19,1709208599.390625
0.25,1709208599.40625
-1.24,1709208599.421875
-3.06,1709208599.4375
-4.87,1709208599.453125
-6.36,1709208599.46875
-7.47,1709208599.484375
-8.32,1709208599.5
-9.23,1709208599.515625
-10.46,1709208599.53125
-12.11,1709208599.546875
-14.07,1709208599.5625
-16.13,1709208599.578125
-18.1,1709208599.59375
-19.91,1709208599.609375
-21.61,1709208599.625
-23.32,1709208599.640625
-25.13,1709208599.65625
-27.09,1709208599.671875
-29.25,1709208599.6875
-31.63,1709208599.703125
-34.23,1709208599.71875
-36.9,1709208599.734375
-39.27,1709208599.75
-40.74,1709208599.765625
-40.62,1709208599.78125
-38.44,1709208599.796875
-34.13,1709208599.8125
-28.1,1709208599.828125
-21.12,1709208599.84375
-14.09,1709208599.859375
-7.74,1709208599.875
-2.48,1709208599.890625
1.57,1709208599.90625
4.53,1709208599.921875
6.6,1709208599.9375
7.98,1709208599.953125
8.81,1709208599.96875
9.24,1709208599.984375
9.36,1709208600.0
9.25,1709208600.015625
9.02,1709208600.03125
8.7,1709208600.046875
8.38,1709208600.0625
8.1,1709208600.078125
7.97,1709208600.09375
8.11,1709208600.109375
8.6,1709208600.125
9.52,1709208600.140625
10.84,1709208600.15625
12.46,1709208600.171875
14.2,1709208600.1875
15.84,1709208600.203125
17.21,1709208600.21875
18.17,1709208600.234375
18.67,1709208600.25
18.72,1709208600.265625
18.41,1709208600.28125
17.83,1709208600.296875
17.08,1709208600.3125
16.23,1709208600.328125
15.32,1709208600.34375
14.35,1709208600.359375
13.31,1709208600.375
12.22,1709208600.390625
11.12,1709208600.40625
10.06,1709208600.421875
9.07,1709208600.4375
8.16,1709208600.453125
7.32,1709208600.46875
6.55,1709208600.484375
5.83,1709208600.5
5.17,1709208600.515625
4.59,1709208600.53125
4.1,1709208600.546875
3.72,1709208600.5625
3.45,1709208600.578125
3.24,1709208600.59375
3.01,1709208600.609375
2.67,1709208600.625
2.09,1709208600.640625
1.24,1709208600.65625
0.15,1709208600.671875
-1.02,1709208600.6875
-2.13,1709208600.703125
-3.05,1709208600.71875
-3.79,1709208600.734375
-4.48,1709208600.75
-5.31,1709208600.765625
-6.44,1709208600.78125
-7.94,1709208600.796875
-9.76,1709208600.8125
-11.73,1709208600.828125
-13.68,1709208600.84375
-15.47,1709208600.859375
-17.08,1709208600.875
-18.61,1709208600.890625
-20.23,1709208600.90625
-22.13,1709208600.921875
-24.45,1709208600.9375
-27.25,1709208600.953125
-30.48,1709208600.96875
-33.88,1709208600.984375
-36.97,1709208601.0
-39.11,1709208601.015625
-39.58,1709208601.03125
-37.84,1709208601.046875
-33.75,1709208601.0625
-27.69,1709208601.078125
-20.43,1709208601.09375
-12.94,1709208601.109375
-6.08,1709208601.125
-0.37,1709208601.140625
4.01,1709208601.15625
7.2,1709208601.171875
9.42,1709208601.1875
10.86,1709208601.203125
11.7,1709208601.21875
12.06,1709208601.234375
12.07,1709208601.25
11.89,1709208601.265625
11.62,1709208601.28125
11.33,1709208601.296875
11.05,1709208601.3125
10.79,1709208601.328125
10.61,1709208601.34375
10.61,1709208601.359375
10.94,1709208601.375
11.71,1709208601.390625
12.96,1709208601.40625
14.63,1709208601.421875
16.55,1709208601.4375
18.5,1709208601.453125
20.23,1709208601.46875
21.51,1709208601.484375
22.17,1709208601.5
22.17,1709208601.515625
21.59,1709208601.53125
20.62,1709208601.546875
19.46,1709208601.5625
18.26,1709208601.578125
17.13,1709208601.59375
16.08,1709208601.609375
15.07,1709208601.625
14.08,1709208601.640625
13.08,1709208601.65625
12.04,1709208601.671875
10.94,1709208601.6875
9.8,1709208601.703125
8.7,1709208601.71875
7.77,1709208601.734375
7.15,1709208601.75
6.87,1709208601.765625
6.85,1709208601.78125
6.87,1709208601.796875
6.74,1709208601.8125
6.33,1709208601.828125
5.73,1709208601.84375
5.08,1709208601.859375
4.53,1709208601.875
4.09,1709208601.890625
3.61,1709208601.90625
2.86,1709208601.921875
1.66,1709208601.9375
0.0,1709208601.953125
-1.94,1709208601.96875
-3.93,1709208601.984375
-5.73,1709208602.0
-7.27,1709208602.015625
-8.64,1709208602.03125
-9.98,1709208602.046875
-11.43,1709208602.0625
-13.07,1709208602.078125
-14.87,1709208602.09375
-16.77,1709208602.109375
-18.67,1709208602.125
-20.53,1709208602.140625
-22.3,1709208602.15625
-23.99,1709208602.171875
-25.65,1709208602.1875
-27.39,1709208602.203125
-29.37,1709208602.21875
-31.76,1709208602.234375
-34.71,1709208602.25
-38.18,1709208602.265625
-41.89,1709208602.28125
-45.33,1709208602.296875
-47.79,1709208602.3125
-48.55,1709208602.328125
-47.07,1709208602.34375
-43.16,1709208602.359375
-37.04,1709208602.375
-29.38,1709208602.390625
-21.08,1709208602.40625
-13.07,1709208602.421875
-6.07,1709208602.4375
-0.44,1709208602.453125
3.8,1709208602.46875
6.88,1709208602.484375
9.12,1709208602.5
10.76,1709208602.515625
11.93,1709208602.53125
12.69,1709208602.546875
13.11,1709208602.5625
13.25,1709208602.578125
13.21,1709208602.59375
13.11,1709208602.609375
13.02,1709208602.625
13.02,1709208602.640625
13.21,1709208602.65625
13.71,1709208602.671875
14.65,1709208602.6875
16.1,1709208602.703125
18.01,1709208602.71875
20.22,1709208602.734375
22.47,1709208602.75
24.51,1709208602.765625
26.11,1709208602.78125
27.13,1709208602.796875
27.56,1709208602.8125
27.44,1709208602.828125
26.87,1709208602.84375
26.0,1709208602.859375
24.96,1709208602.875
23.86,1709208602.890625
22.74,1709208602.90625
21.63,1709208602.921875
20.48,1709208602.9375
19.28,1709208602.953125
18.03,1709208602.96875
16.8,1709208602.984375
15.63,1709208603.0
14.59,1709208603.015625
13.71,1709208603.03125
13.01,1709208603.046875
12.5,1709208603.0625
12.18,1709208603.078125
12.01,1709208603.09375
11.92,1709208603.109375
11.78,1709208603.125
11.46,1709208603.140625
10.9,1709208603.15625
10.09,1709208603.171875
9.13,1709208603.1875
8.17,1709208603.203125
7.33,1709208603.21875
6.65,1709208603.234375
6.03,1709208603.25
5.3,1709208603.265625
4.29,1709208603.28125
2.87,1709208603.296875
1.11,1709208603.3125
-0.84,1709208603.328125
-2.74,1709208603.34375
-4.4,1709208603.359375
-5.77,1709208603.375
-7.0,1709208603.390625
-8.33,1709208603.40625
-9.97,1709208603.421875
-12.04,1709208603.4375
-14.42,1709208603.453125
-16.88,1709208603.46875
-19.16,1709208603.484375
-21.08,1709208603.5
-22.65,1709208603.515625
-24.03,1709208603.53125
-25.48,1709208603.546875
-27.29,1709208603.5625
-29.67,1709208603.578125
-32.75,1709208603.59375
-36.46,1709208603.609375
-40.53,1709208603.625
-44.44,1709208603.640625
-47.45,1709208603.65625
-48.72,1709208603.671875
-47.6,1709208603.6875
-43.78,1709208603.703125
-37.49,1709208603.71875
-29.44,1709208603.734375
-20.63,1709208603.75
-12.1,1709208603.765625
-4.62,1709208603.78125
1.36,1709208603.796875
5.8,1709208603.8125
8.91,1709208603.828125
11.04,1709208603.84375
12.51,1709208603.859375
13.56,1709208603.875
14.35,1709208603.890625
14.9,1709208603.90625
15.18,1709208603.921875
15.15,1709208603.9375
14.82,1709208603.953125
14.3,1709208603.96875
13.76,1709208603.984375
13.46,1709208604.0
13.57,1709208604.015625
14.23,1709208604.03125
15.44,1709208604.046875
17.1,1709208604.0625
19.04,1709208604.078125
21.08,1709208604.09375
23.02,1709208604.109375
24.66,1709208604.125
25.86,1709208604.140625
26.49,1709208604.15625
26.49,1709208604.171875
25.93,1709208604.1875
24.95,1709208604.203125
23.76,1709208604.21875
22.54,1709208604.234375
21.42,1709208604.25
20.4,1709208604.265625
19.42,1709208604.28125
18.36,1709208604.296875
17.16,1709208604.3125
15.82,1709208604.328125
14.4,1709208604.34375
13.04,1709208604.359375
11.85,1709208604.375
10.95,1709208604.390625
10.37,1709208604.40625
10.02,1709208604.421875
9.74,1709208604.4375
9.36,1709208604.453125
8.76,1709208604.46875
7.97,1709208604.484375
7.11,1709208604.5
6.33,1709208604.515625
5.7,1709208604.53125
5.15,1709208604.546875
4.52,1709208604.5625
3.64,1709208604.578125
2.43,1709208604.59375
0.95,1709208604.609375
-0.65,1709208604.625
-2.19,1709208604.640625
-3.58,1709208604.65625
-4.88,1709208604.671875
-6.23,1709208604.6875
-7.82,1709208604.703125
-9.72,1709208604.71875
-11.87,1709208604.734375
-14.09,1709208604.75
-16.13,1709208604.765625
-17.87,1709208604.78125
-19.34,1709208604.796875
-20.71,1709208604.8125
-22.22,1709208604.828125
-24.09,1709208604.84375
-26.39,1709208604.859375
-29.15,1709208604.875
-32.33,1709208604.890625
-35.78,1709208604.90625
-39.24,1709208604.921875
-42.22,1709208604.9375
-44.05,1709208604.953125
-44.03,1709208604.96875
-41.7,1709208604.984375
-37.02,1709208605.0
-30.45,1709208605.015625
-22.8,1709208605.03125
-14.96,1709208605.046875
-7.67,1709208605.0625
-1.4,1709208605.078125
3.69,1709208605.09375
7.62,1709208605.109375
10.49,1709208605.125
12.44,1709208605.140625
13.63,1709208605.15625
14.17,1709208605.171875
14.2,1709208605.1875
13.82,1709208605.203125
13.12,1709208605.21875
12.23,1709208605.234375
11.31,1709208605.25
10.56,1709208605.265625
10.16,1709208605.28125
10.24,1709208605.296875
10.84,1709208605.3125
11.98,1709208605.328125
13.58,1709208605.34375
15.53,1709208605.359375
17.67,1709208605.375
19.8,1709208605.390625
21.69,1709208605.40625
23.12,1709208605.421875
23.98,1709208605.4375
24.25,1709208605.453125
24.02,1709208605.46875
23.41,1709208605.484375
22.52,1709208605.5
21.42,1709208605.515625
20.13,1709208605.53125
18.7,1709208605.546875
17.22,1709208605.5625
15.79,1709208605.578125
14.51,1709208605.59375
13.45,1709208605.609375
12.55,1709208605.625
11.72,1709208605.640625
10.83,1709208605.65625
9.85,1709208605.671875
8.79,1709208605.6875
7.74,1709208605.703125
6.78,1709208605.71875
5.92,1709208605.734375
5.14,1709208605.75
4.37,1709208605.765625
3.53,1709208605.78125
2.59,1709208605.796875
1.53,1709208605.8125
0.35,1709208605.828125
-0.96,1709208605.84375
-2.38,1709208605.859375
-3.88,1709208605.875
-5.39,1709208605.890625
-6.88,1709208605.90625
-8.37,1709208605.921875
-9.93,1709208605.9375
-11.65,1709208605.953125
-13.53,1709208605.96875
-15.51,1709208605.984375
-17.49,1709208606.0
-19.42,1709208606.015625
-21.37,1709208606.03125
-23.56,1709208606.046875
-26.19,1709208606.0625
-29.4,1709208606.078125
-33.08,1709208606.09375
-36.8,1709208606.109375
-39.95,1709208606.125
-41.81,1709208606.140625
-41.83,1709208606.15625
-39.73,1709208606.171875
-35.58,1709208606.1875
-29.74,1709208606.203125
-22.77,1709208606.21875
-15.28,1709208606.234375
-7.86,1709208606.25
-1.07,1709208606.265625
4.68,1709208606.28125
9.09,1709208606.296875
12.05,1709208606.3125
13.68,1709208606.328125
14.24,1709208606.34375
14.11,1709208606.359375
13.63,1709208606.375
13.03,1709208606.390625
12.4,1709208606.40625
11.78,1709208606.421875
11.12,1709208606.4375
10.46,1709208606.453125
9.88,1709208606.46875
9.51,1709208606.484375
9.51,1709208606.5
9.99,1709208606.515625
11.01,1709208606.53125
12.51,1709208606.546875
14.34,1709208606.5625
16.27,1709208606.578125
18.08,1709208606.59375
19.6,1709208606.609375
20.7,1709208606.625
21.36,1709208606.640625
21.55,1709208606.65625
21.29,1709208606.671875
20.62,1709208606.6875
19.62,1709208606.703125
18.42,1709208606.71875
17.15,1709208606.734375
15.94,1709208606.75
14.82,1709208606.765625
13.76,1709208606.78125
12.67,1709208606.796875
11.45,1709208606.8125
10.05,1709208606.828125
8.51,1709208606.84375
6.95,1709208606.859375
5.49,1709208606.875
4.22,1709208606.890625
3.18,1709208606.90625
2.35,1709208606.921875
1.67,1709208606.9375
1.04,1709208606.953125
0.35,1709208606.96875
-0.47,1709208606.984375
-1.42,1709208607.0
-2.47,1709208607.015625
-3.58,1709208607.03125
-4.74,1709208607.046875
-5.99,1709208607.0625
-7.42,1709208607.078125
-9.12,1709208607.09375
-11.08,1709208607.109375
-13.17,1709208607.125
-15.21,1709208607.140625
-17.05,1709208607.15625
-18.64,1709208607.171875
-20.08,1709208607.1875
-21.58,1709208607.203125
-23.33,1709208607.21875
-25.47,1709208607.234375
-28.06,1709208607.25
-31.15,1709208607.265625
-34.72,1709208607.28125
-38.69,1709208607.296875
-42.8,1709208607.3125
-46.53,1709208607.328125
-49.14,1709208607.34375
-49.83,1709208607.359375
-48.02,1709208607.375
-43.55,1709208607.390625
-36.77,1709208607.40625
-28.48,1709208607.421875
-19.64,1709208607.4375
-11.17,1709208607.453125
-3.74,1709208607.46875
2.3,1709208607.484375
6.89,1709208607.5
10.12,1709208607.515625
12.21,1709208607.53125
13.4,1709208607.546875
13.92,1709208607.5625
13.96,1709208607.578125
13.63,1709208607.59375
13.01,1709208607.609375
12.18,1709208607.625
11.23,1709208607.640625
10.32,1709208607.65625
9.62,1709208607.671875
9.34,1709208607.6875
9.63,1709208607.703125
10.58,1709208607.71875
12.14,1709208607.734375
14.17,1709208607.75
16.42,1709208607.765625
18.6,1709208607.78125
20.46,1709208607.796875
21.85,1709208607.8125
22.66,1709208607.828125
22.9,1709208607.84375
22.65,1709208607.859375
22.05,1709208607.875
21.22,1709208607.890625
20.3,1709208607.90625
19.33,1709208607.921875
18.33,1709208607.9375
17.23,1709208607.953125
15.98,1709208607.96875
14.53,1709208607.984375
12.91,1709208608.0
11.2,1709208608.015625
9.49,1709208608.03125
7.89,1709208608.046875
6.46,1709208608.0625
5.22,1709208608.078125
4.13,1709208608.09375
3.15,1709208608.109375
2.24,1709208608.125
1.43,1709208608.140625
0.72,1709208608.15625
0.13,1709208608.171875
-0.4,1709208608.1875
-0.97,1709208608.203125
-1.73,1709208608.21875
-2.84,1709208608.234375
-4.34,1709208608.25
-6.21,1709208608.265625
-8.33,1709208608.28125
-10.56,1709208608.296875
-12.78,1709208608.3125
-14.92,1709208608.328125
-16.92,1709208608.34375
-18.78,1709208608.359375
-20.53,1709208608.375
-22.3,1709208608.390625
-24.29,1709208608.40625
-26.76,1709208608.421875
-29.93,1709208608.4375
-33.75,1709208608.453125
-37.83,1709208608.46875
-41.42,1709208608.484375
-43.56,1709208608.5
-43.45,1709208608.515625
-40.66,1709208608.53125
-35.31,1709208608.546875
-27.98,1709208608.5625
-19.49,1709208608.578125
-10.72,1709208608.59375
-2.37,1709208608.609375
5.01,1709208608.625
11.06,1709208608.640625
15.57,1709208608.65625
18.49,1709208608.671875
19.95,1709208608.6875
20.19,1709208608.703125
19.51,1709208608.71875
18.21,1709208608.734375
16.58,1709208608.75
14.83,1709208608.765625
13.19,1709208608.78125
11.84,1709208608.796875
10.91,1709208608.8125
10.47,1709208608.828125
10.54,1709208608.84375
11.16,1709208608.859375
12.34,1709208608.875
14.13,1709208608.890625
16.47,1709208608.90625
19.17,1709208608.921875
21.9,1709208608.9375
24.26,1709208608.953125
25.93,1709208608.96875
26.72,1709208608.984375
26.66,1709208609.0
25.93,1709208609.015625
24.78,1709208609.03125
23.48,1709208609.046875
22.16,1709208609.0625
20.88,1709208609.078125
19.57,1709208609.09375
18.17,1709208609.109375
16.64,1709208609.125
15.01,1709208609.140625
13.37,1709208609.15625
11.78,1709208609.171875
10.25,1709208609.1875
8.72,1709208609.203125
7.16,1709208609.21875
5.55,1709208609.234375
3.96,1709208609.25
2.44,1709208609.265625
1.03,1709208609.28125
-0.34,1709208609.296875
-1.74,1709208609.3125
-3.23,1709208609.328125
-4.83,1709208609.34375
-6.46,1709208609.359375
-8.07,1709208609.375
-9.63,1709208609.390625
-11.22,1709208609.40625
-12.96,1709208609.421875
-14.96,1709208609.4375
-17.29,1709208609.453125
-19.87,1709208609.46875
-22.6,1709208609.484375
-25.3,1709208609.5
-27.87,1709208609.515625
-30.33,1709208609.53125
-32.77,1709208609.546875
-35.43,1709208609.5625
-38.56,1709208609.578125
-42.32,1709208609.59375
-46.68,1709208609.609375
-51.26,1709208609.625
-55.35,1709208609.640625
-58.02,1709208609.65625
-58.35,1709208609.671875
-55.78,1709208609.6875
-50.28,1709208609.703125
-42.31,1709208609.71875
-32.78,1709208609.734375
-22.67,1709208609.75
-12.92,1709208609.765625
-4.18,1709208609.78125
3.17,1709208609.796875
8.95,1709208609.8125
13.19,1709208609.828125
16.06,1709208609.84375
17.79,1709208609.859375
18.67,1709208609.875
18.99,1709208609.890625
18.94,1709208609.90625
18.6,1709208609.921875
18.01,1709208609.9375
17.25,1709208609.953125
16.48,1709208609.96875
15.96,1709208609.984375
15.97,1709208610.0
16.68,1709208610.015625
18.1,1709208610.03125
20.09,1709208610.046875
22.41,1709208610.0625
24.76,1709208610.078125
26.95,1709208610.09375
28.83,1709208610.109375
30.32,1709208610.125
31.37,1709208610.140625
31.93,1709208610.15625
31.99,1709208610.171875
31.5,1709208610.1875
30.54,1709208610.203125
29.19,1709208610.21875
27.55,1709208610.234375
25.74,1709208610.25
23.83,1709208610.265625
21.83,1709208610.28125
19.75,1709208610.296875
17.64,1709208610.3125
15.52,1709208610.328125
13.52,1709208610.34375
11.79,1709208610.359375
10.4,1709208610.375
9.4,1709208610.390625
8.7,1709208610.40625
8.13,1709208610.421875
7.51,1709208610.4375
6.72,1709208610.453125
5.75,1709208610.46875
4.66,1709208610.484375
3.54,1709208610.5
2.41,1709208610.515625
1.25,1709208610.53125
-0.04,1709208610.546875
-1.52,1709208610.5625
-3.26,1709208610.578125
-5.24,1709208610.59375
-7.45,1709208610.609375
-9.85,1709208610.625
-12.39,1709208610.640625
-15.01,1709208610.65625
-17.63,1709208610.671875
-20.14,1709208610.6875
-22.44,1709208610.703125
-24.51,1709208610.71875
-26.46,1709208610.734375
-28.53,1709208610.75
-31.0,1709208610.765625
-34.15,1709208610.78125
-38.11,1709208610.796875
-42.72,1709208610.8125
-47.47,1709208610.828125
-51.53,1709208610.84375
-53.94,1709208610.859375
-53.8,1709208610.875
-50.58,1709208610.890625
-44.31,1709208610.90625
-35.56,1709208610.921875
-25.31,1709208610.9375
-14.72,1709208610.953125
-4.81,1709208610.96875
3.69,1709208610.984375
10.44,1709208611.0
15.38,1709208611.015625
18.69,1709208611.03125
20.66,1709208611.046875
21.57,1709208611.0625
21.72,1709208611.078125
21.35,1709208611.09375
20.61,1709208611.109375
19.62,1709208611.125
18.49,1709208611.140625
17.32,1709208611.15625
16.32,1709208611.171875
15.71,1709208611.1875
15.72,1709208611.203125
16.53,1709208611.21875
18.14,1709208611.234375
20.43,1709208611.25
23.18,1709208611.265625
26.09,1709208611.28125
28.83,1709208611.296875
31.06,1709208611.3125
32.45,1709208611.328125
32.77,1709208611.34375
31.97,1709208611.359375
30.21,1709208611.375
27.85,1709208611.390625
25.31,1709208611.40625
22.93,1709208611.421875
20.87,1709208611.4375
19.12,1709208611.453125
17.56,1709208611.46875
16.11,1709208611.484375
14.72,1709208611.5
13.36,1709208611.515625
12.02,1709208611.53125
10.65,1709208611.546875
9.2,1709208611.5625
7.67,1709208611.578125
6.14,1709208611.59375
4.68,1709208611.609375
3.33,1709208611.625
2.03,1709208611.640625
0.68,1709208611.65625
-0.83,1709208611.671875
-2.54,1709208611.6875
-4.38,1709208611.703125
-6.24,1709208611.71875
-8.02,1709208611.734375
-9.72,1709208611.75
-11.4,1709208611.765625
-13.16,1709208611.78125
-15.05,1709208611.796875
-17.15,1709208611.8125
-19.48,1709208611.828125
-22.17,1709208611.84375
-25.33,1709208611.859375
-29.02,1709208611.875
-33.05,1709208611.890625
-36.94,1709208611.90625
-39.9,1709208611.921875
-41.03,1709208611.9375
-39.67,1709208611.953125
-35.55,1709208611.96875
-28.96,1709208611.984375
-20.65,1709208612.0
-11.61,1709208612.015625
-2.77,1709208612.03125
5.15,1709208612.046875
11.78,1709208612.0625
16.98,1709208612.078125
20.72,1709208612.09375
23.06,1709208612.109375
24.09,1709208612.125
23.96,1709208612.140625
22.89,1709208612.15625
21.18,1709208612.171875
19.14,1709208612.1875
17.08,1709208612.203125
15.25,1709208612.21875
13.87,1709208612.234375
13.09,1709208612.25
13.0,1709208612.265625
13.62,1709208612.28125
14.86,1709208612.296875
16.56,1709208612.3125
18.47,1709208612.328125
20.39,1709208612.34375
22.13,1709208612.359375
23.57,1709208612.375
24.63,1709208612.390625
25.24,1709208612.40625
25.33,1709208612.421875
24.87,1709208612.4375
23.91,1709208612.453125
22.57,1709208612.46875
21.0,1709208612.484375
19.34,1709208612.5
17.64,1709208612.515625
15.89,1709208612.53125
14.02,1709208612.546875
12.0,1709208612.5625
9.87,1709208612.578125
7.7,1709208612.59375
5.61,1709208612.609375
3.65,1709208612.625
1.83,1709208612.640625
0.1,1709208612.65625
-1.56,1709208612.671875
-3.14,1709208612.6875
-4.58,1709208612.703125
-5.84,1709208612.71875
-6.95,1709208612.734375
-8.03,1709208612.75
-9.24,1709208612.765625
-10.73,1709208612.78125
-12.55,1709208612.796875
-14.62,1709208612.8125
-16.77,1709208612.828125
-18.86,1709208612.84375
-20.82,1709208612.859375
-22.72,1709208612.875
-24.72,1709208612.890625
-27.05,1709208612.90625
-29.92,1709208612.921875
-33.48,1709208612.9375
-37.69,1709208612.953125
-42.21,1709208612.96875
-46.42,1709208612.984375
-49.4,1709208613.0
-50.23,1709208613.015625
-48.25,1709208613.03125
-43.28,1709208613.046875
-35.76,1709208613.0625
-26.59,1709208613.078125
-16.92,1709208613.09375
-7.8,1709208613.109375
0.01,1709208613.125
6.16,1709208613.140625
10.64,1709208613.15625
13.67,1709208613.171875
15.57,1709208613.1875
16.66,1709208613.203125
17.23,1709208613.21875
17.45,1709208613.234375
17.47,1709208613.25
17.37,1709208613.265625
17.17,1709208613.28125
16.91,1709208613.296875
16.61,1709208613.3125
16.28,1709208613.328125
16.01,1709208613.34375
15.93,1709208613.359375
16.22,1709208613.375
17.01,1709208613.390625
18.35,1709208613.40625
20.14,1709208613.421875
22.09,1709208613.4375
23.85,1709208613.453125
25.13,1709208613.46875
25.74,1709208613.484375
25.69,1709208613.5
25.14,1709208613.515625
24.3,1709208613.53125
23.33,1709208613.546875
22.26,1709208613.5625
21.08,1709208613.578125
19.73,1709208613.59375
18.2,1709208613.609375
16.53,1709208613.625
14.82,1709208613.640625
13.1,1709208613.65625
11.39,1709208613.671875
9.69,1709208613.6875
8.05,1709208613.703125
6.56,1709208613.71875
5.35,1709208613.734375
4.5,1709208613.75
3.98,1709208613.765625
3.62,1709208613.78125
3.18,1709208613.796875
2.44,1709208613.8125
1.28,1709208613.828125
-0.24,1709208613.84375
-1.97,1709208613.859375
-3.7,1709208613.875
-5.28,1709208613.890625
-6.69,1709208613.90625
-8.02,1709208613.921875
-9.43,1709208613.9375
-11.07,1709208613.953125
-13.03,1709208613.96875
-15.26,1709208613.984375
-17.65,1709208614.0
-20.03,1709208614.015625
-22.25,1709208614.03125
-24.25,1709208614.046875
-26.07,1709208614.0625
-27.84,1709208614.078125
-29.79,1709208614.09375
-32.16,1709208614.109375
-35.15,1709208614.125
-38.77,1709208614.140625
-42.76,1709208614.15625
-46.47,1709208614.171875
-49.08,1709208614.1875
-49.71,1709208614.203125
-47.8,1709208614.21875
-43.26,1709208614.234375
-36.5,1709208614.25
-28.3,1709208614.265625
-19.59,1709208614.28125
-11.17,1709208614.296875
-3.63,1709208614.3125
2.71,1709208614.328125
7.71,1709208614.34375
11.33,1709208614.359375
13.7,1709208614.375
15.03,1709208614.390625
15.6,1709208614.40625
15.73,1709208614.421875
15.63,1709208614.4375
15.44,1709208614.453125
15.15,1709208614.46875
14.79,1709208614.484375
14.4,1709208614.5
14.11,1709208614.515625
14.06,1709208614.53125
14.36,1709208614.546875
15.05,1709208614.5625
16.09,1709208614.578125
17.4,1709208614.59375
18.89,1709208614.609375
20.44,1709208614.625
21.94,1709208614.640625
23.19,1709208614.65625
24.05,1709208614.671875
24.4,1709208614.6875
24.22,1709208614.703125
23.61,1709208614.71875
22.71,1709208614.734375
21.62,1709208614.75
20.41,1709208614.765625
19.04,1709208614.78125
17.5,1709208614.796875
15.8,1709208614.8125
14.0,1709208614.828125
12.24,1709208614.84375
10.66,1709208614.859375
9.35,1709208614.875
8.35,1709208614.890625
7.59,1709208614.90625
6.99,1709208614.921875
6.44,1709208614.9375
5.9,1709208614.953125
5.35,1709208614.96875
4.77,1709208614.984375
4.16,1709208615.0
3.47,1709208615.015625
2.7,1709208615.03125
1.82,1709208615.046875
0.86,1709208615.0625
-0.15,1709208615.078125
-1.18,1709208615.09375
-2.24,1709208615.109375
-3.36,1709208615.125
-4.59,1709208615.140625
-5.92,1709208615.15625
-7.35,1709208615.171875
-8.86,1709208615.1875
-10.47,1709208615.203125
-12.24,1709208615.21875
-14.22,1709208615.234375
-16.37,1709208615.25
-18.58,1709208615.265625
-20.67,1709208615.28125
-22.47,1709208615.296875
-23.98,1709208615.3125
-25.34,1709208615.328125
-26.83,1709208615.34375
-28.75,1709208615.359375
-31.36,1709208615.375
-34.67,1709208615.390625
-38.45,1709208615.40625
-42.2,1709208615.421875
-45.22,1709208615.4375
-46.76,1709208615.453125
-46.21,1709208615.46875
-43.25,1709208615.484375
-37.96,1709208615.5
-30.84,1709208615.515625
-22.65,1709208615.53125
-14.24,1709208615.546875
-6.4,1709208615.5625
0.29,1709208615.578125
5.55,1709208615.59375
9.35,1709208615.609375
11.85,1709208615.625
13.35,1709208615.640625
14.16,1709208615.65625
14.53,1709208615.671875
14.57,1709208615.6875
14.35,1709208615.703125
13.88,1709208615.71875
13.24,1709208615.734375
12.57,1709208615.75
12.03,1709208615.765625
11.76,1709208615.78125
11.83,1709208615.796875
12.26,1709208615.8125
13.06,1709208615.828125
14.24,1709208615.84375
15.84,1709208615.859375
17.79,1709208615.875
19.94,1709208615.890625
21.98,1709208615.90625
23.56,1709208615.921875
24.44,1709208615.9375
24.5,1709208615.953125
23.85,1709208615.96875
22.69,1709208615.984375
21.3,1709208616.0
19.87,1709208616.015625
18.49,1709208616.03125
17.16,1709208616.046875
15.82,1709208616.0625
14.43,1709208616.078125
12.98,1709208616.09375
11.52,1709208616.109375
10.12,1709208616.125
8.82,1709208616.140625
7.64,1709208616.15625
6.56,1709208616.171875
5.53,1709208616.1875
4.55,1709208616.203125
3.59,1709208616.21875
2.66,1709208616.234375
1.74,1709208616.25
0.78,1709208616.265625
-0.27,1709208616.28125
-1.45,1709208616.296875
-2.77,1709208616.3125
-4.22,1709208616.328125
-5.75,1709208616.34375
-7.36,1709208616.359375
-9.02,1709208616.375
-10.76,1709208616.390625
-12.54,1709208616.40625
-14.34,1709208616.421875
-16.11,1709208616.4375
-17.84,1709208616.453125
-19.6,1709208616.46875
-21.53,1709208616.484375
-23.83,1709208616.5
-26.69,1709208616.515625
-30.15,1709208616.53125
-34.05,1709208616.546875
-37.95,1709208616.5625
-41.25,1709208616.578125
-43.24,1709208616.59375
-43.29,1709208616.609375
-41.05,1709208616.625
-36.49,1709208616.640625
-29.99,1709208616.65625
-22.22,1709208616.671875
-14.06,1709208616.6875
-6.33,1709208616.703125
0.32,1709208616.71875
5.57,1709208616.734375
9.4,1709208616.75
12.02,1709208616.765625
13.69,1709208616.78125
14.64,1709208616.796875
14.99,1709208616.8125
14.81,1709208616.828125
14.22,1709208616.84375
13.37,1709208616.859375
12.51,1709208616.875
11.82,1709208616.890625
11.41,1709208616.90625
11.28,1709208616.921875
11.39,1709208616.9375
11.75,1709208616.953125
12.44,1709208616.96875
13.54,1709208616.984375
15.12,1709208617.0
17.09,1709208617.015625
19.25,1709208617.03125
21.27,1709208617.046875
22.86,1709208617.0625
23.81,1709208617.078125
24.03,1709208617.09375
23.59,1709208617.109375
22.63,1709208617.125
21.34,1709208617.140625
19.9,1709208617.15625
18.45,1709208617.171875
17.05,1709208617.1875
15.71,1709208617.203125
14.36,1709208617.21875
12.96,1709208617.234375
11.48,1709208617.25
9.94,1709208617.265625
8.42,1709208617.28125
7.0,1709208617.296875
5.73,1709208617.3125
4.63,1709208617.328125
3.67,1709208617.34375
2.79,1709208617.359375
1.95,1709208617.375
1.13,1709208617.390625
0.31,1709208617.40625
-0.52,1709208617.421875
-1.35,1709208617.4375
-2.21,1709208617.453125
-3.13,1709208617.46875
-4.16,1709208617.484375
-5.37,1709208617.5
-6.81,1709208617.515625
-8.52,1709208617.53125
-10.47,1709208617.546875
-12.62,1709208617.5625
-14.87,1709208617.578125
-17.11,1709208617.59375
-19.23,1709208617.609375
-21.14,1709208617.625
-22.81,1709208617.640625
-24.34,1709208617.65625
-25.94,1709208617.671875
-27.92,1709208617.6875
-30.55,1709208617.703125
-33.96,1709208617.71875
-37.92,1709208617.734375
-41.89,1709208617.75
-45.01,1709208617.765625
-46.44,1709208617.78125
-45.52,1709208617.796875
-42.02,1709208617.8125
-36.2,1709208617.828125
-28.71,1709208617.84375
-20.42,1709208617.859375
-12.22,1709208617.875
-4.8,1709208617.890625
1.39,1709208617.90625
6.22,1709208617.921875
9.76,1709208617.9375
12.21,1709208617.953125
13.83,1709208617.96875
14.83,1709208617.984375
15.33,1709208618.0
15.42,1709208618.015625
15.2,1709208618.03125
14.76,1709208618.046875
14.25,1709208618.0625
13.82,1709208618.078125
13.6,1709208618.09375
13.66,1709208618.109375
14.03,1709208618.125
14.72,1709208618.140625
15.7,1709208618.15625
16.96,1709208618.171875
18.41,1709208618.1875
19.9,1709208618.203125
21.23,1709208618.21875
22.24,1709208618.234375
22.82,1709208618.25
22.99,1709208618.265625
22.84,1709208618.28125
22.49,1709208618.296875
21.99,1709208618.3125
21.35,1709208618.328125
20.55,1709208618.34375
19.54,1709208618.359375
18.33,1709208618.375
16.97,1709208618.390625
15.52,1709208618.40625
14.06,1709208618.421875
12.62,1709208618.4375
11.21,1709208618.453125
9.8,1709208618.46875
8.38,1709208618.484375
7.02,1709208618.5
5.8,1709208618.515625
4.82,1709208618.53125
4.11,1709208618.546875
3.56,1709208618.5625
2.98,1709208618.578125
2.17,1709208618.59375
1.04,1709208618.609375
-0.32,1709208618.625
-1.72,1709208618.640625
-2.95,1709208618.65625
-3.92,1709208618.671875
-4.68,1709208618.6875
-5.42,1709208618.703125
-6.32,1709208618.71875
-7.51,1709208618.734375
-8.98,1709208618.75
-10.68,1709208618.765625
-12.55,1709208618.78125
-14.56,1709208618.796875
-16.69,1709208618.8125
-18.92,1709208618.828125
-21.18,1709208618.84375
-23.41,1709208618.859375
-25.61,1709208618.875
-27.86,1709208618.890625
-30.35,1709208618.90625
-33.15,1709208618.921875
-36.16,1709208618.9375
-38.93,1709208618.953125
-40.72,1709208618.96875
-40.81,1709208618.984375
-38.69,1709208619.0
-34.32,1709208619.015625
-28.12,1709208619.03125
-20.87,1709208619.046875
-13.4,1709208619.0625
-6.43,1709208619.078125
-0.42,1709208619.09375
4.38,1709208619.109375
7.95,1709208619.125
10.4,1709208619.140625
11.9,1709208619.15625
12.73,1709208619.171875
13.12,1709208619.1875
13.29,1709208619.203125
13.39,1709208619.21875
13.48,1709208619.234375
13.57,1709208619.25
13.67,1709208619.265625
13.79,1709208619.28125
13.94,1709208619.296875
14.13,1709208619.3125
14.4,1709208619.328125
14.81,1709208619.34375
15.4,1709208619.359375
16.22,1709208619.375
17.22,1709208619.390625
18.3,1709208619.40625
19.26,1709208619.421875
19.95,1709208619.4375
20.25,1709208619.453125
20.14,1709208619.46875
19.71,1709208619.484375
19.05,1709208619.5
18.25,1709208619.515625
17.37,1709208619.53125
16.39,1709208619.546875
15.31,1709208619.5625
14.13,1709208619.578125
12.88,1709208619.59375
11.6,1709208619.609375
10.34,1709208619.625
9.17,1709208619.640625
8.14,1709208619.65625
7.3,1709208619.671875
6.7,1709208619.6875
6.33,1709208619.703125
6.15,1709208619.71875
6.08,1709208619.734375
5.98,1709208619.75
5.75,1709208619.765625
5.29,1709208619.78125
4.56,1709208619.796875
3.58,1709208619.8125
2.4,1709208619.828125
1.09,1709208619.84375
-0.31,1709208619.859375
-1.74,1709208619.875
-3.21,1709208619.890625
-4.72,1709208619.90625
-6.24,1709208619.921875
-7.76,1709208619.9375
-9.22,1709208619.953125
-10.58,1709208619.96875
-11.82,1709208619.984375
-12.97,1709208620.0
-14.04,1709208620.015625
-15.1,1709208620.03125
-16.24,1709208620.046875
-17.59,1709208620.0625
-19.36,1709208620.078125
-21.65,1709208620.09375
-24.41,1709208620.109375
-27.31,1709208620.125
-29.68,1709208620.140625
-30.75,1709208620.15625
-29.89,1709208620.171875
-26.84,1709208620.1875
-21.85,1709208620.203125
-15.58,1709208620.21875
-8.89,1709208620.234375
-2.55,1709208620.25
2.94,1709208620.265625
7.32,1709208620.28125
10.57,1709208620.296875
12.76,1709208620.3125
14.02,1709208620.328125
14.49,1709208620.34375
14.3,1709208620.359375
13.6,1709208620.375
12.56,1709208620.390625
11.31,1709208620.40625
10.02,1709208620.421875
8.87,1709208620.4375
8.0,1709208620.453125
7.54,1709208620.46875
7.53,1709208620.484375
7.94,1709208620.5
8.69,1709208620.515625
9.72,1709208620.53125
10.93,1709208620.546875
12.22,1709208620.5625
13.46,1709208620.578125
14.47,1709208620.59375
15.11,1709208620.609375
15.34,1709208620.625
15.2,1709208620.640625
14.78,1709208620.65625
14.21,1709208620.671875
13.52,1709208620.6875
12.71,1709208620.703125
11.78,1709208620.71875
10.74,1709208620.734375
9.67,1709208620.75
8.64,1709208620.765625
7.73,1709208620.78125
6.9,1709208620.796875
6.07,1709208620.8125
5.19,1709208620.828125
4.25,1709208620.84375
3.37,1709208620.859375
2.66,1709208620.875
2.21,1709208620.890625
1.95,1709208620.90625
1.73,1709208620.921875
1.33,1709208620.9375
0.62,1709208620.953125
-0.41,1709208620.96875
-1.66,1709208620.984375
-2.95,1709208621.0
-4.11,1709208621.015625
-5.04,1709208621.03125
-5.73,1709208621.046875
-6.29,1709208621.0625
-6.86,1709208621.078125
-7.66,1709208621.09375
-8.85,1709208621.109375
-10.49,1709208621.125
-12.5,1709208621.140625
-14.67,1709208621.15625
-16.74,1709208621.171875
-18.48,1709208621.1875
-19.81,1709208621.203125
-20.85,1709208621.21875
-21.87,1709208621.234375
-23.21,1709208621.25
-25.13,1709208621.265625
-27.67,1709208621.28125
-30.57,1709208621.296875
-33.26,1709208621.3125
-35.01,1709208621.328125
-35.14,1709208621.34375
-33.22,1709208621.359375
-29.3,1709208621.375
-23.83,1709208621.390625
-17.53,1709208621.40625
-11.15,1709208621.421875
-5.33,1709208621.4375
-0.45,1709208621.453125
3.33,1709208621.46875
6.03,1709208621.484375
7.79,1709208621.5
8.81,1709208621.515625
9.34,1709208621.53125
9.58,1709208621.546875
9.67,1709208621.5625
9.68,1709208621.578125
9.6,1709208621.59375
9.45,1709208621.609375
9.28,1709208621.625
9.18,1709208621.640625
9.24,1709208621.65625
9.5,1709208621.671875
9.96,1709208621.6875
10.58,1709208621.703125
11.34,1709208621.71875
12.24,1709208621.734375
13.3,1709208621.75
14.43,1709208621.765625
15.49,1709208621.78125
16.26,1709208621.796875
16.53,1709208621.8125
16.22,1709208621.828125
15.4,1709208621.84375
14.3,1709208621.859375
13.2,1709208621.875
12.29,1709208621.890625
11.64,1709208621.90625
11.12,1709208621.921875
10.54,1709208621.9375
9.73,1709208621.953125
8.69,1709208621.96875
7.53,1709208621.984375
6.46,1709208622.0
5.63,1709208622.015625
5.05,1709208622.03125
4.64,1709208622.046875
4.24,1709208622.0625
3.76,1709208622.078125
3.18,1709208622.09375
2.56,1709208622.109375
1.98,1709208622.125
1.47,1709208622.140625
1.0,1709208622.15625
0.54,1709208622.171875
0.03,1709208622.1875
-0.53,1709208622.203125
-1.11,1709208622.21875
-1.73,1709208622.234375
-2.4,1709208622.25
-3.16,1709208622.265625
-4.07,1709208622.28125
-5.14,1709208622.296875
-6.36,1709208622.3125
-7.69,1709208622.328125
-9.14,1709208622.34375
-10.72,1709208622.359375
-12.45,1709208622.375
-14.33,1709208622.390625
-16.25,1709208622.40625
-18.07,1709208622.421875
-19.65,1709208622.4375
-20.91,1709208622.453125
-21.94,1709208622.46875
-22.94,1709208622.484375
-24.17,1709208622.5
-25.86,1709208622.515625
-28.13,1709208622.53125
-30.97,1709208622.546875
-34.18,1709208622.5625
-37.37,1709208622.578125
-39.98,1709208622.59375
-41.34,1709208622.609375
-40.84,1709208622.625
-38.1,1709208622.640625
-33.16,1709208622.65625
-26.55,1709208622.671875
-19.15,1709208622.6875
-11.94,1709208622.703125
-5.73,1709208622.71875
-0.95,1709208622.734375
2.39,1709208622.75
4.56,1709208622.765625
5.93,1709208622.78125
6.83,1709208622.796875
7.41,1709208622.8125
7.74,1709208622.828125
7.86,1709208622.84375
7.84,1709208622.859375
7.77,1709208622.875
7.75,1709208622.890625
7.82,1709208622.90625
7.98,1709208622.921875
8.2,1709208622.9375
8.51,1709208622.953125
8.98,1709208622.96875
9.73,1709208622.984375
10.88,1709208623.0
12.42,1709208623.015625
14.25,1709208623.03125
16.09,1709208623.046875
17.68,1709208623.0625
18.75,1709208623.078125
19.23,1709208623.09375
19.17,1709208623.109375
18.75,1709208623.125
18.18,1709208623.140625
17.61,1709208623.15625
17.09,1709208623.171875
16.57,1709208623.1875
15.96,1709208623.203125
15.2,1709208623.21875
14.29,1709208623.234375
13.29,1709208623.25
12.27,1709208623.265625
11.29,1709208623.28125
10.38,1709208623.296875
9.57,1709208623.3125
8.89,1709208623.328125
8.37,1709208623.34375
8.01,1709208623.359375
7.74,1709208623.375
7.45,1709208623.390625
7.02,1709208623.40625
6.39,1709208623.421875
5.59,1709208623.4375
4.73,1709208623.453125
3.9,1709208623.46875
3.12,1709208623.484375
2.32,1709208623.5
1.42,1709208623.515625
0.36,1709208623.53125
-0.82,1709208623.546875
-2.04,1709208623.5625
-3.24,1709208623.578125
-4.44,1709208623.59375
-5.68,1709208623.609375
-7.01,1709208623.625
-8.42,1709208623.640625
-9.87,1709208623.65625
-11.32,1709208623.671875
-12.78,1709208623.6875
-14.38,1709208623.703125
-16.21,1709208623.71875
-18.3,1709208623.734375
-20.55,1709208623.75
-22.79,1709208623.765625
-24.9,1709208623.78125
-26.9,1709208623.796875
-28.97,1709208623.8125
-31.39,1709208623.828125
-34.38,1709208623.84375
-37.93,1709208623.859375
-41.77,1709208623.875
-45.3,1709208623.890625
-47.78,1709208623.90625
-48.47,1709208623.921875
-46.9,1709208623.9375
-42.97,1709208623.953125
-36.99,1709208623.96875
-29.59,1709208623.984375
-21.61,1709208624.0
-13.83,1709208624.015625
-6.94,1709208624.03125
-1.31,1709208624.046875
2.91,1709208624.0625
5.87,1709208624.078125
7.88,1709208624.09375
9.3,1709208624.109375
10.43,1709208624.125
11.43,1709208624.140625
12.27,1709208624.15625
12.83,1709208624.171875
13.01,1709208624.1875
12.84,1709208624.203125
12.49,1709208624.21875
12.2,1709208624.234375
12.19,1709208624.25
12.56,1709208624.265625
13.34,1709208624.28125
14.48,1709208624.296875
15.96,1709208624.3125
17.75,1709208624.328125
19.8,1709208624.34375
21.97,1709208624.359375
23.99,1709208624.375
25.53,1709208624.390625
26.34,1709208624.40625
26.32,1709208624.421875
25.58,1709208624.4375
24.37,1709208624.453125
22.99,1709208624.46875
21.65,1709208624.484375
20.42,1709208624.5
19.3,1709208624.515625
18.22,1709208624.53125
17.09,1709208624.546875
15.89,1709208624.5625
14.63,1709208624.578125
13.39,1709208624.59375
12.23,1709208624.609375
11.21,1709208624.625
10.38,1709208624.640625
9.74,1709208624.65625
9.26,1709208624.671875
8.86,1709208624.6875
8.47,1709208624.703125
8.03,1709208624.71875
7.49,1709208624.734375
6.85,1709208624.75
6.14,1709208624.765625
5.36,1709208624.78125
4.48,1709208624.796875
3.45,1709208624.8125
2.19,1709208624.828125
0.69,1709208624.84375
-1.0,1709208624.859375
-2.7,1709208624.875
-4.2,1709208624.890625
-5.39,1709208624.90625
-6.32,1709208624.921875
-7.23,1709208624.9375
-8.42,1709208624.953125
-10.15,1709208624.96875
-12.43,1709208624.984375
-15.04,1709208625.0
-17.6,1709208625.015625
-19.77,1709208625.03125
-21.42,1709208625.046875
-22.67,1709208625.0625
-23.89,1709208625.078125
-25.47,1709208625.09375
-27.7,1709208625.109375
-30.59,1709208625.125
-33.89,1709208625.140625
-37.1,1709208625.15625
-39.56,1709208625.171875
-40.59,1709208625.1875
-39.59,1709208625.203125
-36.23,1709208625.21875
-30.53,1709208625.234375
-22.95,1709208625.25
-14.32,1709208625.265625
-5.61,1709208625.28125
2.28,1709208625.296875
8.74,1709208625.3125
13.56,1709208625.328125
16.82,1709208625.34375
18.75,1709208625.359375
19.62,1709208625.375
19.64,1709208625.390625
19.01,1709208625.40625
17.98,1709208625.421875
16.77,1709208625.4375
15.62,1709208625.453125
14.7,1709208625.46875
14.07,1709208625.484375
13.74,1709208625.5
13.68,1709208625.515625
13.93,1709208625.53125
14.58,1709208625.546875
15.7,1709208625.5625
17.29,1709208625.578125
19.26,1709208625.59375
21.38,1709208625.609375
23.41,1709208625.625
25.11,1709208625.640625
26.32,1709208625.65625
26.95,1709208625.671875
26.99,1709208625.6875
26.47,1709208625.703125
25.45,1709208625.71875
24.04,1709208625.734375
22.4,1709208625.75
20.7,1709208625.765625
19.07,1709208625.78125
17.57,1709208625.796875
16.13,1709208625.8125
14.63,1709208625.828125
12.97,1709208625.84375
11.15,1709208625.859375
9.3,1709208625.875
7.61,1709208625.890625
6.23,1709208625.90625
5.21,1709208625.921875
4.39,1709208625.9375
3.53,1709208625.953125
2.4,1709208625.96875
0.91,1709208625.984375
-0.83,1709208626.0
-2.59,1709208626.015625
-4.13,1709208626.03125
-5.36,1709208626.046875
-6.38,1709208626.0625
-7.44,1709208626.078125
-8.84,1709208626.09375
-10.75,1709208626.109375
-13.18,1709208626.125
-15.97,1709208626.140625
-18.87,1709208626.15625
-21.67,1709208626.171875
-24.23,1709208626.1875
-26.53,1709208626.203125
-28.64,1709208626.21875
-30.77,1709208626.234375
-33.17,1709208626.25
-36.13,1709208626.265625
-39.83,1709208626.28125
-44.13,1709208626.296875
-48.58,1709208626.3125
-52.38,1709208626.328125
-54.61,1709208626.34375
-54.5,1709208626.359375
-51.71,1709208626.375
-46.41,1709208626.390625
-39.31,1709208626.40625
-31.34,1709208626.421875
-23.45,1709208626.4375
-16.39,1709208626.453125
-10.62,1709208626.46875
-6.35,1709208626.484375
-3.58,1709208626.5
-2.18,1709208626.515625
-1.94,1709208626.53125
-2.54,1709208626.546875
-3.67,1709208626.5625
-5.05,1709208626.578125
-6.48,1709208626.59375
-7.87,1709208626.609375
-9.13,1709208626.625
-10.15,1709208626.640625
-10.67,1709208626.65625
-10.3,1709208626.671875
-8.63,1709208626.6875
-5.34,1709208626.703125
-0.32,1709208626.71875
6.24,1709208626.734375
13.93,1709208626.75
22.16,1709208626.765625
30.31,1709208626.78125
37.79,1709208626.796875
44.12,1709208626.8125
48.94,1709208626.828125
52.09,1709208626.84375
53.59,1709208626.859375
53.68,1709208626.875
52.71,1709208626.890625
51.04,1709208626.90625
48.99,1709208626.921875
46.68,1709208626.9375
44.16,1709208626.953125
41.39,1709208626.96875
38.36,1709208626.984375
35.16,1709208627.0
31.92,1709208627.015625
28.82,1709208627.03125
25.98,1709208627.046875
23.48,1709208627.0625
21.3,1709208627.078125
19.37,1709208627.09375
17.57,1709208627.109375
15.76,1709208627.125
13.84,1709208627.140625
11.73,1709208627.15625
9.45,1709208627.171875
7.08,1709208627.1875
4.73,1709208627.203125
2.49,1709208627.21875
0.37,1709208627.234375
-1.69,1709208627.25
-3.81,1709208627.265625
-6.08,1709208627.28125
-8.58,1709208627.296875
-11.28,1709208627.3125
-14.09,1709208627.328125
-16.91,1709208627.34375
-19.65,1709208627.359375
-22.33,1709208627.375
-25.05,1709208627.390625
-28.02,1709208627.40625
-31.43,1709208627.421875
-35.39,1709208627.4375
-39.84,1709208627.453125
-44.49,1709208627.46875
-48.78,1709208627.484375
-52.0,1709208627.5
-53.39,1709208627.515625
-52.36,1709208627.53125
-48.68,1709208627.546875
-42.52,1709208627.5625
-34.45,1709208627.578125
-25.3,1709208627.59375
-15.98,1709208627.609375
-7.32,1709208627.625
0.14,1709208627.640625
6.13,1709208627.65625
10.65,1709208627.671875
13.9,1709208627.6875
16.1,1709208627.703125
17.45,1709208627.71875
18.05,1709208627.734375
17.99,1709208627.75
17.37,1709208627.765625
16.39,1709208627.78125
15.31,1709208627.796875
14.39,1709208627.8125
13.85,1709208627.828125
13.76,1709208627.84375
14.13,1709208627.859375
14.96,1709208627.875
16.27,1709208627.890625
18.06,1709208627.90625
20.28,1709208627.921875
22.7,1709208627.9375
25.02,1709208627.953125
26.85,1709208627.96875
27.94,1709208627.984375
28.21,1709208628.0
27.81,1709208628.015625
26.97,1709208628.03125
25.91,1709208628.046875
24.75,1709208628.0625
23.48,1709208628.078125
22.07,1709208628.09375
20.52,1709208628.109375
18.86,1709208628.125
17.2,1709208628.140625
15.6,1709208628.15625
14.05,1709208628.171875
12.54,1709208628.1875
11.03,1709208628.203125
9.57,1709208628.21875
8.26,1709208628.234375
7.18,1709208628.25
6.37,1709208628.265625
5.71,1709208628.28125
5.06,1709208628.296875
4.26,1709208628.3125
3.25,1709208628.328125
2.11,1709208628.34375
0.94,1709208628.359375
-0.16,1709208628.375
-1.22,1709208628.390625
-2.34,1709208628.40625
-3.67,1709208628.421875
-5.31,1709208628.4375
-7.24,1709208628.453125
-9.36,1709208628.46875
-11.53,1709208628.484375
-13.65,1709208628.5
-15.7,1709208628.515625
-17.75,1709208628.53125
-19.9,1709208628.546875
-22.23,1709208628.5625
-24.75,1709208628.578125
-27.4,1709208628.59375
-30.14,1709208628.609375
-33.03,1709208628.625
-36.2,1709208628.640625
-39.81,1709208628.65625
-43.87,1709208628.671875
-48.05,1709208628.6875
-51.66,1709208628.703125
-53.77,1709208628.71875
-53.55,1709208628.734375
-50.5,1709208628.75
-44.7,1709208628.765625
-36.75,1709208628.78125
-27.55,1709208628.796875
-18.07,1709208628.8125
-9.11,1709208628.828125
-1.22,1709208628.84375
5.27,1709208628.859375
10.27,1709208628.875
13.84,1709208628.890625
16.16,1709208628.90625
17.5,1709208628.921875
18.1,1709208628.9375
18.18,1709208628.953125
17.86,1709208628.96875
17.27,1709208628.984375
16.53,1709208629.0
15.85,1709208629.015625
15.47,1709208629.03125
15.53,1709208629.046875
16.07,1709208629.0625
16.96,1709208629.078125
18.04,1709208629.09375
19.18,1709208629.109375
20.36,1709208629.125
21.67,1709208629.140625
23.17,1709208629.15625
24.83,1709208629.171875
26.44,1709208629.1875
27.67,1709208629.203125
28.25,1709208629.21875
28.06,1709208629.234375
27.18,1709208629.25
25.84,1709208629.265625
24.32,1709208629.28125
22.79,1709208629.296875
21.32,1709208629.3125
19.9,1709208629.328125
18.5,1709208629.34375
17.07,1709208629.359375
15.62,1709208629.375
14.19,1709208629.390625
12.82,1709208629.40625
11.56,1709208629.421875
10.43,1709208629.4375
9.42,1709208629.453125
8.46,1709208629.46875
7.46,1709208629.484375
6.34,1709208629.5
5.04,1709208629.515625
3.65,1709208629.53125
2.26,1709208629.546875
1.0,1709208629.5625
-0.08,1709208629.578125
-1.05,1709208629.59375
-2.04,1709208629.609375
-3.25,1709208629.625
-4.79,1709208629.640625
-6.71,1709208629.65625
-8.93,1709208629.671875
-11.29,1709208629.6875
-13.62,1709208629.703125
-15.8,1709208629.71875
-17.82,1709208629.734375
-19.77,1709208629.75
-21.88,1709208629.765625
-24.36,1709208629.78125
-27.36,1709208629.796875
-30.9,1709208629.8125
-34.73,1709208629.828125
-38.34,1709208629.84375
-41.04,1709208629.859375
-42.07,1709208629.875
-40.83,1709208629.890625
-37.02,1709208629.90625
-30.8,1709208629.921875
-22.7,1709208629.9375
-13.62,1709208629.953125
-4.53,1709208629.96875
3.67,1709208629.984375
10.37,1709208630.0
15.33,1709208630.015625
18.65,1709208630.03125
20.64,1709208630.046875
21.64,1709208630.0625
21.89,1709208630.078125
21.51,1709208630.09375
20.5,1709208630.109375
18.92,1709208630.125
16.95,1709208630.140625
14.94,1709208630.15625
13.26,1709208630.171875
12.26,1709208630.1875
12.1,1709208630.203125
12.77,1709208630.21875
14.14,1709208630.234375
15.99,1709208630.25
18.06,1709208630.265625
20.1,1709208630.28125
21.91,1709208630.296875
23.3,1709208630.3125
24.18,1709208630.328125
24.53,1709208630.34375
24.41,1709208630.359375
23.89,1709208630.375
23.03,1709208630.390625
21.92,1709208630.40625
20.55,1709208630.421875
18.98,1709208630.4375
17.23,1709208630.453125
15.39,1709208630.46875
13.51,1709208630.484375
11.65,1709208630.5
9.84,1709208630.515625
8.09,1709208630.53125
6.42,1709208630.546875
4.86,1709208630.5625
3.44,1709208630.578125
2.2,1709208630.59375
1.09,1709208630.609375
0.01,1709208630.625
-1.18,1709208630.640625
-2.51,1709208630.65625
-3.96,1709208630.671875
-5.4,1709208630.6875
-6.71,1709208630.703125
-7.88,1709208630.71875
-9.01,1709208630.734375
-10.29,1709208630.75
-11.87,1709208630.765625
-13.78,1709208630.78125
-15.9,1709208630.796875
-18.05,1709208630.8125
-20.13,1709208630.828125
-22.21,1709208630.84375
-24.53,1709208630.859375
-27.39,1709208630.875
-31.0,1709208630.890625
-35.19,1709208630.90625
-39.45,1709208630.921875
-42.98,1709208630.9375
-44.87,1709208630.953125
-44.44,1709208630.96875
-41.42,1709208630.984375
-36.01,1709208631.0
-28.8,1709208631.015625
-20.57,1709208631.03125
-12.06,1709208631.046875
-3.93,1709208631.0625
3.36,1709208631.078125
9.49,1709208631.09375
14.28,1709208631.109375
17.68,1709208631.125
19.78,1709208631.140625
20.81,1709208631.15625
21.02,1709208631.171875
20.69,1709208631.1875
20.03,1709208631.203125
19.18,1709208631.21875
18.3,1709208631.234375
17.52,1709208631.25
16.96,1709208631.265625
16.7,1709208631.28125
16.73,1709208631.296875
17.05,1709208631.3125
17.66,1709208631.328125
18.59,1709208631.34375
19.83,1709208631.359375
21.3,1709208631.375
22.79,1709208631.390625
24.0,1709208631.40625
24.73,1709208631.421875
24.85,1709208631.4375
24.44,1709208631.453125
23.7,1709208631.46875
22.79,1709208631.484375
21.81,1709208631.5
20.74,1709208631.515625
19.48,1709208631.53125
17.98,1709208631.546875
16.27,1709208631.5625
14.47,1709208631.578125
12.71,1709208631.59375
11.1,1709208631.609375
9.7,1709208631.625
8.53,1709208631.640625
7.57,1709208631.65625
6.77,1709208631.671875
6.08,1709208631.6875
5.41,1709208631.703125
4.68,1709208631.71875
3.8,1709208631.734375
2.7,1709208631.75
1.34,1709208631.765625
-0.25,1709208631.78125
-1.98,1709208631.796875
-3.71,1709208631.8125
-5.31,1709208631.828125
-6.69,1709208631.84375
-7.89,1709208631.859375
-9.03,1709208631.875
-10.3,1709208631.890625
-11.88,1709208631.90625
-13.85,1709208631.921875
-16.15,1709208631.9375
-18.6,1709208631.953125
-20.99,1709208631.96875
-23.2,1709208631.984375
-25.19,1709208632.0
-27.05,1709208632.015625
-28.97,1709208632.03125
-31.2,1709208632.046875
-33.92,1709208632.0625
-37.14,1709208632.078125
-40.62,1709208632.09375
-43.8,1709208632.109375
-45.92,1709208632.125
-46.15,1709208632.140625
-43.89,1709208632.15625
-38.98,1709208632.171875
-31.8,1709208632.1875
-23.19,1709208632.203125
-14.21,1709208632.21875
-5.83,1709208632.234375
1.28,1709208632.25
6.84,1709208632.265625
10.91,1709208632.28125
13.68,1709208632.296875
15.43,1709208632.3125
16.36,1709208632.328125
16.71,1709208632.34375
16.68,1709208632.359375
16.5,1709208632.375
16.34,1709208632.390625
16.29,1709208632.40625
16.33,1709208632.421875
16.38,1709208632.4375
16.39,1709208632.453125
16.35,1709208632.46875
16.39,1709208632.484375
16.63,1709208632.5
17.2,1709208632.515625
18.1,1709208632.53125
19.24,1709208632.546875
20.45,1709208632.5625
21.56,1709208632.578125
22.4,1709208632.59375
22.88,1709208632.609375
22.93,1709208632.625
22.53,1709208632.640625
21.72,1709208632.65625
20.6,1709208632.671875
19.29,1709208632.6875
17.96,1709208632.703125
16.71,1709208632.71875
15.6,1709208632.734375
14.6,1709208632.75
13.63,1709208632.765625
12.61,1709208632.78125
11.54,1709208632.796875
10.47,1709208632.8125
9.49,1709208632.828125
8.65,1709208632.84375
7.91,1709208632.859375
7.12,1709208632.875
6.16,1709208632.890625
4.99,1709208632.90625
3.75,1709208632.921875
2.7,1709208632.9375
2.01,1709208632.953125
1.68,1709208632.96875
1.53,1709208632.984375
1.24,1709208633.0
0.54,1709208633.015625
-0.63,1709208633.03125
-2.19,1709208633.046875
-3.92,1709208633.0625
-5.64,1709208633.078125
-7.27,1709208633.09375
-8.84,1709208633.109375
-10.4,1709208633.125
-11.99,1709208633.140625
-13.62,1709208633.15625
-15.26,1709208633.171875
-16.89,1709208633.1875
-18.53,1709208633.203125
-20.19,1709208633.21875
-21.85,1709208633.234375
-23.5,1709208633.25
-25.16,1709208633.265625
-26.91,1709208633.28125
-28.93,1709208633.296875
-31.43,1709208633.3125
-34.51,1709208633.328125
-38.0,1709208633.34375
-41.36,1709208633.359375
-43.76,1709208633.375
-44.33,1709208633.390625
-42.44,1709208633.40625
-37.99,1709208633.421875
-31.48,1709208633.4375
-23.81,1709208633.453125
-15.98,1709208633.46875
-8.79,1709208633.484375
-2.69,1709208633.5
2.21,1709208633.515625
5.97,1709208633.53125
8.69,1709208633.546875
10.47,1709208633.5625
11.43,1709208633.578125
11.72,1709208633.59375
11.55,1709208633.609375
11.14,1709208633.625
10.65,1709208633.640625
10.19,1709208633.65625
9.84,1709208633.671875
9.63,1709208633.6875
9.63,1709208633.703125
9.87,1709208633.71875
10.38,1709208633.734375
11.17,1709208633.75
12.21,1709208633.765625
13.48,1709208633.78125
14.9,1709208633.796875
16.39,1709208633.8125
17.77,1709208633.828125
18.81,1709208633.84375
19.32,1709208633.859375
19.19,1709208633.875
18.49,1709208633.890625
17.42,1709208633.90625
16.23,1709208633.921875
15.12,1709208633.9375
14.15,1709208633.953125
13.26,1709208633.96875
12.29,1709208633.984375
11.16,1709208634.0
9.83,1709208634.015625
8.41,1709208634.03125
7.02,1709208634.046875
5.79,1709208634.0625
4.75,1709208634.078125
3.92,1709208634.09375
3.23,1709208634.109375
2.65,1709208634.125
2.12,1709208634.140625
1.57,1709208634.15625
0.96,1709208634.171875
0.26,1709208634.1875
-0.49,1709208634.203125
-1.22,1709208634.21875
-1.87,1709208634.234375
-2.42,1709208634.25
-2.93,1709208634.265625
-3.56,1709208634.28125
-4.46,1709208634.296875
-5.71,1709208634.3125
-7.27,1709208634.328125
-9.0,1709208634.34375
-10.74,1709208634.359375
-12.39,1709208634.375
-13.91,1709208634.390625
-15.34,1709208634.40625
-16.73,1709208634.421875
-18.11,1709208634.4375
-19.5,1709208634.453125
-20.99,1709208634.46875
-22.72,1709208634.484375
-24.81,1709208634.5
-27.24,1709208634.515625
-29.79,1709208634.53125
-31.93,1709208634.546875
-33.0,1709208634.5625
-32.36,1709208634.578125
-29.68,1709208634.59375
-25.03,1709208634.609375
-18.88,1709208634.625
-12.01,1709208634.640625
-5.23,1709208634.65625
0.77,1709208634.671875
5.62,1709208634.6875
9.23,1709208634.703125
11.72,1709208634.71875
13.3,1709208634.734375
14.13,1709208634.75
14.29,1709208634.765625
13.8,1709208634.78125
12.77,1709208634.796875
11.41,1709208634.8125
10.0,1709208634.828125
8.84,1709208634.84375
8.09,1709208634.859375
7.77,1709208634.875
7.79,1709208634.890625
8.1,1709208634.90625
8.7,1709208634.921875
9.69,1709208634.9375
11.1,1709208634.953125
12.86,1709208634.96875
14.73,1709208634.984375
16.38,1709208635.0
17.53,1709208635.015625
18.08,1709208635.03125
18.09,1709208635.046875
17.72,1709208635.0625
17.13,1709208635.078125
16.38,1709208635.09375
15.43,1709208635.109375
14.2,1709208635.125
12.66,1709208635.140625
10.87,1709208635.15625
9.01,1709208635.171875
7.26,1709208635.1875
5.79,1709208635.203125
4.64,1709208635.21875
3.79,1709208635.234375
3.14,1709208635.25
2.58,1709208635.265625
1.99,1709208635.28125
1.27,1709208635.296875
0.38,1709208635.3125
-0.67,1709208635.328125
-1.78,1709208635.34375
-2.81,1709208635.359375
-3.67,1709208635.375
-4.35,1709208635.390625
-4.98,1709208635.40625
-5.76,1709208635.421875
-6.84,1709208635.4375
-8.29,1709208635.453125
-10.04,1709208635.46875
-11.97,1709208635.484375
-13.93,1709208635.5
-15.86,1709208635.515625
-17.71,1709208635.53125
-19.49,1709208635.546875
-21.22,1709208635.5625
-22.98,1709208635.578125
-24.94,1709208635.59375
-27.24,1709208635.609375
-29.99,1709208635.625
-33.05,1709208635.640625
-36.02,1709208635.65625
-38.25,1709208635.671875
-39.05,1709208635.6875
-37.87,1709208635.703125
-34.49,1709208635.71875
-29.13,1709208635.734375
-22.4,1709208635.75
-15.09,1709208635.765625
-8.04,1709208635.78125
-1.92,1709208635.796875
2.91,1709208635.8125
6.4,1709208635.828125
8.72,1709208635.84375
10.14,1709208635.859375
10.91,1709208635.875
11.16,1709208635.890625
10.95,1709208635.90625
10.35,1709208635.921875
9.52,1709208635.9375
8.7,1709208635.953125
8.15,1709208635.96875
8.0,1709208635.984375
8.28,1709208636.0
8.87,1709208636.015625
9.62,1709208636.03125
10.47,1709208636.046875
11.49,1709208636.0625
12.76,1709208636.078125
14.35,1709208636.09375
16.16,1709208636.109375
17.91,1709208636.125
19.32,1709208636.140625
20.16,1709208636.15625
20.36,1709208636.171875
20.05,1709208636.1875
19.4,1709208636.203125
18.59,1709208636.21875
17.72,1709208636.234375
16.78,1709208636.25
15.75,1709208636.265625
14.59,1709208636.28125
13.31,1709208636.296875
11.95,1709208636.3125
10.57,1709208636.328125
9.22,1709208636.34375
7.97,1709208636.359375
6.85,1709208636.375
5.88,1709208636.390625
5.06,1709208636.40625
4.35,1709208636.421875
3.7,1709208636.4375
3.03,1709208636.453125
2.27,1709208636.46875
1.37,1709208636.484375
0.32,1709208636.5
-0.85,1709208636.515625
-2.07,1709208636.53125
-3.27,1709208636.546875
-4.45,1709208636.5625
-5.66,1709208636.578125
-6.99,1709208636.59375
-8.56,1709208636.609375
-10.41,1709208636.625
-12.53,1709208636.640625
-14.82,1709208636.65625
-17.18,1709208636.671875
-19.48,1709208636.6875
-21.63,1709208636.703125
-23.59,1709208636.71875
-25.38,1709208636.734375
-27.16,1709208636.75
-29.17,1709208636.765625
-31.72,1709208636.78125
-34.95,1709208636.796875
-38.71,1709208636.8125
-42.42,1709208636.828125
-45.18,1709208636.84375
-46.04,1709208636.859375
-44.3,1709208636.875
-39.86,1709208636.890625
-33.23,1709208636.90625
-25.35,1709208636.921875
-17.28,1709208636.9375
-9.89,1709208636.953125
-3.65,1709208636.96875
1.33,1709208636.984375
5.16,1709208637.0
8.02,1709208637.015625
10.1,1709208637.03125
11.59,1709208637.046875
12.62,1709208637.0625
13.33,1709208637.078125
13.82,1709208637.09375
14.1,1709208637.109375
14.15,1709208637.125
13.92,1709208637.140625
13.45,1709208637.15625
12.84,1709208637.171875
12.29,1709208637.1875
12.04,1709208637.203125
12.28,1709208637.21875
13.14,1709208637.234375
14.59,1709208637.25
16.51,1709208637.265625
18.63,1709208637.28125
20.6,1709208637.296875
22.08,1709208637.3125
22.79,1709208637.328125
22.64,1709208637.34375
21.7,1709208637.359375
20.28,1709208637.375
18.7,1709208637.390625
17.29,1709208637.40625
16.19,1709208637.421875
15.39,1709208637.4375
14.74,1709208637.453125
14.03,1709208637.46875
13.13,1709208637.484375
11.98,1709208637.5
10.63,1709208637.515625
9.21,1709208637.53125
7.85,1709208637.546875
6.63,1709208637.5625
5.62,1709208637.578125
4.83,1709208637.59375
4.21,1709208637.609375
3.69,1709208637.625
3.15,1709208637.640625
2.46,1709208637.65625
1.51,1709208637.671875
0.29,1709208637.6875
-1.12,1709208637.703125
-2.59,1709208637.71875
-4.03,1709208637.734375
-5.44,1709208637.75
-6.93,1709208637.765625
-8.68,1709208637.78125
-10.81,1709208637.796875
-13.29,1709208637.8125
-15.91,1709208637.828125
-18.38,1709208637.84375
-20.5,1709208637.859375
-22.23,1709208637.875
-23.74,1709208637.890625
-25.29,1709208637.90625
-27.15,1709208637.921875
-29.52,1709208637.9375
-32.43,1709208637.953125
-35.8,1709208637.96875
-39.33,1709208637.984375
-42.53,1709208638.0
-44.72,1709208638.015625
-45.15,1709208638.03125
-43.24,1709208638.046875
-38.84,1709208638.0625
-32.25,1709208638.078125
-24.23,1709208638.09375
-15.72,1709208638.109375
-7.56,1709208638.125
-0.39,1709208638.140625
5.47,1709208638.15625
9.9,1709208638.171875
12.97,1709208638.1875
14.82,1709208638.203125
15.7,1709208638.21875
15.88,1709208638.234375
15.68,1709208638.25
15.32,1709208638.265625
14.93,1709208638.28125
14.56,1709208638.296875
14.2,1709208638.3125
13.86,1709208638.328125
13.58,1709208638.34375
13.46,1709208638.359375
13.64,1709208638.375
14.25,1709208638.390625
15.39,1709208638.40625
17.04,1709208638.421875
19.11,1709208638.4375
21.35,1709208638.453125
23.5,1709208638.46875
25.27,1709208638.484375
26.45,1709208638.5
26.88,1709208638.515625
26.51,1709208638.53125
25.39,1709208638.546875
23.67,1709208638.5625
21.59,1709208638.578125
19.44,1709208638.59375
17.45,1709208638.609375
15.78,1709208638.625
14.45,1709208638.640625
13.37,1709208638.65625
12.37,1709208638.671875
11.29,1709208638.6875
10.06,1709208638.703125
8.68,1709208638.71875
7.22,1709208638.734375
5.74,1709208638.75
4.32,1709208638.765625
3.02,1709208638.78125
1.84,1709208638.796875
0.74,1709208638.8125
-0.39,1709208638.828125
-1.69,1709208638.84375
-3.27,1709208638.859375
-5.16,1709208638.875
-7.28,1709208638.890625
-9.46,1709208638.90625
-11.54,1709208638.921875
-13.46,1709208638.9375
-15.25,1709208638.953125
-17.09,1709208638.96875
-19.21,1709208638.984375
-21.83,1709208639.0
-25.05,1709208639.015625
-28.79,1709208639.03125
-32.69,1709208639.046875
-36.17,1709208639.0625
-38.46,1709208639.078125
-38.8,1709208639.09375
-36.7,1709208639.109375
-32.07,1709208639.125
-25.33,1709208639.140625
-17.25,1709208639.15625
-8.74,1709208639.171875
-0.63,1709208639.1875
6.53,1709208639.203125
12.41,1709208639.21875
16.95,1709208639.234375
20.11,1709208639.25
21.96,1709208639.265625
22.6,1709208639.28125
22.23,1709208639.296875
21.13,1709208639.3125
19.64,1709208639.328125
18.12,1709208639.34375
16.78,1709208639.359375
15.74,1709208639.375
14.97,1709208639.390625
14.46,1709208639.40625
14.23,1709208639.421875
14.35,1709208639.4375
14.94,1709208639.453125
16.01,1709208639.46875
17.48,1709208639.484375
19.15,1709208639.5
20.75,1709208639.515625
22.05,1709208639.53125
22.9,1709208639.546875
23.23,1709208639.5625
23.07,1709208639.578125
22.48,1709208639.59375
21.56,1709208639.609375
20.39,1709208639.625
19.01,1709208639.640625
17.45,1709208639.65625
15.7,1709208639.671875
13.78,1709208639.6875
11.75,1709208639.703125
9.77,1709208639.71875
8.01,1709208639.734375
6.59,1709208639.75
5.5,1709208639.765625
4.6,1709208639.78125
3.66,1709208639.796875
2.52,1709208639.8125
1.07,1709208639.828125
-0.6,1709208639.84375
-2.31,1709208639.859375
-3.86,1709208639.875
-5.16,1709208639.890625
-6.27,1709208639.90625
-7.38,1709208639.921875
-8.73,1709208639.9375
-10.46,1709208639.953125
-12.59,1709208639.96875
-14.97,1709208639.984375
-17.43,1709208640.0
-19.85,1709208640.015625
-22.18,1709208640.03125
-24.52,1709208640.046875
-26.96,1709208640.0625
-29.59,1709208640.078125
-32.51,1709208640.09375
-35.83,1709208640.109375
-39.58,1709208640.125
-43.64,1709208640.140625
-47.58,1709208640.15625
-50.63,1709208640.171875
-51.85,1709208640.1875
-50.44,1709208640.203125
-46.08,1709208640.21875
-39.08,1709208640.234375
-30.31,1709208640.25
-20.86,1709208640.265625
-11.78,1709208640.28125
-3.73,1709208640.296875
2.95,1709208640.3125
8.2,1709208640.328125
12.12,1709208640.34375
14.82,1709208640.359375
16.44,1709208640.375
17.2,1709208640.390625
17.34,1709208640.40625
17.12,1709208640.421875
16.76,1709208640.4375
16.39,1709208640.453125
16.04,1709208640.46875
15.71,1709208640.484375
15.42,1709208640.5
15.23,1709208640.515625
15.3,1709208640.53125
15.83,1709208640.546875
16.95,1709208640.5625
18.67,1709208640.578125
20.78,1709208640.59375
22.94,1709208640.609375
24.72,1709208640.625
25.84,1709208640.640625
26.17,1709208640.65625
25.84,1709208640.671875
25.06,1709208640.6875
24.09,1709208640.703125
23.07,1709208640.71875
22.02,1709208640.734375
20.86,1709208640.75
19.52,1709208640.765625
17.99,1709208640.78125
16.32,1709208640.796875
14.61,1709208640.8125
12.9,1709208640.828125
11.24,1709208640.84375
9.65,1709208640.859375
8.17,1709208640.875
6.87,1709208640.890625
5.82,1709208640.90625
4.99,1709208640.921875
4.29,1709208640.9375
3.5,1709208640.953125
2.42,1709208640.96875
0.94,1709208640.984375
-0.9,1709208641.0
-2.88,1709208641.015625
-4.75,1709208641.03125
-6.32,1709208641.046875
-7.54,1709208641.0625
-8.51,1709208641.078125
-9.43,1709208641.09375
-10.53,1709208641.109375
-11.97,1709208641.125
-13.79,1709208641.140625
-15.9,1709208641.15625
-18.17,1709208641.171875
-20.44,1709208641.1875
-22.61,1709208641.203125
-24.67,1709208641.21875
-26.69,1709208641.234375
-28.84,1709208641.25
-31.36,1709208641.265625
-34.46,1709208641.28125
-38.23,1709208641.296875
-42.44,1709208641.3125
-46.54,1709208641.328125
-49.59,1709208641.34375
-50.59,1709208641.359375
-48.79,1709208641.375
-43.99,1709208641.390625
-36.65,1709208641.40625
-27.75,1709208641.421875
-18.43,1709208641.4375
-9.68,1709208641.453125
-2.07,1709208641.46875
4.17,1709208641.484375
9.06,1709208641.5
12.69,1709208641.515625
15.16,1709208641.53125
16.57,1709208641.546875
17.11,1709208641.5625
17.05,1709208641.578125
16.66,1709208641.59375
16.14,1709208641.609375
15.6,1709208641.625
15.07,1709208641.640625
14.61,1709208641.65625
14.3,1709208641.671875
14.3,1709208641.6875
14.78,1709208641.703125
15.78,1709208641.71875
17.3,1709208641.734375
19.2,1709208641.75
21.32,1709208641.765625
23.49,1709208641.78125
25.5,1709208641.796875
27.16,1709208641.8125
28.23,1709208641.828125
28.55,1709208641.84375
28.04,1709208641.859375
26.82,1709208641.875
25.16,1709208641.890625
23.35,1709208641.90625
21.62,1709208641.921875
20.05,1709208641.9375
18.59,1709208641.953125
17.15,1709208641.96875
15.68,1709208641.984375
14.21,1709208642.0
12.81,1709208642.015625
11.54,1709208642.03125
10.36,1709208642.046875
9.18,1709208642.0625
7.89,1709208642.078125
6.44,1709208642.09375
4.87,1709208642.109375
3.27,1709208642.125
1.75,1709208642.140625
0.34,1709208642.15625
-1.01,1709208642.171875
-2.42,1709208642.1875
-3.97,1709208642.203125
-5.71,1709208642.21875
-7.62,1709208642.234375
-9.66,1709208642.25
-11.79,1709208642.265625
-13.98,1709208642.28125
-16.21,1709208642.296875
-18.48,1709208642.3125
-20.76,1709208642.328125
-23.07,1709208642.34375
-25.53,1709208642.359375
-28.31,1709208642.375
-31.56,1709208642.390625
-35.2,1709208642.40625
-38.82,1709208642.421875
-41.66,1709208642.4375
-42.78,1709208642.453125
-41.41,1709208642.46875
-37.25,1709208642.484375
-30.58,1709208642.5
-22.24,1709208642.515625
-13.28,1709208642.53125
-4.7,1709208642.546875
2.77,1709208642.5625
8.81,1709208642.578125
13.37,1709208642.59375
16.59,1709208642.609375
18.65,1709208642.625
19.77,1709208642.640625
20.15,1709208642.65625
19.98,1709208642.671875
19.45,1709208642.6875
18.73,1709208642.703125
17.96,1709208642.71875
17.26,1709208642.734375
16.72,1709208642.75
16.41,1709208642.765625
16.41,1709208642.78125
16.74,1709208642.796875
17.47,1709208642.8125
18.59,1709208642.828125
20.1,1709208642.84375
21.87,1709208642.859375
23.73,1709208642.875
25.43,1709208642.890625
26.74,1709208642.90625
27.5,1709208642.921875
27.65,1709208642.9375
27.19,1709208642.953125
26.21,1709208642.96875
24.83,1709208642.984375
23.16,1709208643.0
21.36,1709208643.015625
19.55,1709208643.03125
17.8,1709208643.046875
16.13,1709208643.0625
14.49,1709208643.078125
12.86,1709208643.09375
11.23,1709208643.109375
9.66,1709208643.125
8.26,1709208643.140625
7.11,1709208643.15625
