PPG GREEN,time
1957053.0,1709208565.214
1957485.0,1709208565.254
1957744.0,1709208565.294
1958158.0,1709208565.334
1958866.0,1709208565.375
1959263.0,1709208565.415
1960178.0,1709208565.455
1961191.0,1709208565.496
1962348.0,1709208565.533
1963574.0,1709208565.573
1965055.0,1709208565.615
1966515.0,1709208565.654
1969544.0,1709208565.735
1968017.0,1709208565.694
1972874.0,1709208565.815
1974537.0,1709208565.856
1971112.0,1709208565.774
1967590.0,1709208565.933
1973441.0,1709208565.895
1956032.0,1709208566.014
1960812.0,1709208565.974
1950963.0,1709208566.095
1947350.0,1709208566.215
1948485.0,1709208566.173
1953379.0,1709208566.054
1949405.0,1709208566.133
1945527.0,1709208566.254
1942081.0,1709208566.335
1943202.0,1709208566.294
1941486.0,1709208566.415
1941197.0,1709208566.374
1942464.0,1709208566.495
1941824.0,1709208566.456
1943192.0,1709208566.535
1943930.0,1709208566.574
1945858.0,1709208566.654
1945081.0,1709208566.614
1948235.0,1709208566.734
1947079.0,1709208566.695
1951047.0,1709208566.816
1949619.0,1709208566.775
1953076.0,1709208566.855
1954964.0,1709208566.895
1957056.0,1709208566.936
1959507.0,1709208566.973
1961873.0,1709208567.014
1964063.0,1709208567.055
1966418.0,1709208567.094
1968577.0,1709208567.134
1970490.0,1709208567.175
1968199.0,1709208567.215
1962890.0,1709208567.255
1958737.0,1709208567.296
1956667.0,1709208567.335
1955744.0,1709208567.376
1955331.0,1709208567.417
1955667.0,1709208567.453
1955892.0,1709208567.494
1955357.0,1709208567.535
1954161.0,1709208567.574
1953137.0,1709208567.615
1953030.0,1709208567.655
1953380.0,1709208567.695
1954158.0,1709208567.735
1955411.0,1709208567.776
1956648.0,1709208567.816
1958249.0,1709208567.856
1959782.0,1709208567.897
1961267.0,1709208567.933
1962881.0,1709208567.973
1964311.0,1709208568.015
1966069.0,1709208568.054
1967861.0,1709208568.094
1969531.0,1709208568.135
1971508.0,1709208568.175
1973503.0,1709208568.216
1975719.0,1709208568.256
1977789.0,1709208568.295
1976874.0,1709208568.336
1972789.0,1709208568.377
1968968.0,1709208568.417
1966855.0,1709208568.456
1966087.0,1709208568.495
1966175.0,1709208568.534
1966608.0,1709208568.575
1967352.0,1709208568.617
1967770.0,1709208568.655
1967292.0,1709208568.695
1966876.0,1709208568.737
1967203.0,1709208568.776
1967894.0,1709208568.817
1969097.0,1709208568.855
1970498.0,1709208568.894
1972290.0,1709208568.935
1973894.0,1709208568.968
1975456.0,1709208569.008
1977265.0,1709208569.047
1978727.0,1709208569.088
1980327.0,1709208569.127
1982626.0,1709208569.167
1984470.0,1709208569.209
1986444.0,1709208569.248
1988443.0,1709208569.288
1990410.0,1709208569.329
1992487.0,1709208569.368
1994658.0,1709208569.408
1996689.0,1709208569.449
1996492.0,1709208569.488
1992583.0,1709208569.528
1988418.0,1709208569.569
1985937.0,1709208569.609
1985060.0,1709208569.649
1984374.0,1709208569.69
1984402.0,1709208569.73
1984824.0,1709208569.77
1984602.0,1709208569.812
1983811.0,1709208569.85
1983004.0,1709208569.891
1982543.0,1709208569.932
1982649.0,1709208569.968
1983184.0,1709208570.01
1984077.0,1709208570.05
1985128.0,1709208570.089
1986026.0,1709208570.13
1987119.0,1709208570.171
1988134.0,1709208570.211
1989079.0,1709208570.25
1990272.0,1709208570.291
1991289.0,1709208570.331
1992609.0,1709208570.371
1994188.0,1709208570.413
1995455.0,1709208570.451
1997003.0,1709208570.492
1998672.0,1709208570.533
2000143.0,1709208570.57
2001845.0,1709208570.611
2002029.0,1709208570.651
1998079.0,1709208570.691
1993267.0,1709208570.731
1990154.0,1709208570.772
1988581.0,1709208570.812
1987648.0,1709208570.852
1987204.0,1709208570.893
1987523.0,1709208570.932
1987297.0,1709208570.972
1986224.0,1709208571.012
1985643.0,1709208571.05
1985182.0,1709208571.091
1985759.0,1709208571.132
1986710.0,1709208571.171
1987896.0,1709208571.212
1989547.0,1709208571.252
1991159.0,1709208571.292
1992651.0,1709208571.332
1994126.0,1709208571.373
1995334.0,1709208571.411
1995774.0,1709208571.451
1995175.0,1709208571.492
1994168.0,1709208571.531
1992674.0,1709208571.572
1990887.0,1709208571.613
1989534.0,1709208571.652
1988423.0,1709208571.692
1987084.0,1709208571.733
1985849.0,1709208571.77
1984438.0,1709208571.812
1979087.0,1709208571.852
1971160.0,1709208571.891
1963147.0,1709208571.932
1956362.0,1709208571.973
1950811.0,1709208572.013
1945354.0,1709208572.052
1940697.0,1709208572.093
1936395.0,1709208572.133
1931484.0,1709208572.171
1925849.0,1709208572.213
1919974.0,1709208572.251
1914957.0,1709208572.292
1910863.0,1709208572.333
1907566.0,1709208572.372
1904813.0,1709208572.413
1902324.0,1709208572.453
1899816.0,1709208572.492
1897384.0,1709208572.532
1895002.0,1709208572.574
1890597.0,1709208572.651
1892748.0,1709208572.612
1888911.0,1709208572.692
1887422.0,1709208572.732
1885063.0,1709208572.814
1886225.0,1709208572.772
1884251.0,1709208572.852
1883425.0,1709208572.893
1882836.0,1709208572.934
1882085.0,1709208572.973
1881713.0,1709208573.012
1871490.0,1709208573.091
1849180.0,1709208573.213
1844578.0,1709208573.253
1862893.0,1709208573.132
1878821.0,1709208573.052
1840737.0,1709208573.294
1855177.0,1709208573.173
1837758.0,1709208573.333
1834367.0,1709208573.373
1830590.0,1709208573.413
1826270.0,1709208573.451
1822901.0,1709208573.492
1820652.0,1709208573.533
1818291.0,1709208573.614
1819124.0,1709208573.572
1817721.0,1709208573.654
1817707.0,1709208573.734
1818059.0,1709208573.812
1817704.0,1709208573.693
1817919.0,1709208573.773
1818225.0,1709208573.852
1818779.0,1709208573.893
1819407.0,1709208573.932
1820358.0,1709208573.973
1821823.0,1709208574.015
1823379.0,1709208574.053
1824097.0,1709208574.093
1821599.0,1709208574.135
1817408.0,1709208574.172
1813972.0,1709208574.213
1812036.0,1709208574.253
1811107.0,1709208574.292
1811313.0,1709208574.333
1812170.0,1709208574.374
1812847.0,1709208574.414
1812872.0,1709208574.453
1813031.0,1709208574.532
1813889.0,1709208574.572
1815180.0,1709208574.614
1816837.0,1709208574.653
1819018.0,1709208574.693
1821057.0,1709208574.734
1812868.0,1709208574.495
1823327.0,1709208574.773
1825511.0,1709208574.815
1827900.0,1709208574.855
1830029.0,1709208574.892
1832196.0,1709208574.932
1834502.0,1709208574.974
1837363.0,1709208575.013
1840044.0,1709208575.053
1841409.0,1709208575.091
1839969.0,1709208575.131
1838193.0,1709208575.172
1837306.0,1709208575.214
1837280.0,1709208575.252
1837334.0,1709208575.292
1838485.0,1709208575.334
1840292.0,1709208575.373
1842116.0,1709208575.414
1843566.0,1709208575.454
1846660.0,1709208575.534
1845026.0,1709208575.493
1848661.0,1709208575.575
1850968.0,1709208575.613
1853124.0,1709208575.653
1858005.0,1709208575.733
1862929.0,1709208575.815
1860545.0,1709208575.773
1855724.0,1709208575.694
1865314.0,1709208575.854
1867777.0,1709208575.894
1870386.0,1709208575.935
1872888.0,1709208575.972
1875608.0,1709208576.014
1878359.0,1709208576.054
1881198.0,1709208576.093
1883926.0,1709208576.134
1886146.0,1709208576.175
1885846.0,1709208576.215
1884542.0,1709208576.254
1884300.0,1709208576.295
1884450.0,1709208576.333
1884977.0,1709208576.373
1886799.0,1709208576.453
1888268.0,1709208576.494
1885776.0,1709208576.415
1889298.0,1709208576.535
1890098.0,1709208576.574
1891019.0,1709208576.615
1892184.0,1709208576.656
1893683.0,1709208576.692
1895186.0,1709208576.733
1896956.0,1709208576.774
1898937.0,1709208576.814
1902985.0,1709208576.895
1904611.0,1709208576.934
1908277.0,1709208577.016
1910305.0,1709208577.054
1912426.0,1709208577.093
1914326.0,1709208577.134
1916458.0,1709208577.173
1918539.0,1709208577.214
1920629.0,1709208577.255
1900858.0,1709208576.854
1922777.0,1709208577.294
1906603.0,1709208576.974
1924804.0,1709208577.334
1927407.0,1709208577.415
1926971.0,1709208577.375
1925441.0,1709208577.455
1923561.0,1709208577.496
1922334.0,1709208577.533
1921408.0,1709208577.574
1920846.0,1709208577.615
1920400.0,1709208577.653
1920447.0,1709208577.694
1920323.0,1709208577.735
1920404.0,1709208577.774
1920020.0,1709208577.815
1919405.0,1709208577.895
1919711.0,1709208577.935
1919643.0,1709208577.856
1919877.0,1709208577.974
1920140.0,1709208578.014
1920788.0,1709208578.054
1921240.0,1709208578.095
1921745.0,1709208578.134
1922182.0,1709208578.174
1922872.0,1709208578.216
1923328.0,1709208578.255
1924120.0,1709208578.295
1924870.0,1709208578.336
1927844.0,1709208578.455
1925826.0,1709208578.373
1926591.0,1709208578.414
1930022.0,1709208578.528
1928726.0,1709208578.494
1929358.0,1709208578.609
1930940.0,1709208578.569
1924741.0,1709208578.648
1920443.0,1709208578.689
1917428.0,1709208578.729
1914682.0,1709208578.769
1912931.0,1709208578.81
1911679.0,1709208578.849
1910874.0,1709208578.889
1909181.0,1709208578.93
1907177.0,1709208578.969
1905122.0,1709208579.01
1902071.0,1709208579.089
1903448.0,1709208579.05
1901087.0,1709208579.13
1900551.0,1709208579.171
1900504.0,1709208579.21
1900485.0,1709208579.251
1900479.0,1709208579.292
1900380.0,1709208579.331
1900593.0,1709208579.372
1900953.0,1709208579.414
1901136.0,1709208579.452
1901730.0,1709208579.493
1902224.0,1709208579.538
1903040.0,1709208579.573
1903994.0,1709208579.615
1904939.0,1709208579.655
1906066.0,1709208579.694
1906656.0,1709208579.735
1903150.0,1709208579.776
1896754.0,1709208579.816
1891125.0,1709208579.855
1886898.0,1709208579.896
1883494.0,1709208579.935
1880450.0,1709208579.976
1878630.0,1709208580.018
1877063.0,1709208580.054
1875339.0,1709208580.094
1873292.0,1709208580.136
1871173.0,1709208580.175
1869698.0,1709208580.215
1868402.0,1709208580.256
1868018.0,1709208580.295
1867544.0,1709208580.336
1867733.0,1709208580.377
1867908.0,1709208580.416
1868210.0,1709208580.456
1868510.0,1709208580.497
1868947.0,1709208580.534
1869459.0,1709208580.575
1870356.0,1709208580.617
1871243.0,1709208580.655
1872199.0,1709208580.696
1873402.0,1709208580.737
1876128.0,1709208580.817
1874721.0,1709208580.776
1877626.0,1709208580.857
1879207.0,1709208580.896
1880450.0,1709208580.935
1877650.0,1709208580.975
1871693.0,1709208581.015
1866497.0,1709208581.054
1863436.0,1709208581.095
1860945.0,1709208581.134
1858703.0,1709208581.174
1857685.0,1709208581.216
1856769.0,1709208581.254
1855697.0,1709208581.295
1853906.0,1709208581.336
1852136.0,1709208581.375
1851242.0,1709208581.415
1850897.0,1709208581.456
1850722.0,1709208581.495
1851154.0,1709208581.535
1851599.0,1709208581.576
1852526.0,1709208581.616
1853238.0,1709208581.655
1853945.0,1709208581.696
1854967.0,1709208581.735
1855985.0,1709208581.775
1857291.0,1709208581.817
1858330.0,1709208581.855
1859841.0,1709208581.895
1861414.0,1709208581.936
1863131.0,1709208581.975
1864965.0,1709208582.016
1866687.0,1709208582.057
1868012.0,1709208582.096
1865245.0,1709208582.136
1860795.0,1709208582.177
1857523.0,1709208582.216
1855659.0,1709208582.256
1854734.0,1709208582.297
1854240.0,1709208582.376
1854404.0,1709208582.418
1854190.0,1709208582.336
1854059.0,1709208582.456
1853377.0,1709208582.496
1852835.0,1709208582.537
1853167.0,1709208582.576
1853908.0,1709208582.617
1854680.0,1709208582.657
1856064.0,1709208582.696
1857462.0,1709208582.736
1858897.0,1709208582.777
1860605.0,1709208582.817
1861989.0,1709208582.857
1863644.0,1709208582.898
1865469.0,1709208582.937
1867112.0,1709208582.977
1869203.0,1709208583.019
1871160.0,1709208583.057
1873194.0,1709208583.097
1875130.0,1709208583.138
1877466.0,1709208583.177
1879968.0,1709208583.218
1880769.0,1709208583.258
1877751.0,1709208583.297
1874321.0,1709208583.337
1872068.0,1709208583.379
1870829.0,1709208583.418
1870083.0,1709208583.458
1869763.0,1709208583.499
1869601.0,1709208583.538
1870103.0,1709208583.578
1869990.0,1709208583.62
1869545.0,1709208583.658
1869306.0,1709208583.698
1869673.0,1709208583.739
1870727.0,1709208583.778
1871697.0,1709208583.819
1872840.0,1709208583.859
1874391.0,1709208583.898
1875684.0,1709208583.938
1877067.0,1709208583.98
1878426.0,1709208584.019
1880212.0,1709208584.059
1881487.0,1709208584.1
1883137.0,1709208584.139
1885030.0,1709208584.179
1886803.0,1709208584.221
1888692.0,1709208584.259
1890703.0,1709208584.3
1892532.0,1709208584.341
1894519.0,1709208584.378
1896814.0,1709208584.419
1898185.0,1709208584.46
1896274.0,1709208584.499
1893187.0,1709208584.539
1891385.0,1709208584.58
1890614.0,1709208584.62
1890160.0,1709208584.66
1890088.0,1709208584.699
1890559.0,1709208584.738
1890751.0,1709208584.779
1890569.0,1709208584.821
1890304.0,1709208584.859
1890011.0,1709208584.9
1890421.0,1709208584.941
1891421.0,1709208584.98
1892770.0,1709208585.021
1894092.0,1709208585.059
1895726.0,1709208585.099
1897373.0,1709208585.139
1899239.0,1709208585.18
1900595.0,1709208585.22
1902046.0,1709208585.26
1903474.0,1709208585.301
1904950.0,1709208585.337
1906364.0,1709208585.378
1908027.0,1709208585.42
1909734.0,1709208585.458
1911362.0,1709208585.499
1913260.0,1709208585.54
1915028.0,1709208585.579
1916167.0,1709208585.62
1914489.0,1709208585.661
1911349.0,1709208585.7
1908983.0,1709208585.74
1907584.0,1709208585.781
1905875.0,1709208585.859
1906670.0,1709208585.819
1905701.0,1709208585.9
1905600.0,1709208585.939
1905102.0,1709208585.98
1904465.0,1709208586.022
1903834.0,1709208586.06
1903884.0,1709208586.101
1903952.0,1709208586.142
1904426.0,1709208586.179
1905216.0,1709208586.22
1906011.0,1709208586.26
1906852.0,1709208586.3
1907825.0,1709208586.34
1908630.0,1709208586.381
1909636.0,1709208586.421
1910837.0,1709208586.461
1911967.0,1709208586.502
1913185.0,1709208586.539
1914535.0,1709208586.58
1915915.0,1709208586.621
1917512.0,1709208586.66
1918969.0,1709208586.7
1920553.0,1709208586.741
1922241.0,1709208586.781
1923862.0,1709208586.822
1925579.0,1709208586.862
1926659.0,1709208586.899
1924826.0,1709208586.94
1921024.0,1709208586.981
1918018.0,1709208587.021
1915843.0,1709208587.06
1914276.0,1709208587.101
1912863.0,1709208587.141
1911791.0,1709208587.181
1910914.0,1709208587.223
1909739.0,1709208587.259
1908263.0,1709208587.3
1906758.0,1709208587.341
1905704.0,1709208587.38
1905157.0,1709208587.421
1905068.0,1709208587.462
1905411.0,1709208587.501
1906198.0,1709208587.541
1906618.0,1709208587.581
1907223.0,1709208587.62
1907747.0,1709208587.66
1908146.0,1709208587.701
1908444.0,1709208587.74
1909139.0,1709208587.781
1909561.0,1709208587.823
1910359.0,1709208587.86
1911457.0,1709208587.898
1912138.0,1709208587.94
1913102.0,1709208587.979
1914213.0,1709208588.02
1915396.0,1709208588.06
1916532.0,1709208588.093
1916836.0,1709208588.133
1912737.0,1709208588.174
1908120.0,1709208588.214
1904771.0,1709208588.253
1902173.0,1709208588.294
1900488.0,1709208588.333
1899021.0,1709208588.373
1898348.0,1709208588.415
1897013.0,1709208588.454
1895403.0,1709208588.494
1893627.0,1709208588.535
1892456.0,1709208588.574
1891813.0,1709208588.615
1891541.0,1709208588.655
1891881.0,1709208588.694
1892127.0,1709208588.734
1892620.0,1709208588.775
1893222.0,1709208588.815
1893726.0,1709208588.855
1894640.0,1709208588.896
1895352.0,1709208588.935
1896318.0,1709208588.975
1897269.0,1709208589.017
1898668.0,1709208589.055
1900013.0,1709208589.095
1901514.0,1709208589.136
1902971.0,1709208589.175
1904575.0,1709208589.216
1905983.0,1709208589.256
1907624.0,1709208589.296
1909380.0,1709208589.336
1910271.0,1709208589.377
1907768.0,1709208589.416
1902671.0,1709208589.456
1898717.0,1709208589.497
1896144.0,1709208589.536
1894225.0,1709208589.576
1891959.0,1709208589.618
1890825.0,1709208589.655
1889823.0,1709208589.694
1888514.0,1709208589.73
1886811.0,1709208589.76
1885696.0,1709208589.801
1885005.0,1709208589.841
1884720.0,1709208589.88
1884755.0,1709208589.921
1885323.0,1709208589.962
1885749.0,1709208590.002
1886655.0,1709208590.041
1887429.0,1709208590.083
1888266.0,1709208590.12
1889319.0,1709208590.16
1890300.0,1709208590.202
1891850.0,1709208590.24
1893624.0,1709208590.281
1895411.0,1709208590.322
1897092.0,1709208590.361
1898941.0,1709208590.402
1900632.0,1709208590.443
1902442.0,1709208590.482
1904250.0,1709208590.52
1906277.0,1709208590.561
1908290.0,1709208590.601
1909602.0,1709208590.641
1907013.0,1709208590.682
1903149.0,1709208590.721
1900792.0,1709208590.762
1899393.0,1709208590.803
1898314.0,1709208590.842
1897473.0,1709208590.88
1897276.0,1709208590.921
1897252.0,1709208590.961
1896922.0,1709208591.002
1896641.0,1709208591.042
1896550.0,1709208591.081
1896798.0,1709208591.122
1897646.0,1709208591.163
1898656.0,1709208591.203
1899846.0,1709208591.24
1901356.0,1709208591.282
1902700.0,1709208591.321
1904213.0,1709208591.361
1905584.0,1709208591.403
1907154.0,1709208591.441
1908746.0,1709208591.482
1910455.0,1709208591.523
1912517.0,1709208591.56
1914433.0,1709208591.601
1916343.0,1709208591.642
1918529.0,1709208591.681
1920709.0,1709208591.721
1922644.0,1709208591.763
1924747.0,1709208591.802
1926976.0,1709208591.842
1929296.0,1709208591.883
1931508.0,1709208591.923
1931402.0,1709208591.961
1929626.0,1709208592.003
1928584.0,1709208592.041
1928516.0,1709208592.081
1929004.0,1709208592.123
1929566.0,1709208592.162
1930755.0,1709208592.203
1931644.0,1709208592.243
1931953.0,1709208592.282
1932252.0,1709208592.323
1932821.0,1709208592.362
1933367.0,1709208592.402
1934451.0,1709208592.441
1935664.0,1709208592.482
1937128.0,1709208592.522
1938595.0,1709208592.562
1940324.0,1709208592.604
1941630.0,1709208592.643
1943431.0,1709208592.683
1944929.0,1709208592.722
1946432.0,1709208592.761
1948146.0,1709208592.802
1949925.0,1709208592.843
1951928.0,1709208592.882
1953666.0,1709208592.922
1955713.0,1709208592.957
1957601.0,1709208592.997
1959287.0,1709208593.036
1961649.0,1709208593.077
1963604.0,1709208593.116
1965338.0,1709208593.156
1964518.0,1709208593.198
1962304.0,1709208593.236
1960606.0,1709208593.277
1959870.0,1709208593.318
1959393.0,1709208593.357
1959097.0,1709208593.397
1958911.0,1709208593.438
1959313.0,1709208593.477
1959134.0,1709208593.517
1958702.0,1709208593.556
1958403.0,1709208593.596
1958432.0,1709208593.636
1958756.0,1709208593.677
1959403.0,1709208593.716
1959922.0,1709208593.757
1960785.0,1709208593.795
1961569.0,1709208593.834
1962498.0,1709208593.874
1963445.0,1709208593.915
1964179.0,1709208593.954
1965213.0,1709208593.995
1966336.0,1709208594.035
1967414.0,1709208594.074
1968658.0,1709208594.114
1969803.0,1709208594.155
1971524.0,1709208594.195
1972556.0,1709208594.234
1974294.0,1709208594.275
1975954.0,1709208594.314
1977436.0,1709208594.354
1979193.0,1709208594.396
1981246.0,1709208594.435
1981984.0,1709208594.476
1979628.0,1709208594.517
1975878.0,1709208594.556
1973141.0,1709208594.597
1971159.0,1709208594.637
1969387.0,1709208594.676
1967763.0,1709208594.717
1966709.0,1709208594.758
1965690.0,1709208594.798
1964289.0,1709208594.837
1962453.0,1709208594.879
1961004.0,1709208594.918
1959718.0,1709208594.956
1959098.0,1709208594.998
1958597.0,1709208595.036
1958393.0,1709208595.077
1958103.0,1709208595.118
1958162.0,1709208595.157
1958377.0,1709208595.198
1958135.0,1709208595.239
1958181.0,1709208595.278
1958285.0,1709208595.318
1958749.0,1709208595.357
1958943.0,1709208595.397
1960326.0,1709208595.478
1961664.0,1709208595.555
1962354.0,1709208595.598
1963139.0,1709208595.636
1964071.0,1709208595.676
1965258.0,1709208595.717
1965854.0,1709208595.757
1962911.0,1709208595.798
1960962.0,1709208595.517
1959484.0,1709208595.437
1955066.0,1709208595.877
1950532.0,1709208595.959
1958776.0,1709208595.838
1952657.0,1709208595.918
1948745.0,1709208595.999
1947770.0,1709208596.038
1946494.0,1709208596.077
1945161.0,1709208596.117
1943399.0,1709208596.157
1942058.0,1709208596.199
1941204.0,1709208596.237
1940506.0,1709208596.278
1940355.0,1709208596.319
1940325.0,1709208596.358
1940495.0,1709208596.399
1940874.0,1709208596.438
1941201.0,1709208596.477
1941388.0,1709208596.517
1942057.0,1709208596.559
1942450.0,1709208596.598
1943270.0,1709208596.638
1944086.0,1709208596.679
1945441.0,1709208596.718
1946142.0,1709208596.759
1947415.0,1709208596.799
1948757.0,1709208596.837
1949861.0,1709208596.877
1951123.0,1709208596.919
1952573.0,1709208596.958
1954030.0,1709208596.999
1955073.0,1709208597.039
1953186.0,1709208597.078
1949243.0,1709208597.119
1946414.0,1709208597.16
1944210.0,1709208597.198
1942450.0,1709208597.237
1941036.0,1709208597.278
1940143.0,1709208597.318
1939644.0,1709208597.358
1939004.0,1709208597.4
1937994.0,1709208597.438
1937239.0,1709208597.479
1936709.0,1709208597.52
1936617.0,1709208597.557
1937113.0,1709208597.598
1937642.0,1709208597.639
1938357.0,1709208597.678
1939279.0,1709208597.718
1939932.0,1709208597.759
1940940.0,1709208597.799
1941772.0,1709208597.839
1942859.0,1709208597.88
1944137.0,1709208597.919
1945319.0,1709208597.959
1946886.0,1709208598.001
1948122.0,1709208598.039
1949870.0,1709208598.079
1951768.0,1709208598.12
1953962.0,1709208598.159
1955638.0,1709208598.2
1957891.0,1709208598.24
1959869.0,1709208598.279
1961754.0,1709208598.319
1961997.0,1709208598.36
1959255.0,1709208598.4
1957030.0,1709208598.439
1954982.0,1709208598.481
1954015.0,1709208598.52
1953099.0,1709208598.56
1952612.0,1709208598.599
1952638.0,1709208598.638
1952378.0,1709208598.678
1952097.0,1709208598.719
1951887.0,1709208598.759
1951989.0,1709208598.8
1952599.0,1709208598.84
1953527.0,1709208598.879
1954508.0,1709208598.92
1955548.0,1709208598.961
1956615.0,1709208598.998
1957490.0,1709208599.038
1958426.0,1709208599.079
1959202.0,1709208599.119
1960156.0,1709208599.159
1961254.0,1709208599.201
1962395.0,1709208599.239
1963675.0,1709208599.28
1964901.0,1709208599.321
1966374.0,1709208599.358
1967733.0,1709208599.399
1969257.0,1709208599.439
1970817.0,1709208599.479
1972272.0,1709208599.519
1973807.0,1709208599.56
1974522.0,1709208599.6
1972557.0,1709208599.64
1969886.0,1709208599.681
1967983.0,1709208599.718
1966524.0,1709208599.758
1965432.0,1709208599.8
1964813.0,1709208599.839
1964644.0,1709208599.879
1964424.0,1709208599.92
1963574.0,1709208599.96
1962562.0,1709208600.001
1961804.0,1709208600.041
1961294.0,1709208600.078
1961159.0,1709208600.119
1961423.0,1709208600.16
1961690.0,1709208600.2
1961908.0,1709208600.239
1962700.0,1709208600.281
1963117.0,1709208600.32
1963567.0,1709208600.36
1964098.0,1709208600.402
1964730.0,1709208600.438
1965618.0,1709208600.479
1966327.0,1709208600.52
1967359.0,1709208600.559
1968402.0,1709208600.6
1969441.0,1709208600.641
1970591.0,1709208600.677
1971781.0,1709208600.719
1972976.0,1709208600.76
1974464.0,1709208600.799
1975690.0,1709208600.839
1976573.0,1709208600.88
1975403.0,1709208600.919
1971628.0,1709208600.959
1967644.0,1709208601.001
1964585.0,1709208601.04
1961820.0,1709208601.08
1959287.0,1709208601.121
1957537.0,1709208601.16
1956234.0,1709208601.201
1954705.0,1709208601.242
1952645.0,1709208601.279
1950616.0,1709208601.319
1949026.0,1709208601.36
1947949.0,1709208601.4
1947332.0,1709208601.44
1946846.0,1709208601.481
1946734.0,1709208601.52
1946651.0,1709208601.561
1946699.0,1709208601.601
1946857.0,1709208601.639
1946985.0,1709208601.679
1947252.0,1709208601.721
1947761.0,1709208601.76
1948416.0,1709208601.801
1949040.0,1709208601.841
1950014.0,1709208601.881
1951008.0,1709208601.921
1951955.0,1709208601.96
1953173.0,1709208602.0
1954524.0,1709208602.04
1955578.0,1709208602.081
1956927.0,1709208602.12
1958225.0,1709208602.16
1959886.0,1709208602.202
1960472.0,1709208602.241
1957845.0,1709208602.281
1953240.0,1709208602.32
1949632.0,1709208602.36
1947008.0,1709208602.4
1944908.0,1709208602.441
1942813.0,1709208602.48
1941794.0,1709208602.52
1940782.0,1709208602.562
1939490.0,1709208602.602
1937600.0,1709208602.641
1936268.0,1709208602.68
1935123.0,1709208602.72
1934559.0,1709208602.76
1934568.0,1709208602.802
1934547.0,1709208602.84
1935030.0,1709208602.881
1935414.0,1709208602.922
1935942.0,1709208602.961
1936593.0,1709208603.002
1937133.0,1709208603.041
1937863.0,1709208603.08
1938639.0,1709208603.12
1939693.0,1709208603.161
1940908.0,1709208603.201
1942058.0,1709208603.239
1943401.0,1709208603.28
1944834.0,1709208603.319
1946327.0,1709208603.359
1947972.0,1709208603.401
1949892.0,1709208603.44
1951710.0,1709208603.48
1953425.0,1709208603.521
1952299.0,1709208603.56
1948442.0,1709208603.601
1940614.0,1709208603.721
1944916.0,1709208603.642
1938234.0,1709208603.803
1942465.0,1709208603.681
1937696.0,1709208603.84
1939161.0,1709208603.763
1936852.0,1709208603.881
1935204.0,1709208603.92
1934064.0,1709208603.961
1932939.0,1709208604.003
1932560.0,1709208604.041
1933002.0,1709208604.123
1932694.0,1709208604.082
1934255.0,1709208604.201
1933712.0,1709208604.162
1934911.0,1709208604.241
1935546.0,1709208604.281
1936606.0,1709208604.321
1937267.0,1709208604.362
1938432.0,1709208604.402
1939529.0,1709208604.442
1940876.0,1709208604.483
1942278.0,1709208604.522
1943892.0,1709208604.56
1945116.0,1709208604.602
1946871.0,1709208604.641
1948585.0,1709208604.681
1949738.0,1709208604.722
1947476.0,1709208604.761
1943578.0,1709208604.802
1940586.0,1709208604.843
1938733.0,1709208604.882
1937494.0,1709208604.922
1936623.0,1709208604.97
1936444.0,1709208605.009
1936226.0,1709208605.049
1935745.0,1709208605.09
1934738.0,1709208605.129
1933912.0,1709208605.169
1933641.0,1709208605.211
1933691.0,1709208605.249
1934294.0,1709208605.289
1934984.0,1709208605.33
1935979.0,1709208605.369
1936931.0,1709208605.41
1938062.0,1709208605.45
1939059.0,1709208605.49
1940208.0,1709208605.529
1941249.0,1709208605.568
1942540.0,1709208605.608
1944352.0,1709208605.647
1946281.0,1709208605.689
1947986.0,1709208605.728
1950149.0,1709208605.768
1952115.0,1709208605.808
1954119.0,1709208605.847
1955820.0,1709208605.888
1956942.0,1709208605.928
1954751.0,1709208605.967
1950357.0,1709208606.008
1947118.0,1709208606.048
1944817.0,1709208606.088
1943558.0,1709208606.128
1942292.0,1709208606.169
1941729.0,1709208606.209
1941254.0,1709208606.249
1940088.0,1709208606.29
1938947.0,1709208606.327
1936876.0,1709208606.409
1936445.0,1709208606.488
1936685.0,1709208606.529
1937212.0,1709208606.569
1937563.0,1709208606.61
1936478.0,1709208606.448
1937663.0,1709208606.367
1938219.0,1709208606.65
1939216.0,1709208606.728
1938591.0,1709208606.687
1939617.0,1709208606.769
1940310.0,1709208606.809
1941335.0,1709208606.848
1942217.0,1709208606.89
1944473.0,1709208606.969
1945903.0,1709208607.011
1943270.0,1709208606.929
1947438.0,1709208607.088
1947145.0,1709208607.047
1943847.0,1709208607.129
1939098.0,1709208607.168
1935819.0,1709208607.209
1933661.0,1709208607.25
1931932.0,1709208607.289
1931032.0,1709208607.329
1930617.0,1709208607.37
1929571.0,1709208607.408
1928002.0,1709208607.448
1926432.0,1709208607.489
1925297.0,1709208607.528
1924589.0,1709208607.569
1924386.0,1709208607.611
1924314.0,1709208607.649
1924836.0,1709208607.69
1925305.0,1709208607.729
1926502.0,1709208607.809
1927707.0,1709208607.889
1926001.0,1709208607.768
1927232.0,1709208607.849
1928629.0,1709208607.929
1929530.0,1709208607.97
1930732.0,1709208608.01
1933118.0,1709208608.089
1931615.0,1709208608.05
1934380.0,1709208608.128
1935968.0,1709208608.168
1937425.0,1709208608.21
1937546.0,1709208608.249
1933153.0,1709208608.289
1927416.0,1709208608.33
1923150.0,1709208608.367
1920146.0,1709208608.409
1917813.0,1709208608.449
1915674.0,1709208608.488
1914427.0,1709208608.528
1913132.0,1709208608.57
1911449.0,1709208608.61
1909390.0,1709208608.649
1907748.0,1709208608.691
1906784.0,1709208608.73
1906336.0,1709208608.77
1906227.0,1709208608.81
1906454.0,1709208608.848
1906833.0,1709208608.889
1907517.0,1709208608.93
1908125.0,1709208608.969
1908842.0,1709208609.01
1909668.0,1709208609.051
1910249.0,1709208609.09
1911414.0,1709208609.13
1912473.0,1709208609.171
1913689.0,1709208609.209
1915265.0,1709208609.249
1916513.0,1709208609.29
1917997.0,1709208609.329
1919728.0,1709208609.369
1921478.0,1709208609.411
1921963.0,1709208609.45
1918095.0,1709208609.49
1912842.0,1709208609.533
1909602.0,1709208609.568
1907989.0,1709208609.609
1906729.0,1709208609.65
1906232.0,1709208609.689
1905938.0,1709208609.729
1905442.0,1709208609.771
1904399.0,1709208609.811
1903103.0,1709208609.85
1902533.0,1709208609.892
1902273.0,1709208609.931
1902547.0,1709208609.969
1903282.0,1709208610.011
1904211.0,1709208610.049
1905234.0,1709208610.09
1906354.0,1709208610.131
1907279.0,1709208610.17
1908512.0,1709208610.211
1909851.0,1709208610.251
1911174.0,1709208610.291
1912733.0,1709208610.331
1914352.0,1709208610.37
1916034.0,1709208610.41
1918027.0,1709208610.449
1919891.0,1709208610.491
1920059.0,1709208610.53
1916958.0,1709208610.57
1913947.0,1709208610.612
1912374.0,1709208610.651
1911769.0,1709208610.689
1911762.0,1709208610.73
1912137.0,1709208610.77
1913056.0,1709208610.811
1913048.0,1709208610.851
1912735.0,1709208610.89
1912742.0,1709208610.928
1912894.0,1709208610.97
1913775.0,1709208611.01
1915004.0,1709208611.049
1916336.0,1709208611.09
1917939.0,1709208611.129
1919510.0,1709208611.17
1921092.0,1709208611.212
1922662.0,1709208611.25
1924292.0,1709208611.29
1926107.0,1709208611.332
1927660.0,1709208611.371
1929624.0,1709208611.412
1931720.0,1709208611.45
1933545.0,1709208611.49
1935635.0,1709208611.53
1937933.0,1709208611.571
1937467.0,1709208611.611
1934008.0,1709208611.651
1931409.0,1709208611.692
1930187.0,1709208611.731
1929314.0,1709208611.772
1928802.0,1709208611.811
1928499.0,1709208611.85
1928967.0,1709208611.89
1929038.0,1709208611.931
1928593.0,1709208611.97
1928118.0,1709208612.011
1928032.0,1709208612.052
1928598.0,1709208612.091
1929252.0,1709208612.131
1930014.0,1709208612.173
1931178.0,1709208612.21
1932481.0,1709208612.25
1933368.0,1709208612.291
1934659.0,1709208612.33
1935735.0,1709208612.371
1937033.0,1709208612.413
1938173.0,1709208612.451
1939864.0,1709208612.492
1941322.0,1709208612.533
1944469.0,1709208612.611
1942775.0,1709208612.57
1946260.0,1709208612.651
1947935.0,1709208612.691
1951099.0,1709208612.772
1949789.0,1709208612.731
1949294.0,1709208612.812
1942671.0,1709208612.893
1940949.0,1709208612.93
1939882.0,1709208612.97
1945529.0,1709208612.852
1938717.0,1709208613.012
1937038.0,1709208613.132
1937721.0,1709208613.091
1938028.0,1709208613.051
1936015.0,1709208613.172
1935122.0,1709208613.212
1934779.0,1709208613.253
1934610.0,1709208613.29
1935008.0,1709208613.331
1935363.0,1709208613.372
1936109.0,1709208613.412
1936846.0,1709208613.451
1937434.0,1709208613.491
1938166.0,1709208613.531
1939073.0,1709208613.57
1939837.0,1709208613.612
1940812.0,1709208613.651
1941890.0,1709208613.691
1943105.0,1709208613.732
1944476.0,1709208613.771
1945792.0,1709208613.812
1947249.0,1709208613.853
1948529.0,1709208613.892
1950073.0,1709208613.932
1951465.0,1709208613.972
1953052.0,1709208614.011
1953352.0,1709208614.051
1949950.0,1709208614.092
1946412.0,1709208614.132
1943814.0,1709208614.172
1942398.0,1709208614.214
1940988.0,1709208614.252
1939850.0,1709208614.293
1939009.0,1709208614.332
1938058.0,1709208614.371
1936726.0,1709208614.412
1935165.0,1709208614.452
1933892.0,1709208614.492
1933357.0,1709208614.532
1932977.0,1709208614.573
1932825.0,1709208614.613
1933011.0,1709208614.653
1933395.0,1709208614.692
1933876.0,1709208614.731
1934195.0,1709208614.771
1934803.0,1709208614.813
1935217.0,1709208614.852
1935717.0,1709208614.892
1936561.0,1709208614.933
1937380.0,1709208614.973
1938404.0,1709208615.014
1939526.0,1709208615.052
1940867.0,1709208615.091
1942225.0,1709208615.132
1943360.0,1709208615.173
1941202.0,1709208615.213
1936352.0,1709208615.252
1932192.0,1709208615.294
1929605.0,1709208615.333
1927391.0,1709208615.373
1925657.0,1709208615.413
1924365.0,1709208615.451
1923393.0,1709208615.492
1922161.0,1709208615.533
1920504.0,1709208615.572
1919220.0,1709208615.613
1918221.0,1709208615.654
1917785.0,1709208615.693
1917828.0,1709208615.733
1918221.0,1709208615.772
1918722.0,1709208615.812
1919393.0,1709208615.852
1920181.0,1709208615.893
1921018.0,1709208615.932
1921595.0,1709208615.973
1922709.0,1709208616.015
1923770.0,1709208616.05
1925097.0,1709208616.092
1926596.0,1709208616.133
1928036.0,1709208616.171
1929608.0,1709208616.212
1931352.0,1709208616.253
1933085.0,1709208616.292
1935018.0,1709208616.332
1935319.0,1709208616.374
1931905.0,1709208616.413
1928096.0,1709208616.453
1925333.0,1709208616.494
1923976.0,1709208616.534
1922725.0,1709208616.572
1921631.0,1709208616.614
1921327.0,1709208616.652
1920912.0,1709208616.693
1920281.0,1709208616.734
1919116.0,1709208616.773
1918780.0,1709208616.814
1918697.0,1709208616.854
1919118.0,1709208616.894
1919998.0,1709208616.934
1920693.0,1709208616.969
1921772.0,1709208617.009
1922593.0,1709208617.048
1923767.0,1709208617.089
1924958.0,1709208617.128
1926140.0,1709208617.168
1927399.0,1709208617.21
1928788.0,1709208617.248
1930595.0,1709208617.288
1932274.0,1709208617.329
1933822.0,1709208617.368
1935757.0,1709208617.409
1937711.0,1709208617.447
1939650.0,1709208617.487
1941527.0,1709208617.527
1941687.0,1709208617.564
1939233.0,1709208617.603
1937091.0,1709208617.643
1936426.0,1709208617.684
1935794.0,1709208617.723
1935399.0,1709208617.763
1935610.0,1709208617.805
1936109.0,1709208617.843
1936532.0,1709208617.884
1936580.0,1709208617.925
1936653.0,1709208617.964
1936986.0,1709208618.004
1937776.0,1709208618.045
1938853.0,1709208618.084
1939968.0,1709208618.124
1941732.0,1709208618.165
1942640.0,1709208618.205
1944103.0,1709208618.244
1945384.0,1709208618.286
1946924.0,1709208618.325
1948718.0,1709208618.366
1950613.0,1709208618.408
1952760.0,1709208618.447
1954974.0,1709208618.487
1957036.0,1709208618.528
1958891.0,1709208618.567
1960898.0,1709208618.609
1962664.0,1709208618.65
1964494.0,1709208618.687
1966193.0,1709208618.727
1965347.0,1709208618.768
1963772.0,1709208618.808
1962903.0,1709208618.848
1962645.0,1709208618.889
1962965.0,1709208618.928
1963345.0,1709208618.968
1964312.0,1709208619.01
1965136.0,1709208619.047
1965466.0,1709208619.128
1965346.0,1709208619.087
1965927.0,1709208619.168
1966671.0,1709208619.209
1967633.0,1709208619.249
1968679.0,1709208619.288
1969969.0,1709208619.329
1971392.0,1709208619.37
1972590.0,1709208619.408
1974038.0,1709208619.447
1975156.0,1709208619.489
1976548.0,1709208619.528
1977967.0,1709208619.568
1979314.0,1709208619.61
1980890.0,1709208619.649
1982475.0,1709208619.689
1984174.0,1709208619.728
1985594.0,1709208619.767
1987155.0,1709208619.808
1989034.0,1709208619.849
1990562.0,1709208619.888
1990290.0,1709208619.928
1987689.0,1709208619.97
1985319.0,1709208620.009
1983611.0,1709208620.049
1982136.0,1709208620.09
1980952.0,1709208620.127
1980145.0,1709208620.168
1979784.0,1709208620.21
1979006.0,1709208620.248
1977909.0,1709208620.288
1976931.0,1709208620.33
1976038.0,1709208620.369
1975570.0,1709208620.41
1975355.0,1709208620.45
1975306.0,1709208620.488
1975482.0,1709208620.528
1975913.0,1709208620.569
1975976.0,1709208620.609
1976290.0,1709208620.649
1976528.0,1709208620.69
1976844.0,1709208620.729
1977367.0,1709208620.769
1978124.0,1709208620.811
1978696.0,1709208620.848
1979497.0,1709208620.888
1980446.0,1709208620.929
1981419.0,1709208620.968
1982187.0,1709208621.009
1983074.0,1709208621.05
1984011.0,1709208621.089
1985205.0,1709208621.129
1986186.0,1709208621.168
1984287.0,1709208621.208
1979786.0,1709208621.248
1975305.0,1709208621.289
1971444.0,1709208621.328
1968409.0,1709208621.368
1965641.0,1709208621.41
1963665.0,1709208621.449
1961922.0,1709208621.489
1959765.0,1709208621.53
1957618.0,1709208621.569
1955298.0,1709208621.61
1953173.0,1709208621.649
1951964.0,1709208621.688
1951385.0,1709208621.728
1951151.0,1709208621.77
1950902.0,1709208621.81
1951166.0,1709208621.849
1951304.0,1709208621.89
1951207.0,1709208621.93
1951472.0,1709208621.97
1951577.0,1709208622.01
1951697.0,1709208622.048
1952023.0,1709208622.089
1952828.0,1709208622.13
1953156.0,1709208622.169
1954138.0,1709208622.21
1955115.0,1709208622.251
1955930.0,1709208622.29
1957013.0,1709208622.33
1957932.0,1709208622.369
1959270.0,1709208622.409
1960306.0,1709208622.449
1960842.0,1709208622.49
1957422.0,1709208622.529
1952167.0,1709208622.57
1947854.0,1709208622.612
1944492.0,1709208622.65
1941901.0,1709208622.69
1939905.0,1709208622.729
1938369.0,1709208622.769
1937215.0,1709208622.81
1935745.0,1709208622.85
1933596.0,1709208622.889
1932010.0,1709208622.93
1930799.0,1709208622.971
1930242.0,1709208623.011
1929842.0,1709208623.05
1930022.0,1709208623.091
1930282.0,1709208623.129
1930728.0,1709208623.169
1931238.0,1709208623.211
1931896.0,1709208623.249
1932364.0,1709208623.29
1933322.0,1709208623.331
1934285.0,1709208623.37
1934931.0,1709208623.411
1936188.0,1709208623.451
1937634.0,1709208623.491
1938794.0,1709208623.529
1940099.0,1709208623.57
1941830.0,1709208623.61
1943251.0,1709208623.65
1944927.0,1709208623.691
1946468.0,1709208623.728
1946678.0,1709208623.768
1943144.0,1709208623.81
1939377.0,1709208623.849
1937304.0,1709208623.889
1935916.0,1709208623.93
1935328.0,1709208623.969
1935249.0,1709208624.01
1935524.0,1709208624.05
1935464.0,1709208624.09
1935023.0,1709208624.13
1934543.0,1709208624.171
1934514.0,1709208624.211
1934779.0,1709208624.251
1935583.0,1709208624.292
1936488.0,1709208624.329
1937718.0,1709208624.369
1939136.0,1709208624.411
1940453.0,1709208624.45
1941875.0,1709208624.49
1943123.0,1709208624.531
1944701.0,1709208624.571
1946219.0,1709208624.612
1947876.0,1709208624.652
1949697.0,1709208624.689
1951745.0,1709208624.73
1953534.0,1709208624.771
1955474.0,1709208624.811
1957725.0,1709208624.85
1959463.0,1709208624.891
1959826.0,1709208624.931
1956933.0,1709208624.971
1954092.0,1709208625.013
1952374.0,1709208625.049
1951540.0,1709208625.09
1951164.0,1709208625.131
1951114.0,1709208625.17
1951523.0,1709208625.211
1951500.0,1709208625.252
1951015.0,1709208625.291
1950717.0,1709208625.331
1950334.0,1709208625.372
1950745.0,1709208625.41
1951249.0,1709208625.45
1952161.0,1709208625.491
1953180.0,1709208625.53
1954395.0,1709208625.571
1955497.0,1709208625.613
1956561.0,1709208625.651
1957838.0,1709208625.692
1958989.0,1709208625.733
1960441.0,1709208625.77
1961636.0,1709208625.811
1963131.0,1709208625.851
1964644.0,1709208625.891
1966344.0,1709208625.931
1967970.0,1709208625.972
1969717.0,1709208626.012
1971407.0,1709208626.051
1972225.0,1709208626.093
1969548.0,1709208626.13
1965765.0,1709208626.17
1962824.0,1709208626.212
1961007.0,1709208626.251
1959773.0,1709208626.291
1958684.0,1709208626.332
1957996.0,1709208626.371
1957545.0,1709208626.412
1956395.0,1709208626.452
1955069.0,1709208626.492
1953091.0,1709208626.571
1953813.0,1709208626.532
1952912.0,1709208626.611
1952962.0,1709208626.651
1953275.0,1709208626.692
1953726.0,1709208626.731
1954128.0,1709208626.771
1954607.0,1709208626.813
1955035.0,1709208626.852
1955575.0,1709208626.892
1956180.0,1709208626.931
1957003.0,1709208626.97
1957842.0,1709208627.011
1958815.0,1709208627.052
1959870.0,1709208627.091
1960930.0,1709208627.131
1962398.0,1709208627.173
1963681.0,1709208627.213
1964963.0,1709208627.252
1965688.0,1709208627.294
1962728.0,1709208627.33
1957588.0,1709208627.371
1953167.0,1709208627.413
1950159.0,1709208627.451
1947778.0,1709208627.492
1944895.0,1709208627.572
1945972.0,1709208627.533
1944031.0,1709208627.613
1940713.0,1709208627.691
1942755.0,1709208627.653
1937606.0,1709208627.772
1938992.0,1709208627.731
1936405.0,1709208627.852
1936718.0,1709208627.812
1936108.0,1709208627.893
1936105.0,1709208627.972
1935912.0,1709208627.932
1936330.0,1709208628.014
1936629.0,1709208628.051
1936620.0,1709208628.091
1937118.0,1709208628.132
1937666.0,1709208628.171
1938334.0,1709208628.212
1939149.0,1709208628.253
1939949.0,1709208628.292
1941217.0,1709208628.332
1942274.0,1709208628.374
1943415.0,1709208628.412
1943823.0,1709208628.451
1940039.0,1709208628.493
1935199.0,1709208628.532
1931422.0,1709208628.572
1929154.0,1709208628.614
1927721.0,1709208628.652
1926939.0,1709208628.693
1926781.0,1709208628.732
1926159.0,1709208628.771
1925072.0,1709208628.813
1923745.0,1709208628.853
1923042.0,1709208628.892
1922599.0,1709208628.932
1922399.0,1709208628.978
1922666.0,1709208629.018
1923235.0,1709208629.057
1923712.0,1709208629.099
1924538.0,1709208629.138
1924933.0,1709208629.178
1925712.0,1709208629.219
1926602.0,1709208629.258
1927248.0,1709208629.298
1928393.0,1709208629.339
1929638.0,1709208629.378
1931121.0,1709208629.419
1932706.0,1709208629.459
1934797.0,1709208629.498
1935427.0,1709208629.538
1931733.0,1709208629.579
1926798.0,1709208629.617
1923472.0,1709208629.657
1920975.0,1709208629.698
1919266.0,1709208629.737
1917237.0,1709208629.819
1917879.0,1709208629.777
1916502.0,1709208629.858
1915170.0,1709208629.898
1913781.0,1709208629.939
1912869.0,1709208629.977
1912521.0,1709208630.018
1912559.0,1709208630.058
1912937.0,1709208630.097
1913498.0,1709208630.137
1914341.0,1709208630.179
1915225.0,1709208630.219
1916123.0,1709208630.258
1916806.0,1709208630.299
1917871.0,1709208630.339
1918908.0,1709208630.377
1920156.0,1709208630.419
1921352.0,1709208630.457
1922972.0,1709208630.497
1924599.0,1709208630.539
1925987.0,1709208630.578
1927796.0,1709208630.619
1929444.0,1709208630.66
1930987.0,1709208630.699
1928674.0,1709208630.737
1924128.0,1709208630.778
1920419.0,1709208630.818
1917950.0,1709208630.858
1916413.0,1709208630.899
1914776.0,1709208630.938
1913799.0,1709208630.978
1913235.0,1709208631.02
1912397.0,1709208631.059
1910903.0,1709208631.099
1910099.0,1709208631.138
1910070.0,1709208631.177
1910337.0,1709208631.218
1910961.0,1709208631.259
1911834.0,1709208631.298
1912949.0,1709208631.338
1914094.0,1709208631.379
1914899.0,1709208631.417
1915738.0,1709208631.456
1916404.0,1709208631.498
1917404.0,1709208631.537
1918481.0,1709208631.577
1919883.0,1709208631.619
1921363.0,1709208631.658
1922661.0,1709208631.698
1924217.0,1709208631.739
1925771.0,1709208631.778
1927321.0,1709208631.819
1929174.0,1709208631.86
1930843.0,1709208631.899
1932601.0,1709208631.939
1932529.0,1709208631.978
1928518.0,1709208632.018
1924566.0,1709208632.058
1922001.0,1709208632.099
1920588.0,1709208632.138
1919092.0,1709208632.179
1917999.0,1709208632.221
1917839.0,1709208632.259
1917256.0,1709208632.299
1916131.0,1709208632.341
1915168.0,1709208632.378
1914801.0,1709208632.419
1914532.0,1709208632.459
1914840.0,1709208632.498
1915444.0,1709208632.539
1916388.0,1709208632.58
1917147.0,1709208632.62
1918483.0,1709208632.659
1919745.0,1709208632.701
1921073.0,1709208632.738
1922536.0,1709208632.778
1924084.0,1709208632.82
1925443.0,1709208632.858
1926935.0,1709208632.899
1928342.0,1709208632.94
1929832.0,1709208632.979
1931401.0,1709208633.02
1932991.0,1709208633.061
1935014.0,1709208633.1
1936325.0,1709208633.138
1934724.0,1709208633.179
1931476.0,1709208633.219
1929219.0,1709208633.259
1928097.0,1709208633.3
1927946.0,1709208633.339
1927580.0,1709208633.379
1928156.0,1709208633.421
1927524.0,1709208633.5
1927997.0,1709208633.46
1926719.0,1709208633.539
1926495.0,1709208633.578
1926615.0,1709208633.619
1927314.0,1709208633.66
1928145.0,1709208633.699
1929185.0,1709208633.739
1930309.0,1709208633.781
1931538.0,1709208633.82
1932900.0,1709208633.86
1933976.0,1709208633.899
1935264.0,1709208633.938
1936741.0,1709208633.978
1938336.0,1709208634.02
1939890.0,1709208634.059
1941748.0,1709208634.099
1943645.0,1709208634.14
1945823.0,1709208634.18
1947952.0,1709208634.221
1949122.0,1709208634.261
1946652.0,1709208634.3
1942551.0,1709208634.338
1939747.0,1709208634.38
1938160.0,1709208634.42
1937076.0,1709208634.459
1936227.0,1709208634.5
1935945.0,1709208634.54
1935730.0,1709208634.58
1934926.0,1709208634.622
1933903.0,1709208634.66
1933276.0,1709208634.699
1932929.0,1709208634.74
1933411.0,1709208634.779
1933753.0,1709208634.82
1934634.0,1709208634.861
1935434.0,1709208634.9
1936291.0,1709208634.94
1937356.0,1709208634.981
1938162.0,1709208635.021
1939378.0,1709208635.061
1940483.0,1709208635.1
1941923.0,1709208635.139
1943027.0,1709208635.179
1944465.0,1709208635.221
1945933.0,1709208635.26
1947419.0,1709208635.3
1948917.0,1709208635.341
1950561.0,1709208635.38
1951916.0,1709208635.421
1950191.0,1709208635.46
1945228.0,1709208635.499
1941557.0,1709208635.539
1939020.0,1709208635.581
1937261.0,1709208635.621
1935444.0,1709208635.66
1934510.0,1709208635.701
1933766.0,1709208635.741
1932784.0,1709208635.781
1931406.0,1709208635.821
1929926.0,1709208635.859
1928855.0,1709208635.9
1928445.0,1709208635.941
1928400.0,1709208635.98
1928676.0,1709208636.021
1929256.0,1709208636.061
1929850.0,1709208636.101
1930326.0,1709208636.141
1931036.0,1709208636.182
1931444.0,1709208636.22
1932129.0,1709208636.259
1933193.0,1709208636.301
1934014.0,1709208636.34
1935153.0,1709208636.38
1936532.0,1709208636.422
1937736.0,1709208636.461
1939079.0,1709208636.501
1940679.0,1709208636.539
1942100.0,1709208636.579
1940714.0,1709208636.621
1935994.0,1709208636.66
1931368.0,1709208636.699
1928268.0,1709208636.74
1926414.0,1709208636.781
1924772.0,1709208636.815
1923783.0,1709208636.854
1923053.0,1709208636.895
1921628.0,1709208636.934
1918529.0,1709208637.016
1920018.0,1709208636.975
1917452.0,1709208637.055
1916820.0,1709208637.095
1916784.0,1709208637.175
1917097.0,1709208637.216
1917551.0,1709208637.256
1918199.0,1709208637.295
1918547.0,1709208637.335
1919227.0,1709208637.376
1916681.0,1709208637.136
1919767.0,1709208637.416
1920698.0,1709208637.456
1921545.0,1709208637.497
1922701.0,1709208637.537
1925489.0,1709208637.617
1926216.0,1709208637.656
1924022.0,1709208637.576
1922830.0,1709208637.697
1917810.0,1709208637.738
1914014.0,1709208637.777
1911581.0,1709208637.818
1910181.0,1709208637.859
1908850.0,1709208637.938
1908279.0,1709208637.98
1909228.0,1709208637.898
1907078.0,1709208638.021
1904923.0,1709208638.101
1905711.0,1709208638.061
1904884.0,1709208638.18
1905369.0,1709208638.222
1904663.0,1709208638.14
1906190.0,1709208638.261
1907071.0,1709208638.301
1908318.0,1709208638.342
1909079.0,1709208638.381
1910081.0,1709208638.422
1911186.0,1709208638.463
1912571.0,1709208638.5
1913785.0,1709208638.54
1916795.0,1709208638.622
1915279.0,1709208638.582
1920255.0,1709208638.702
1918559.0,1709208638.661
1921899.0,1709208638.742
1921023.0,1709208638.782
1916169.0,1709208638.824
1911689.0,1709208638.86
1908903.0,1709208638.901
1907011.0,1709208638.942
1905511.0,1709208638.981
1904429.0,1709208639.022
1903908.0,1709208639.063
1903177.0,1709208639.099
1902011.0,1709208639.141
1900816.0,1709208639.182
1900239.0,1709208639.221
1900212.0,1709208639.261
1900608.0,1709208639.302
1901262.0,1709208639.341
1902178.0,1709208639.381
1903272.0,1709208639.423
1904229.0,1709208639.462
1905083.0,1709208639.502
1906301.0,1709208639.544
1907328.0,1709208639.581
1908697.0,1709208639.622
1910155.0,1709208639.662
1911626.0,1709208639.701
1913337.0,1709208639.741
1914976.0,1709208639.783
1916584.0,1709208639.823
1918735.0,1709208639.862
1920398.0,1709208639.903
1920927.0,1709208639.943
1917298.0,1709208639.981
1912992.0,1709208640.023
1910683.0,1709208640.061
1909373.0,1709208640.102
1908869.0,1709208640.143
1908754.0,1709208640.182
1909170.0,1709208640.223
1909275.0,1709208640.263
1908772.0,1709208640.303
1907967.0,1709208640.343
1907312.0,1709208640.382
1907316.0,1709208640.422
1907634.0,1709208640.461
1908349.0,1709208640.503
1909269.0,1709208640.542
1910226.0,1709208640.582
1911346.0,1709208640.624
1912236.0,1709208640.663
1913301.0,1709208640.703
1914641.0,1709208640.742
1915872.0,1709208640.781
1917246.0,1709208640.822
1918974.0,1709208640.863
1920517.0,1709208640.902
1922435.0,1709208640.942
1924224.0,1709208640.986
1925802.0,1709208641.026
1923128.0,1709208641.065
1919409.0,1709208641.106
1916747.0,1709208641.145
1915536.0,1709208641.186
1914641.0,1709208641.227
1914231.0,1709208641.266
1914153.0,1709208641.306
1914372.0,1709208641.347
1913867.0,1709208641.386
1913080.0,1709208641.427
1913071.0,1709208641.506
1914738.0,1709208641.588
1917113.0,1709208641.667
1912889.0,1709208641.467
1913811.0,1709208641.547
1915887.0,1709208641.628
1918466.0,1709208641.708
1919635.0,1709208641.748
1921028.0,1709208641.788
1922494.0,1709208641.83
1923764.0,1709208641.868
1925282.0,1709208641.907
1927064.0,1709208641.948
1928964.0,1709208641.987
1930653.0,1709208642.028
1932638.0,1709208642.069
1934354.0,1709208642.108
1936288.0,1709208642.148
1938349.0,1709208642.189
1938875.0,1709208642.229
1935540.0,1709208642.269
1931538.0,1709208642.308
1929170.0,1709208642.347
1927571.0,1709208642.387
1926440.0,1709208642.429
1925546.0,1709208642.468
1925250.0,1709208642.508
1924845.0,1709208642.549
1924027.0,1709208642.589
1922986.0,1709208642.628
1922422.0,1709208642.668
1922152.0,1709208642.707
1922611.0,1709208642.748
1923180.0,1709208642.789
1923950.0,1709208642.829
1924892.0,1709208642.868
1925681.0,1709208642.91
1926556.0,1709208642.947
1927715.0,1709208642.987
1928771.0,1709208643.029
1929910.0,1709208643.068
1931225.0,1709208643.108
1932615.0,1709208643.149
1934204.0,1709208643.188
1935926.0,1709208643.229
1937473.0,1709208643.269
1939047.0,1709208643.308
1940742.0,1709208643.348
1942394.0,1709208643.389
1944136.0,1709208643.429
1943854.0,1709208643.468
1939850.0,1709208643.509
1936139.0,1709208643.548
1933616.0,1709208643.588
1932347.0,1709208643.63
1931374.0,1709208643.669
1930414.0,1709208643.709
1930270.0,1709208643.75
1929321.0,1709208643.789
1928110.0,1709208643.83
1926654.0,1709208643.87
1925885.0,1709208643.909
1925684.0,1709208643.949
1925638.0,1709208643.99
1926221.0,1709208644.03
1926756.0,1709208644.069
1927543.0,1709208644.111
1928011.0,1709208644.15
1928911.0,1709208644.19
1929487.0,1709208644.231
1930656.0,1709208644.27
1931552.0,1709208644.31
1932621.0,1709208644.351
1933968.0,1709208644.39
1935417.0,1709208644.431
1936686.0,1709208644.471
1938229.0,1709208644.51
1939495.0,1709208644.55
1941094.0,1709208644.591
1940153.0,1709208644.631
1935504.0,1709208644.67
1931325.0,1709208644.712
1928737.0,1709208644.751
1926811.0,1709208644.791
1925147.0,1709208644.832
1924283.0,1709208644.871
1923634.0,1709208644.911
1922373.0,1709208644.952
1920919.0,1709208644.991
1919394.0,1709208645.032
1918275.0,1709208645.069
1917848.0,1709208645.1
1917843.0,1709208645.14
1917857.0,1709208645.181
1918416.0,1709208645.221
1918810.0,1709208645.261
1919137.0,1709208645.302
1919818.0,1709208645.341
1920372.0,1709208645.381
1920926.0,1709208645.423
1922027.0,1709208645.461
1923017.0,1709208645.501
1924068.0,1709208645.542
1925299.0,1709208645.581
1926430.0,1709208645.622
1927881.0,1709208645.663
1930752.0,1709208645.742
1929077.0,1709208645.702
1932269.0,1709208645.783
1931983.0,1709208645.818
1927602.0,1709208645.851
1922851.0,1709208645.89
1919688.0,1709208645.93
1917246.0,1709208645.97
1915283.0,1709208646.012
1913807.0,1709208646.05
1913102.0,1709208646.091
1911915.0,1709208646.132
1910451.0,1709208646.171
1908935.0,1709208646.212
1907739.0,1709208646.251
1907288.0,1709208646.29
1907234.0,1709208646.33
1907581.0,1709208646.371
1907995.0,1709208646.411
1908659.0,1709208646.451
1909365.0,1709208646.492
1909945.0,1709208646.531
1911577.0,1709208646.612
1913949.0,1709208646.691
1915267.0,1709208646.732
1910670.0,1709208646.57
1912817.0,1709208646.65
1916755.0,1709208646.77
1919843.0,1709208646.85
1921400.0,1709208646.889
1918308.0,1709208646.81
1923106.0,1709208646.93
1924951.0,1709208646.971
1926714.0,1709208647.011
1925481.0,1709208647.051
1921711.0,1709208647.092
1918545.0,1709208647.131
1916807.0,1709208647.172
1915497.0,1709208647.213
1914182.0,1709208647.252
1913554.0,1709208647.29
1913596.0,1709208647.331
1913199.0,1709208647.37
1912344.0,1709208647.412
1911975.0,1709208647.452
1911800.0,1709208647.491
1912212.0,1709208647.532
1914234.0,1709208647.611
1913170.0,1709208647.573
1917231.0,1709208647.692
1918652.0,1709208647.731
1919775.0,1709208647.771
1915925.0,1709208647.651
1922311.0,1709208647.852
1925243.0,1709208647.933
1927075.0,1709208647.97
1923781.0,1709208647.892
1921066.0,1709208647.813
1928744.0,1709208648.011
1930405.0,1709208648.052
1932328.0,1709208648.091
1934215.0,1709208648.132
1936050.0,1709208648.173
1938197.0,1709208648.212
1940009.0,1709208648.252
1940655.0,1709208648.293
1938500.0,1709208648.33
1936769.0,1709208648.371
1935926.0,1709208648.413
1935742.0,1709208648.451
1935554.0,1709208648.492
1935941.0,1709208648.533
1936657.0,1709208648.572
1937059.0,1709208648.613
1937322.0,1709208648.652
1937669.0,1709208648.691
1938301.0,1709208648.731
1939029.0,1709208648.772
1940048.0,1709208648.812
1941395.0,1709208648.852
1942880.0,1709208648.893
1944530.0,1709208648.932
1945930.0,1709208648.973
1947530.0,1709208649.013
1949029.0,1709208649.051
1950606.0,1709208649.091
1952311.0,1709208649.133
1954268.0,1709208649.172
1956161.0,1709208649.213
1958069.0,1709208649.253
1960140.0,1709208649.292
1962472.0,1709208649.332
1964849.0,1709208649.371
1967347.0,1709208649.411
1969598.0,1709208649.451
1970025.0,1709208649.492
1968358.0,1709208649.531
1967139.0,1709208649.572
1966619.0,1709208649.614
1966418.0,1709208649.652
1966136.0,1709208649.693
1966586.0,1709208649.734
1967277.0,1709208649.771
1967842.0,1709208649.812
1968244.0,1709208649.853
1968324.0,1709208649.892
1968779.0,1709208649.932
1969829.0,1709208649.973
1970738.0,1709208650.013
1971936.0,1709208650.053
1973180.0,1709208650.094
1974555.0,1709208650.131
1975944.0,1709208650.172
1977223.0,1709208650.213
1978648.0,1709208650.252
1980052.0,1709208650.292
1981701.0,1709208650.333
1983060.0,1709208650.373
1985004.0,1709208650.414
1986477.0,1709208650.454
1988527.0,1709208650.491
1990005.0,1709208650.532
1991781.0,1709208650.573
1993694.0,1709208650.613
1995285.0,1709208650.653
1997051.0,1709208650.694
1999020.0,1709208650.733
2000727.0,1709208650.773
2000828.0,1709208650.815
1998818.0,1709208650.851
1997280.0,1709208650.892
1996220.0,1709208650.933
1995456.0,1709208650.972
1994965.0,1709208651.013
1994551.0,1709208651.054
1994686.0,1709208651.093
1994538.0,1709208651.134
1994225.0,1709208651.175
1993711.0,1709208651.212
1993492.0,1709208651.252
1993576.0,1709208651.293
1993767.0,1709208651.332
1994217.0,1709208651.373
1994712.0,1709208651.415
1995448.0,1709208651.453
1995863.0,1709208651.494
1996811.0,1709208651.535
1997205.0,1709208651.572
1998075.0,1709208651.613
1998894.0,1709208651.653
2000027.0,1709208651.693
2001324.0,1709208651.733
2002681.0,1709208651.774
2004314.0,1709208651.814
2005815.0,1709208651.854
2007131.0,1709208651.894
2008657.0,1709208651.934
2009615.0,1709208651.972
2010735.0,1709208652.014
2011810.0,1709208652.052
2012868.0,1709208652.093
2011448.0,1709208652.134
2007600.0,1709208652.173
2004169.0,1709208652.214
2001295.0,1709208652.255
1998869.0,1709208652.294
1996902.0,1709208652.332
1995125.0,1709208652.373
1993859.0,1709208652.413
1992302.0,1709208652.453
1990151.0,1709208652.494
1987937.0,1709208652.533
1986086.0,1709208652.574
1984745.0,1709208652.616
1983488.0,1709208652.652
1982765.0,1709208652.693
1982105.0,1709208652.734
1981642.0,1709208652.773
1981306.0,1709208652.814
1981098.0,1709208652.855
1980623.0,1709208652.894
1980632.0,1709208652.934
1981084.0,1709208652.966
1981598.0,1709208653.006
1982159.0,1709208653.046
1983079.0,1709208653.087
1984045.0,1709208653.166
1983359.0,1709208653.126
1984743.0,1709208653.207
1985172.0,1709208653.246
1985921.0,1709208653.286
1985433.0,1709208653.327
1980989.0,1709208653.366
1975239.0,1709208653.407
1970756.0,1709208653.448
1966810.0,1709208653.487
1963918.0,1709208653.528
1961238.0,1709208653.569
1959430.0,1709208653.609
1957533.0,1709208653.649
1955369.0,1709208653.69
1952661.0,1709208653.729
1950509.0,1709208653.769
1947653.0,1709208653.85
1948800.0,1709208653.811
1946887.0,1709208653.888
1946761.0,1709208653.929
1946521.0,1709208653.968
1946418.0,1709208654.05
1946462.0,1709208654.01
1946695.0,1709208654.089
1946694.0,1709208654.13
1947210.0,1709208654.171
1947731.0,1709208654.211
1948315.0,1709208654.248
1949266.0,1709208654.289
1952166.0,1709208654.369
1950686.0,1709208654.328
1953683.0,1709208654.411
1955220.0,1709208654.448
1957008.0,1709208654.487
1958552.0,1709208654.528
1958358.0,1709208654.568
1954275.0,1709208654.609
1949385.0,1709208654.649
1943202.0,1709208654.729
1941469.0,1709208654.77
1945664.0,1709208654.689
1939762.0,1709208654.81
1938899.0,1709208654.85
1938294.0,1709208654.891
1937214.0,1709208654.93
1935946.0,1709208654.969
1934986.0,1709208655.01
1934641.0,1709208655.049
1934712.0,1709208655.089
1935959.0,1709208655.169
1935138.0,1709208655.13
1937950.0,1709208655.251
1936829.0,1709208655.211
1938970.0,1709208655.29
1940186.0,1709208655.329
1941348.0,1709208655.37
1942656.0,1709208655.41
1944208.0,1709208655.449
1945627.0,1709208655.491
1947484.0,1709208655.53
1949387.0,1709208655.57
1951363.0,1709208655.612
1953255.0,1709208655.648
1955357.0,1709208655.689
1957545.0,1709208655.73
1959522.0,1709208655.769
1959289.0,1709208655.811
1956879.0,1709208655.851
1955030.0,1709208655.89
1954134.0,1709208655.931
1954026.0,1709208656.009
1954614.0,1709208656.049
1955672.0,1709208656.09
1956669.0,1709208656.169
1953934.0,1709208655.972
1956669.0,1709208656.206
1958484.0,1709208656.284
1960145.0,1709208656.325
1956170.0,1709208656.129
1961451.0,1709208656.364
1957246.0,1709208656.244
1963305.0,1709208656.405
1964895.0,1709208656.445
1966483.0,1709208656.484
1967946.0,1709208656.525
1969781.0,1709208656.566
1971560.0,1709208656.605
1973224.0,1709208656.645
1975147.0,1709208656.686
1977088.0,1709208656.725
1979154.0,1709208656.765
1981068.0,1709208656.807
1983395.0,1709208656.845
1985523.0,1709208656.883
1988063.0,1709208656.92
1989603.0,1709208656.952
1989631.0,1709208656.989
1988337.0,1709208657.029
1987761.0,1709208657.068
1987894.0,1709208657.109
1988610.0,1709208657.15
1989249.0,1709208657.19
1990632.0,1709208657.229
1991940.0,1709208657.27
1992742.0,1709208657.31
1993353.0,1709208657.35
1994244.0,1709208657.392
1995089.0,1709208657.43
1996290.0,1709208657.469
1997937.0,1709208657.51
1999296.0,1709208657.549
2000986.0,1709208657.59
2002563.0,1709208657.631
2004287.0,1709208657.67
2007454.0,1709208657.751
2005840.0,1709208657.71
2009144.0,1709208657.791
2010721.0,1709208657.829
2014087.0,1709208657.909
2012409.0,1709208657.87
2017689.0,1709208657.991
2015842.0,1709208657.949
2019368.0,1709208658.03
2021278.0,1709208658.07
2023113.0,1709208658.111
2023550.0,1709208658.151
2021893.0,1709208658.19
2020124.0,1709208658.23
2019257.0,1709208658.269
2018922.0,1709208658.31
2018987.0,1709208658.351
2018889.0,1709208658.391
2019179.0,1709208658.43
2019262.0,1709208658.471
2019388.0,1709208658.511
2019484.0,1709208658.549
2019805.0,1709208658.591
2020136.0,1709208658.629
2020741.0,1709208658.67
2021171.0,1709208658.711
2021697.0,1709208658.75
2023012.0,1709208658.832
2022407.0,1709208658.791
2023598.0,1709208658.871
2024054.0,1709208658.911
2024619.0,1709208658.95
2025525.0,1709208658.99
2026317.0,1709208659.03
2027131.0,1709208659.071
2028895.0,1709208659.15
2029922.0,1709208659.192
2027936.0,1709208659.11
2030930.0,1709208659.231
2031988.0,1709208659.271
2032934.0,1709208659.31
2033985.0,1709208659.35
2032337.0,1709208659.391
2028105.0,1709208659.431
2024040.0,1709208659.47
2020476.0,1709208659.51
2017702.0,1709208659.555
2014987.0,1709208659.59
2010792.0,1709208659.671
2008387.0,1709208659.71
2012785.0,1709208659.629
2005747.0,1709208659.75
2003114.0,1709208659.792
2000608.0,1709208659.83
1998402.0,1709208659.871
1996117.0,1709208659.951
1994652.0,1709208660.033
1993589.0,1709208660.07
1997027.0,1709208659.912
1995339.0,1709208659.992
1992631.0,1709208660.11
1991705.0,1709208660.151
1990842.0,1709208660.191
1990076.0,1709208660.231
1989580.0,1709208660.272
1989140.0,1709208660.311
1988822.0,1709208660.351
1988715.0,1709208660.393
1988725.0,1709208660.432
1988640.0,1709208660.47
1988768.0,1709208660.511
1988523.0,1709208660.55
1983944.0,1709208660.591
1977276.0,1709208660.632
1971322.0,1709208660.671
1966490.0,1709208660.711
1962609.0,1709208660.753
1959326.0,1709208660.793
1956958.0,1709208660.83
1954714.0,1709208660.871
1951566.0,1709208660.91
1948134.0,1709208660.951
1945258.0,1709208660.993
1942845.0,1709208661.031
1941172.0,1709208661.071
1940092.0,1709208661.112
1939157.0,1709208661.151
1938608.0,1709208661.193
1938098.0,1709208661.233
1937665.0,1709208661.27
1937385.0,1709208661.31
1937318.0,1709208661.352
1937322.0,1709208661.392
1937713.0,1709208661.431
1938074.0,1709208661.472
1938876.0,1709208661.512
1939696.0,1709208661.552
1941007.0,1709208661.594
1942650.0,1709208661.63
1944352.0,1709208661.671
1944726.0,1709208661.712
1940702.0,1709208661.751
1935393.0,1709208661.792
1931273.0,1709208661.833
1928139.0,1709208661.872
1925561.0,1709208661.912
1923811.0,1709208661.953
1922739.0,1709208661.991
1920541.0,1709208662.072
1921893.0,1709208662.031
1917990.0,1709208662.151
1917665.0,1709208662.193
1919033.0,1709208662.111
1917644.0,1709208662.231
1918242.0,1709208662.272
1919107.0,1709208662.313
1920053.0,1709208662.352
1921280.0,1709208662.393
1923013.0,1709208662.434
1924697.0,1709208662.471
1926169.0,1709208662.511
1928159.0,1709208662.552
1929556.0,1709208662.592
1931405.0,1709208662.632
1933356.0,1709208662.673
1935342.0,1709208662.712
1937300.0,1709208662.753
1939331.0,1709208662.794
1941535.0,1709208662.831
1943739.0,1709208662.871
1945168.0,1709208662.912
1943139.0,1709208662.952
1940499.0,1709208662.993
1938903.0,1709208663.033
1938206.0,1709208663.072
1937877.0,1709208663.113
1937957.0,1709208663.154
1938726.0,1709208663.194
1939257.0,1709208663.231
1939730.0,1709208663.272
1940322.0,1709208663.311
1942506.0,1709208663.394
1941135.0,1709208663.352
1945833.0,1709208663.472
1943956.0,1709208663.432
1947682.0,1709208663.514
1951065.0,1709208663.592
1949429.0,1709208663.553
1956527.0,1709208663.712
1958443.0,1709208663.753
1954606.0,1709208663.672
1952864.0,1709208663.632
1960455.0,1709208663.793
1964687.0,1709208663.874
1962561.0,1709208663.833
1966979.0,1709208663.913
1971510.0,1709208663.993
1969117.0,1709208663.953
1973652.0,1709208664.032
1975903.0,1709208664.072
1980464.0,1709208664.152
1979135.0,1709208664.234
1981013.0,1709208664.193
1978348.0,1709208664.113
1978226.0,1709208664.273
1978317.0,1709208664.313
1978617.0,1709208664.355
1979404.0,1709208664.392
1980717.0,1709208664.432
1981817.0,1709208664.473
1982291.0,1709208664.512
1982971.0,1709208664.553
1983161.0,1709208664.595
1983786.0,1709208664.633
1984801.0,1709208664.675
1986020.0,1709208664.716
1987558.0,1709208664.755
1988786.0,1709208664.795
1990215.0,1709208664.835
1991709.0,1709208664.872
1993199.0,1709208664.912
1994748.0,1709208664.957
1996106.0,1709208664.997
1998039.0,1709208665.036
1999419.0,1709208665.077
2001361.0,1709208665.116
2002853.0,1709208665.156
2004806.0,1709208665.198
2006483.0,1709208665.236
2008263.0,1709208665.276
2009262.0,1709208665.318
2007782.0,1709208665.357
2005473.0,1709208665.397
2004241.0,1709208665.438
2003227.0,1709208665.477
2002749.0,1709208665.517
2002668.0,1709208665.559
2002710.0,1709208665.599
2002675.0,1709208665.636
2002130.0,1709208665.677
2001563.0,1709208665.717
2001499.0,1709208665.757
2001739.0,1709208665.799
2002188.0,1709208665.837
2002968.0,1709208665.878
2003305.0,1709208665.919
2004446.0,1709208665.997
2003870.0,1709208665.958
2005055.0,1709208666.037
2005513.0,1709208666.077
2006000.0,1709208666.117
2006737.0,1709208666.158
2007711.0,1709208666.198
2008416.0,1709208666.238
2009307.0,1709208666.279
2010212.0,1709208666.318
2011260.0,1709208666.358
2012310.0,1709208666.398
2013395.0,1709208666.437
2014008.0,1709208666.477
2010754.0,1709208666.518
2005707.0,1709208666.557
2001334.0,1709208666.598
1997874.0,1709208666.639
1994867.0,1709208666.678
1991999.0,1709208666.718
1989965.0,1709208666.758
1987963.0,1709208666.797
1985168.0,1709208666.837
1982408.0,1709208666.878
1979777.0,1709208666.917
1977428.0,1709208666.958
1975853.0,1709208667.0
1974490.0,1709208667.038
1973481.0,1709208667.078
1972503.0,1709208667.118
1972059.0,1709208667.157
1971327.0,1709208667.198
1970714.0,1709208667.238
1970330.0,1709208667.277
1969789.0,1709208667.318
1969621.0,1709208667.359
1969902.0,1709208667.399
1970530.0,1709208667.438
1970785.0,1709208667.48
1971124.0,1709208667.519
1971597.0,1709208667.557
1972169.0,1709208667.599
1972614.0,1709208667.637
1972638.0,1709208667.678
1968613.0,1709208667.719
1961870.0,1709208667.758
1956133.0,1709208667.799
1951514.0,1709208667.84
1948256.0,1709208667.879
1944917.0,1709208667.919
1942788.0,1709208667.958
1940641.0,1709208667.998
1938111.0,1709208668.038
1934930.0,1709208668.079
1932157.0,1709208668.118
1930153.0,1709208668.158
1928720.0,1709208668.2
1927767.0,1709208668.239
1927149.0,1709208668.279
1926826.0,1709208668.318
1926632.0,1709208668.357
1926509.0,1709208668.398
1926491.0,1709208668.439
1926692.0,1709208668.478
1926933.0,1709208668.518
1927360.0,1709208668.56
1928204.0,1709208668.6
1928887.0,1709208668.639
1929984.0,1709208668.678
1931345.0,1709208668.718
1932549.0,1709208668.758
1932621.0,1709208668.8
1928485.0,1709208668.838
1922910.0,1709208668.879
1918837.0,1709208668.92
1916011.0,1709208668.959
1914108.0,1709208669.0
1912990.0,1709208669.039
1912408.0,1709208669.078
1911653.0,1709208669.118
1910350.0,1709208669.159
1908878.0,1709208669.199
1908024.0,1709208669.239
1907771.0,1709208669.28
1908240.0,1709208669.319
1908665.0,1709208669.359
1909641.0,1709208669.401
1910601.0,1709208669.438
1911853.0,1709208669.478
1913059.0,1709208669.519
1914372.0,1709208669.559
1915552.0,1709208669.6
1916943.0,1709208669.64
1918535.0,1709208669.679
1920417.0,1709208669.72
1922228.0,1709208669.761
1924086.0,1709208669.801
1925982.0,1709208669.842
1928222.0,1709208669.881
1930363.0,1709208669.918
1929829.0,1709208669.958
1925829.0,1709208670.0
1922012.0,1709208670.039
1919601.0,1709208670.079
1918248.0,1709208670.12
1917160.0,1709208670.159
1916699.0,1709208670.2
1916842.0,1709208670.241
1916613.0,1709208670.278
1916055.0,1709208670.318
1915547.0,1709208670.36
1915649.0,1709208670.399
1915950.0,1709208670.439
1916923.0,1709208670.48
1918203.0,1709208670.519
1919443.0,1709208670.56
1920621.0,1709208670.602
1922088.0,1709208670.638
1923666.0,1709208670.678
1925194.0,1709208670.72
1926776.0,1709208670.759
1928396.0,1709208670.8
1930274.0,1709208670.84
1932260.0,1709208670.88
1934324.0,1709208670.92
1936265.0,1709208670.961
1938471.0,1709208670.999
1940740.0,1709208671.039
1942775.0,1709208671.08
1944293.0,1709208671.119
1942641.0,1709208671.159
1939377.0,1709208671.201
1937601.0,1709208671.24
1937076.0,1709208671.28
1936591.0,1709208671.321
1936787.0,1709208671.36
1937361.0,1709208671.399
1937606.0,1709208671.44
1937557.0,1709208671.479
1937291.0,1709208671.519
1937218.0,1709208671.561
1937910.0,1709208671.6
1938765.0,1709208671.64
1940063.0,1709208671.681
1941460.0,1709208671.72
1942818.0,1709208671.759
1944348.0,1709208671.801
1945655.0,1709208671.839
1947359.0,1709208671.879
1948773.0,1709208671.921
1950393.0,1709208671.96
1952122.0,1709208672.001
1953949.0,1709208672.041
1955725.0,1709208672.08
1957704.0,1709208672.121
1959758.0,1709208672.16
1961827.0,1709208672.2
1962504.0,1709208672.239
1959887.0,1709208672.28
1957028.0,1709208672.32
1955428.0,1709208672.358
1954728.0,1709208672.4
1954218.0,1709208672.439
1954067.0,1709208672.48
1954486.0,1709208672.52
1954475.0,1709208672.559
1954097.0,1709208672.6
1953517.0,1709208672.641
1953807.0,1709208672.68
1953989.0,1709208672.72
1954627.0,1709208672.761
1955720.0,1709208672.801
1956663.0,1709208672.841
1958012.0,1709208672.882
1959074.0,1709208672.919
1960116.0,1709208672.959
1961423.0,1709208673.001
1962698.0,1709208673.04
1963944.0,1709208673.08
1965481.0,1709208673.121
1966980.0,1709208673.161
1968573.0,1709208673.202
1970237.0,1709208673.242
1971868.0,1709208673.281
1973659.0,1709208673.319
1975236.0,1709208673.361
1977104.0,1709208673.4
1978966.0,1709208673.44
1978754.0,1709208673.481
1974937.0,1709208673.52
1971255.0,1709208673.561
1968828.0,1709208673.603
1967015.0,1709208673.641
1965575.0,1709208673.68
1964512.0,1709208673.721
1963812.0,1709208673.76
1962975.0,1709208673.801
1961589.0,1709208673.841
1960053.0,1709208673.881
1958942.0,1709208673.921
1958460.0,1709208673.962
1958109.0,1709208674.002
1958160.0,1709208674.042
1958390.0,1709208674.081
1958876.0,1709208674.12
1959256.0,1709208674.16
1959746.0,1709208674.202
1960115.0,1709208674.241
1960650.0,1709208674.281
1961255.0,1709208674.322
1962154.0,1709208674.361
1962909.0,1709208674.402
1963905.0,1709208674.441
1965080.0,1709208674.48
1966259.0,1709208674.52
1967318.0,1709208674.562
1968752.0,1709208674.602
1970201.0,1709208674.641
1970362.0,1709208674.682
1966384.0,1709208674.722
1961598.0,1709208674.762
1958024.0,1709208674.802
1955726.0,1709208674.84
1954058.0,1709208674.88
1953065.0,1709208674.922
1952549.0,1709208674.961
1951653.0,1709208675.002
1949893.0,1709208675.042
1948107.0,1709208675.082
1947052.0,1709208675.122
1946401.0,1709208675.163
1946256.0,1709208675.201
1946637.0,1709208675.24
1947139.0,1709208675.282
1948007.0,1709208675.321
1948669.0,1709208675.361
1949255.0,1709208675.403
1950111.0,1709208675.442
1950877.0,1709208675.482
1951791.0,1709208675.523
1953047.0,1709208675.56
1954198.0,1709208675.601
1955709.0,1709208675.642
1957303.0,1709208675.681
1958794.0,1709208675.721
1960435.0,1709208675.763
1960764.0,1709208675.802
1956733.0,1709208675.842
1951184.0,1709208675.883
1947090.0,1709208675.916
1944366.0,1709208675.956
1942169.0,1709208675.998
1940247.0,1709208676.036
1938886.0,1709208676.076
1938172.0,1709208676.118
1936563.0,1709208676.157
1934297.0,1709208676.197
1932909.0,1709208676.238
1932113.0,1709208676.277
1931681.0,1709208676.317
1931941.0,1709208676.358
1932030.0,1709208676.398
1932391.0,1709208676.437
1933025.0,1709208676.478
1933580.0,1709208676.517
1934094.0,1709208676.557
1934768.0,1709208676.6
1935410.0,1709208676.639
1936460.0,1709208676.679
1937355.0,1709208676.72
1938592.0,1709208676.759
1939816.0,1709208676.801
1941085.0,1709208676.842
1942699.0,1709208676.881
1944295.0,1709208676.921
1943766.0,1709208676.957
1938831.0,1709208676.997
1933051.0,1709208677.036
1929054.0,1709208677.077
1926114.0,1709208677.116
1923733.0,1709208677.156
1921615.0,1709208677.198
1920471.0,1709208677.236
1919107.0,1709208677.276
1917132.0,1709208677.318
1915194.0,1709208677.357
1913478.0,1709208677.397
1912864.0,1709208677.438
1912619.0,1709208677.477
1912643.0,1709208677.517
1913156.0,1709208677.558
1913636.0,1709208677.598
1914241.0,1709208677.638
1914870.0,1709208677.679
1915669.0,1709208677.718
1916444.0,1709208677.758
1917386.0,1709208677.8
1918600.0,1709208677.839
1919741.0,1709208677.879
1921171.0,1709208677.92
1922679.0,1709208677.959
1924321.0,1709208678.0
1925842.0,1709208678.041
1927723.0,1709208678.08
1929615.0,1709208678.12
1930070.0,1709208678.16
1925515.0,1709208678.199
1919939.0,1709208678.239
1916444.0,1709208678.28
1914037.0,1709208678.319
1912521.0,1709208678.36
1911008.0,1709208678.402
1910272.0,1709208678.44
1909482.0,1709208678.48
1908233.0,1709208678.52
1906606.0,1709208678.559
1905779.0,1709208678.6
1905204.0,1709208678.641
1905539.0,1709208678.68
1905830.0,1709208678.72
1906479.0,1709208678.761
1907384.0,1709208678.801
1908219.0,1709208678.841
1909201.0,1709208678.88
1910058.0,1709208678.919
1911416.0,1709208678.959
1913110.0,1709208679.001
1914981.0,1709208679.04
1916962.0,1709208679.08
1918850.0,1709208679.121
1920946.0,1709208679.161
1923124.0,1709208679.202
1924764.0,1709208679.24
1926704.0,1709208679.279
1928075.0,1709208679.319
1925617.0,1709208679.361
1921460.0,1709208679.401
1918973.0,1709208679.44
1918065.0,1709208679.481
1917719.0,1709208679.521
1917961.0,1709208679.561
1918730.0,1709208679.601
1918807.0,1709208679.639
1918203.0,1709208679.68
1917937.0,1709208679.721
1917673.0,1709208679.76
1918219.0,1709208679.801
1919341.0,1709208679.842
1920416.0,1709208679.881
1921757.0,1709208679.921
1923257.0,1709208679.962
1924881.0,1709208680.0
1926327.0,1709208680.04
1928015.0,1709208680.081
1929823.0,1709208680.12
1932175.0,1709208680.16
1934244.0,1709208680.202
1936541.0,1709208680.241
1938493.0,1709208680.281
1940483.0,1709208680.322
1942517.0,1709208680.361
1944649.0,1709208680.4
1946574.0,1709208680.441
1946177.0,1709208680.48
1942685.0,1709208680.52
1939459.0,1709208680.562
1937805.0,1709208680.601
1936950.0,1709208680.641
1936315.0,1709208680.682
1935993.0,1709208680.721
1936269.0,1709208680.76
1936152.0,1709208680.802
1935451.0,1709208680.84
1934738.0,1709208680.88
1934986.0,1709208680.922
1935321.0,1709208680.961
1936078.0,1709208681.002
1937128.0,1709208681.042
1938183.0,1709208681.081
1939378.0,1709208681.122
1940741.0,1709208681.161
1941786.0,1709208681.201
1942991.0,1709208681.24
1944368.0,1709208681.282
1945964.0,1709208681.321
1947427.0,1709208681.361
1949068.0,1709208681.403
1950676.0,1709208681.441
1952578.0,1709208681.482
1954277.0,1709208681.521
1955855.0,1709208681.56
1957997.0,1709208681.601
1959890.0,1709208681.642
1960424.0,1709208681.681
1957185.0,1709208681.721
1953426.0,1709208681.763
1951189.0,1709208681.802
1950019.0,1709208681.842
1948823.0,1709208681.881
1948235.0,1709208681.92
1947797.0,1709208681.961
1947529.0,1709208682.003
1946780.0,1709208682.041
1945639.0,1709208682.081
1945134.0,1709208682.123
1945011.0,1709208682.162
1945534.0,1709208682.203
1945810.0,1709208682.241
1946426.0,1709208682.281
1947264.0,1709208682.321
1948153.0,1709208682.362
1948894.0,1709208682.402
1949621.0,1709208682.442
1950495.0,1709208682.483
1951715.0,1709208682.522
1952831.0,1709208682.562
1954166.0,1709208682.602
1955476.0,1709208682.641
1957004.0,1709208682.681
1958499.0,1709208682.722
1960014.0,1709208682.761
1961716.0,1709208682.802
1963244.0,1709208682.843
1964356.0,1709208682.882
1961865.0,1709208682.922
1958086.0,1709208682.963
1955350.0,1709208683.003
1953976.0,1709208683.043
1952996.0,1709208683.082
1952687.0,1709208683.121
1952704.0,1709208683.161
1952417.0,1709208683.203
1951551.0,1709208683.242
1950792.0,1709208683.282
1949923.0,1709208683.323
1950031.0,1709208683.362
1950238.0,1709208683.403
1950693.0,1709208683.442
1951622.0,1709208683.481
1952523.0,1709208683.521
1953309.0,1709208683.563
1954207.0,1709208683.603
1955106.0,1709208683.642
1956211.0,1709208683.683
1957203.0,1709208683.723
1958287.0,1709208683.763
1959668.0,1709208683.803
1961070.0,1709208683.841
1962581.0,1709208683.881
1964018.0,1709208683.923
1965702.0,1709208683.962
1967149.0,1709208684.003
1968218.0,1709208684.043
1965274.0,1709208684.083
1960603.0,1709208684.123
1957007.0,1709208684.164
1954750.0,1709208684.202
1953035.0,1709208684.241
1951085.0,1709208684.283
1950146.0,1709208684.322
1949338.0,1709208684.362
1947997.0,1709208684.404
1946119.0,1709208684.443
1944958.0,1709208684.483
1944092.0,1709208684.524
1943684.0,1709208684.561
1943747.0,1709208684.602
1944276.0,1709208684.643
1944560.0,1709208684.682
1945082.0,1709208684.722
1945400.0,1709208684.764
1946028.0,1709208684.803
1946795.0,1709208684.843
1947469.0,1709208684.884
1948485.0,1709208684.923
1949461.0,1709208684.962
1950502.0,1709208685.004
1951890.0,1709208685.042
1953090.0,1709208685.082
1954351.0,1709208685.123
1955825.0,1709208685.161
1957414.0,1709208685.201
1957994.0,1709208685.242
1953874.0,1709208685.281
1948525.0,1709208685.322
1944621.0,1709208685.363
1942249.0,1709208685.402
1940127.0,1709208685.442
1938507.0,1709208685.483
1937416.0,1709208685.522
1936340.0,1709208685.563
1934878.0,1709208685.605
1932988.0,1709208685.643
1931629.0,1709208685.684
1930962.0,1709208685.725
1930558.0,1709208685.762
1930729.0,1709208685.803
1930848.0,1709208685.843
1931356.0,1709208685.883
1931813.0,1709208685.923
1932454.0,1709208685.964
1932836.0,1709208686.004
1933578.0,1709208686.043
1934218.0,1709208686.085
1935389.0,1709208686.124
1936426.0,1709208686.162
1937571.0,1709208686.204
1939028.0,1709208686.242
1940349.0,1709208686.283
1942200.0,1709208686.324
1944037.0,1709208686.363
1944645.0,1709208686.404
1940957.0,1709208686.445
1936368.0,1709208686.484
1933167.0,1709208686.524
1931560.0,1709208686.563
1930219.0,1709208686.603
1929333.0,1709208686.643
1928994.0,1709208686.684
1928710.0,1709208686.723
1927948.0,1709208686.764
1927363.0,1709208686.805
1927178.0,1709208686.844
1927423.0,1709208686.884
1927619.0,1709208686.923
1928272.0,1709208686.963
1929392.0,1709208687.004
1930130.0,1709208687.044
1931230.0,1709208687.083
1932268.0,1709208687.124
1933371.0,1709208687.165
1934632.0,1709208687.205
1935935.0,1709208687.244
1937472.0,1709208687.286
1939087.0,1709208687.323
1940804.0,1709208687.363
1942622.0,1709208687.405
1944332.0,1709208687.443
1946295.0,1709208687.484
1948303.0,1709208687.525
1950345.0,1709208687.564
1951016.0,1709208687.605
1947816.0,1709208687.646
1944168.0,1709208687.683
1942142.0,1709208687.723
1941367.0,1709208687.764
1940511.0,1709208687.804
1939988.0,1709208687.844
1940127.0,1709208687.885
1940187.0,1709208687.924
1940040.0,1709208687.964
1939507.0,1709208688.006
1939509.0,1709208688.045
1939809.0,1709208688.085
1940763.0,1709208688.124
1941976.0,1709208688.163
1943344.0,1709208688.204
1944495.0,1709208688.245
1945727.0,1709208688.284
1947214.0,1709208688.324
1948914.0,1709208688.365
1950373.0,1709208688.405
1952045.0,1709208688.445
1953747.0,1709208688.486
1955874.0,1709208688.523
1957590.0,1709208688.564
1959623.0,1709208688.606
1961796.0,1709208688.644
1964045.0,1709208688.684
1966023.0,1709208688.726
1968275.0,1709208688.765
1969723.0,1709208688.806
1968205.0,1709208688.846
1965762.0,1709208688.883
1964844.0,1709208688.924
1964717.0,1709208688.956
1964844.0,1709208688.995
1965027.0,1709208689.035
1965974.0,1709208689.076
1966579.0,1709208689.115
1966841.0,1709208689.155
1967114.0,1709208689.197
1967286.0,1709208689.235
1968278.0,1709208689.275
1969390.0,1709208689.316
1970657.0,1709208689.355
1972040.0,1709208689.396
1973678.0,1709208689.436
1975209.0,1709208689.475
1976407.0,1709208689.516
1978080.0,1709208689.557
1979715.0,1709208689.596
1981490.0,1709208689.637
1982999.0,1709208689.678
1984728.0,1709208689.717
1986491.0,1709208689.757
1988323.0,1709208689.799
1990177.0,1709208689.837
1992032.0,1709208689.878
1993986.0,1709208689.919
1995975.0,1709208689.958
1995114.0,1709208689.999
1993406.0,1709208690.04
1992812.0,1709208690.079
1993256.0,1709208690.117
1993913.0,1709208690.158
1994796.0,1709208690.198
1995916.0,1709208690.238
1996759.0,1709208690.279
1996917.0,1709208690.318
1996979.0,1709208690.358
1997387.0,1709208690.4
1998215.0,1709208690.438
1999094.0,1709208690.478
2000166.0,1709208690.52
2001392.0,1709208690.559
2002716.0,1709208690.598
2003918.0,1709208690.638
2005092.0,1709208690.677
2006288.0,1709208690.718
2007658.0,1709208690.759
2008870.0,1709208690.799
2010416.0,1709208690.838
2011810.0,1709208690.88
2013253.0,1709208690.919
2014698.0,1709208690.959
2016319.0,1709208690.999
2018162.0,1709208691.037
2020273.0,1709208691.078
2021623.0,1709208691.119
2020260.0,1709208691.158
2017335.0,1709208691.199
2015521.0,1709208691.24
2014461.0,1709208691.279
2013700.0,1709208691.319
2012916.0,1709208691.36
2012822.0,1709208691.398
2012528.0,1709208691.438
2011841.0,1709208691.479
2010919.0,1709208691.518
2010208.0,1709208691.559
2009794.0,1709208691.601
2009750.0,1709208691.639
2010038.0,1709208691.679
2010220.0,1709208691.721
2010722.0,1709208691.758
2011132.0,1709208691.799
2011408.0,1709208691.839
2011996.0,1709208691.878
2012513.0,1709208691.919
2013080.0,1709208691.96
2013733.0,1709208692.0
2014439.0,1709208692.039
2015251.0,1709208692.081
2016057.0,1709208692.12
2017116.0,1709208692.158
2018094.0,1709208692.2
2019099.0,1709208692.238
2020244.0,1709208692.278
2021018.0,1709208692.32
2018985.0,1709208692.359
2014632.0,1709208692.4
2007720.0,1709208692.48
2010771.0,1709208692.44
2002756.0,1709208692.559
2005221.0,1709208692.52
2000944.0,1709208692.599
1997585.0,1709208692.68
1999681.0,1709208692.638
1993137.0,1709208692.759
1995234.0,1709208692.719
1991451.0,1709208692.801
1990289.0,1709208692.837
1989646.0,1709208692.879
1989371.0,1709208692.919
1989151.0,1709208692.958
1988949.0,1709208692.999
1988255.0,1709208693.04
1988082.0,1709208693.079
1987899.0,1709208693.119
1987768.0,1709208693.16
1987648.0,1709208693.2
1987838.0,1709208693.24
1988228.0,1709208693.281
1988360.0,1709208693.32
1988870.0,1709208693.358
1989519.0,1709208693.4
1990213.0,1709208693.439
1990841.0,1709208693.479
1988320.0,1709208693.52
1983519.0,1709208693.56
1979245.0,1709208693.601
1976499.0,1709208693.641
1974377.0,1709208693.68
1972772.0,1709208693.719
1971900.0,1709208693.76
1971119.0,1709208693.8
1969482.0,1709208693.839
1967816.0,1709208693.88
1966568.0,1709208693.92
1965713.0,1709208693.96
1965342.0,1709208694.002
1965231.0,1709208694.04
1965535.0,1709208694.081
1965905.0,1709208694.12
1966363.0,1709208694.159
1967046.0,1709208694.2
1967680.0,1709208694.24
1968258.0,1709208694.28
1969298.0,1709208694.32
1970274.0,1709208694.361
1971281.0,1709208694.401
1972538.0,1709208694.441
1973857.0,1709208694.482
1975192.0,1709208694.519
1976838.0,1709208694.559
1978411.0,1709208694.601
1977945.0,1709208694.64
1974274.0,1709208694.68
1970647.0,1709208694.721
1968269.0,1709208694.76
1966556.0,1709208694.801
1965312.0,1709208694.842
1964230.0,1709208694.879
1964037.0,1709208694.919
1963736.0,1709208694.961
1962973.0,1709208695.0
1962103.0,1709208695.04
1961740.0,1709208695.081
1961806.0,1709208695.12
1962331.0,1709208695.161
1963034.0,1709208695.203
1964040.0,1709208695.241
1964983.0,1709208695.279
1965860.0,1709208695.32
1967015.0,1709208695.36
1968221.0,1709208695.398
1969516.0,1709208695.439
1971003.0,1709208695.478
1972402.0,1709208695.518
1973884.0,1709208695.559
1976190.0,1709208695.599
1978199.0,1709208695.638
1980238.0,1709208695.679
1982269.0,1709208695.718
1984583.0,1709208695.758
1986414.0,1709208695.8
1985230.0,1709208695.838
1981891.0,1709208695.878
1979602.0,1709208695.92
1978511.0,1709208695.959
1977618.0,1709208695.999
1976808.0,1709208696.04
1976836.0,1709208696.079
1976981.0,1709208696.12
1976702.0,1709208696.161
1976320.0,1709208696.2
1976117.0,1709208696.24
1976223.0,1709208696.281
1976658.0,1709208696.32
1977251.0,1709208696.361
1978121.0,1709208696.403
1979219.0,1709208696.441
1980232.0,1709208696.481
1981389.0,1709208696.523
1982466.0,1709208696.56
1983560.0,1709208696.601
1984900.0,1709208696.641
1986142.0,1709208696.68
1987529.0,1709208696.721
1989111.0,1709208696.762
1990553.0,1709208696.802
1992191.0,1709208696.841
1993724.0,1709208696.883
1995500.0,1709208696.922
1997203.0,1709208696.96
1997775.0,1709208697.002
1995184.0,1709208697.04
1992722.0,1709208697.081
1991425.0,1709208697.122
1990623.0,1709208697.161
1990193.0,1709208697.202
1990364.0,1709208697.243
1990599.0,1709208697.282
1990657.0,1709208697.322
1990200.0,1709208697.361
1989697.0,1709208697.401
1989503.0,1709208697.441
1989755.0,1709208697.482
1990334.0,1709208697.521
1991220.0,1709208697.562
1992022.0,1709208697.603
1993029.0,1709208697.642
1993967.0,1709208697.682
1995534.0,1709208697.721
1996992.0,1709208697.761
1998419.0,1709208697.802
1999936.0,1709208697.842
2001504.0,1709208697.881
2002758.0,1709208697.921
2003973.0,1709208697.96
2005363.0,1709208698.001
2006808.0,1709208698.041
2008242.0,1709208698.081
2009124.0,1709208698.12
2006604.0,1709208698.161
2002817.0,1709208698.203
1999934.0,1709208698.241
1998125.0,1709208698.281
1996682.0,1709208698.323
1995199.0,1709208698.362
1994498.0,1709208698.403
1993886.0,1709208698.443
1992972.0,1709208698.483
1991228.0,1709208698.521
1989790.0,1709208698.562
1989196.0,1709208698.602
1988983.0,1709208698.641
1988725.0,1709208698.683
1988888.0,1709208698.722
1989145.0,1709208698.762
1989526.0,1709208698.804
1989983.0,1709208698.843
1990518.0,1709208698.881
1990862.0,1709208698.922
1991542.0,1709208698.961
1992316.0,1709208699.002
1993078.0,1709208699.043
1993807.0,1709208699.082
1994825.0,1709208699.122
1996001.0,1709208699.163
1997155.0,1709208699.203
1998426.0,1709208699.243
1999121.0,1709208699.282
1996716.0,1709208699.321
1991442.0,1709208699.362
1986655.0,1709208699.404
1983221.0,1709208699.442
1980491.0,1709208699.482
1978308.0,1709208699.524
1976617.0,1709208699.563
1975019.0,1709208699.604
1973554.0,1709208699.642
1970913.0,1709208699.681
1968951.0,1709208699.722
1967305.0,1709208699.763
1966382.0,1709208699.803
1965772.0,1709208699.842
1965620.0,1709208699.884
1965628.0,1709208699.923
1965699.0,1709208699.963
1965953.0,1709208700.003
1966210.0,1709208700.042
1966604.0,1709208700.082
1966914.0,1709208700.123
1967452.0,1709208700.162
1968176.0,1709208700.203
1969070.0,1709208700.244
1969942.0,1709208700.283
1971065.0,1709208700.323
1972107.0,1709208700.364
1973319.0,1709208700.402
1974820.0,1709208700.442
1974963.0,1709208700.483
1970642.0,1709208700.522
1964973.0,1709208700.562
1960976.0,1709208700.604
1958003.0,1709208700.643
1955836.0,1709208700.683
1954202.0,1709208700.724
1953382.0,1709208700.763
1952161.0,1709208700.804
1950210.0,1709208700.843
1947966.0,1709208700.882
1946373.0,1709208700.922
1945283.0,1709208700.969
1944880.0,1709208701.009
1944648.0,1709208701.048
1944897.0,1709208701.089
1945171.0,1709208701.128
1945674.0,1709208701.169
1946309.0,1709208701.21
1946603.0,1709208701.249
1947430.0,1709208701.289
1947943.0,1709208701.33
1948947.0,1709208701.369
1950011.0,1709208701.41
1951088.0,1709208701.45
1952347.0,1709208701.489
1953853.0,1709208701.53
1953488.0,1709208701.571
1949064.0,1709208701.609
1944366.0,1709208701.648
1941429.0,1709208701.69
1939240.0,1709208701.729
1937470.0,1709208701.769
1936452.0,1709208701.811
1935731.0,1709208701.849
1934729.0,1709208701.89
1933196.0,1709208701.931
1931625.0,1709208701.97
1930613.0,1709208702.009
1930311.0,1709208702.049
1930680.0,1709208702.089
1931024.0,1709208702.129
1931681.0,1709208702.17
1932426.0,1709208702.21
1933424.0,1709208702.25
1934406.0,1709208702.291
1935501.0,1709208702.33
1936574.0,1709208702.37
1937461.0,1709208702.41
1938905.0,1709208702.449
1940397.0,1709208702.489
1941723.0,1709208702.53
1943460.0,1709208702.569
1945197.0,1709208702.611
1946943.0,1709208702.651
1946821.0,1709208702.69
1942579.0,1709208702.73
1938348.0,1709208702.77
1935646.0,1709208702.81
1934103.0,1709208702.849
1932604.0,1709208702.89
1931362.0,1709208702.93
1930899.0,1709208702.97
1930133.0,1709208703.012
1928924.0,1709208703.05
1927557.0,1709208703.088
1926770.0,1709208703.13
1926259.0,1709208703.169
1926439.0,1709208703.21
1926913.0,1709208703.25
1927571.0,1709208703.289
1928465.0,1709208703.329
1929412.0,1709208703.37
1930277.0,1709208703.41
1931204.0,1709208703.45
1932277.0,1709208703.491
1933324.0,1709208703.53
1934508.0,1709208703.571
1935858.0,1709208703.611
1937432.0,1709208703.649
1939372.0,1709208703.689
1941770.0,1709208703.731
1943936.0,1709208703.77
1944773.0,1709208703.811
1941365.0,1709208703.851
1937722.0,1709208703.891
1935751.0,1709208703.931
1934560.0,1709208703.972
1934159.0,1709208704.01
1934387.0,1709208704.049
1934764.0,1709208704.091
1934666.0,1709208704.13
1933928.0,1709208704.17
1933581.0,1709208704.212
1933646.0,1709208704.251
1934186.0,1709208704.291
1935141.0,1709208704.332
1936411.0,1709208704.371
1937651.0,1709208704.41
1939184.0,1709208704.45
1940399.0,1709208704.49
1941930.0,1709208704.53
1943379.0,1709208704.571
1945004.0,1709208704.611
1946708.0,1709208704.651
1948444.0,1709208704.692
1950357.0,1709208704.731
1952161.0,1709208704.769
1954163.0,1709208704.811
1956236.0,1709208704.85
1958525.0,1709208704.89
1960192.0,1709208704.931
1958726.0,1709208704.971
1955068.0,1709208705.012
1952173.0,1709208705.052
1950786.0,1709208705.091
1950153.0,1709208705.13
1949524.0,1709208705.171
1949524.0,1709208705.211
1950209.0,1709208705.25
1950645.0,1709208705.292
1950603.0,1709208705.331
1950706.0,1709208705.371
1950715.0,1709208705.413
1951516.0,1709208705.451
1952306.0,1709208705.492
1953325.0,1709208705.531
1954530.0,1709208705.57
1955866.0,1709208705.611
1956992.0,1709208705.65
1958407.0,1709208705.689
1959850.0,1709208705.729
1961209.0,1709208705.771
1962873.0,1709208705.811
1964484.0,1709208705.85
1966288.0,1709208705.891
1968120.0,1709208705.931
1969976.0,1709208705.971
1971931.0,1709208706.013
1973813.0,1709208706.051
1975700.0,1709208706.092
1976698.0,1709208706.133
1973764.0,1709208706.172
1970519.0,1709208706.211
1968869.0,1709208706.251
1968188.0,1709208706.291
1968040.0,1709208706.331
1967861.0,1709208706.372
1968438.0,1709208706.412
1968627.0,1709208706.452
1967916.0,1709208706.493
1967410.0,1709208706.532
1967208.0,1709208706.57
1967345.0,1709208706.612
1967738.0,1709208706.651
1968560.0,1709208706.691
1969371.0,1709208706.732
1970500.0,1709208706.771
1971568.0,1709208706.812
1972540.0,1709208706.853
1973721.0,1709208706.892
1974889.0,1709208706.932
1976095.0,1709208706.972
1977267.0,1709208707.011
1978822.0,1709208707.051
1980163.0,1709208707.092
1981936.0,1709208707.131
1983447.0,1709208707.172
1983710.0,1709208707.214
1980603.0,1709208707.252
1976603.0,1709208707.292
1974027.0,1709208707.334
1972850.0,1709208707.371
1972080.0,1709208707.412
1971681.0,1709208707.452
1971608.0,1709208707.491
1971099.0,1709208707.532
1970107.0,1709208707.573
1968893.0,1709208707.613
1968198.0,1709208707.653
1968155.0,1709208707.694
1968440.0,1709208707.731
1968844.0,1709208707.771
1969625.0,1709208707.813
1970311.0,1709208707.852
1971129.0,1709208707.892
1971894.0,1709208707.933
1972850.0,1709208707.972
1973591.0,1709208708.013
1974619.0,1709208708.054
1975813.0,1709208708.093
1976986.0,1709208708.131
1978134.0,1709208708.172
1979629.0,1709208708.212
1981000.0,1709208708.251
1982395.0,1709208708.293
1980285.0,1709208708.332
1974691.0,1709208708.372
1969341.0,1709208708.414
1965714.0,1709208708.452
1963094.0,1709208708.493
1960766.0,1709208708.534
1958964.0,1709208708.571
1957481.0,1709208708.612
1956109.0,1709208708.653
1953743.0,1709208708.692
1951477.0,1709208708.732
1949705.0,1709208708.773
1948823.0,1709208708.813
1948399.0,1709208708.853
1948140.0,1709208708.894
1948332.0,1709208708.933
1948564.0,1709208708.971
1948869.0,1709208709.013
1949238.0,1709208709.052
1949592.0,1709208709.092
1950151.0,1709208709.133
1950957.0,1709208709.173
1951764.0,1709208709.214
1952856.0,1709208709.254
1954988.0,1709208709.333
1957718.0,1709208709.412
1956402.0,1709208709.373
1953961.0,1709208709.293
1950538.0,1709208709.532
1944444.0,1709208709.573
1959094.0,1709208709.452
1957160.0,1709208709.493
1939947.0,1709208709.615
1936829.0,1709208709.653
1933969.0,1709208709.694
1932289.0,1709208709.733
1931335.0,1709208709.772
1929865.0,1709208709.813
1928148.0,1709208709.853
1926044.0,1709208709.893
1924416.0,1709208709.933
1923470.0,1709208709.974
1923066.0,1709208710.014
1922852.0,1709208710.054
1922944.0,1709208710.095
1923437.0,1709208710.132
1923739.0,1709208710.172
1924115.0,1709208710.214
1924669.0,1709208710.253
1925265.0,1709208710.293
1926086.0,1709208710.334
1926970.0,1709208710.373
1928040.0,1709208710.414
1929346.0,1709208710.455
1930807.0,1709208710.494
1932119.0,1709208710.532
1933660.0,1709208710.573
1934615.0,1709208710.613
1931322.0,1709208710.653
1924931.0,1709208710.694
1920386.0,1709208710.733
1917727.0,1709208710.771
1916054.0,1709208710.814
1915130.0,1709208710.852
1914888.0,1709208710.892
1914575.0,1709208710.933
1913217.0,1709208710.972
1911711.0,1709208711.013
1910753.0,1709208711.054
1910430.0,1709208711.093
1910655.0,1709208711.133
1911334.0,1709208711.175
1912270.0,1709208711.215
1913457.0,1709208711.254
1914577.0,1709208711.295
1915864.0,1709208711.332
1917083.0,1709208711.373
1918324.0,1709208711.415
1919806.0,1709208711.453
1921354.0,1709208711.493
1923007.0,1709208711.535
1924735.0,1709208711.574
1926713.0,1709208711.615
1928739.0,1709208711.656
1931014.0,1709208711.693
1931324.0,1709208711.733
1926936.0,1709208711.774
1921990.0,1709208711.814
1918861.0,1709208711.854
1916997.0,1709208711.895
1915589.0,1709208711.934
1915119.0,1709208711.974
1914935.0,1709208712.016
1914918.0,1709208712.055
1914161.0,1709208712.093
1913332.0,1709208712.134
1912853.0,1709208712.173
1913009.0,1709208712.214
1913704.0,1709208712.255
1914657.0,1709208712.294
1915810.0,1709208712.334
1917244.0,1709208712.375
1918697.0,1709208712.415
1920073.0,1709208712.455
1921595.0,1709208712.494
1923263.0,1709208712.533
1924831.0,1709208712.574
1926684.0,1709208712.616
1928530.0,1709208712.654
1930554.0,1709208712.694
1932690.0,1709208712.736
1934902.0,1709208712.775
1936985.0,1709208712.814
1939165.0,1709208712.854
1941378.0,1709208712.893
1942238.0,1709208712.934
1938648.0,1709208712.973
1934335.0,1709208713.012
1932080.0,1709208713.051
1931017.0,1709208713.09
1930300.0,1709208713.129
1929730.0,1709208713.168
1929938.0,1709208713.207
1930129.0,1709208713.246
1929410.0,1709208713.285
1928751.0,1709208713.324
1928402.0,1709208713.363
1928654.0,1709208713.402
1929209.0,1709208713.441
1930376.0,1709208713.48
1931256.0,1709208713.519
1932562.0,1709208713.558
1933938.0,1709208713.597
1935314.0,1709208713.636
1936319.0,1709208713.675
1937692.0,1709208713.714
1939152.0,1709208713.753
1940621.0,1709208713.792
1942128.0,1709208713.831
1944029.0,1709208713.87
1945779.0,1709208713.909
1947353.0,1709208713.948
1949424.0,1709208713.987
1951402.0,1709208714.026
1952597.0,1709208714.065
1950098.0,1709208714.104
1945986.0,1709208714.143
1943304.0,1709208714.182
1941858.0,1709208714.222
1941342.0,1709208714.262
1940625.0,1709208714.302
1940666.0,1709208714.342
1940724.0,1709208714.382
1939888.0,1709208714.422
1938934.0,1709208714.462
1938419.0,1709208714.502
1938245.0,1709208714.542
1938561.0,1709208714.582
1939074.0,1709208714.622
1939971.0,1709208714.662
1940585.0,1709208714.702
1941538.0,1709208714.742
1942601.0,1709208714.782
1943701.0,1709208714.822
1944586.0,1709208714.862
1945772.0,1709208714.902
1946984.0,1709208714.942
1948445.0,1709208714.982
1949707.0,1709208715.022
1951355.0,1709208715.062
1952804.0,1709208715.102
1954598.0,1709208715.142
1956123.0,1709208715.182
1956740.0,1709208715.222
1953188.0,1709208715.262
1948634.0,1709208715.302
1945421.0,1709208715.342
1943540.0,1709208715.382
1941946.0,1709208715.422
1940536.0,1709208715.462
1940287.0,1709208715.502
1939657.0,1709208715.542
1938612.0,1709208715.582
1937115.0,1709208715.622
1936431.0,1709208715.662
1936083.0,1709208715.702
1936011.0,1709208715.742
1936702.0,1709208715.782
1937243.0,1709208715.822
1938242.0,1709208715.862
1938909.0,1709208715.902
1939791.0,1709208715.942
1940949.0,1709208715.982
1941845.0,1709208716.022
1943192.0,1709208716.062
1944462.0,1709208716.102
1946024.0,1709208716.142
1947582.0,1709208716.182
1949222.0,1709208716.222
1950781.0,1709208716.262
1952781.0,1709208716.302
1954584.0,1709208716.342
1956288.0,1709208716.382
1955420.0,1709208716.422
1952008.0,1709208716.462
1949119.0,1709208716.502
1948017.0,1709208716.542
1947026.0,1709208716.582
1946760.0,1709208716.622
1947064.0,1709208716.662
1947465.0,1709208716.702
1947686.0,1709208716.742
1947701.0,1709208716.782
1947866.0,1709208716.822
1948355.0,1709208716.862
1949259.0,1709208716.902
1949992.0,1709208716.942
1951128.0,1709208716.982
1952370.0,1709208717.022
1953592.0,1709208717.062
1955027.0,1709208717.102
1956535.0,1709208717.142
1958068.0,1709208717.182
1959522.0,1709208717.222
1961168.0,1709208717.262
1963157.0,1709208717.302
1964897.0,1709208717.342
1966729.0,1709208717.382
1968769.0,1709208717.422
1971089.0,1709208717.462
1972947.0,1709208717.502
1974034.0,1709208717.542
1972035.0,1709208717.582
1969983.0,1709208717.622
1969000.0,1709208717.662
1968943.0,1709208717.702
1968923.0,1709208717.742
1969390.0,1709208717.782
1970400.0,1709208717.822
1970974.0,1709208717.862
1971461.0,1709208717.902
1971533.0,1709208717.942
1972082.0,1709208717.982
1973179.0,1709208718.022
1974281.0,1709208718.062
1975833.0,1709208718.102
1977306.0,1709208718.142
1978886.0,1709208718.182
1980475.0,1709208718.222
1982104.0,1709208718.262
1983636.0,1709208718.302
1985368.0,1709208718.342
1987078.0,1709208718.382
1989040.0,1709208718.422
1991075.0,1709208718.462
1992871.0,1709208718.502
1994705.0,1709208718.542
1996645.0,1709208718.582
1998942.0,1709208718.622
2000962.0,1709208718.662
2002986.0,1709208718.702
2004365.0,1709208718.742
2002651.0,1709208718.782
2000999.0,1709208718.822
2000226.0,1709208718.862
2000217.0,1709208718.902
2000009.0,1709208718.942
2000391.0,1709208718.982
2001083.0,1709208719.022
2001726.0,1709208719.062
2001866.0,1709208719.102
2001993.0,1709208719.142
2002292.0,1709208719.182
2002638.0,1709208719.222
2003468.0,1709208719.262
2004335.0,1709208719.302
2005529.0,1709208719.342
2006851.0,1709208719.382
2007969.0,1709208719.422
2009049.0,1709208719.462
2009959.0,1709208719.502
2011338.0,1709208719.542
2012388.0,1709208719.582
2013758.0,1709208719.622
2015203.0,1709208719.662
2016340.0,1709208719.702
2017922.0,1709208719.742
2019272.0,1709208719.782
2020789.0,1709208719.822
2022427.0,1709208719.862
2022161.0,1709208719.902
2019245.0,1709208719.942
2016999.0,1709208719.982
2015488.0,1709208720.022
2014488.0,1709208720.062
2013818.0,1709208720.102
2013790.0,1709208720.142
2013849.0,1709208720.182
2013049.0,1709208720.222
2012110.0,1709208720.262
2011211.0,1709208720.302
2010703.0,1709208720.342
2010405.0,1709208720.382
2010500.0,1709208720.422
2010915.0,1709208720.462
2011175.0,1709208720.502
2011600.0,1709208720.542
2011999.0,1709208720.582
2012496.0,1709208720.622
2013225.0,1709208720.662
2013697.0,1709208720.702
2014308.0,1709208720.742
2015056.0,1709208720.782
2015842.0,1709208720.822
2017005.0,1709208720.862
2017701.0,1709208720.902
2018764.0,1709208720.942
2020047.0,1709208720.982
2020761.0,1709208721.022
2018455.0,1709208721.062
2012964.0,1709208721.102
2007640.0,1709208721.142
2003843.0,1709208721.182
2000484.0,1709208721.222
1997442.0,1709208721.262
1994902.0,1709208721.302
1992945.0,1709208721.342
1990502.0,1709208721.382
1987549.0,1709208721.422
1984725.0,1709208721.462
1982286.0,1709208721.502
1980484.0,1709208721.542
1978953.0,1709208721.582
1978060.0,1709208721.622
1977016.0,1709208721.662
1976662.0,1709208721.702
1976351.0,1709208721.742
1975862.0,1709208721.782
1975690.0,1709208721.822
1975887.0,1709208721.862
1976333.0,1709208721.902
1976637.0,1709208721.942
1977064.0,1709208721.982
1977339.0,1709208722.022
1977761.0,1709208722.062
1978301.0,1709208722.102
1979249.0,1709208722.142
1980061.0,1709208722.182
1979059.0,1709208722.222
1972953.0,1709208722.262
1965325.0,1709208722.302
1959015.0,1709208722.342
1954589.0,1709208722.382
1950766.0,1709208722.422
1947516.0,1709208722.462
1945076.0,1709208722.502
1943034.0,1709208722.542
1940389.0,1709208722.582
1937154.0,1709208722.622
1934719.0,1709208722.662
1932665.0,1709208722.702
1931444.0,1709208722.742
1930858.0,1709208722.782
1930538.0,1709208722.822
1930430.0,1709208722.862
1930539.0,1709208722.902
1930759.0,1709208722.942
1931125.0,1709208722.982
1931522.0,1709208723.022
1932031.0,1709208723.062
1932716.0,1709208723.102
1933638.0,1709208723.142
1934759.0,1709208723.182
1935710.0,1709208723.222
1937069.0,1709208723.262
1938689.0,1709208723.302
1939076.0,1709208723.342
1934291.0,1709208723.382
1928366.0,1709208723.422
1923758.0,1709208723.462
1921015.0,1709208723.502
1919359.0,1709208723.542
1918532.0,1709208723.582
1918441.0,1709208723.622
1918183.0,1709208723.662
1916886.0,1709208723.702
1915697.0,1709208723.742
1914939.0,1709208723.782
1914746.0,1709208723.822
1915377.0,1709208723.862
1916285.0,1709208723.902
1917484.0,1709208723.942
1918783.0,1709208723.982
1920164.0,1709208724.022
1921891.0,1709208724.062
1923184.0,1709208724.102
1924834.0,1709208724.142
1926549.0,1709208724.182
1928578.0,1709208724.222
1930374.0,1709208724.262
1934721.0,1709208724.342
1932584.0,1709208724.302
1939126.0,1709208724.422
1936819.0,1709208724.382
1938267.0,1709208724.462
1933634.0,1709208724.502
1929567.0,1709208724.542
1927551.0,1709208724.582
1926354.0,1709208724.622
1925601.0,1709208724.662
1925557.0,1709208724.702
1925882.0,1709208724.742
1926098.0,1709208724.782
1925547.0,1709208724.822
1925443.0,1709208724.862
1925549.0,1709208724.902
1926224.0,1709208724.945
1927545.0,1709208724.985
1928921.0,1709208725.025
1930714.0,1709208725.066
1932512.0,1709208725.105
1934159.0,1709208725.145
1935835.0,1709208725.186
1937830.0,1709208725.225
1939630.0,1709208725.265
1941571.0,1709208725.306
1943881.0,1709208725.345
1946035.0,1709208725.386
1948275.0,1709208725.426
1950472.0,1709208725.465
1953140.0,1709208725.505
1955495.0,1709208725.546
1956649.0,1709208725.586
1953544.0,1709208725.626
1950389.0,1709208725.667
1948442.0,1709208725.706
1947528.0,1709208725.746
1947251.0,1709208725.788
1947261.0,1709208725.826
1947498.0,1709208725.866
1947838.0,1709208725.907
1948126.0,1709208725.946
1947773.0,1709208725.987
1948083.0,1709208726.027
1948451.0,1709208726.067
1949432.0,1709208726.107
1950614.0,1709208726.148
1951945.0,1709208726.187
1953629.0,1709208726.227
1955255.0,1709208726.268
1956973.0,1709208726.307
1958258.0,1709208726.347
1959959.0,1709208726.389
1961523.0,1709208726.427
1963331.0,1709208726.467
1965372.0,1709208726.508
1967221.0,1709208726.547
1969361.0,1709208726.588
1971688.0,1709208726.629
1973982.0,1709208726.668
1976087.0,1709208726.708
1977142.0,1709208726.749
1974846.0,1709208726.789
1971587.0,1709208726.828
1969435.0,1709208726.869
1968366.0,1709208726.908
1967908.0,1709208726.948
1967558.0,1709208726.99
1967696.0,1709208727.068
1967563.0,1709208727.11
1966851.0,1709208727.149
1966606.0,1709208727.189
1967812.0,1709208727.028
1966950.0,1709208727.269
1966602.0,1709208727.23
1967666.0,1709208727.309
1969760.0,1709208727.39
1968597.0,1709208727.35
1970734.0,1709208727.429
1971790.0,1709208727.47
1972801.0,1709208727.509
1975223.0,1709208727.591
1973864.0,1709208727.549
1977837.0,1709208727.67
1976364.0,1709208727.629
1979114.0,1709208727.711
1980713.0,1709208727.75
1983980.0,1709208727.831
1982212.0,1709208727.79
1985222.0,1709208727.87
1983683.0,1709208727.91
1979061.0,1709208727.951
1975252.0,1709208727.991
1970757.0,1709208728.071
1972759.0,1709208728.03
1969062.0,1709208728.11
1968171.0,1709208728.15
1967074.0,1709208728.192
1965817.0,1709208728.231
1964061.0,1709208728.271
1962501.0,1709208728.312
1961437.0,1709208728.351
1960910.0,1709208728.392
1960639.0,1709208728.432
1960682.0,1709208728.471
1960756.0,1709208728.511
1961066.0,1709208728.552
1961336.0,1709208728.592
1961645.0,1709208728.631
1962828.0,1709208728.712
1962005.0,1709208728.672
1963310.0,1709208728.752
1963975.0,1709208728.793
1964970.0,1709208728.832
1966017.0,1709208728.872
1967416.0,1709208728.913
1968876.0,1709208728.952
1972196.0,1709208729.033
1970685.0,1709208728.993
1967042.0,1709208729.112
1971434.0,1709208729.072
1962390.0,1709208729.153
1959325.0,1709208729.193
1955882.0,1709208729.274
1957278.0,1709208729.233
1955318.0,1709208729.313
1955921.0,1709208729.353
1955991.0,1709208729.395
1955745.0,1709208729.433
1955512.0,1709208729.473
1955463.0,1709208729.514
1956258.0,1709208729.553
1957283.0,1709208729.594
1958654.0,1709208729.634
1960148.0,1709208729.673
1961758.0,1709208729.713
1963564.0,1709208729.754
1965192.0,1709208729.794
1966526.0,1709208729.834
1968089.0,1709208729.875
1969705.0,1709208729.914
1971418.0,1709208729.954
1973236.0,1709208729.995
1975114.0,1709208730.034
1977167.0,1709208730.074
1979399.0,1709208730.115
1981718.0,1709208730.154
1982585.0,1709208730.195
1979600.0,1709208730.235
1976292.0,1709208730.274
1974451.0,1709208730.314
1973444.0,1709208730.355
1972711.0,1709208730.395
1972803.0,1709208730.434
1973607.0,1709208730.475
1974159.0,1709208730.514
1974099.0,1709208730.554
1974196.0,1709208730.596
1974762.0,1709208730.635
1975912.0,1709208730.675
1977249.0,1709208730.716
1978890.0,1709208730.755
1981056.0,1709208730.796
1983081.0,1709208730.836
1985239.0,1709208730.875
1987340.0,1709208730.915
1989168.0,1709208730.956
1991663.0,1709208730.996
1994075.0,1709208731.035
1996516.0,1709208731.076
1998917.0,1709208731.115
2001507.0,1709208731.156
2004036.0,1709208731.197
2006558.0,1709208731.236
2009091.0,1709208731.276
2011854.0,1709208731.317
2014444.0,1709208731.356
2016595.0,1709208731.397
2015146.0,1709208731.437
2012745.0,1709208731.476
2011595.0,1709208731.516
2011049.0,1709208731.557
2010767.0,1709208731.597
2011024.0,1709208731.636
2011601.0,1709208731.677
2012405.0,1709208731.717
2012567.0,1709208731.757
2012596.0,1709208731.798
2012650.0,1709208731.837
2013387.0,1709208731.877
2013988.0,1709208731.918
2015141.0,1709208731.957
2016256.0,1709208731.998
2017646.0,1709208732.038
2019250.0,1709208732.077
2020392.0,1709208732.117
2021876.0,1709208732.158
2023353.0,1709208732.198
2025197.0,1709208732.237
2026652.0,1709208732.278
2028447.0,1709208732.317
2030355.0,1709208732.357
2032202.0,1709208732.399
2034101.0,1709208732.437
2036016.0,1709208732.478
2038017.0,1709208732.519
2040117.0,1709208732.558
2041559.0,1709208732.598
2040001.0,1709208732.639
2037983.0,1709208732.678
2036914.0,1709208732.718
2036498.0,1709208732.759
2036587.0,1709208732.799
2036873.0,1709208732.838
2037925.0,1709208732.879
2038489.0,1709208732.918
2038838.0,1709208732.958
2038926.0,1709208733.0
2039236.0,1709208733.038
2039805.0,1709208733.078
2040876.0,1709208733.119
2041917.0,1709208733.158
2043121.0,1709208733.199
2044341.0,1709208733.239
2045630.0,1709208733.278
2046759.0,1709208733.319
2048005.0,1709208733.36
2049131.0,1709208733.399
2050423.0,1709208733.439
2051677.0,1709208733.48
2053168.0,1709208733.519
2054794.0,1709208733.559
2056156.0,1709208733.601
2057780.0,1709208733.639
2059163.0,1709208733.679
2060950.0,1709208733.72
2062585.0,1709208733.759
2062618.0,1709208733.8
2059329.0,1709208733.84
2055729.0,1709208733.879
2053304.0,1709208733.92
2051387.0,1709208733.961
2049573.0,1709208734.0
2048183.0,1709208734.04
2047403.0,1709208734.081
2046325.0,1709208734.12
2044680.0,1709208734.16
2043167.0,1709208734.202
2041618.0,1709208734.24
2040715.0,1709208734.28
2039961.0,1709208734.321
2039787.0,1709208734.36
2039623.0,1709208734.401
2039460.0,1709208734.442
2039423.0,1709208734.481
2039323.0,1709208734.521
2039556.0,1709208734.562
2039815.0,1709208734.601
2040050.0,1709208734.641
2040408.0,1709208734.682
2041141.0,1709208734.721
2041483.0,1709208734.761
2042374.0,1709208734.803
2042866.0,1709208734.841
2043866.0,1709208734.881
2044590.0,1709208734.922
2045591.0,1709208734.961
2045845.0,1709208735.002
2042025.0,1709208735.042
2035762.0,1709208735.081
2030163.0,1709208735.121
2025452.0,1709208735.163
2021458.0,1709208735.202
2017947.0,1709208735.242
2015372.0,1709208735.283
2012933.0,1709208735.322
2010317.0,1709208735.362
2006670.0,1709208735.404
2003675.0,1709208735.442
2001144.0,1709208735.482
1999116.0,1709208735.523
1997577.0,1709208735.562
1996569.0,1709208735.603
1995659.0,1709208735.643
1994908.0,1709208735.682
1994481.0,1709208735.722
1993914.0,1709208735.764
1993618.0,1709208735.803
1993232.0,1709208735.843
1993287.0,1709208735.884
1993611.0,1709208735.923
1993833.0,1709208735.963
1994436.0,1709208736.005
1995081.0,1709208736.043
1995840.0,1709208736.083
1997905.0,1709208736.163
1996874.0,1709208736.124
1998597.0,1709208736.204
1995320.0,1709208736.244
1989154.0,1709208736.283
1983749.0,1709208736.324
1979913.0,1709208736.365
1974722.0,1709208736.444
1977130.0,1709208736.404
1973602.0,1709208736.485
1972449.0,1709208736.524
1970841.0,1709208736.564
1969055.0,1709208736.606
1967328.0,1709208736.644
1966532.0,1709208736.684
1966309.0,1709208736.725
1966244.0,1709208736.764
1966894.0,1709208736.805
1968047.0,1709208736.845
1969248.0,1709208736.884
1970214.0,1709208736.925
1971857.0,1709208737.016
1973385.0,1709208737.055
1974636.0,1709208737.095
1976412.0,1709208737.136
1978967.0,1709208737.175
1981452.0,1709208737.215
1984678.0,1709208737.257
1987663.0,1709208737.295
1990417.0,1709208737.335
1993536.0,1709208737.376
1996225.0,1709208737.415
1996572.0,1709208737.456
1992997.0,1709208737.497
1989814.0,1709208737.536
1987531.0,1709208737.576
1986256.0,1709208737.618
1985632.0,1709208737.651
1985611.0,1709208737.689
1985915.0,1709208737.73
1986289.0,1709208737.769
1986069.0,1709208737.809
1985777.0,1709208737.851
1985623.0,1709208737.89
1986369.0,1709208737.93
1987457.0,1709208737.971
1988730.0,1709208738.01
1990120.0,1709208738.05
1991859.0,1709208738.09
1993443.0,1709208738.129
1995281.0,1709208738.17
1996875.0,1709208738.211
1998568.0,1709208738.251
2000439.0,1709208738.29
2002489.0,1709208738.331
2004613.0,1709208738.371
2006780.0,1709208738.409
2009067.0,1709208738.451
2011722.0,1709208738.489
2014173.0,1709208738.53
2016801.0,1709208738.571
2019390.0,1709208738.61
2018835.0,1709208738.651
2015563.0,1709208738.692
2013291.0,1709208738.729
2012210.0,1709208738.769
2011171.0,1709208738.85
2011633.0,1709208738.81
2011432.0,1709208738.89
2011742.0,1709208738.933
2011722.0,1709208738.968
2011404.0,1709208739.009
2011285.0,1709208739.051
2011692.0,1709208739.089
2012079.0,1709208739.13
2013028.0,1709208739.171
2014129.0,1709208739.21
2015566.0,1709208739.251
2016915.0,1709208739.292
2018268.0,1709208739.331
2019487.0,1709208739.371
2021038.0,1709208739.41
2022528.0,1709208739.45
2024044.0,1709208739.49
2025964.0,1709208739.531
2027783.0,1709208739.57
2029542.0,1709208739.611
2031413.0,1709208739.653
2033213.0,1709208739.691
2035224.0,1709208739.73
2037347.0,1709208739.771
2038759.0,1709208739.81
2036866.0,1709208739.851
2034163.0,1709208739.891
2032580.0,1709208739.931
2031629.0,1709208739.971
2030922.0,1709208740.012
2030899.0,1709208740.052
2031502.0,1709208740.09
2031829.0,1709208740.131
2031407.0,1709208740.17
2031118.0,1709208740.21
2031139.0,1709208740.252
2031388.0,1709208740.291
2031954.0,1709208740.331
2032678.0,1709208740.372
2033861.0,1709208740.411
2034960.0,1709208740.451
2035928.0,1709208740.491
2037164.0,1709208740.53
2038308.0,1709208740.571
2039480.0,1709208740.612
2040713.0,1709208740.652
2041999.0,1709208740.692
2043543.0,1709208740.733
2045022.0,1709208740.77
2046575.0,1709208740.81
2048189.0,1709208740.852
2050311.0,1709208740.931
2047545.0,1709208740.972
2049931.0,1709208740.89
2044696.0,1709208741.011
2042500.0,1709208741.052
2041090.0,1709208741.093
2040311.0,1709208741.13
2039721.0,1709208741.17
2039798.0,1709208741.211
2039550.0,1709208741.251
2038738.0,1709208741.291
2038073.0,1709208741.332
2037669.0,1709208741.371
2037535.0,1709208741.412
2037837.0,1709208741.454
2038451.0,1709208741.489
2039002.0,1709208741.53
2040115.0,1709208741.571
2040841.0,1709208741.611
2041856.0,1709208741.652
2043548.0,1709208741.731
2044619.0,1709208741.772
2042623.0,1709208741.692
2045981.0,1709208741.813
2047447.0,1709208741.853
2048758.0,1709208741.89
2050071.0,1709208741.931
2051729.0,1709208741.971
2053334.0,1709208742.011
2054773.0,1709208742.053
2056361.0,1709208742.091
2056648.0,1709208742.132
2053383.0,1709208742.173
2049521.0,1709208742.212
2046462.0,1709208742.251
2044257.0,1709208742.292
2041218.0,1709208742.371
2040363.0,1709208742.412
2039488.0,1709208742.452
2038421.0,1709208742.492
2036763.0,1709208742.533
2035390.0,1709208742.572
2034758.0,1709208742.611
2034473.0,1709208742.652
2034199.0,1709208742.691
2034674.0,1709208742.773
2034305.0,1709208742.731
2042608.0,1709208742.331
2034992.0,1709208742.812
2035277.0,1709208742.853
2035687.0,1709208742.893
2036184.0,1709208742.932
2036835.0,1709208742.971
2037618.0,1709208743.012
2038361.0,1709208743.052
2039595.0,1709208743.092
2040780.0,1709208743.133
2041644.0,1709208743.172
2042873.0,1709208743.212
2043866.0,1709208743.254
2045321.0,1709208743.293
2046509.0,1709208743.331
2046534.0,1709208743.372
2042177.0,1709208743.411
2036924.0,1709208743.452
2032902.0,1709208743.493
2029719.0,1709208743.532
2027022.0,1709208743.573
2024968.0,1709208743.614
2023494.0,1709208743.652
2021761.0,1709208743.691
2019462.0,1709208743.732
2017123.0,1709208743.772
2014868.0,1709208743.812
2013531.0,1709208743.854
2012479.0,1709208743.892
2011762.0,1709208743.933
2011333.0,1709208743.974
2011262.0,1709208744.011
2011094.0,1709208744.054
2011070.0,1709208744.095
2011083.0,1709208744.133
2012032.0,1709208744.212
2012817.0,1709208744.252
2013579.0,1709208744.292
2014274.0,1709208744.333
2015218.0,1709208744.372
2016216.0,1709208744.413
2011584.0,1709208744.171
2017326.0,1709208744.455
2017823.0,1709208744.493
2013893.0,1709208744.531
2007964.0,1709208744.573
2003082.0,1709208744.612
1999852.0,1709208744.653
1997164.0,1709208744.693
1994457.0,1709208744.773
1991455.0,1709208744.852
1993219.0,1709208744.814
1995422.0,1709208744.733
1987898.0,1709208744.933
1989394.0,1709208744.892
1987133.0,1709208744.972
1986670.0,1709208745.013
1986902.0,1709208745.054
1987183.0,1709208745.093
1987641.0,1709208745.133
1988177.0,1709208745.174
1989110.0,1709208745.211
1989739.0,1709208745.253
1990690.0,1709208745.293
1991670.0,1709208745.332
1992695.0,1709208745.373
1994140.0,1709208745.414
1995519.0,1709208745.454
1997188.0,1709208745.493
1998871.0,1709208745.534
2000486.0,1709208745.571
2002187.0,1709208745.612
2000694.0,1709208745.654
1995337.0,1709208745.692
1990477.0,1709208745.733
1987217.0,1709208745.774
1985044.0,1709208745.813
1983155.0,1709208745.854
1981804.0,1709208745.932
1982198.0,1709208745.893
1981132.0,1709208745.972
1978825.0,1709208746.053
1978297.0,1709208746.093
1979938.0,1709208746.013
1978052.0,1709208746.134
1980668.0,1709208746.254
1978593.0,1709208746.173
1983063.0,1709208746.333
1984308.0,1709208746.374
1985709.0,1709208746.413
1987330.0,1709208746.454
1988896.0,1709208746.494
1990542.0,1709208746.534
1992457.0,1709208746.574
1994425.0,1709208746.612
1996451.0,1709208746.652
1998443.0,1709208746.691
1979447.0,1709208746.214
1981806.0,1709208746.292
2000876.0,1709208746.733
1997426.0,1709208746.855
2002118.0,1709208746.813
1991253.0,1709208746.933
1989855.0,1709208746.975
1988895.0,1709208747.014
1988453.0,1709208747.055
1988492.0,1709208747.093
1988302.0,1709208747.132
2002714.0,1709208746.772
1993447.0,1709208746.893
1987340.0,1709208747.172
1986065.0,1709208747.249
1986647.0,1709208747.209
1986345.0,1709208747.288
1986792.0,1709208747.329
1987511.0,1709208747.368
1988783.0,1709208747.408
1989999.0,1709208747.45
1992524.0,1709208747.529
1993829.0,1709208747.57
1995241.0,1709208747.609
1996561.0,1709208747.649
1998312.0,1709208747.69
1999922.0,1709208747.729
1991278.0,1709208747.488
2001829.0,1709208747.769
2003729.0,1709208747.81
2005707.0,1709208747.85
2005749.0,1709208747.889
2001734.0,1709208747.93
1998635.0,1709208747.97
1996808.0,1709208748.01
1996034.0,1709208748.051
1996858.0,1709208748.116
1997944.0,1709208748.157
1997940.0,1709208748.194
1997690.0,1709208748.232
1998272.0,1709208748.312
1997713.0,1709208748.273
1998946.0,1709208748.352
1996091.0,1709208748.082
