bvp,time
-205.03,1551189360.0
-218.01,1551189360.015625
-230.17,1551189360.03125
-240.3,1551189360.046875
-247.39,1551189360.0625
-250.96,1551189360.078125
-251.2,1551189360.09375
-248.7,1551189360.109375
-244.03,1551189360.125
-237.48,1551189360.140625
-229.03,1551189360.15625
-218.44,1551189360.171875
-205.51,1551189360.1875
-190.12,1551189360.203125
-172.27,1551189360.21875
-152.11,1551189360.234375
-130.01,1551189360.25
-106.8,1551189360.265625
-83.73,1551189360.28125
-62.36,1551189360.296875
-43.92,1551189360.3125
-29.04,1551189360.328125
-17.47,1551189360.34375
-8.39,1551189360.359375
-0.83,1551189360.375
5.81,1551189360.390625
11.7,1551189360.40625
16.7,1551189360.421875
20.81,1551189360.4375
24.19,1551189360.453125
27.28,1551189360.46875
30.53,1551189360.484375
34.2,1551189360.5
38.31,1551189360.515625
42.73,1551189360.53125
47.27,1551189360.546875
51.68,1551189360.5625
55.65,1551189360.578125
58.74,1551189360.59375
60.37,1551189360.609375
60.04,1551189360.625
57.54,1551189360.640625
53.1,1551189360.65625
47.3,1551189360.671875
41.05,1551189360.6875
35.27,1551189360.703125
30.64,1551189360.71875
27.52,1551189360.734375
25.85,1551189360.75
25.32,1551189360.765625
25.47,1551189360.78125
25.83,1551189360.796875
26.08,1551189360.8125
26.07,1551189360.828125
25.81,1551189360.84375
25.42,1551189360.859375
25.08,1551189360.875
24.93,1551189360.890625
25.08,1551189360.90625
25.57,1551189360.921875
26.44,1551189360.9375
27.74,1551189360.953125
29.5,1551189360.96875
31.73,1551189360.984375
34.41,1551189361.0
37.46,1551189361.015625
40.7,1551189361.03125
43.83,1551189361.046875
46.45,1551189361.0625
48.12,1551189361.078125
48.51,1551189361.09375
47.6,1551189361.109375
45.74,1551189361.125
43.58,1551189361.140625
41.81,1551189361.15625
40.86,1551189361.171875
40.71,1551189361.1875
40.91,1551189361.203125
40.83,1551189361.21875
39.93,1551189361.234375
37.87,1551189361.25
34.59,1551189361.265625
30.19,1551189361.28125
24.89,1551189361.296875
18.88,1551189361.3125
12.4,1551189361.328125
5.68,1551189361.34375
-1.1,1551189361.359375
-7.76,1551189361.375
-14.03,1551189361.390625
-19.35,1551189361.40625
-22.89,1551189361.421875
-23.67,1551189361.4375
-20.95,1551189361.453125
-14.6,1551189361.46875
-5.42,1551189361.484375
5.12,1551189361.5
15.16,1551189361.515625
23.15,1551189361.53125
28.13,1551189361.546875
29.75,1551189361.5625
28.13,1551189361.578125
23.52,1551189361.59375
16.14,1551189361.609375
6.32,1551189361.625
-5.38,1551189361.640625
-17.92,1551189361.65625
-29.88,1551189361.671875
-39.65,1551189361.6875
-45.88,1551189361.703125
-47.85,1551189361.71875
-45.71,1551189361.734375
-40.44,1551189361.75
-33.56,1551189361.765625
-26.66,1551189361.78125
-21.0,1551189361.796875
-17.16,1551189361.8125
-15.02,1551189361.828125
-14.0,1551189361.84375
-13.45,1551189361.859375
-13.07,1551189361.875
-13.05,1551189361.890625
-13.86,1551189361.90625
-16.01,1551189361.921875
-19.69,1551189361.9375
-24.62,1551189361.953125
-30.21,1551189361.96875
-35.71,1551189361.984375
-40.45,1551189362.0
-43.88,1551189362.015625
-45.57,1551189362.03125
-45.22,1551189362.046875
-42.79,1551189362.0625
-38.66,1551189362.078125
-33.61,1551189362.09375
-28.71,1551189362.109375
-24.98,1551189362.125
-23.03,1551189362.140625
-22.92,1551189362.15625
-24.18,1551189362.171875
-26.12,1551189362.1875
-28.09,1551189362.203125
-29.75,1551189362.21875
-31.08,1551189362.234375
-32.33,1551189362.25
-33.78,1551189362.265625
-35.62,1551189362.28125
-37.87,1551189362.296875
-40.35,1551189362.3125
-42.75,1551189362.328125
-44.69,1551189362.34375
-45.74,1551189362.359375
-45.55,1551189362.375
-43.8,1551189362.390625
-40.37,1551189362.40625
-35.3,1551189362.421875
-28.93,1551189362.4375
-21.69,1551189362.453125
-14.06,1551189362.46875
-6.49,1551189362.484375
0.66,1551189362.5
7.02,1551189362.515625
12.3,1551189362.53125
16.31,1551189362.546875
19.09,1551189362.5625
21.06,1551189362.578125
22.85,1551189362.59375
25.03,1551189362.609375
27.75,1551189362.625
30.63,1551189362.640625
32.92,1551189362.65625
33.84,1551189362.671875
33.01,1551189362.6875
30.57,1551189362.703125
27.12,1551189362.71875
23.33,1551189362.734375
19.67,1551189362.75
16.27,1551189362.765625
12.99,1551189362.78125
9.57,1551189362.796875
5.81,1551189362.8125
1.58,1551189362.828125
-3.26,1551189362.84375
-8.83,1551189362.859375
-15.17,1551189362.875
-22.1,1551189362.890625
-29.02,1551189362.90625
-34.9,1551189362.921875
-38.53,1551189362.9375
-38.88,1551189362.953125
-35.58,1551189362.96875
-29.12,1551189362.984375
-20.75,1551189363.0
-12.09,1551189363.015625
-4.59,1551189363.03125
0.9,1551189363.046875
4.28,1551189363.0625
6.07,1551189363.078125
7.04,1551189363.09375
7.86,1551189363.109375
8.87,1551189363.125
10.08,1551189363.140625
11.24,1551189363.15625
12.01,1551189363.171875
12.22,1551189363.1875
11.96,1551189363.203125
11.55,1551189363.21875
11.45,1551189363.234375
12.13,1551189363.25
13.91,1551189363.265625
16.89,1551189363.28125
20.9,1551189363.296875
25.58,1551189363.3125
30.43,1551189363.328125
34.9,1551189363.34375
38.53,1551189363.359375
41.06,1551189363.375
42.43,1551189363.390625
42.72,1551189363.40625
42.1,1551189363.421875
40.7,1551189363.4375
38.63,1551189363.453125
36.04,1551189363.46875
33.13,1551189363.484375
30.21,1551189363.5
27.54,1551189363.515625
25.27,1551189363.53125
23.26,1551189363.546875
21.14,1551189363.5625
18.51,1551189363.578125
15.13,1551189363.59375
11.05,1551189363.609375
6.58,1551189363.625
2.19,1551189363.640625
-1.77,1551189363.65625
-5.19,1551189363.671875
-8.23,1551189363.6875
-11.24,1551189363.703125
-14.63,1551189363.71875
-18.8,1551189363.734375
-24.03,1551189363.75
-30.35,1551189363.765625
-37.47,1551189363.78125
-44.65,1551189363.796875
-50.74,1551189363.8125
-54.45,1551189363.828125
-54.72,1551189363.84375
-51.15,1551189363.859375
-44.2,1551189363.875
-35.04,1551189363.890625
-25.2,1551189363.90625
-16.03,1551189363.921875
-8.3,1551189363.9375
-2.13,1551189363.953125
2.9,1551189363.96875
7.37,1551189363.984375
11.7,1551189364.0
16.01,1551189364.015625
20.14,1551189364.03125
23.79,1551189364.046875
26.82,1551189364.0625
29.37,1551189364.078125
31.83,1551189364.09375
34.64,1551189364.109375
38.11,1551189364.125
42.18,1551189364.140625
46.49,1551189364.15625
50.52,1551189364.171875
53.86,1551189364.1875
56.4,1551189364.203125
58.3,1551189364.21875
59.82,1551189364.234375
61.17,1551189364.25
62.31,1551189364.265625
63.03,1551189364.28125
63.05,1551189364.296875
62.2,1551189364.3125
60.49,1551189364.328125
58.13,1551189364.34375
55.46,1551189364.359375
52.82,1551189364.375
50.47,1551189364.390625
48.46,1551189364.40625
46.54,1551189364.421875
44.32,1551189364.4375
41.35,1551189364.453125
37.4,1551189364.46875
32.59,1551189364.484375
27.38,1551189364.5
22.33,1551189364.515625
17.89,1551189364.53125
14.05,1551189364.546875
10.44,1551189364.5625
6.41,1551189364.578125
1.33,1551189364.59375
-5.18,1551189364.609375
-13.17,1551189364.625
-22.32,1551189364.640625
-31.94,1551189364.65625
-40.96,1551189364.671875
-47.97,1551189364.6875
-51.44,1551189364.703125
-50.14,1551189364.71875
-43.66,1551189364.734375
-32.66,1551189364.75
-18.92,1551189364.765625
-4.72,1551189364.78125
7.83,1551189364.796875
17.49,1551189364.8125
24.16,1551189364.828125
28.63,1551189364.84375
32.03,1551189364.859375
35.23,1551189364.875
38.54,1551189364.890625
41.71,1551189364.90625
44.27,1551189364.921875
45.88,1551189364.9375
46.6,1551189364.953125
46.81,1551189364.96875
47.05,1551189364.984375
47.68,1551189365.0
48.79,1551189365.015625
50.17,1551189365.03125
51.49,1551189365.046875
52.49,1551189365.0625
53.07,1551189365.078125
53.32,1551189365.09375
53.37,1551189365.109375
53.35,1551189365.125
53.22,1551189365.140625
52.85,1551189365.15625
52.06,1551189365.171875
50.68,1551189365.1875
48.64,1551189365.203125
46.0,1551189365.21875
42.98,1551189365.234375
39.86,1551189365.25
36.94,1551189365.265625
34.33,1551189365.28125
31.86,1551189365.296875
29.14,1551189365.3125
25.69,1551189365.328125
21.23,1551189365.34375
15.81,1551189365.359375
9.85,1551189365.375
3.95,1551189365.390625
-1.37,1551189365.40625
-5.96,1551189365.421875
-10.03,1551189365.4375
-14.14,1551189365.453125
-18.91,1551189365.46875
-24.91,1551189365.484375
-32.46,1551189365.5
-41.59,1551189365.515625
-51.91,1551189365.53125
-62.55,1551189365.546875
-72.14,1551189365.5625
-79.01,1551189365.578125
-81.61,1551189365.59375
-79.01,1551189365.609375
-71.23,1551189365.625
-59.36,1551189365.640625
-45.2,1551189365.65625
-30.77,1551189365.671875
-17.69,1551189365.6875
-6.88,1551189365.703125
1.49,1551189365.71875
7.87,1551189365.734375
12.92,1551189365.75
17.26,1551189365.765625
21.23,1551189365.78125
24.89,1551189365.796875
28.15,1551189365.8125
30.95,1551189365.828125
33.41,1551189365.84375
35.79,1551189365.859375
38.33,1551189365.875
41.13,1551189365.890625
43.98,1551189365.90625
46.5,1551189365.921875
48.34,1551189365.9375
49.38,1551189365.953125
49.78,1551189365.96875
49.86,1551189365.984375
49.9,1551189366.0
49.94,1551189366.015625
49.73,1551189366.03125
48.94,1551189366.046875
47.21,1551189366.0625
44.42,1551189366.078125
40.67,1551189366.09375
36.28,1551189366.109375
31.73,1551189366.125
27.51,1551189366.140625
23.98,1551189366.15625
21.26,1551189366.171875
19.18,1551189366.1875
17.35,1551189366.203125
15.34,1551189366.21875
12.78,1551189366.234375
9.54,1551189366.25
5.7,1551189366.265625
1.47,1551189366.28125
-2.91,1551189366.296875
-7.19,1551189366.3125
-11.17,1551189366.328125
-14.83,1551189366.34375
-18.3,1551189366.359375
-21.94,1551189366.375
-26.3,1551189366.390625
-31.9,1551189366.40625
-39.01,1551189366.421875
-47.32,1551189366.4375
-55.91,1551189366.453125
-63.3,1551189366.46875
-67.8,1551189366.484375
-68.05,1551189366.5
-63.41,1551189366.515625
-54.22,1551189366.53125
-41.78,1551189366.546875
-27.93,1551189366.5625
-14.61,1551189366.578125
-3.26,1551189366.59375
5.47,1551189366.609375
11.77,1551189366.625
16.39,1551189366.640625
20.18,1551189366.65625
23.74,1551189366.671875
27.17,1551189366.6875
30.21,1551189366.703125
32.54,1551189366.71875
34.06,1551189366.734375
35.06,1551189366.75
36.08,1551189366.765625
37.62,1551189366.78125
39.86,1551189366.796875
42.5,1551189366.8125
45.02,1551189366.828125
46.88,1551189366.84375
47.84,1551189366.859375
48.03,1551189366.875
47.75,1551189366.890625
47.27,1551189366.90625
46.56,1551189366.921875
45.37,1551189366.9375
43.37,1551189366.953125
40.35,1551189366.96875
36.42,1551189366.984375
31.89,1551189367.0
27.24,1551189367.015625
22.84,1551189367.03125
18.88,1551189367.046875
15.35,1551189367.0625
12.09,1551189367.078125
8.88,1551189367.09375
5.49,1551189367.109375
1.75,1551189367.125
-2.44,1551189367.140625
-7.04,1551189367.15625
-11.88,1551189367.171875
-16.6,1551189367.1875
-20.89,1551189367.203125
-24.56,1551189367.21875
-27.7,1551189367.234375
-30.74,1551189367.25
-34.27,1551189367.265625
-38.88,1551189367.28125
-44.93,1551189367.296875
-52.36,1551189367.3125
-60.7,1551189367.328125
-68.99,1551189367.34375
-75.94,1551189367.359375
-80.1,1551189367.375
-80.22,1551189367.390625
-75.63,1551189367.40625
-66.59,1551189367.421875
-54.23,1551189367.4375
-40.36,1551189367.453125
-26.83,1551189367.46875
-15.04,1551189367.484375
-5.59,1551189367.5
1.68,1551189367.515625
7.42,1551189367.53125
12.27,1551189367.546875
16.66,1551189367.5625
20.65,1551189367.578125
24.13,1551189367.59375
26.92,1551189367.609375
29.02,1551189367.625
30.56,1551189367.640625
31.79,1551189367.65625
32.97,1551189367.671875
34.2,1551189367.6875
35.48,1551189367.703125
36.72,1551189367.71875
37.79,1551189367.734375
38.61,1551189367.75
39.13,1551189367.765625
39.32,1551189367.78125
39.1,1551189367.796875
38.4,1551189367.8125
37.15,1551189367.828125
35.33,1551189367.84375
32.93,1551189367.859375
30.02,1551189367.875
26.64,1551189367.890625
22.84,1551189367.90625
18.7,1551189367.921875
14.39,1551189367.9375
10.13,1551189367.953125
6.1,1551189367.96875
2.43,1551189367.984375
-0.92,1551189368.0
-4.05,1551189368.015625
-7.06,1551189368.03125
-10.02,1551189368.046875
-12.89,1551189368.0625
-15.6,1551189368.078125
-18.09,1551189368.09375
-20.34,1551189368.109375
-22.4,1551189368.125
-24.42,1551189368.140625
-26.62,1551189368.15625
-29.32,1551189368.171875
-32.91,1551189368.1875
-37.73,1551189368.203125
-43.89,1551189368.21875
-51.11,1551189368.234375
-58.59,1551189368.25
-65.09,1551189368.265625
-69.19,1551189368.28125
-69.64,1551189368.296875
-65.74,1551189368.3125
-57.54,1551189368.328125
-45.87,1551189368.34375
-32.12,1551189368.359375
-17.85,1551189368.375
-4.47,1551189368.390625
7.04,1551189368.40625
16.24,1551189368.421875
23.23,1551189368.4375
28.46,1551189368.453125
32.52,1551189368.46875
35.97,1551189368.484375
39.14,1551189368.5
42.1,1551189368.515625
44.75,1551189368.53125
46.89,1551189368.546875
48.43,1551189368.5625
49.45,1551189368.578125
50.1,1551189368.59375
50.59,1551189368.609375
50.96,1551189368.625
51.09,1551189368.640625
50.79,1551189368.65625
49.89,1551189368.671875
48.45,1551189368.6875
46.64,1551189368.703125
44.72,1551189368.71875
42.79,1551189368.734375
40.78,1551189368.75
38.41,1551189368.765625
35.37,1551189368.78125
31.55,1551189368.796875
27.04,1551189368.8125
22.19,1551189368.828125
17.37,1551189368.84375
12.87,1551189368.859375
8.67,1551189368.875
4.56,1551189368.890625
0.22,1551189368.90625
-4.56,1551189368.921875
-9.75,1551189368.9375
-15.08,1551189368.953125
-20.15,1551189368.96875
-24.6,1551189368.984375
-28.29,1551189369.0
-31.33,1551189369.015625
-34.08,1551189369.03125
-37.04,1551189369.046875
-40.72,1551189369.0625
-45.55,1551189369.078125
-51.69,1551189369.09375
-58.94,1551189369.109375
-66.58,1551189369.125
-73.36,1551189369.140625
-77.72,1551189369.15625
-78.24,1551189369.171875
-74.15,1551189369.1875
-65.67,1551189369.203125
-54.03,1551189369.21875
-41.07,1551189369.234375
-28.67,1551189369.25
-18.17,1551189369.265625
-10.12,1551189369.28125
-4.32,1551189369.296875
-0.15,1551189369.3125
3.06,1551189369.328125
5.78,1551189369.34375
8.17,1551189369.359375
10.26,1551189369.375
12.0,1551189369.390625
13.45,1551189369.40625
14.8,1551189369.421875
16.31,1551189369.4375
18.19,1551189369.453125
20.55,1551189369.46875
23.26,1551189369.484375
26.04,1551189369.5
28.52,1551189369.515625
30.46,1551189369.53125
31.72,1551189369.546875
32.35,1551189369.5625
32.4,1551189369.578125
31.88,1551189369.59375
30.67,1551189369.609375
28.62,1551189369.625
25.69,1551189369.640625
22.03,1551189369.65625
18.03,1551189369.671875
14.16,1551189369.6875
10.8,1551189369.703125
8.08,1551189369.71875
5.86,1551189369.734375
3.84,1551189369.75
1.68,1551189369.765625
-0.85,1551189369.78125
-3.89,1551189369.796875
-7.46,1551189369.8125
-11.49,1551189369.828125
-15.86,1551189369.84375
-20.33,1551189369.859375
-24.6,1551189369.875
-28.47,1551189369.890625
-31.92,1551189369.90625
-35.23,1551189369.921875
-38.93,1551189369.9375
-43.63,1551189369.953125
-49.67,1551189369.96875
-56.9,1551189369.984375
-64.45,1551189370.0
-70.96,1551189370.015625
-74.81,1551189370.03125
-74.7,1551189370.046875
-70.05,1551189370.0625
-61.21,1551189370.078125
-49.39,1551189370.09375
-36.23,1551189370.109375
-23.37,1551189370.125
-12.0,1551189370.140625
-2.71,1551189370.15625
4.52,1551189370.171875
10.1,1551189370.1875
14.61,1551189370.203125
18.59,1551189370.21875
22.37,1551189370.234375
26.02,1551189370.25
29.41,1551189370.265625
32.32,1551189370.28125
34.62,1551189370.296875
36.36,1551189370.3125
37.81,1551189370.328125
39.26,1551189370.34375
40.92,1551189370.359375
42.78,1551189370.375
44.63,1551189370.390625
46.19,1551189370.40625
47.24,1551189370.421875
47.67,1551189370.4375
47.57,1551189370.453125
47.04,1551189370.46875
46.18,1551189370.484375
45.03,1551189370.5
43.5,1551189370.515625
41.46,1551189370.53125
38.75,1551189370.546875
35.34,1551189370.5625
31.35,1551189370.578125
27.1,1551189370.59375
22.99,1551189370.609375
19.38,1551189370.625
16.38,1551189370.640625
13.8,1551189370.65625
11.21,1551189370.671875
8.15,1551189370.6875
4.35,1551189370.703125
-0.16,1551189370.71875
-5.0,1551189370.734375
-9.7,1551189370.75
-13.91,1551189370.765625
-17.53,1551189370.78125
-20.8,1551189370.796875
-24.1,1551189370.8125
-27.89,1551189370.828125
-32.48,1551189370.84375
-38.04,1551189370.859375
-44.58,1551189370.875
-51.82,1551189370.890625
-59.12,1551189370.90625
-65.39,1551189370.921875
-69.22,1551189370.9375
-69.26,1551189370.953125
-64.72,1551189370.96875
-55.8,1551189370.984375
-43.73,1551189371.0
-30.44,1551189371.015625
-17.9,1551189371.03125
-7.54,1551189371.046875
0.18,1551189371.0625
5.59,1551189371.078125
9.55,1551189371.09375
12.88,1551189371.109375
16.13,1551189371.125
19.42,1551189371.140625
22.61,1551189371.15625
25.45,1551189371.171875
27.79,1551189371.1875
29.61,1551189371.203125
31.03,1551189371.21875
32.23,1551189371.234375
33.38,1551189371.25
34.56,1551189371.265625
35.73,1551189371.28125
36.8,1551189371.296875
37.66,1551189371.3125
38.22,1551189371.328125
38.52,1551189371.34375
38.56,1551189371.359375
38.35,1551189371.375
37.77,1551189371.390625
36.64,1551189371.40625
34.76,1551189371.421875
32.06,1551189371.4375
28.65,1551189371.453125
24.89,1551189371.46875
21.26,1551189371.484375
18.16,1551189371.5
15.74,1551189371.515625
13.83,1551189371.53125
12.01,1551189371.546875
9.8,1551189371.5625
6.87,1551189371.578125
3.2,1551189371.59375
-0.92,1551189371.609375
-5.03,1551189371.625
-8.7,1551189371.640625
-11.73,1551189371.65625
-14.23,1551189371.671875
-16.49,1551189371.6875
-18.96,1551189371.703125
-22.04,1551189371.71875
-26.03,1551189371.734375
-31.09,1551189371.75
-37.18,1551189371.765625
-43.94,1551189371.78125
-50.62,1551189371.796875
-56.11,1551189371.8125
-59.15,1551189371.828125
-58.68,1551189371.84375
-54.24,1551189371.859375
-46.19,1551189371.875
-35.63,1551189371.890625
-24.11,1551189371.90625
-13.19,1551189371.921875
-3.99,1551189371.9375
2.97,1551189371.953125
7.78,1551189371.96875
10.89,1551189371.984375
12.87,1551189372.0
14.2,1551189372.015625
15.13,1551189372.03125
15.75,1551189372.046875
16.09,1551189372.0625
16.22,1551189372.078125
16.36,1551189372.09375
16.82,1551189372.109375
17.87,1551189372.125
19.57,1551189372.140625
21.73,1551189372.15625
23.96,1551189372.171875
25.84,1551189372.1875
27.1,1551189372.203125
27.74,1551189372.21875
27.91,1551189372.234375
27.78,1551189372.25
27.4,1551189372.265625
26.64,1551189372.28125
25.3,1551189372.296875
23.18,1551189372.3125
20.24,1551189372.328125
16.66,1551189372.34375
12.81,1551189372.359375
9.14,1551189372.375
6.01,1551189372.390625
3.57,1551189372.40625
1.69,1551189372.421875
0.01,1551189372.4375
-1.98,1551189372.453125
-4.68,1551189372.46875
-8.18,1551189372.484375
-12.26,1551189372.5
-16.41,1551189372.515625
-20.08,1551189372.53125
-22.93,1551189372.546875
-24.95,1551189372.5625
-26.47,1551189372.578125
-28.04,1551189372.59375
-30.18,1551189372.609375
-33.29,1551189372.625
-37.6,1551189372.640625
-43.08,1551189372.65625
-49.41,1551189372.671875
-55.84,1551189372.6875
-61.18,1551189372.703125
-63.93,1551189372.71875
-62.66,1551189372.734375
-56.57,1551189372.75
-45.9,1551189372.765625
-32.05,1551189372.78125
-17.25,1551189372.796875
-3.8,1551189372.8125
6.57,1551189372.828125
13.2,1551189372.84375
16.49,1551189372.859375
17.5,1551189372.875
17.42,1551189372.890625
17.17,1551189372.90625
17.19,1551189372.921875
17.54,1551189372.9375
18.08,1551189372.953125
18.64,1551189372.96875
19.13,1551189372.984375
19.53,1551189373.0
19.8,1551189373.015625
19.9,1551189373.03125
19.74,1551189373.046875
19.35,1551189373.0625
18.86,1551189373.078125
18.55,1551189373.09375
18.7,1551189373.109375
19.45,1551189373.125
20.72,1551189373.140625
22.12,1551189373.15625
23.1,1551189373.171875
23.16,1551189373.1875
21.98,1551189373.203125
19.5,1551189373.21875
15.9,1551189373.234375
11.47,1551189373.25
6.52,1551189373.265625
1.32,1551189373.28125
-3.84,1551189373.296875
-8.71,1551189373.3125
-13.06,1551189373.328125
-16.83,1551189373.34375
-20.13,1551189373.359375
-23.23,1551189373.375
-26.42,1551189373.390625
-29.84,1551189373.40625
-33.36,1551189373.421875
-36.62,1551189373.4375
-39.27,1551189373.453125
-41.13,1551189373.46875
-42.4,1551189373.484375
-43.59,1551189373.5
-45.36,1551189373.515625
-48.23,1551189373.53125
-52.46,1551189373.546875
-57.91,1551189373.5625
-64.09,1551189373.578125
-70.08,1551189373.59375
-74.71,1551189373.609375
-76.7,1551189373.625
-74.95,1551189373.640625
-68.94,1551189373.65625
-58.97,1551189373.671875
-46.2,1551189373.6875
-32.33,1551189373.703125
-19.13,1551189373.71875
-7.92,1551189373.734375
0.77,1551189373.75
7.22,1551189373.765625
12.13,1551189373.78125
16.31,1551189373.796875
20.26,1551189373.8125
24.04,1551189373.828125
27.42,1551189373.84375
30.13,1551189373.859375
32.09,1551189373.875
33.58,1551189373.890625
35.03,1551189373.90625
36.81,1551189373.921875
39.0,1551189373.9375
41.28,1551189373.953125
43.14,1551189373.96875
44.14,1551189373.984375
44.18,1551189374.0
43.54,1551189374.015625
42.68,1551189374.03125
41.94,1551189374.046875
41.32,1551189374.0625
40.46,1551189374.078125
38.87,1551189374.09375
36.18,1551189374.109375
32.45,1551189374.125
28.06,1551189374.140625
23.65,1551189374.15625
19.74,1551189374.171875
16.57,1551189374.1875
14.0,1551189374.203125
11.7,1551189374.21875
9.25,1551189374.234375
6.38,1551189374.25
3.04,1551189374.265625
-0.64,1551189374.28125
-4.37,1551189374.296875
-7.89,1551189374.3125
-10.99,1551189374.328125
-13.62,1551189374.34375
-15.93,1551189374.359375
-18.27,1551189374.375
-21.06,1551189374.390625
-24.74,1551189374.40625
-29.52,1551189374.421875
-35.33,1551189374.4375
-41.64,1551189374.453125
-47.52,1551189374.46875
-51.8,1551189374.484375
-53.32,1551189374.5
-51.24,1551189374.515625
-45.34,1551189374.53125
-36.18,1551189374.546875
-25.02,1551189374.5625
-13.51,1551189374.578125
-3.22,1551189374.59375
4.89,1551189374.609375
10.61,1551189374.625
14.36,1551189374.640625
16.84,1551189374.65625
18.54,1551189374.671875
19.55,1551189374.6875
19.64,1551189374.703125
18.55,1551189374.71875
16.28,1551189374.734375
13.29,1551189374.75
10.3,1551189374.765625
8.01,1551189374.78125
6.82,1551189374.796875
6.65,1551189374.8125
7.15,1551189374.828125
7.88,1551189374.84375
8.62,1551189374.859375
9.34,1551189374.875
10.14,1551189374.890625
11.04,1551189374.90625
11.85,1551189374.921875
12.18,1551189374.9375
11.61,1551189374.953125
9.95,1551189374.96875
7.35,1551189374.984375
4.24,1551189375.0
1.16,1551189375.015625
-1.52,1551189375.03125
-3.72,1551189375.046875
-5.7,1551189375.0625
-7.85,1551189375.078125
-10.53,1551189375.09375
-13.91,1551189375.109375
-17.97,1551189375.125
-22.59,1551189375.140625
-27.54,1551189375.15625
-32.54,1551189375.171875
-37.29,1551189375.1875
-41.44,1551189375.203125
-44.74,1551189375.21875
-47.18,1551189375.234375
-49.07,1551189375.25
-51.05,1551189375.265625
-53.86,1551189375.28125
-58.13,1551189375.296875
-64.07,1551189375.3125
-71.27,1551189375.328125
-78.67,1551189375.34375
-84.71,1551189375.359375
-87.76,1551189375.375
-86.49,1551189375.390625
-80.32,1551189375.40625
-69.64,1551189375.421875
-55.76,1551189375.4375
-40.51,1551189375.453125
-25.75,1551189375.46875
-12.82,1551189375.484375
-2.25,1551189375.5
6.19,1551189375.515625
13.29,1551189375.53125
19.89,1551189375.546875
26.56,1551189375.5625
33.38,1551189375.578125
40.06,1551189375.59375
46.09,1551189375.609375
51.05,1551189375.625
54.8,1551189375.640625
57.5,1551189375.65625
59.52,1551189375.671875
61.24,1551189375.6875
62.84,1551189375.703125
64.27,1551189375.71875
65.33,1551189375.734375
65.83,1551189375.75
65.67,1551189375.765625
64.9,1551189375.78125
63.64,1551189375.796875
61.99,1551189375.8125
59.96,1551189375.828125
57.56,1551189375.84375
54.77,1551189375.859375
51.62,1551189375.875
48.23,1551189375.890625
44.74,1551189375.90625
41.33,1551189375.921875
38.13,1551189375.9375
35.21,1551189375.953125
32.54,1551189375.96875
29.93,1551189375.984375
27.07,1551189376.0
23.64,1551189376.015625
19.41,1551189376.03125
14.41,1551189376.046875
8.88,1551189376.0625
3.28,1551189376.078125
-1.97,1551189376.09375
-6.59,1551189376.109375
-10.59,1551189376.125
-14.26,1551189376.140625
-18.05,1551189376.15625
-22.47,1551189376.171875
-27.93,1551189376.1875
-34.58,1551189376.203125
-42.19,1551189376.21875
-50.04,1551189376.234375
-56.97,1551189376.25
-61.6,1551189376.265625
-62.69,1551189376.28125
-59.55,1551189376.296875
-52.31,1551189376.3125
-41.95,1551189376.328125
-30.0,1551189376.34375
-18.13,1551189376.359375
-7.72,1551189376.375
0.46,1551189376.390625
6.33,1551189376.40625
10.32,1551189376.421875
13.12,1551189376.4375
15.38,1551189376.453125
17.53,1551189376.46875
19.77,1551189376.484375
22.0,1551189376.5
24.06,1551189376.515625
25.77,1551189376.53125
27.05,1551189376.546875
27.9,1551189376.5625
28.37,1551189376.578125
28.51,1551189376.59375
28.36,1551189376.609375
28.0,1551189376.625
27.53,1551189376.640625
27.1,1551189376.65625
26.85,1551189376.671875
26.78,1551189376.6875
26.76,1551189376.703125
26.45,1551189376.71875
25.51,1551189376.734375
23.65,1551189376.75
20.81,1551189376.765625
17.23,1551189376.78125
13.36,1551189376.796875
9.71,1551189376.8125
6.6,1551189376.828125
4.05,1551189376.84375
1.79,1551189376.859375
-0.63,1551189376.875
-3.57,1551189376.890625
-7.09,1551189376.90625
-10.99,1551189376.921875
-14.85,1551189376.9375
-18.29,1551189376.953125
-21.18,1551189376.96875
-23.67,1551189376.984375
-26.19,1551189377.0
-29.29,1551189377.015625
-33.44,1551189377.03125
-38.89,1551189377.046875
-45.46,1551189377.0625
-52.48,1551189377.078125
-58.79,1551189377.09375
-62.96,1551189377.109375
-63.62,1551189377.125
-59.95,1551189377.140625
-52.02,1551189377.15625
-40.82,1551189377.171875
-28.02,1551189377.1875
-15.39,1551189377.203125
-4.25,1551189377.21875
4.81,1551189377.234375
11.9,1551189377.25
17.55,1551189377.265625
22.3,1551189377.28125
26.43,1551189377.296875
30.0,1551189377.3125
32.96,1551189377.328125
35.32,1551189377.34375
37.28,1551189377.359375
39.09,1551189377.375
40.95,1551189377.390625
42.94,1551189377.40625
44.96,1551189377.421875
46.88,1551189377.4375
48.51,1551189377.453125
49.76,1551189377.46875
50.54,1551189377.484375
50.82,1551189377.5
50.58,1551189377.515625
49.82,1551189377.53125
48.58,1551189377.546875
46.82,1551189377.5625
44.5,1551189377.578125
41.5,1551189377.59375
37.74,1551189377.609375
33.28,1551189377.625
28.4,1551189377.640625
23.52,1551189377.65625
19.09,1551189377.671875
15.33,1551189377.6875
12.15,1551189377.703125
9.13,1551189377.71875
5.74,1551189377.734375
1.57,1551189377.75
-3.46,1551189377.765625
-9.05,1551189377.78125
-14.67,1551189377.796875
-19.77,1551189377.8125
-24.07,1551189377.828125
-27.62,1551189377.84375
-30.81,1551189377.859375
-34.21,1551189377.875
-38.38,1551189377.890625
-43.74,1551189377.90625
-50.37,1551189377.921875
-58.02,1551189377.9375
-65.97,1551189377.953125
-73.08,1551189377.96875
-77.91,1551189377.984375
-79.14,1551189378.0
-75.96,1551189378.015625
-68.43,1551189378.03125
-57.51,1551189378.046875
-44.83,1551189378.0625
-32.13,1551189378.078125
-20.84,1551189378.09375
-11.68,1551189378.109375
-4.64,1551189378.125
0.76,1551189378.140625
5.24,1551189378.15625
9.36,1551189378.171875
13.4,1551189378.1875
17.37,1551189378.203125
21.06,1551189378.21875
24.22,1551189378.234375
26.71,1551189378.25
28.52,1551189378.265625
29.82,1551189378.28125
30.82,1551189378.296875
31.71,1551189378.3125
32.59,1551189378.328125
33.49,1551189378.34375
34.44,1551189378.359375
35.44,1551189378.375
36.47,1551189378.390625
37.39,1551189378.40625
37.93,1551189378.421875
37.76,1551189378.4375
36.62,1551189378.453125
34.44,1551189378.46875
31.4,1551189378.484375
27.82,1551189378.5
24.14,1551189378.515625
20.68,1551189378.53125
17.61,1551189378.546875
15.0,1551189378.5625
12.8,1551189378.578125
10.92,1551189378.59375
9.26,1551189378.609375
7.62,1551189378.625
5.78,1551189378.640625
3.47,1551189378.65625
0.52,1551189378.671875
-3.1,1551189378.6875
-7.19,1551189378.703125
-11.38,1551189378.71875
-15.29,1551189378.734375
-18.68,1551189378.75
-21.58,1551189378.765625
-24.31,1551189378.78125
-27.32,1551189378.796875
-31.05,1551189378.8125
-35.7,1551189378.828125
-41.05,1551189378.84375
-46.46,1551189378.859375
-50.89,1551189378.875
-53.16,1551189378.890625
-52.25,1551189378.90625
-47.68,1551189378.921875
-39.64,1551189378.9375
-29.04,1551189378.953125
-17.28,1551189378.96875
-5.77,1551189378.984375
4.38,1551189379.0
12.67,1551189379.015625
19.14,1551189379.03125
24.17,1551189379.046875
28.23,1551189379.0625
31.61,1551189379.078125
34.36,1551189379.09375
36.38,1551189379.109375
37.56,1551189379.125
37.96,1551189379.140625
37.79,1551189379.15625
37.43,1551189379.171875
37.27,1551189379.1875
37.5,1551189379.203125
38.08,1551189379.21875
38.75,1551189379.234375
39.16,1551189379.25
39.01,1551189379.265625
38.17,1551189379.28125
36.67,1551189379.296875
34.65,1551189379.3125
32.21,1551189379.328125
29.37,1551189379.34375
26.09,1551189379.359375
22.31,1551189379.375
18.06,1551189379.390625
13.43,1551189379.40625
8.66,1551189379.421875
4.0,1551189379.4375
-0.26,1551189379.453125
-3.94,1551189379.46875
-6.93,1551189379.484375
-9.29,1551189379.5
-11.24,1551189379.515625
-13.13,1551189379.53125
-15.27,1551189379.546875
-17.88,1551189379.5625
-20.96,1551189379.578125
-24.33,1551189379.59375
-27.72,1551189379.609375
-30.9,1551189379.625
-33.77,1551189379.640625
-36.37,1551189379.65625
-38.89,1551189379.671875
-41.54,1551189379.6875
-44.54,1551189379.703125
-48.13,1551189379.71875
-52.52,1551189379.734375
-57.72,1551189379.75
-63.39,1551189379.765625
-68.74,1551189379.78125
-72.56,1551189379.796875
-73.53,1551189379.8125
-70.69,1551189379.828125
-63.87,1551189379.84375
-53.79,1551189379.859375
-41.87,1551189379.875
-29.76,1551189379.890625
-18.82,1551189379.90625
-9.78,1551189379.921875
-2.65,1551189379.9375
3.02,1551189379.953125
7.87,1551189379.96875
12.43,1551189379.984375
16.93,1551189380.0
21.34,1551189380.015625
25.44,1551189380.03125
28.94,1551189380.046875
31.67,1551189380.0625
33.6,1551189380.078125
34.89,1551189380.09375
35.84,1551189380.109375
36.73,1551189380.125
37.73,1551189380.140625
38.87,1551189380.15625
40.01,1551189380.171875
40.97,1551189380.1875
41.56,1551189380.203125
41.6,1551189380.21875
40.95,1551189380.234375
39.54,1551189380.25
37.37,1551189380.265625
34.54,1551189380.28125
31.28,1551189380.296875
27.85,1551189380.3125
24.52,1551189380.328125
21.41,1551189380.34375
18.56,1551189380.359375
15.87,1551189380.375
13.27,1551189380.390625
10.72,1551189380.40625
8.24,1551189380.421875
5.89,1551189380.4375
3.68,1551189380.453125
1.48,1551189380.46875
-0.91,1551189380.484375
-3.7,1551189380.5
-6.98,1551189380.515625
-10.62,1551189380.53125
-14.32,1551189380.546875
-17.75,1551189380.5625
-20.72,1551189380.578125
-23.27,1551189380.59375
-25.66,1551189380.609375
-28.25,1551189380.625
-31.36,1551189380.640625
-35.17,1551189380.65625
-39.75,1551189380.671875
-44.97,1551189380.6875
-50.48,1551189380.703125
-55.55,1551189380.71875
-59.1,1551189380.734375
-59.94,1551189380.75
-57.17,1551189380.765625
-50.62,1551189380.78125
-41.06,1551189380.796875
-29.98,1551189380.8125
-19.13,1551189380.828125
-9.89,1551189380.84375
-2.88,1551189380.859375
2.05,1551189380.875
5.55,1551189380.890625
8.32,1551189380.90625
10.8,1551189380.921875
13.12,1551189380.9375
15.21,1551189380.953125
17.08,1551189380.96875
18.85,1551189380.984375
20.82,1551189381.0
23.25,1551189381.015625
26.19,1551189381.03125
29.45,1551189381.046875
32.64,1551189381.0625
35.3,1551189381.078125
37.18,1551189381.09375
38.19,1551189381.109375
38.47,1551189381.125
38.22,1551189381.140625
37.53,1551189381.15625
36.41,1551189381.171875
34.73,1551189381.1875
32.45,1551189381.203125
29.57,1551189381.21875
26.23,1551189381.234375
22.63,1551189381.25
18.98,1551189381.265625
15.47,1551189381.28125
12.24,1551189381.296875
9.41,1551189381.3125
6.96,1551189381.328125
4.77,1551189381.34375
2.64,1551189381.359375
0.41,1551189381.375
-1.99,1551189381.390625
-4.48,1551189381.40625
-6.88,1551189381.421875
-9.01,1551189381.4375
-10.83,1551189381.453125
-12.52,1551189381.46875
-14.35,1551189381.484375
-16.6,1551189381.5
-19.45,1551189381.515625
-23.03,1551189381.53125
-27.41,1551189381.546875
-32.59,1551189381.5625
-38.43,1551189381.578125
-44.43,1551189381.59375
-49.72,1551189381.609375
-53.21,1551189381.625
-53.89,1551189381.640625
-51.22,1551189381.65625
-45.39,1551189381.671875
-37.32,1551189381.6875
-28.3,1551189381.703125
-19.6,1551189381.71875
-12.11,1551189381.734375
-6.13,1551189381.75
-1.52,1551189381.765625
2.15,1551189381.78125
5.31,1551189381.796875
8.22,1551189381.8125
10.95,1551189381.828125
13.41,1551189381.84375
15.42,1551189381.859375
16.87,1551189381.875
17.8,1551189381.890625
18.39,1551189381.90625
18.93,1551189381.921875
19.69,1551189381.9375
20.81,1551189381.953125
22.23,1551189381.96875
23.73,1551189381.984375
25.03,1551189382.0
25.93,1551189382.015625
26.35,1551189382.03125
26.35,1551189382.046875
26.01,1551189382.0625
25.38,1551189382.078125
24.39,1551189382.09375
22.96,1551189382.109375
21.06,1551189382.125
18.81,1551189382.140625
16.42,1551189382.15625
14.14,1551189382.171875
12.12,1551189382.1875
10.38,1551189382.203125
8.8,1551189382.21875
7.24,1551189382.234375
5.56,1551189382.25
3.7,1551189382.265625
1.62,1551189382.28125
-0.73,1551189382.296875
-3.45,1551189382.3125
-6.58,1551189382.328125
-10.09,1551189382.34375
-13.82,1551189382.359375
-17.56,1551189382.375
-21.12,1551189382.390625
-24.43,1551189382.40625
-27.63,1551189382.421875
-30.99,1551189382.4375
-34.84,1551189382.453125
-39.47,1551189382.46875
-44.95,1551189382.484375
-50.99,1551189382.5
-56.88,1551189382.515625
-61.62,1551189382.53125
-64.09,1551189382.546875
-63.42,1551189382.5625
-59.28,1551189382.578125
-52.08,1551189382.59375
-42.89,1551189382.609375
-33.13,1551189382.625
-24.09,1551189382.640625
-16.58,1551189382.65625
-10.77,1551189382.671875
-6.32,1551189382.6875
-2.6,1551189382.703125
0.9,1551189382.71875
4.44,1551189382.734375
7.99,1551189382.75
11.33,1551189382.765625
14.18,1551189382.78125
16.35,1551189382.796875
17.8,1551189382.8125
18.67,1551189382.828125
19.17,1551189382.84375
19.57,1551189382.859375
20.07,1551189382.875
20.78,1551189382.890625
21.72,1551189382.90625
22.74,1551189382.921875
23.61,1551189382.9375
24.09,1551189382.953125
24.04,1551189382.96875
23.39,1551189382.984375
22.22,1551189383.0
20.64,1551189383.015625
18.82,1551189383.03125
16.92,1551189383.046875
15.04,1551189383.0625
13.3,1551189383.078125
11.8,1551189383.09375
10.66,1551189383.109375
9.93,1551189383.125
9.54,1551189383.140625
9.24,1551189383.15625
8.66,1551189383.171875
7.43,1551189383.1875
5.37,1551189383.203125
2.56,1551189383.21875
-0.69,1551189383.234375
-3.95,1551189383.25
-6.88,1551189383.265625
-9.35,1551189383.28125
-11.46,1551189383.296875
-13.46,1551189383.3125
-15.64,1551189383.328125
-18.25,1551189383.34375
-21.42,1551189383.359375
-25.25,1551189383.375
-29.65,1551189383.390625
-34.34,1551189383.40625
-38.73,1551189383.421875
-41.97,1551189383.4375
-43.1,1551189383.453125
-41.41,1551189383.46875
-36.75,1551189383.484375
-29.66,1551189383.5
-21.23,1551189383.515625
-12.73,1551189383.53125
-5.19,1551189383.546875
0.84,1551189383.5625
5.39,1551189383.578125
8.81,1551189383.59375
11.53,1551189383.609375
13.8,1551189383.625
15.68,1551189383.640625
17.1,1551189383.65625
18.02,1551189383.671875
18.52,1551189383.6875
18.82,1551189383.703125
19.17,1551189383.71875
19.78,1551189383.734375
20.69,1551189383.75
21.82,1551189383.765625
22.96,1551189383.78125
23.9,1551189383.796875
24.46,1551189383.8125
24.6,1551189383.828125
24.34,1551189383.84375
23.73,1551189383.859375
22.79,1551189383.875
21.46,1551189383.890625
19.66,1551189383.90625
17.33,1551189383.921875
14.51,1551189383.9375
11.33,1551189383.953125
8.03,1551189383.96875
4.86,1551189383.984375
1.99,1551189384.0
-0.45,1551189384.015625
-2.5,1551189384.03125
-4.23,1551189384.046875
-5.81,1551189384.0625
-7.44,1551189384.078125
-9.29,1551189384.09375
-11.49,1551189384.109375
-14.08,1551189384.125
-16.96,1551189384.140625
-19.93,1551189384.15625
-22.75,1551189384.171875
-25.25,1551189384.1875
-27.38,1551189384.203125
-29.32,1551189384.21875
-31.47,1551189384.234375
-34.31,1551189384.25
-38.24,1551189384.265625
-43.29,1551189384.28125
-49.0,1551189384.296875
-54.34,1551189384.3125
-58.02,1551189384.328125
-58.89,1551189384.34375
-56.34,1551189384.359375
-50.57,1551189384.375
-42.47,1551189384.390625
-33.33,1551189384.40625
-24.38,1551189384.421875
-16.49,1551189384.4375
-9.99,1551189384.453125
-4.8,1551189384.46875
-0.6,1551189384.484375
3.01,1551189384.5
6.4,1551189384.515625
9.74,1551189384.53125
13.1,1551189384.546875
16.3,1551189384.5625
19.12,1551189384.578125
21.31,1551189384.59375
22.85,1551189384.609375
23.9,1551189384.625
24.78,1551189384.640625
25.74,1551189384.65625
26.85,1551189384.671875
27.94,1551189384.6875
28.75,1551189384.703125
29.07,1551189384.71875
28.89,1551189384.734375
28.39,1551189384.75
27.74,1551189384.765625
27.03,1551189384.78125
26.13,1551189384.796875
24.84,1551189384.8125
22.99,1551189384.828125
20.58,1551189384.84375
17.79,1551189384.859375
14.85,1551189384.875
12.0,1551189384.890625
9.32,1551189384.90625
6.82,1551189384.921875
4.43,1551189384.9375
2.08,1551189384.953125
-0.33,1551189384.96875
-2.88,1551189384.984375
-5.59,1551189385.0
-8.38,1551189385.015625
-11.14,1551189385.03125
-13.7,1551189385.046875
-15.98,1551189385.0625
-18.01,1551189385.078125
-19.97,1551189385.09375
-22.1,1551189385.109375
-24.65,1551189385.125
-27.76,1551189385.140625
-31.52,1551189385.15625
-35.86,1551189385.171875
-40.54,1551189385.1875
-44.97,1551189385.203125
-48.27,1551189385.21875
-49.38,1551189385.234375
-47.47,1551189385.25
-42.29,1551189385.265625
-34.35,1551189385.28125
-24.88,1551189385.296875
-15.33,1551189385.3125
-6.9,1551189385.328125
-0.16,1551189385.34375
4.95,1551189385.359375
8.94,1551189385.375
12.3,1551189385.390625
15.27,1551189385.40625
17.83,1551189385.421875
19.8,1551189385.4375
21.09,1551189385.453125
21.83,1551189385.46875
22.33,1551189385.484375
22.92,1551189385.5
23.81,1551189385.515625
25.02,1551189385.53125
26.38,1551189385.546875
27.68,1551189385.5625
28.73,1551189385.578125
29.46,1551189385.59375
29.89,1551189385.609375
30.06,1551189385.625
29.98,1551189385.640625
29.61,1551189385.65625
28.84,1551189385.671875
27.57,1551189385.6875
25.73,1551189385.703125
23.31,1551189385.71875
20.38,1551189385.734375
17.09,1551189385.75
13.67,1551189385.765625
10.4,1551189385.78125
7.49,1551189385.796875
5.07,1551189385.8125
3.05,1551189385.828125
1.2,1551189385.84375
-0.8,1551189385.859375
-3.13,1551189385.875
-5.76,1551189385.890625
-8.47,1551189385.90625
-10.93,1551189385.921875
-12.93,1551189385.9375
-14.54,1551189385.953125
-16.07,1551189385.96875
-17.99,1551189385.984375
-20.76,1551189386.0
-24.63,1551189386.015625
-29.57,1551189386.03125
-35.18,1551189386.046875
-40.77,1551189386.0625
-45.38,1551189386.078125
-47.9,1551189386.09375
-47.39,1551189386.109375
-43.42,1551189386.125
-36.22,1551189386.140625
-26.75,1551189386.15625
-16.4,1551189386.171875
-6.49,1551189386.1875
2.07,1551189386.203125
8.93,1551189386.21875
14.23,1551189386.234375
18.24,1551189386.25
21.19,1551189386.265625
23.16,1551189386.28125
24.15,1551189386.296875
24.13,1551189386.3125
23.19,1551189386.328125
21.44,1551189386.34375
19.07,1551189386.359375
16.28,1551189386.375
13.29,1551189386.390625
10.33,1551189386.40625
7.63,1551189386.421875
5.37,1551189386.4375
3.58,1551189386.453125
2.21,1551189386.46875
1.14,1551189386.484375
0.29,1551189386.5
-0.39,1551189386.515625
-0.87,1551189386.53125
-1.12,1551189386.546875
-1.23,1551189386.5625
-1.36,1551189386.578125
-1.77,1551189386.59375
-2.63,1551189386.609375
-3.96,1551189386.625
-5.55,1551189386.640625
-7.04,1551189386.65625
-8.12,1551189386.671875
-8.69,1551189386.6875
-8.96,1551189386.703125
-9.34,1551189386.71875
-10.23,1551189386.734375
-11.84,1551189386.75
-14.06,1551189386.765625
-16.59,1551189386.78125
-19.01,1551189386.796875
-21.04,1551189386.8125
-22.52,1551189386.828125
-23.39,1551189386.84375
-23.74,1551189386.859375
-23.75,1551189386.875
-23.72,1551189386.890625
-24.11,1551189386.90625
-25.32,1551189386.921875
-27.49,1551189386.9375
-30.19,1551189386.953125
-32.44,1551189386.96875
-32.91,1551189386.984375
-30.36,1551189387.0
-24.06,1551189387.015625
-14.14,1551189387.03125
-1.47,1551189387.046875
12.55,1551189387.0625
26.54,1551189387.078125
39.42,1551189387.09375
50.71,1551189387.109375
60.47,1551189387.125
69.21,1551189387.140625
77.57,1551189387.15625
86.1,1551189387.171875
94.96,1551189387.1875
103.89,1551189387.203125
112.17,1551189387.21875
118.89,1551189387.234375
123.34,1551189387.25
125.26,1551189387.265625
124.97,1551189387.28125
123.16,1551189387.296875
120.54,1551189387.3125
117.42,1551189387.328125
113.71,1551189387.34375
108.97,1551189387.359375
102.81,1551189387.375
95.16,1551189387.390625
86.26,1551189387.40625
76.47,1551189387.421875
66.0,1551189387.4375
54.7,1551189387.453125
42.25,1551189387.46875
28.4,1551189387.484375
13.26,1551189387.5
-2.62,1551189387.515625
-18.41,1551189387.53125
-33.35,1551189387.546875
-46.93,1551189387.5625
-59.04,1551189387.578125
-69.77,1551189387.59375
-79.33,1551189387.609375
-87.87,1551189387.625
-95.5,1551189387.640625
-102.28,1551189387.65625
-108.22,1551189387.671875
-113.27,1551189387.6875
-117.35,1551189387.703125
-120.34,1551189387.71875
-122.25,1551189387.734375
-123.26,1551189387.75
-123.7,1551189387.765625
-123.96,1551189387.78125
-124.29,1551189387.796875
-124.67,1551189387.8125
-124.66,1551189387.828125
-123.56,1551189387.84375
-120.49,1551189387.859375
-114.69,1551189387.875
-105.68,1551189387.890625
-93.49,1551189387.90625
-78.73,1551189387.921875
-62.52,1551189387.9375
-46.28,1551189387.953125
-31.39,1551189387.96875
-18.88,1551189387.984375
-9.22,1551189388.0
-2.33,1551189388.015625
2.26,1551189388.03125
5.12,1551189388.046875
6.72,1551189388.0625
7.35,1551189388.078125
7.15,1551189388.09375
6.29,1551189388.109375
5.04,1551189388.125
3.92,1551189388.140625
3.44,1551189388.15625
4.0,1551189388.171875
5.65,1551189388.1875
8.05,1551189388.203125
10.69,1551189388.21875
13.04,1551189388.234375
14.86,1551189388.25
16.16,1551189388.265625
17.19,1551189388.28125
18.19,1551189388.296875
19.23,1551189388.3125
20.21,1551189388.328125
20.92,1551189388.34375
21.17,1551189388.359375
20.88,1551189388.375
20.13,1551189388.390625
19.04,1551189388.40625
17.75,1551189388.421875
16.36,1551189388.4375
14.88,1551189388.453125
13.24,1551189388.46875
11.27,1551189388.484375
8.78,1551189388.5
5.69,1551189388.515625
2.11,1551189388.53125
-1.64,1551189388.546875
-5.11,1551189388.5625
-7.99,1551189388.578125
-10.27,1551189388.59375
-12.25,1551189388.609375
-14.49,1551189388.625
-17.6,1551189388.640625
-22.01,1551189388.65625
-27.84,1551189388.671875
-34.77,1551189388.6875
-42.07,1551189388.703125
-48.6,1551189388.71875
-53.04,1551189388.734375
-54.18,1551189388.75
-51.34,1551189388.765625
-44.61,1551189388.78125
-34.97,1551189388.796875
-23.96,1551189388.8125
-13.19,1551189388.828125
-3.85,1551189388.84375
3.54,1551189388.859375
9.17,1551189388.875
13.65,1551189388.890625
17.67,1551189388.90625
21.68,1551189388.921875
25.78,1551189388.9375
29.77,1551189388.953125
33.27,1551189388.96875
35.95,1551189388.984375
37.67,1551189389.0
38.54,1551189389.015625
38.88,1551189389.03125
38.99,1551189389.046875
39.13,1551189389.0625
39.34,1551189389.078125
39.57,1551189389.09375
39.8,1551189389.109375
40.05,1551189389.125
40.44,1551189389.140625
40.99,1551189389.15625
41.58,1551189389.171875
41.9,1551189389.1875
41.53,1551189389.203125
40.16,1551189389.21875
37.61,1551189389.234375
34.09,1551189389.25
30.07,1551189389.265625
26.2,1551189389.28125
23.08,1551189389.296875
21.02,1551189389.3125
19.85,1551189389.328125
19.04,1551189389.34375
17.83,1551189389.359375
15.61,1551189389.375
12.22,1551189389.390625
7.98,1551189389.40625
3.53,1551189389.421875
-0.46,1551189389.4375
-3.69,1551189389.453125
-6.25,1551189389.46875
-8.61,1551189389.484375
-11.32,1551189389.5
-14.79,1551189389.515625
-19.22,1551189389.53125
-24.6,1551189389.546875
-30.71,1551189389.5625
-37.12,1551189389.578125
-43.1,1551189389.59375
-47.63,1551189389.609375
-49.56,1551189389.625
-47.96,1551189389.640625
-42.5,1551189389.65625
-33.71,1551189389.671875
-22.9,1551189389.6875
-11.77,1551189389.703125
-1.79,1551189389.71875
6.2,1551189389.734375
12.13,1551189389.75
16.5,1551189389.765625
19.91,1551189389.78125
22.78,1551189389.796875
25.16,1551189389.8125
26.89,1551189389.828125
27.84,1551189389.84375
28.12,1551189389.859375
28.11,1551189389.875
28.29,1551189389.890625
29.05,1551189389.90625
30.51,1551189389.921875
32.54,1551189389.9375
34.82,1551189389.953125
36.95,1551189389.96875
38.59,1551189389.984375
39.58,1551189390.0
39.86,1551189390.015625
39.54,1551189390.03125
38.75,1551189390.046875
37.63,1551189390.0625
36.2,1551189390.078125
34.4,1551189390.09375
32.08,1551189390.109375
29.21,1551189390.125
25.89,1551189390.140625
22.38,1551189390.15625
19.07,1551189390.171875
16.21,1551189390.1875
13.9,1551189390.203125
11.89,1551189390.21875
9.79,1551189390.234375
7.18,1551189390.25
3.8,1551189390.265625
-0.29,1551189390.28125
-4.81,1551189390.296875
-9.35,1551189390.3125
-13.6,1551189390.328125
-17.4,1551189390.34375
-20.86,1551189390.359375
-24.23,1551189390.375
-27.81,1551189390.390625
-31.89,1551189390.40625
-36.64,1551189390.421875
-42.08,1551189390.4375
-48.01,1551189390.453125
-53.9,1551189390.46875
-58.84,1551189390.484375
-61.66,1551189390.5
-61.28,1551189390.515625
-57.07,1551189390.53125
-49.22,1551189390.546875
-38.79,1551189390.5625
-27.32,1551189390.578125
-16.41,1551189390.59375
-7.14,1551189390.609375
0.14,1551189390.625
5.7,1551189390.640625
10.13,1551189390.65625
13.97,1551189390.671875
17.53,1551189390.6875
20.86,1551189390.703125
23.84,1551189390.71875
26.29,1551189390.734375
28.06,1551189390.75
29.11,1551189390.765625
29.56,1551189390.78125
29.66,1551189390.796875
29.74,1551189390.8125
30.04,1551189390.828125
30.63,1551189390.84375
31.35,1551189390.859375
31.88,1551189390.875
31.93,1551189390.890625
31.41,1551189390.90625
30.37,1551189390.921875
28.94,1551189390.9375
27.2,1551189390.953125
25.08,1551189390.96875
22.41,1551189390.984375
19.07,1551189391.0
15.12,1551189391.015625
10.85,1551189391.03125
6.72,1551189391.046875
3.12,1551189391.0625
0.3,1551189391.078125
-1.78,1551189391.09375
-3.4,1551189391.109375
-4.95,1551189391.125
-6.81,1551189391.140625
-9.18,1551189391.15625
-12.04,1551189391.171875
-15.2,1551189391.1875
-18.39,1551189391.203125
-21.37,1551189391.21875
-24.05,1551189391.234375
-26.5,1551189391.25
-28.96,1551189391.265625
-31.82,1551189391.28125
-35.44,1551189391.296875
-40.12,1551189391.3125
-45.92,1551189391.328125
-52.58,1551189391.34375
-59.49,1551189391.359375
-65.71,1551189391.375
-70.15,1551189391.390625
-71.76,1551189391.40625
-69.75,1551189391.421875
-63.8,1551189391.4375
-54.2,1551189391.453125
-41.89,1551189391.46875
-28.29,1551189391.484375
-14.97,1551189391.5
-3.24,1551189391.515625
6.21,1551189391.53125
13.43,1551189391.546875
19.05,1551189391.5625
23.84,1551189391.578125
28.32,1551189391.59375
32.53,1551189391.609375
36.17,1551189391.625
38.89,1551189391.640625
40.58,1551189391.65625
41.47,1551189391.671875
42.03,1551189391.6875
42.66,1551189391.703125
43.54,1551189391.71875
44.61,1551189391.734375
45.7,1551189391.75
46.66,1551189391.765625
47.43,1551189391.78125
47.99,1551189391.796875
48.29,1551189391.8125
48.18,1551189391.828125
47.51,1551189391.84375
46.13,1551189391.859375
43.97,1551189391.875
41.11,1551189391.890625
37.7,1551189391.90625
33.95,1551189391.921875
30.06,1551189391.9375
26.2,1551189391.953125
22.44,1551189391.96875
18.71,1551189391.984375
14.86,1551189392.0
10.75,1551189392.015625
6.3,1551189392.03125
1.58,1551189392.046875
-3.22,1551189392.0625
-7.87,1551189392.078125
-12.17,1551189392.09375
-16.08,1551189392.109375
-19.65,1551189392.125
-23.03,1551189392.140625
-26.44,1551189392.15625
-30.08,1551189392.171875
-34.16,1551189392.1875
-38.78,1551189392.203125
-43.79,1551189392.21875
-48.76,1551189392.234375
-52.96,1551189392.25
-55.46,1551189392.265625
-55.39,1551189392.28125
-52.27,1551189392.296875
-46.21,1551189392.3125
-37.92,1551189392.328125
-28.56,1551189392.34375
-19.36,1551189392.359375
-11.24,1551189392.375
-4.64,1551189392.390625
0.52,1551189392.40625
4.64,1551189392.421875
8.15,1551189392.4375
11.35,1551189392.453125
14.29,1551189392.46875
16.89,1551189392.484375
19.07,1551189392.5
20.85,1551189392.515625
22.36,1551189392.53125
23.8,1551189392.546875
25.29,1551189392.5625
26.83,1551189392.578125
28.23,1551189392.59375
29.25,1551189392.609375
29.67,1551189392.625
29.39,1551189392.640625
28.58,1551189392.65625
27.52,1551189392.671875
26.55,1551189392.6875
25.83,1551189392.703125
25.28,1551189392.71875
24.58,1551189392.734375
23.37,1551189392.75
21.37,1551189392.765625
18.58,1551189392.78125
15.25,1551189392.796875
11.82,1551189392.8125
8.7,1551189392.828125
6.13,1551189392.84375
4.11,1551189392.859375
2.38,1551189392.875
0.58,1551189392.890625
-1.63,1551189392.90625
-4.43,1551189392.921875
-7.73,1551189392.9375
-11.27,1551189392.953125
-14.69,1551189392.96875
-17.77,1551189392.984375
-20.48,1551189393.0
-23.0,1551189393.015625
-25.61,1551189393.03125
-28.58,1551189393.046875
-32.05,1551189393.0625
-36.05,1551189393.078125
-40.43,1551189393.09375
-44.87,1551189393.109375
-48.79,1551189393.125
-51.4,1551189393.140625
-51.86,1551189393.15625
-49.49,1551189393.171875
-44.17,1551189393.1875
-36.39,1551189393.203125
-27.21,1551189393.21875
-17.95,1551189393.234375
-9.72,1551189393.25
-3.17,1551189393.265625
1.71,1551189393.28125
5.33,1551189393.296875
8.29,1551189393.3125
11.08,1551189393.328125
13.97,1551189393.34375
16.9,1551189393.359375
19.65,1551189393.375
21.94,1551189393.390625
23.66,1551189393.40625
24.9,1551189393.421875
25.9,1551189393.4375
26.97,1551189393.453125
28.32,1551189393.46875
29.97,1551189393.484375
31.69,1551189393.5
33.14,1551189393.515625
34.01,1551189393.53125
34.11,1551189393.546875
33.5,1551189393.5625
32.37,1551189393.578125
30.95,1551189393.59375
29.44,1551189393.609375
27.88,1551189393.625
26.23,1551189393.640625
24.44,1551189393.65625
22.49,1551189393.671875
20.45,1551189393.6875
18.45,1551189393.703125
16.58,1551189393.71875
14.8,1551189393.734375
12.95,1551189393.75
10.77,1551189393.765625
8.06,1551189393.78125
4.81,1551189393.796875
1.22,1551189393.8125
-2.37,1551189393.828125
-5.66,1551189393.84375
-8.47,1551189393.859375
-10.84,1551189393.875
-12.89,1551189393.890625
-14.85,1551189393.90625
-16.95,1551189393.921875
-19.41,1551189393.9375
-22.46,1551189393.953125
-26.26,1551189393.96875
-30.81,1551189393.984375
-35.82,1551189394.0
-40.7,1551189394.015625
-44.59,1551189394.03125
-46.63,1551189394.046875
-46.22,1551189394.0625
-43.21,1551189394.078125
-37.96,1551189394.09375
-31.23,1551189394.109375
-23.94,1551189394.125
-16.95,1551189394.140625
-10.8,1551189394.15625
-5.71,1551189394.171875
-1.6,1551189394.1875
1.79,1551189394.203125
4.68,1551189394.21875
7.22,1551189394.234375
9.37,1551189394.25
11.06,1551189394.265625
12.23,1551189394.28125
12.98,1551189394.296875
13.6,1551189394.3125
14.44,1551189394.328125
15.77,1551189394.34375
17.59,1551189394.359375
19.63,1551189394.375
21.47,1551189394.390625
22.71,1551189394.40625
23.15,1551189394.421875
22.89,1551189394.4375
22.22,1551189394.453125
21.39,1551189394.46875
20.55,1551189394.484375
19.66,1551189394.5
18.55,1551189394.515625
17.11,1551189394.53125
15.33,1551189394.546875
13.36,1551189394.5625
11.37,1551189394.578125
9.52,1551189394.59375
7.86,1551189394.609375
6.38,1551189394.625
4.98,1551189394.640625
3.58,1551189394.65625
2.09,1551189394.671875
0.4,1551189394.6875
-1.6,1551189394.703125
-3.94,1551189394.71875
-6.59,1551189394.734375
-9.38,1551189394.75
-12.1,1551189394.765625
-14.6,1551189394.78125
-16.9,1551189394.796875
-19.2,1551189394.8125
-21.84,1551189394.828125
-25.14,1551189394.84375
-29.3,1551189394.859375
-34.29,1551189394.875
-39.85,1551189394.890625
-45.48,1551189394.90625
-50.45,1551189394.921875
-53.9,1551189394.9375
-55.02,1551189394.953125
-53.29,1551189394.96875
-48.69,1551189394.984375
-41.84,1551189395.0
-33.79,1551189395.015625
-25.75,1551189395.03125
-18.68,1551189395.046875
-13.09,1551189395.0625
-8.89,1551189395.078125
-5.63,1551189395.09375
-2.7,1551189395.109375
0.39,1551189395.125
3.89,1551189395.140625
7.72,1551189395.15625
11.64,1551189395.171875
15.27,1551189395.1875
18.31,1551189395.203125
20.66,1551189395.21875
22.45,1551189395.234375
23.99,1551189395.25
25.67,1551189395.265625
27.81,1551189395.28125
30.51,1551189395.296875
33.72,1551189395.3125
37.2,1551189395.328125
40.65,1551189395.34375
43.81,1551189395.359375
46.49,1551189395.375
48.64,1551189395.390625
50.28,1551189395.40625
51.48,1551189395.421875
52.28,1551189395.4375
52.73,1551189395.453125
52.93,1551189395.46875
53.07,1551189395.484375
53.45,1551189395.5
54.33,1551189395.515625
55.72,1551189395.53125
57.19,1551189395.546875
57.93,1551189395.5625
56.97,1551189395.578125
53.66,1551189395.59375
47.94,1551189395.609375
40.38,1551189395.625
31.99,1551189395.640625
23.71,1551189395.65625
16.07,1551189395.671875
9.12,1551189395.6875
2.56,1551189395.703125
-3.96,1551189395.71875
-10.69,1551189395.734375
-17.69,1551189395.75
-25.04,1551189395.765625
-32.88,1551189395.78125
-41.33,1551189395.796875
-50.28,1551189395.8125
-59.15,1551189395.828125
-66.86,1551189395.84375
-72.16,1551189395.859375
-74.08,1551189395.875
-72.33,1551189395.890625
-67.53,1551189395.90625
-60.89,1551189395.921875
-53.83,1551189395.9375
-47.41,1551189395.953125
-42.09,1551189395.96875
-37.78,1551189395.984375
-34.06,1551189396.0
-30.5,1551189396.015625
-26.88,1551189396.03125
-23.23,1551189396.046875
-19.75,1551189396.0625
-16.66,1551189396.078125
-14.07,1551189396.09375
-11.98,1551189396.109375
-10.2,1551189396.125
-8.41,1551189396.140625
-6.37,1551189396.15625
-3.93,1551189396.171875
-1.2,1551189396.1875
1.53,1551189396.203125
3.93,1551189396.21875
5.75,1551189396.234375
6.96,1551189396.25
7.66,1551189396.265625
8.04,1551189396.28125
8.19,1551189396.296875
8.09,1551189396.3125
7.62,1551189396.328125
6.72,1551189396.34375
5.42,1551189396.359375
3.84,1551189396.375
2.14,1551189396.390625
0.47,1551189396.40625
-1.08,1551189396.421875
-2.49,1551189396.4375
-3.8,1551189396.453125
-5.13,1551189396.46875
-6.67,1551189396.484375
-8.63,1551189396.5
-11.2,1551189396.515625
-14.36,1551189396.53125
-17.94,1551189396.546875
-21.6,1551189396.5625
-25.0,1551189396.578125
-27.94,1551189396.59375
-30.49,1551189396.609375
-32.93,1551189396.625
-35.68,1551189396.640625
-39.1,1551189396.65625
-43.4,1551189396.671875
-48.52,1551189396.6875
-54.13,1551189396.703125
-59.67,1551189396.71875
-64.31,1551189396.734375
-67.19,1551189396.75
-67.53,1551189396.765625
-64.98,1551189396.78125
-59.72,1551189396.796875
-52.56,1551189396.8125
-44.7,1551189396.828125
-37.36,1551189396.84375
-31.35,1551189396.859375
-26.88,1551189396.875
-23.59,1551189396.890625
-20.79,1551189396.90625
-17.83,1551189396.921875
-14.36,1551189396.9375
-10.37,1551189396.953125
-6.11,1551189396.96875
-1.87,1551189396.984375
2.11,1551189397.0
5.71,1551189397.015625
8.93,1551189397.03125
11.84,1551189397.046875
14.57,1551189397.0625
17.29,1551189397.078125
20.14,1551189397.09375
23.2,1551189397.109375
26.42,1551189397.125
29.63,1551189397.140625
32.62,1551189397.15625
35.21,1551189397.171875
37.33,1551189397.1875
39.07,1551189397.203125
40.54,1551189397.21875
41.87,1551189397.234375
43.08,1551189397.25
44.08,1551189397.265625
44.72,1551189397.28125
44.85,1551189397.296875
44.44,1551189397.3125
43.6,1551189397.328125
42.54,1551189397.34375
41.43,1551189397.359375
40.33,1551189397.375
39.1,1551189397.390625
37.45,1551189397.40625
35.14,1551189397.421875
32.04,1551189397.4375
28.27,1551189397.453125
24.12,1551189397.46875
19.93,1551189397.484375
15.97,1551189397.5
12.37,1551189397.515625
9.12,1551189397.53125
6.13,1551189397.546875
3.29,1551189397.5625
0.44,1551189397.578125
-2.53,1551189397.59375
-5.82,1551189397.609375
-9.56,1551189397.625
-13.73,1551189397.640625
-18.03,1551189397.65625
-21.82,1551189397.671875
-24.22,1551189397.6875
-24.27,1551189397.703125
-21.41,1551189397.71875
-15.75,1551189397.734375
-8.22,1551189397.75
-0.36,1551189397.765625
6.26,1551189397.78125
10.6,1551189397.796875
12.56,1551189397.8125
12.92,1551189397.828125
12.9,1551189397.84375
13.45,1551189397.859375
14.84,1551189397.875
16.64,1551189397.890625
18.05,1551189397.90625
18.47,1551189397.921875
17.83,1551189397.9375
16.6,1551189397.953125
15.41,1551189397.96875
14.74,1551189397.984375
14.65,1551189398.0
14.86,1551189398.015625
15.03,1551189398.03125
14.95,1551189398.046875
14.7,1551189398.0625
14.44,1551189398.078125
14.34,1551189398.09375
14.36,1551189398.109375
14.36,1551189398.125
14.14,1551189398.140625
13.58,1551189398.15625
12.64,1551189398.171875
11.33,1551189398.1875
9.66,1551189398.203125
7.68,1551189398.21875
5.54,1551189398.234375
3.38,1551189398.25
1.32,1551189398.265625
-0.62,1551189398.28125
-2.56,1551189398.296875
-4.66,1551189398.3125
-7.03,1551189398.328125
-9.62,1551189398.34375
-12.26,1551189398.359375
-14.72,1551189398.375
-16.88,1551189398.390625
-18.75,1551189398.40625
-20.44,1551189398.421875
-22.14,1551189398.4375
-24.0,1551189398.453125
-26.09,1551189398.46875
-28.51,1551189398.484375
-31.41,1551189398.5
-34.94,1551189398.515625
-39.22,1551189398.53125
-44.08,1551189398.546875
-48.98,1551189398.5625
-53.01,1551189398.578125
-55.11,1551189398.59375
-54.46,1551189398.609375
-50.76,1551189398.625
-44.47,1551189398.640625
-36.6,1551189398.65625
-28.39,1551189398.671875
-20.85,1551189398.6875
-14.51,1551189398.703125
-9.44,1551189398.71875
-5.33,1551189398.734375
-1.88,1551189398.75
1.19,1551189398.765625
4.02,1551189398.78125
6.72,1551189398.796875
9.4,1551189398.8125
12.14,1551189398.828125
14.95,1551189398.84375
17.7,1551189398.859375
20.23,1551189398.875
22.3,1551189398.890625
23.81,1551189398.90625
24.76,1551189398.921875
25.26,1551189398.9375
25.49,1551189398.953125
25.64,1551189398.96875
25.88,1551189398.984375
26.25,1551189399.0
26.65,1551189399.015625
26.85,1551189399.03125
26.59,1551189399.046875
25.65,1551189399.0625
24.02,1551189399.078125
21.84,1551189399.09375
19.38,1551189399.109375
16.86,1551189399.125
14.4,1551189399.140625
11.96,1551189399.15625
9.49,1551189399.171875
6.98,1551189399.1875
4.48,1551189399.203125
2.08,1551189399.21875
-0.17,1551189399.234375
-2.33,1551189399.25
-4.56,1551189399.265625
-6.96,1551189399.28125
-9.51,1551189399.296875
-12.07,1551189399.3125
-14.47,1551189399.328125
-16.65,1551189399.34375
-18.78,1551189399.359375
-21.16,1551189399.375
-24.14,1551189399.390625
-27.94,1551189399.40625
-32.59,1551189399.421875
-37.91,1551189399.4375
-43.53,1551189399.453125
-48.95,1551189399.46875
-53.47,1551189399.484375
-56.32,1551189399.5
-56.78,1551189399.515625
-54.47,1551189399.53125
-49.52,1551189399.546875
-42.69,1551189399.5625
-35.15,1551189399.578125
-28.15,1551189399.59375
-22.6,1551189399.609375
-18.8,1551189399.625
-16.51,1551189399.640625
-15.13,1551189399.65625
-14.04,1551189399.671875
-12.85,1551189399.6875
-11.47,1551189399.703125
-10.0,1551189399.71875
-8.57,1551189399.734375
-7.22,1551189399.75
-5.81,1551189399.765625
-4.06,1551189399.78125
-1.66,1551189399.796875
1.62,1551189399.8125
5.82,1551189399.828125
10.76,1551189399.84375
16.07,1551189399.859375
21.34,1551189399.875
26.18,1551189399.890625
30.33,1551189399.90625
33.68,1551189399.921875
36.23,1551189399.9375
38.0,1551189399.953125
38.99,1551189399.96875
39.17,1551189399.984375
38.48,1551189400.0
36.95,1551189400.015625
34.71,1551189400.03125
31.98,1551189400.046875
29.07,1551189400.0625
26.21,1551189400.078125
23.52,1551189400.09375
20.92,1551189400.109375
18.24,1551189400.125
15.28,1551189400.140625
12.01,1551189400.15625
8.58,1551189400.171875
5.28,1551189400.1875
2.4,1551189400.203125
0.03,1551189400.21875
-2.01,1551189400.234375
-4.08,1551189400.25
-6.56,1551189400.265625
-9.72,1551189400.28125
-13.63,1551189400.296875
-18.25,1551189400.3125
-23.41,1551189400.328125
-28.84,1551189400.34375
-33.98,1551189400.359375
-37.98,1551189400.375
-39.87,1551189400.390625
-38.81,1551189400.40625
-34.49,1551189400.421875
-27.4,1551189400.4375
-18.61,1551189400.453125
-9.46,1551189400.46875
-1.05,1551189400.484375
6.0,1551189400.5
11.58,1551189400.515625
15.89,1551189400.53125
19.19,1551189400.546875
21.63,1551189400.5625
23.3,1551189400.578125
24.34,1551189400.59375
24.95,1551189400.609375
25.43,1551189400.625
26.0,1551189400.640625
26.78,1551189400.65625
27.78,1551189400.671875
28.89,1551189400.6875
30.03,1551189400.703125
31.09,1551189400.71875
31.99,1551189400.734375
32.61,1551189400.75
32.84,1551189400.765625
32.58,1551189400.78125
31.82,1551189400.796875
30.64,1551189400.8125
29.23,1551189400.828125
27.68,1551189400.84375
26.01,1551189400.859375
24.09,1551189400.875
21.74,1551189400.890625
18.85,1551189400.90625
15.52,1551189400.921875
12.05,1551189400.9375
8.83,1551189400.953125
6.16,1551189400.96875
4.12,1551189400.984375
2.51,1551189401.0
0.95,1551189401.015625
-0.96,1551189401.03125
-3.47,1551189401.046875
-6.58,1551189401.0625
-10.06,1551189401.078125
-13.64,1551189401.09375
-17.05,1551189401.109375
-20.21,1551189401.125
-23.18,1551189401.140625
-26.2,1551189401.15625
-29.55,1551189401.171875
-33.51,1551189401.1875
-38.3,1551189401.203125
-43.9,1551189401.21875
-50.03,1551189401.234375
-55.98,1551189401.25
-60.75,1551189401.265625
-63.23,1551189401.28125
-62.53,1551189401.296875
-58.35,1551189401.3125
-51.11,1551189401.328125
-41.91,1551189401.34375
-32.17,1551189401.359375
-23.2,1551189401.375
-15.81,1551189401.390625
-10.21,1551189401.40625
-6.03,1551189401.421875
-2.58,1551189401.4375
0.76,1551189401.453125
4.38,1551189401.46875
8.36,1551189401.484375
12.53,1551189401.5
16.67,1551189401.515625
20.61,1551189401.53125
24.32,1551189401.546875
27.93,1551189401.5625
31.5,1551189401.578125
35.04,1551189401.59375
38.38,1551189401.609375
41.23,1551189401.625
43.34,1551189401.640625
44.61,1551189401.65625
45.19,1551189401.671875
45.36,1551189401.6875
45.39,1551189401.703125
45.32,1551189401.71875
44.93,1551189401.734375
43.85,1551189401.75
41.73,1551189401.765625
38.51,1551189401.78125
34.45,1551189401.796875
30.02,1551189401.8125
25.74,1551189401.828125
21.97,1551189401.84375
18.83,1551189401.859375
16.2,1551189401.875
13.85,1551189401.890625
11.51,1551189401.90625
8.95,1551189401.921875
6.05,1551189401.9375
2.84,1551189401.953125
-0.54,1551189401.96875
-3.86,1551189401.984375
-6.91,1551189402.0
-9.67,1551189402.015625
-12.33,1551189402.03125
-15.25,1551189402.046875
-18.81,1551189402.0625
-23.29,1551189402.078125
-28.73,1551189402.09375
-34.84,1551189402.109375
-41.1,1551189402.125
-46.68,1551189402.140625
-50.64,1551189402.15625
-52.01,1551189402.171875
-50.17,1551189402.1875
-44.94,1551189402.203125
-36.89,1551189402.21875
-27.13,1551189402.234375
-17.07,1551189402.25
-7.92,1551189402.265625
-0.39,1551189402.28125
5.42,1551189402.296875
9.89,1551189402.3125
13.52,1551189402.328125
16.69,1551189402.34375
19.54,1551189402.359375
22.0,1551189402.375
23.96,1551189402.390625
25.39,1551189402.40625
26.42,1551189402.421875
27.24,1551189402.4375
28.07,1551189402.453125
29.04,1551189402.46875
30.18,1551189402.484375
31.41,1551189402.5
32.59,1551189402.515625
33.57,1551189402.53125
34.26,1551189402.546875
34.59,1551189402.5625
34.54,1551189402.578125
34.1,1551189402.59375
33.18,1551189402.609375
31.66,1551189402.625
29.37,1551189402.640625
26.2,1551189402.65625
22.23,1551189402.671875
17.73,1551189402.6875
13.17,1551189402.703125
9.05,1551189402.71875
5.73,1551189402.734375
3.26,1551189402.75
1.35,1551189402.765625
-0.56,1551189402.78125
-2.99,1551189402.796875
-6.2,1551189402.8125
-10.04,1551189402.828125
-14.08,1551189402.84375
-17.84,1551189402.859375
-21.06,1551189402.875
-23.82,1551189402.890625
-26.44,1551189402.90625
-29.31,1551189402.921875
-32.69,1551189402.9375
-36.69,1551189402.953125
-41.34,1551189402.96875
-46.64,1551189402.984375
-52.5,1551189403.0
-58.6,1551189403.015625
-64.24,1551189403.03125
-68.33,1551189403.046875
-69.76,1551189403.0625
-67.72,1551189403.078125
-62.18,1551189403.09375
-53.85,1551189403.109375
-43.99,1551189403.125
-33.93,1551189403.140625
-24.61,1551189403.15625
-16.43,1551189403.171875
-9.29,1551189403.1875
-2.86,1551189403.203125
3.17,1551189403.21875
8.94,1551189403.234375
14.41,1551189403.25
19.4,1551189403.265625
23.74,1551189403.28125
27.28,1551189403.296875
30.0,1551189403.3125
32.0,1551189403.328125
33.51,1551189403.34375
34.82,1551189403.359375
36.18,1551189403.375
37.71,1551189403.390625
39.35,1551189403.40625
40.85,1551189403.421875
41.96,1551189403.4375
42.51,1551189403.453125
42.51,1551189403.46875
42.1,1551189403.484375
41.4,1551189403.5
40.45,1551189403.515625
39.11,1551189403.53125
37.19,1551189403.546875
34.59,1551189403.5625
31.46,1551189403.578125
28.13,1551189403.59375
25.03,1551189403.609375
22.41,1551189403.625
20.31,1551189403.640625
18.49,1551189403.65625
16.64,1551189403.671875
14.48,1551189403.6875
11.87,1551189403.703125
8.85,1551189403.71875
5.53,1551189403.734375
2.05,1551189403.75
-1.47,1551189403.765625
-4.92,1551189403.78125
-8.23,1551189403.796875
-11.36,1551189403.8125
-14.44,1551189403.828125
-17.66,1551189403.84375
-21.34,1551189403.859375
-25.73,1551189403.875
-31.02,1551189403.890625
-37.11,1551189403.90625
-43.62,1551189403.921875
-49.86,1551189403.9375
-54.9,1551189403.953125
-57.85,1551189403.96875
-58.07,1551189403.984375
-55.46,1551189404.0
-50.43,1551189404.015625
-43.83,1551189404.03125
-36.62,1551189404.046875
-29.56,1551189404.0625
-23.08,1551189404.078125
-17.22,1551189404.09375
-11.81,1551189404.109375
-6.64,1551189404.125
-1.56,1551189404.140625
3.39,1551189404.15625
8.08,1551189404.171875
12.31,1551189404.1875
15.93,1551189404.203125
18.89,1551189404.21875
21.31,1551189404.234375
23.36,1551189404.25
25.25,1551189404.265625
27.11,1551189404.28125
28.98,1551189404.296875
30.79,1551189404.3125
32.42,1551189404.328125
33.77,1551189404.34375
34.7,1551189404.359375
35.08,1551189404.375
34.77,1551189404.390625
33.7,1551189404.40625
31.85,1551189404.421875
29.29,1551189404.4375
26.18,1551189404.453125
22.74,1551189404.46875
19.2,1551189404.484375
15.79,1551189404.5
12.73,1551189404.515625
10.21,1551189404.53125
8.31,1551189404.546875
6.97,1551189404.5625
5.99,1551189404.578125
5.05,1551189404.59375
3.82,1551189404.609375
2.07,1551189404.625
-0.27,1551189404.640625
-3.12,1551189404.65625
-6.28,1551189404.671875
-9.53,1551189404.6875
-12.75,1551189404.703125
-15.9,1551189404.71875
-19.15,1551189404.734375
-22.78,1551189404.75
-27.16,1551189404.765625
-32.61,1551189404.78125
-39.2,1551189404.796875
-46.59,1551189404.8125
-53.94,1551189404.828125
-60.01,1551189404.84375
-63.46,1551189404.859375
-63.29,1551189404.875
-59.2,1551189404.890625
-51.71,1551189404.90625
-42.05,1551189404.921875
-31.73,1551189404.9375
-22.04,1551189404.953125
-13.75,1551189404.96875
-7.0,1551189404.984375
-1.49,1551189405.0
3.24,1551189405.015625
7.54,1551189405.03125
11.62,1551189405.046875
15.49,1551189405.0625
19.1,1551189405.078125
22.36,1551189405.09375
25.21,1551189405.109375
27.63,1551189405.125
29.67,1551189405.140625
31.44,1551189405.15625
33.14,1551189405.171875
34.92,1551189405.1875
36.8,1551189405.203125
38.69,1551189405.21875
40.37,1551189405.234375
41.59,1551189405.25
42.23,1551189405.265625
42.25,1551189405.28125
41.7,1551189405.296875
40.65,1551189405.3125
39.11,1551189405.328125
37.05,1551189405.34375
34.46,1551189405.359375
31.38,1551189405.375
27.89,1551189405.390625
24.11,1551189405.40625
20.12,1551189405.421875
16.03,1551189405.4375
11.92,1551189405.453125
7.88,1551189405.46875
3.94,1551189405.484375
0.05,1551189405.5
-3.93,1551189405.515625
-8.13,1551189405.53125
-12.56,1551189405.546875
-17.09,1551189405.5625
-21.41,1551189405.578125
-25.23,1551189405.59375
-28.47,1551189405.609375
-31.26,1551189405.625
-33.98,1551189405.640625
-37.03,1551189405.65625
-40.69,1551189405.671875
-45.07,1551189405.6875
-49.98,1551189405.703125
-55.06,1551189405.71875
-59.72,1551189405.734375
-63.2,1551189405.75
-64.58,1551189405.765625
-63.04,1551189405.78125
-58.07,1551189405.796875
-49.76,1551189405.8125
-38.89,1551189405.828125
-26.72,1551189405.84375
-14.68,1551189405.859375
-3.96,1551189405.875
4.77,1551189405.890625
11.45,1551189405.90625
16.39,1551189405.921875
20.08,1551189405.9375
22.95,1551189405.953125
25.23,1551189405.96875
27.08,1551189405.984375
28.55,1551189406.0
29.73,1551189406.015625
30.71,1551189406.03125
31.57,1551189406.046875
32.33,1551189406.0625
32.93,1551189406.078125
33.23,1551189406.09375
33.05,1551189406.109375
32.25,1551189406.125
30.74,1551189406.140625
28.61,1551189406.15625
26.08,1551189406.171875
23.44,1551189406.1875
20.96,1551189406.203125
18.69,1551189406.21875
16.38,1551189406.234375
13.59,1551189406.25
9.88,1551189406.265625
5.11,1551189406.28125
-0.31,1551189406.296875
-5.53,1551189406.3125
-9.52,1551189406.328125
-11.5,1551189406.34375
-11.23,1551189406.359375
-9.15,1551189406.375
-6.14,1551189406.390625
-3.18,1551189406.40625
-0.97,1551189406.421875
0.23,1551189406.4375
0.55,1551189406.453125
0.26,1551189406.46875
-0.39,1551189406.484375
-1.39,1551189406.5
-2.87,1551189406.515625
-5.09,1551189406.53125
-8.25,1551189406.546875
-12.42,1551189406.5625
-17.45,1551189406.578125
-23.04,1551189406.59375
-28.69,1551189406.609375
-33.67,1551189406.625
-37.17,1551189406.640625
-38.31,1551189406.65625
-36.46,1551189406.671875
-31.49,1551189406.6875
-23.88,1551189406.703125
-14.71,1551189406.71875
-5.38,1551189406.734375
2.8,1551189406.75
9.01,1551189406.765625
13.07,1551189406.78125
15.36,1551189406.796875
16.6,1551189406.8125
17.49,1551189406.828125
18.43,1551189406.84375
19.51,1551189406.859375
20.57,1551189406.875
21.37,1551189406.890625
21.77,1551189406.90625
21.77,1551189406.921875
21.5,1551189406.9375
21.13,1551189406.953125
20.77,1551189406.96875
20.44,1551189406.984375
20.06,1551189407.0
19.58,1551189407.015625
18.94,1551189407.03125
18.19,1551189407.046875
17.36,1551189407.0625
16.44,1551189407.078125
15.29,1551189407.09375
13.78,1551189407.109375
11.8,1551189407.125
9.41,1551189407.140625
6.76,1551189407.15625
4.11,1551189407.171875
1.67,1551189407.1875
-0.43,1551189407.203125
-2.11,1551189407.21875
-3.37,1551189407.234375
-4.23,1551189407.25
-4.8,1551189407.265625
-5.28,1551189407.28125
-5.91,1551189407.296875
-6.94,1551189407.3125
-8.46,1551189407.328125
-10.36,1551189407.34375
-12.38,1551189407.359375
-14.25,1551189407.375
-15.77,1551189407.390625
-16.97,1551189407.40625
-18.04,1551189407.421875
-19.21,1551189407.4375
-20.71,1551189407.453125
-22.72,1551189407.46875
-25.39,1551189407.484375
-28.85,1551189407.5
-33.13,1551189407.515625
-37.96,1551189407.53125
-42.64,1551189407.546875
-46.1,1551189407.5625
-47.16,1551189407.578125
-44.96,1551189407.59375
-39.36,1551189407.609375
-31.03,1551189407.625
-21.24,1551189407.640625
-11.4,1551189407.65625
-2.57,1551189407.671875
4.85,1551189407.6875
11.03,1551189407.703125
16.46,1551189407.71875
21.6,1551189407.734375
26.58,1551189407.75
31.23,1551189407.765625
35.17,1551189407.78125
38.09,1551189407.796875
39.86,1551189407.8125
40.66,1551189407.828125
40.96,1551189407.84375
41.31,1551189407.859375
42.15,1551189407.875
43.63,1551189407.890625
45.55,1551189407.90625
47.43,1551189407.921875
48.72,1551189407.9375
49.04,1551189407.953125
48.28,1551189407.96875
46.63,1551189407.984375
44.36,1551189408.0
41.67,1551189408.015625
38.54,1551189408.03125
34.85,1551189408.046875
30.46,1551189408.0625
25.44,1551189408.078125
20.1,1551189408.09375
14.89,1551189408.109375
10.21,1551189408.125
6.26,1551189408.140625
2.96,1551189408.15625
0.07,1551189408.171875
-2.69,1551189408.1875
-5.5,1551189408.203125
-8.4,1551189408.21875
-11.29,1551189408.234375
-14.12,1551189408.25
-16.84,1551189408.265625
-19.49,1551189408.28125
-22.16,1551189408.296875
-24.95,1551189408.3125
-27.98,1551189408.328125
-31.4,1551189408.34375
-35.41,1551189408.359375
-40.23,1551189408.375
-46.01,1551189408.390625
-52.72,1551189408.40625
-59.96,1551189408.421875
-66.92,1551189408.4375
-72.44,1551189408.453125
-75.29,1551189408.46875
-74.5,1551189408.484375
-69.75,1551189408.5
-61.48,1551189408.515625
-50.79,1551189408.53125
-39.17,1551189408.546875
-27.98,1551189408.5625
-18.1,1551189408.578125
-9.79,1551189408.59375
-2.75,1551189408.609375
3.6,1551189408.625
9.74,1551189408.640625
15.8,1551189408.65625
21.53,1551189408.671875
26.43,1551189408.6875
30.08,1551189408.703125
32.36,1551189408.71875
33.55,1551189408.734375
34.19,1551189408.75
34.78,1551189408.765625
35.57,1551189408.78125
36.46,1551189408.796875
37.16,1551189408.8125
37.39,1551189408.828125
37.02,1551189408.84375
36.17,1551189408.859375
34.98,1551189408.875
33.56,1551189408.890625
31.86,1551189408.90625
29.78,1551189408.921875
27.28,1551189408.9375
24.44,1551189408.953125
21.47,1551189408.96875
18.6,1551189408.984375
15.99,1551189409.0
13.72,1551189409.015625
11.83,1551189409.03125
10.34,1551189409.046875
9.27,1551189409.0625
8.56,1551189409.078125
8.0,1551189409.09375
7.25,1551189409.109375
5.97,1551189409.125
3.9,1551189409.140625
1.02,1551189409.15625
-2.47,1551189409.171875
-6.21,1551189409.1875
-9.85,1551189409.203125
-13.16,1551189409.21875
-16.12,1551189409.234375
-18.88,1551189409.25
-21.78,1551189409.265625
-25.22,1551189409.28125
-29.57,1551189409.296875
-35.03,1551189409.3125
-41.41,1551189409.328125
-48.04,1551189409.34375
-53.82,1551189409.359375
-57.45,1551189409.375
-57.9,1551189409.390625
-54.69,1551189409.40625
-48.13,1551189409.421875
-39.21,1551189409.4375
-29.27,1551189409.453125
-19.6,1551189409.46875
-11.14,1551189409.484375
-4.28,1551189409.5
1.05,1551189409.515625
5.14,1551189409.53125
8.36,1551189409.546875
10.98,1551189409.5625
13.16,1551189409.578125
14.96,1551189409.59375
16.45,1551189409.609375
17.76,1551189409.625
19.05,1551189409.640625
20.45,1551189409.65625
22.06,1551189409.671875
23.83,1551189409.6875
25.67,1551189409.703125
27.46,1551189409.71875
29.13,1551189409.734375
30.67,1551189409.75
32.17,1551189409.765625
33.66,1551189409.78125
35.14,1551189409.796875
36.44,1551189409.8125
37.33,1551189409.828125
37.5,1551189409.84375
36.73,1551189409.859375
34.97,1551189409.875
32.38,1551189409.890625
29.26,1551189409.90625
26.0,1551189409.921875
22.91,1551189409.9375
20.17,1551189409.953125
17.77,1551189409.96875
15.58,1551189409.984375
13.47,1551189410.0
11.44,1551189410.015625
9.6,1551189410.03125
8.19,1551189410.046875
7.38,1551189410.0625
7.17,1551189410.078125
7.36,1551189410.09375
7.49,1551189410.109375
7.05,1551189410.125
5.61,1551189410.140625
2.94,1551189410.15625
-0.96,1551189410.171875
-5.87,1551189410.1875
-11.26,1551189410.203125
-16.38,1551189410.21875
-20.22,1551189410.234375
-21.66,1551189410.25
-19.82,1551189410.265625
-14.43,1551189410.28125
-6.0,1551189410.296875
4.27,1551189410.3125
14.84,1551189410.328125
24.4,1551189410.34375
32.2,1551189410.359375
38.14,1551189410.375
42.61,1551189410.390625
46.15,1551189410.40625
49.11,1551189410.421875
51.57,1551189410.4375
53.35,1551189410.453125
54.21,1551189410.46875
53.97,1551189410.484375
52.66,1551189410.5
50.49,1551189410.515625
47.74,1551189410.53125
44.75,1551189410.546875
41.7,1551189410.5625
38.65,1551189410.578125
35.59,1551189410.59375
32.47,1551189410.609375
29.46,1551189410.625
26.9,1551189410.640625
25.32,1551189410.65625
25.24,1551189410.671875
26.92,1551189410.6875
30.3,1551189410.703125
34.95,1551189410.71875
40.19,1551189410.734375
45.35,1551189410.75
49.85,1551189410.765625
53.31,1551189410.78125
55.44,1551189410.796875
55.98,1551189410.8125
54.67,1551189410.828125
51.31,1551189410.84375
45.87,1551189410.859375
38.61,1551189410.875
29.99,1551189410.890625
20.62,1551189410.90625
10.96,1551189410.921875
1.31,1551189410.9375
-8.24,1551189410.953125
-17.75,1551189410.96875
-27.27,1551189410.984375
-36.87,1551189411.0
-46.62,1551189411.015625
-56.69,1551189411.03125
-67.27,1551189411.046875
-78.49,1551189411.0625
-90.34,1551189411.078125
-102.41,1551189411.09375
-113.87,1551189411.109375
-123.54,1551189411.125
-130.11,1551189411.140625
-132.48,1551189411.15625
-130.12,1551189411.171875
-123.27,1551189411.1875
-112.94,1551189411.203125
-100.66,1551189411.21875
-88.12,1551189411.234375
-76.7,1551189411.25
-67.21,1551189411.265625
-59.75,1551189411.28125
-53.92,1551189411.296875
-49.07,1551189411.3125
-44.6,1551189411.328125
-40.24,1551189411.34375
-36.07,1551189411.359375
-32.39,1551189411.375
-29.58,1551189411.390625
-27.94,1551189411.40625
-27.54,1551189411.421875
-28.32,1551189411.4375
-30.09,1551189411.453125
-32.68,1551189411.46875
-35.83,1551189411.484375
-39.26,1551189411.5
-42.48,1551189411.515625
-44.96,1551189411.53125
-46.13,1551189411.546875
-45.7,1551189411.5625
-43.73,1551189411.578125
-40.67,1551189411.59375
-37.1,1551189411.609375
-33.47,1551189411.625
-29.88,1551189411.640625
-25.98,1551189411.65625
-21.22,1551189411.671875
-15.13,1551189411.6875
-7.63,1551189411.703125
0.89,1551189411.71875
9.62,1551189411.734375
17.69,1551189411.75
24.32,1551189411.765625
29.09,1551189411.78125
31.93,1551189411.796875
33.01,1551189411.8125
32.65,1551189411.828125
31.15,1551189411.84375
28.75,1551189411.859375
25.59,1551189411.875
21.76,1551189411.890625
17.27,1551189411.90625
12.13,1551189411.921875
6.33,1551189411.9375
-0.11,1551189411.953125
-7.04,1551189411.96875
-14.05,1551189411.984375
-20.41,1551189412.0
-25.05,1551189412.015625
-26.94,1551189412.03125
-25.37,1551189412.046875
-20.39,1551189412.0625
-12.8,1551189412.078125
-3.96,1551189412.09375
4.76,1551189412.109375
12.33,1551189412.125
18.33,1551189412.140625
22.83,1551189412.15625
26.07,1551189412.171875
28.29,1551189412.1875
29.6,1551189412.203125
30.1,1551189412.21875
29.98,1551189412.234375
29.52,1551189412.25
28.98,1551189412.265625
28.47,1551189412.28125
27.97,1551189412.296875
27.36,1551189412.3125
26.54,1551189412.328125
25.59,1551189412.34375
24.67,1551189412.359375
23.98,1551189412.375
23.65,1551189412.390625
23.66,1551189412.40625
23.88,1551189412.421875
24.1,1551189412.4375
24.1,1551189412.453125
23.67,1551189412.46875
22.68,1551189412.484375
21.13,1551189412.5
19.19,1551189412.515625
17.08,1551189412.53125
15.06,1551189412.546875
13.26,1551189412.5625
11.67,1551189412.578125
10.13,1551189412.59375
8.45,1551189412.609375
6.48,1551189412.625
4.21,1551189412.640625
1.78,1551189412.65625
-0.68,1551189412.671875
-3.07,1551189412.6875
-5.38,1551189412.703125
-7.77,1551189412.71875
-10.48,1551189412.734375
-13.84,1551189412.75
-18.12,1551189412.765625
-23.55,1551189412.78125
-30.08,1551189412.796875
-37.33,1551189412.8125
-44.48,1551189412.828125
-50.37,1551189412.84375
-53.81,1551189412.859375
-53.94,1551189412.875
-50.59,1551189412.890625
-44.39,1551189412.90625
-36.61,1551189412.921875
-28.69,1551189412.9375
-21.78,1551189412.953125
-16.36,1551189412.96875
-12.27,1551189412.984375
-8.91,1551189413.0
-5.7,1551189413.015625
-2.25,1551189413.03125
1.46,1551189413.046875
5.24,1551189413.0625
8.86,1551189413.078125
12.24,1551189413.09375
15.46,1551189413.109375
18.62,1551189413.125
21.81,1551189413.140625
24.95,1551189413.15625
27.89,1551189413.171875
30.48,1551189413.1875
32.62,1551189413.203125
34.31,1551189413.21875
35.56,1551189413.234375
36.31,1551189413.25
36.37,1551189413.265625
35.5,1551189413.28125
33.52,1551189413.296875
30.37,1551189413.3125
26.19,1551189413.328125
21.24,1551189413.34375
15.84,1551189413.359375
10.34,1551189413.375
4.99,1551189413.390625
0.0,1551189413.40625
-4.5,1551189413.421875
-8.5,1551189413.4375
-12.12,1551189413.453125
-15.55,1551189413.46875
-18.99,1551189413.484375
-22.53,1551189413.5
-26.11,1551189413.515625
-29.43,1551189413.53125
-32.16,1551189413.546875
-34.02,1551189413.5625
-35.03,1551189413.578125
-35.48,1551189413.59375
-35.91,1551189413.609375
-36.93,1551189413.625
-39.02,1551189413.640625
-42.41,1551189413.65625
-46.92,1551189413.671875
-51.96,1551189413.6875
-56.54,1551189413.703125
-59.42,1551189413.71875
-59.49,1551189413.734375
-56.08,1551189413.75
-49.32,1551189413.765625
-40.12,1551189413.78125
-29.88,1551189413.796875
-20.06,1551189413.8125
-11.68,1551189413.828125
-5.13,1551189413.84375
-0.22,1551189413.859375
3.52,1551189413.875
6.55,1551189413.890625
9.12,1551189413.90625
11.31,1551189413.921875
13.12,1551189413.9375
14.51,1551189413.953125
15.51,1551189413.96875
16.2,1551189413.984375
16.69,1551189414.0
17.2,1551189414.015625
17.97,1551189414.03125
19.2,1551189414.046875
20.94,1551189414.0625
23.1,1551189414.078125
25.39,1551189414.09375
27.54,1551189414.109375
29.38,1551189414.125
30.89,1551189414.140625
32.14,1551189414.15625
33.14,1551189414.171875
33.74,1551189414.1875
33.71,1551189414.203125
32.81,1551189414.21875
31.0,1551189414.234375
28.55,1551189414.25
25.96,1551189414.265625
23.71,1551189414.28125
22.14,1551189414.296875
21.3,1551189414.3125
20.92,1551189414.328125
20.64,1551189414.34375
20.09,1551189414.359375
19.04,1551189414.375
17.4,1551189414.390625
15.16,1551189414.40625
12.39,1551189414.421875
9.16,1551189414.4375
5.55,1551189414.453125
1.54,1551189414.46875
-2.95,1551189414.484375
-8.11,1551189414.5
-14.08,1551189414.515625
-20.79,1551189414.53125
-27.8,1551189414.546875
-34.29,1551189414.5625
-39.26,1551189414.578125
-41.72,1551189414.59375
-41.1,1551189414.609375
-37.37,1551189414.625
-31.11,1551189414.640625
-23.31,1551189414.65625
-15.09,1551189414.671875
-7.44,1551189414.6875
-0.95,1551189414.703125
4.19,1551189414.71875
8.09,1551189414.734375
11.03,1551189414.75
13.29,1551189414.765625
14.92,1551189414.78125
15.88,1551189414.796875
16.09,1551189414.8125
15.61,1551189414.828125
14.75,1551189414.84375
14.0,1551189414.859375
13.84,1551189414.875
14.58,1551189414.890625
16.18,1551189414.90625
18.29,1551189414.921875
20.42,1551189414.9375
22.19,1551189414.953125
23.45,1551189414.96875
24.24,1551189414.984375
24.72,1551189415.0
24.97,1551189415.015625
24.94,1551189415.03125
24.47,1551189415.046875
23.43,1551189415.0625
21.85,1551189415.078125
19.92,1551189415.09375
17.94,1551189415.109375
16.23,1551189415.125
15.02,1551189415.140625
14.36,1551189415.15625
14.15,1551189415.171875
14.13,1551189415.1875
14.06,1551189415.203125
13.69,1551189415.21875
12.95,1551189415.234375
11.94,1551189415.25
10.89,1551189415.265625
10.09,1551189415.28125
9.76,1551189415.296875
9.94,1551189415.3125
10.48,1551189415.328125
11.07,1551189415.34375
11.4,1551189415.359375
11.16,1551189415.375
10.21,1551189415.390625
8.61,1551189415.40625
6.73,1551189415.421875
5.23,1551189415.4375
5.06,1551189415.453125
7.27,1551189415.46875
12.68,1551189415.484375
21.62,1551189415.5
33.7,1551189415.515625
47.9,1551189415.53125
62.87,1551189415.546875
77.46,1551189415.5625
91.05,1551189415.578125
103.75,1551189415.59375
116.19,1551189415.609375
128.99,1551189415.625
142.17,1551189415.640625
154.88,1551189415.65625
165.39,1551189415.671875
171.63,1551189415.6875
171.88,1551189415.703125
165.33,1551189415.71875
152.34,1551189415.734375
134.31,1551189415.75
113.18,1551189415.765625
90.89,1551189415.78125
69.02,1551189415.796875
48.61,1551189415.8125
30.31,1551189415.828125
14.54,1551189415.84375
1.67,1551189415.859375
-7.99,1551189415.875
-14.33,1551189415.890625
-17.45,1551189415.90625
-17.73,1551189415.921875
-15.7,1551189415.9375
-11.95,1551189415.953125
-7.07,1551189415.96875
-1.82,1551189415.984375
2.67,1551189416.0
4.72,1551189416.015625
2.35,1551189416.03125
-6.2,1551189416.046875
-21.79,1551189416.0625
-43.79,1551189416.078125
-70.13,1551189416.09375
-97.86,1551189416.109375
-124.03,1551189416.125
-146.5,1551189416.140625
-164.25,1551189416.15625
-177.31,1551189416.171875
-186.19,1551189416.1875
-191.45,1551189416.203125
-193.44,1551189416.21875
-192.47,1551189416.234375
-188.99,1551189416.25
-183.83,1551189416.265625
-178.07,1551189416.28125
-172.8,1551189416.296875
-168.69,1551189416.3125
-165.71,1551189416.328125
-163.07,1551189416.34375
-159.46,1551189416.359375
-153.44,1551189416.375
-143.98,1551189416.390625
-130.85,1551189416.40625
-114.7,1551189416.421875
-96.87,1551189416.4375
-78.92,1551189416.453125
-62.2,1551189416.46875
-47.5,1551189416.484375
-35.02,1551189416.5
-24.57,1551189416.515625
-15.78,1551189416.53125
-8.37,1551189416.546875
-2.2,1551189416.5625
2.8,1551189416.578125
6.68,1551189416.59375
9.55,1551189416.609375
11.59,1551189416.625
12.98,1551189416.640625
13.87,1551189416.65625
14.3,1551189416.671875
14.27,1551189416.6875
13.69,1551189416.703125
12.49,1551189416.71875
10.59,1551189416.734375
8.02,1551189416.75
4.93,1551189416.765625
1.62,1551189416.78125
-1.56,1551189416.796875
-4.29,1551189416.8125
-6.42,1551189416.828125
-7.93,1551189416.84375
-8.99,1551189416.859375
-9.73,1551189416.875
-10.21,1551189416.890625
-10.33,1551189416.90625
-9.97,1551189416.921875
-9.03,1551189416.9375
-7.6,1551189416.953125
-5.88,1551189416.96875
-4.06,1551189416.984375
-2.28,1551189417.0
-0.51,1551189417.015625
1.28,1551189417.03125
3.01,1551189417.046875
4.47,1551189417.0625
5.39,1551189417.078125
5.63,1551189417.09375
5.2,1551189417.109375
4.28,1551189417.125
2.98,1551189417.140625
1.2,1551189417.15625
-1.51,1551189417.171875
-5.68,1551189417.1875
-11.61,1551189417.203125
-18.99,1551189417.21875
-26.79,1551189417.234375
-33.46,1551189417.25
-37.42,1551189417.265625
-37.6,1551189417.28125
-33.79,1551189417.296875
-26.76,1551189417.3125
-17.84,1551189417.328125
-8.62,1551189417.34375
-0.34,1551189417.359375
6.3,1551189417.375
11.16,1551189417.390625
14.56,1551189417.40625
16.97,1551189417.421875
18.84,1551189417.4375
20.45,1551189417.453125
21.98,1551189417.46875
23.47,1551189417.484375
24.96,1551189417.5
26.47,1551189417.515625
28.03,1551189417.53125
29.67,1551189417.546875
31.37,1551189417.5625
33.03,1551189417.578125
34.52,1551189417.59375
35.73,1551189417.609375
36.62,1551189417.625
37.29,1551189417.640625
37.85,1551189417.65625
38.35,1551189417.671875
38.74,1551189417.6875
38.79,1551189417.703125
38.23,1551189417.71875
36.85,1551189417.734375
34.55,1551189417.75
31.45,1551189417.765625
27.86,1551189417.78125
24.17,1551189417.796875
20.76,1551189417.8125
17.91,1551189417.828125
15.72,1551189417.84375
14.05,1551189417.859375
12.57,1551189417.875
10.88,1551189417.890625
8.67,1551189417.90625
5.84,1551189417.921875
2.61,1551189417.9375
-0.66,1551189417.953125
-3.63,1551189417.96875
-6.16,1551189417.984375
-8.37,1551189418.0
-10.54,1551189418.015625
-12.96,1551189418.03125
-15.86,1551189418.046875
-19.37,1551189418.0625
-23.52,1551189418.078125
-28.18,1551189418.09375
-32.95,1551189418.109375
-37.07,1551189418.125
-39.43,1551189418.140625
-38.92,1551189418.15625
-34.89,1551189418.171875
-27.51,1551189418.1875
-17.85,1551189418.203125
-7.53,1551189418.21875
1.98,1551189418.234375
9.77,1551189418.25
15.69,1551189418.265625
20.18,1551189418.28125
23.74,1551189418.296875
26.71,1551189418.3125
29.1,1551189418.328125
30.84,1551189418.34375
31.95,1551189418.359375
32.74,1551189418.375
33.65,1551189418.390625
35.12,1551189418.40625
37.36,1551189418.421875
40.26,1551189418.4375
43.41,1551189418.453125
46.31,1551189418.46875
48.53,1551189418.484375
49.83,1551189418.5
50.2,1551189418.515625
49.76,1551189418.53125
48.66,1551189418.546875
46.98,1551189418.5625
44.61,1551189418.578125
41.43,1551189418.59375
37.41,1551189418.609375
32.67,1551189418.625
27.56,1551189418.640625
22.54,1551189418.65625
17.99,1551189418.671875
14.11,1551189418.6875
10.89,1551189418.703125
8.11,1551189418.71875
5.49,1551189418.734375
2.81,1551189418.75
-0.04,1551189418.765625
-3.03,1551189418.78125
-6.04,1551189418.796875
-8.89,1551189418.8125
-11.46,1551189418.828125
-13.7,1551189418.84375
-15.68,1551189418.859375
-17.63,1551189418.875
-19.85,1551189418.890625
-22.74,1551189418.90625
-26.58,1551189418.921875
-31.41,1551189418.9375
-36.84,1551189418.953125
-42.03,1551189418.96875
-45.81,1551189418.984375
-46.99,1551189419.0
-44.83,1551189419.015625
-39.27,1551189419.03125
-31.05,1551189419.046875
-21.5,1551189419.0625
-12.05,1551189419.078125
-3.85,1551189419.09375
2.58,1551189419.109375
7.33,1551189419.125
10.84,1551189419.140625
13.67,1551189419.15625
16.17,1551189419.171875
18.43,1551189419.1875
20.37,1551189419.203125
21.82,1551189419.21875
22.79,1551189419.234375
23.4,1551189419.25
23.93,1551189419.265625
24.65,1551189419.28125
25.69,1551189419.296875
26.97,1551189419.3125
28.27,1551189419.328125
29.33,1551189419.34375
29.94,1551189419.359375
30.09,1551189419.375
29.83,1551189419.390625
29.27,1551189419.40625
28.42,1551189419.421875
27.2,1551189419.4375
25.5,1551189419.453125
23.2,1551189419.46875
20.42,1551189419.484375
17.35,1551189419.5
14.34,1551189419.515625
11.73,1551189419.53125
9.74,1551189419.546875
8.42,1551189419.5625
7.58,1551189419.578125
6.9,1551189419.59375
6.01,1551189419.609375
4.66,1551189419.625
2.79,1551189419.640625
0.62,1551189419.65625
-1.5,1551189419.671875
-3.29,1551189419.6875
-4.64,1551189419.703125
-5.71,1551189419.71875
-6.88,1551189419.734375
-8.55,1551189419.75
-11.04,1551189419.765625
-14.53,1551189419.78125
-18.95,1551189419.796875
-24.05,1551189419.8125
-29.23,1551189419.828125
-33.6,1551189419.84375
-36.0,1551189419.859375
-35.3,1551189419.875
-30.85,1551189419.890625
-22.82,1551189419.90625
-12.29,1551189419.921875
-0.94,1551189419.9375
9.52,1551189419.953125
17.98,1551189419.96875
24.19,1551189419.984375
28.64,1551189420.0
32.18,1551189420.015625
35.52,1551189420.03125
38.98,1551189420.046875
42.45,1551189420.0625
45.67,1551189420.078125
48.44,1551189420.09375
50.83,1551189420.109375
53.13,1551189420.125
55.77,1551189420.140625
59.09,1551189420.15625
63.28,1551189420.171875
68.33,1551189420.1875
74.04,1551189420.203125
80.15,1551189420.21875
86.37,1551189420.234375
92.52,1551189420.25
98.52,1551189420.265625
104.48,1551189420.28125
110.68,1551189420.296875
117.36,1551189420.3125
124.62,1551189420.328125
132.15,1551189420.34375
139.17,1551189420.359375
144.49,1551189420.375
146.76,1551189420.390625
144.8,1551189420.40625
138.01,1551189420.421875
126.49,1551189420.4375
111.14,1551189420.453125
93.32,1551189420.46875
74.6,1551189420.484375
56.31,1551189420.5
39.36,1551189420.515625
24.11,1551189420.53125
10.57,1551189420.546875
-1.43,1551189420.5625
-11.98,1551189420.578125
-21.06,1551189420.59375
-28.47,1551189420.609375
-34.02,1551189420.625
-37.56,1551189420.640625
-39.05,1551189420.65625
-38.69,1551189420.671875
-36.95,1551189420.6875
-34.73,1551189420.703125
-33.33,1551189420.71875
-34.17,1551189420.734375
-38.4,1551189420.75
-46.41,1551189420.765625
-57.58,1551189420.78125
-70.4,1551189420.796875
-83.02,1551189420.8125
-93.91,1551189420.828125
-102.34,1551189420.84375
-108.44,1551189420.859375
-112.91,1551189420.875
-116.47,1551189420.890625
-119.47,1551189420.90625
-121.77,1551189420.921875
-122.93,1551189420.9375
-122.63,1551189420.953125
-120.85,1551189420.96875
-117.96,1551189420.984375
-114.48,1551189421.0
-110.81,1551189421.015625
-106.99,1551189421.03125
-102.77,1551189421.046875
-97.78,1551189421.0625
-91.85,1551189421.078125
-85.07,1551189421.09375
-77.85,1551189421.109375
-70.67,1551189421.125
-63.92,1551189421.140625
-57.77,1551189421.15625
-52.25,1551189421.171875
-47.32,1551189421.1875
-42.93,1551189421.203125
-39.12,1551189421.21875
-35.96,1551189421.234375
-33.53,1551189421.25
-31.87,1551189421.265625
-30.97,1551189421.28125
-30.69,1551189421.296875
-30.77,1551189421.3125
-30.83,1551189421.328125
-30.47,1551189421.34375
-29.41,1551189421.359375
-27.7,1551189421.375
-25.68,1551189421.390625
-23.85,1551189421.40625
-22.69,1551189421.421875
-22.46,1551189421.4375
-23.13,1551189421.453125
-24.5,1551189421.46875
-26.39,1551189421.484375
-28.79,1551189421.5
-31.89,1551189421.515625
-35.99,1551189421.53125
-41.34,1551189421.546875
-48.06,1551189421.5625
-56.08,1551189421.578125
-65.04,1551189421.59375
-74.34,1551189421.609375
-82.99,1551189421.625
-89.81,1551189421.640625
-93.58,1551189421.65625
-93.48,1551189421.671875
-89.39,1551189421.6875
-82.03,1551189421.703125
-72.85,1551189421.71875
-63.51,1551189421.734375
-55.35,1551189421.75
-49.0,1551189421.765625
-44.33,1551189421.78125
-40.67,1551189421.796875
-37.23,1551189421.8125
-33.48,1551189421.828125
-29.28,1551189421.84375
-24.9,1551189421.859375
-20.72,1551189421.875
-17.11,1551189421.890625
-14.25,1551189421.90625
-12.13,1551189421.921875
-10.57,1551189421.9375
-9.3,1551189421.953125
-8.06,1551189421.96875
-6.53,1551189421.984375
-4.52,1551189422.0
-1.9,1551189422.015625
1.25,1551189422.03125
4.71,1551189422.046875
8.07,1551189422.0625
10.93,1551189422.078125
12.97,1551189422.09375
14.09,1551189422.109375
14.48,1551189422.125
14.49,1551189422.140625
14.49,1551189422.15625
14.72,1551189422.171875
15.25,1551189422.1875
15.96,1551189422.203125
16.63,1551189422.21875
17.04,1551189422.234375
17.05,1551189422.25
16.66,1551189422.265625
15.95,1551189422.28125
15.08,1551189422.296875
14.19,1551189422.3125
13.33,1551189422.328125
12.46,1551189422.34375
11.54,1551189422.359375
10.59,1551189422.375
9.64,1551189422.390625
8.76,1551189422.40625
7.86,1551189422.421875
6.69,1551189422.4375
4.81,1551189422.453125
1.8,1551189422.46875
-2.57,1551189422.484375
-8.16,1551189422.5
-14.34,1551189422.515625
-20.14,1551189422.53125
-24.42,1551189422.546875
-26.22,1551189422.5625
-24.93,1551189422.578125
-20.51,1551189422.59375
-13.54,1551189422.609375
-5.01,1551189422.625
3.84,1551189422.640625
11.91,1551189422.65625
18.41,1551189422.671875
23.07,1551189422.6875
26.07,1551189422.703125
27.93,1551189422.71875
29.37,1551189422.734375
31.04,1551189422.75
33.34,1551189422.765625
36.35,1551189422.78125
39.81,1551189422.796875
43.27,1551189422.8125
46.32,1551189422.828125
48.76,1551189422.84375
50.65,1551189422.859375
52.26,1551189422.875
53.82,1551189422.890625
55.4,1551189422.90625
56.85,1551189422.921875
57.95,1551189422.9375
58.52,1551189422.953125
58.55,1551189422.96875
58.11,1551189422.984375
57.28,1551189423.0
55.99,1551189423.015625
54.02,1551189423.03125
51.21,1551189423.046875
47.53,1551189423.0625
43.26,1551189423.078125
38.85,1551189423.09375
34.83,1551189423.109375
31.52,1551189423.125
28.91,1551189423.140625
26.62,1551189423.15625
24.02,1551189423.171875
20.52,1551189423.1875
15.81,1551189423.203125
10.0,1551189423.21875
3.62,1551189423.234375
-2.62,1551189423.25
-8.1,1551189423.265625
-12.56,1551189423.28125
-16.12,1551189423.296875
-19.22,1551189423.3125
-22.39,1551189423.328125
-26.03,1551189423.34375
-30.26,1551189423.359375
-34.96,1551189423.375
-39.69,1551189423.390625
-43.78,1551189423.40625
-46.39,1551189423.421875
-46.65,1551189423.4375
-43.89,1551189423.453125
-37.95,1551189423.46875
-29.32,1551189423.484375
-19.1,1551189423.5
-8.71,1551189423.515625
0.58,1551189423.53125
7.93,1551189423.546875
13.16,1551189423.5625
16.63,1551189423.578125
18.96,1551189423.59375
20.73,1551189423.609375
22.26,1551189423.625
23.68,1551189423.640625
24.94,1551189423.65625
26.03,1551189423.671875
27.03,1551189423.6875
28.14,1551189423.703125
29.53,1551189423.71875
31.29,1551189423.734375
33.3,1551189423.75
35.34,1551189423.765625
37.21,1551189423.78125
38.82,1551189423.796875
40.2,1551189423.8125
41.42,1551189423.828125
42.45,1551189423.84375
43.05,1551189423.859375
42.86,1551189423.875
41.53,1551189423.890625
38.84,1551189423.90625
34.85,1551189423.921875
29.85,1551189423.9375
24.28,1551189423.953125
18.7,1551189423.96875
13.58,1551189423.984375
9.33,1551189424.0
6.09,1551189424.015625
3.78,1551189424.03125
2.04,1551189424.046875
0.44,1551189424.0625
-1.39,1551189424.078125
-3.57,1551189424.09375
-5.95,1551189424.109375
-8.25,1551189424.125
-10.23,1551189424.140625
-11.93,1551189424.15625
-13.59,1551189424.171875
-15.61,1551189424.1875
-18.3,1551189424.203125
-21.8,1551189424.21875
-26.07,1551189424.234375
-30.92,1551189424.25
-36.04,1551189424.265625
-40.94,1551189424.28125
-44.94,1551189424.296875
-47.17,1551189424.3125
-46.81,1551189424.328125
-43.46,1551189424.34375
-37.34,1551189424.359375
-29.41,1551189424.375
-20.98,1551189424.390625
-13.29,1551189424.40625
-7.05,1551189424.421875
-2.22,1551189424.4375
1.69,1551189424.453125
5.3,1551189424.46875
9.0,1551189424.484375
12.8,1551189424.5
16.46,1551189424.515625
19.7,1551189424.53125
22.41,1551189424.546875
24.64,1551189424.5625
26.5,1551189424.578125
28.12,1551189424.59375
29.57,1551189424.609375
30.92,1551189424.625
32.28,1551189424.640625
33.79,1551189424.65625
35.5,1551189424.671875
37.33,1551189424.6875
39.07,1551189424.703125
40.43,1551189424.71875
41.19,1551189424.734375
41.27,1551189424.75
40.69,1551189424.765625
39.49,1551189424.78125
37.71,1551189424.796875
35.39,1551189424.8125
32.63,1551189424.828125
29.69,1551189424.84375
26.92,1551189424.859375
24.65,1551189424.875
23.0,1551189424.890625
21.84,1551189424.90625
20.74,1551189424.921875
19.26,1551189424.9375
17.1,1551189424.953125
14.27,1551189424.96875
11.01,1551189424.984375
7.7,1551189425.0
4.7,1551189425.015625
2.14,1551189425.03125
0.01,1551189425.046875
-1.87,1551189425.0625
-3.74,1551189425.078125
-5.92,1551189425.09375
-8.77,1551189425.109375
-12.59,1551189425.125
-17.57,1551189425.140625
-23.58,1551189425.15625
-30.06,1551189425.171875
-36.03,1551189425.1875
-40.27,1551189425.203125
-41.71,1551189425.21875
-39.76,1551189425.234375
-34.56,1551189425.25
-26.97,1551189425.265625
-18.33,1551189425.28125
-9.98,1551189425.296875
-2.93,1551189425.3125
2.44,1551189425.328125
6.3,1551189425.34375
9.2,1551189425.359375
11.72,1551189425.375
14.2,1551189425.390625
16.63,1551189425.40625
18.77,1551189425.421875
20.29,1551189425.4375
21.0,1551189425.453125
21.0,1551189425.46875
20.57,1551189425.484375
20.02,1551189425.5
19.55,1551189425.515625
19.18,1551189425.53125
18.78,1551189425.546875
18.29,1551189425.5625
17.72,1551189425.578125
17.23,1551189425.59375
16.94,1551189425.609375
16.83,1551189425.625
16.67,1551189425.640625
16.17,1551189425.65625
15.09,1551189425.671875
13.36,1551189425.6875
11.09,1551189425.703125
8.48,1551189425.71875
5.72,1551189425.734375
2.85,1551189425.75
-0.12,1551189425.765625
-3.23,1551189425.78125
-6.46,1551189425.796875
-9.8,1551189425.8125
-13.2,1551189425.828125
-16.61,1551189425.84375
-19.99,1551189425.859375
-23.2,1551189425.875
-26.0,1551189425.890625
-28.07,1551189425.90625
-29.17,1551189425.921875
-29.28,1551189425.9375
-28.65,1551189425.953125
-27.81,1551189425.96875
-27.43,1551189425.984375
-28.08,1551189426.0
-30.07,1551189426.015625
-33.36,1551189426.03125
-37.5,1551189426.046875
-41.77,1551189426.0625
-45.27,1551189426.078125
-47.09,1551189426.09375
-46.49,1551189426.109375
-43.02,1551189426.125
-36.73,1551189426.140625
-28.19,1551189426.15625
-18.5,1551189426.171875
-8.95,1551189426.1875
-0.65,1551189426.203125
5.79,1551189426.21875
10.52,1551189426.234375
14.17,1551189426.25
17.47,1551189426.265625
20.88,1551189426.28125
24.37,1551189426.296875
27.46,1551189426.3125
29.7,1551189426.328125
30.95,1551189426.34375
31.47,1551189426.359375
31.81,1551189426.375
32.43,1551189426.390625
33.49,1551189426.40625
34.74,1551189426.421875
35.75,1551189426.4375
36.2,1551189426.453125
36.02,1551189426.46875
35.45,1551189426.484375
34.8,1551189426.5
34.25,1551189426.515625
33.73,1551189426.53125
32.95,1551189426.546875
31.64,1551189426.5625
29.64,1551189426.578125
27.06,1551189426.59375
24.17,1551189426.609375
21.3,1551189426.625
18.64,1551189426.640625
16.27,1551189426.65625
14.11,1551189426.671875
12.09,1551189426.6875
10.18,1551189426.703125
8.4,1551189426.71875
6.68,1551189426.734375
4.87,1551189426.75
2.75,1551189426.765625
0.19,1551189426.78125
-2.79,1551189426.796875
-6.03,1551189426.8125
-9.29,1551189426.828125
-12.4,1551189426.84375
-15.32,1551189426.859375
-18.17,1551189426.875
-21.14,1551189426.890625
-24.42,1551189426.90625
-28.15,1551189426.921875
-32.36,1551189426.9375
-36.88,1551189426.953125
-41.26,1551189426.96875
-44.74,1551189426.984375
-46.43,1551189427.0
-45.48,1551189427.015625
-41.46,1551189427.03125
-34.53,1551189427.046875
-25.43,1551189427.0625
-15.32,1551189427.078125
-5.37,1551189427.09375
3.46,1551189427.109375
10.7,1551189427.125
16.31,1551189427.140625
20.59,1551189427.15625
23.98,1551189427.171875
26.9,1551189427.1875
29.62,1551189427.203125
32.27,1551189427.21875
34.84,1551189427.234375
37.29,1551189427.25
39.58,1551189427.265625
41.69,1551189427.28125
43.61,1551189427.296875
45.31,1551189427.3125
46.76,1551189427.328125
48.0,1551189427.34375
49.19,1551189427.359375
50.57,1551189427.375
52.42,1551189427.390625
54.93,1551189427.40625
58.03,1551189427.421875
61.4,1551189427.4375
64.5,1551189427.453125
66.8,1551189427.46875
67.94,1551189427.484375
67.9,1551189427.5
67.07,1551189427.515625
66.08,1551189427.53125
65.57,1551189427.546875
65.96,1551189427.5625
67.3,1551189427.578125
69.36,1551189427.59375
71.8,1551189427.609375
74.38,1551189427.625
77.07,1551189427.640625
80.06,1551189427.65625
83.64,1551189427.671875
88.09,1551189427.6875
93.62,1551189427.703125
100.33,1551189427.71875
108.13,1551189427.734375
116.72,1551189427.75
125.43,1551189427.765625
133.28,1551189427.78125
139.12,1551189427.796875
141.86,1551189427.8125
140.84,1551189427.828125
136.03,1551189427.84375
128.01,1551189427.859375
117.77,1551189427.875
106.32,1551189427.890625
94.35,1551189427.90625
81.93,1551189427.921875
68.54,1551189427.9375
53.23,1551189427.953125
35.11,1551189427.96875
13.73,1551189427.984375
-10.68,1551189428.0
-37.1,1551189428.015625
-64.06,1551189428.03125
-90.02,1551189428.046875
-113.69,1551189428.0625
-134.27,1551189428.078125
-151.43,1551189428.09375
-165.15,1551189428.109375
-175.66,1551189428.125
-183.19,1551189428.140625
-187.99,1551189428.15625
-190.16,1551189428.171875
-189.69,1551189428.1875
-186.46,1551189428.203125
-180.36,1551189428.21875
-171.46,1551189428.234375
-160.21,1551189428.25
-147.34,1551189428.265625
-133.75,1551189428.28125
-120.28,1551189428.296875
-107.47,1551189428.3125
-95.53,1551189428.328125
-84.41,1551189428.34375
-73.99,1551189428.359375
-64.17,1551189428.375
-54.95,1551189428.390625
-46.35,1551189428.40625
-38.33,1551189428.421875
-30.76,1551189428.4375
-23.42,1551189428.453125
-16.16,1551189428.46875
-8.95,1551189428.484375
-1.97,1551189428.5
4.43,1551189428.515625
9.89,1551189428.53125
14.21,1551189428.546875
17.44,1551189428.5625
19.86,1551189428.578125
21.81,1551189428.59375
23.47,1551189428.609375
24.72,1551189428.625
25.18,1551189428.640625
24.4,1551189428.65625
22.0,1551189428.671875
17.85,1551189428.6875
11.95,1551189428.703125
4.5,1551189428.71875
-4.18,1551189428.734375
-13.53,1551189428.75
-22.79,1551189428.765625
-31.07,1551189428.78125
-37.6,1551189428.796875
-42.08,1551189428.8125
-44.81,1551189428.828125
-46.62,1551189428.84375
-48.4,1551189428.859375
-50.63,1551189428.875
-53.09,1551189428.890625
-54.91,1551189428.90625
-55.09,1551189428.921875
-53.0,1551189428.9375
-48.82,1551189428.953125
-43.38,1551189428.96875
-37.83,1551189428.984375
-33.12,1551189429.0
-29.65,1551189429.015625
-27.26,1551189429.03125
-25.43,1551189429.046875
-23.68,1551189429.0625
-21.74,1551189429.078125
-19.62,1551189429.09375
-17.44,1551189429.109375
-15.38,1551189429.125
-13.6,1551189429.140625
-12.2,1551189429.15625
-11.33,1551189429.171875
-11.06,1551189429.1875
-11.38,1551189429.203125
-12.07,1551189429.21875
-12.79,1551189429.234375
-13.23,1551189429.25
-13.26,1551189429.265625
-12.96,1551189429.28125
-12.59,1551189429.296875
-12.38,1551189429.3125
-12.46,1551189429.328125
-12.83,1551189429.34375
-13.43,1551189429.359375
-14.28,1551189429.375
-15.43,1551189429.390625
-16.99,1551189429.40625
-18.97,1551189429.421875
-21.31,1551189429.4375
-23.86,1551189429.453125
-26.48,1551189429.46875
-29.1,1551189429.484375
-31.75,1551189429.5
-34.44,1551189429.515625
-37.19,1551189429.53125
-39.92,1551189429.546875
-42.53,1551189429.5625
-45.01,1551189429.578125
-47.47,1551189429.59375
-50.05,1551189429.609375
-52.9,1551189429.625
-55.93,1551189429.640625
-58.76,1551189429.65625
-60.68,1551189429.671875
-60.9,1551189429.6875
-58.69,1551189429.703125
-53.71,1551189429.71875
-46.19,1551189429.734375
-36.88,1551189429.75
-26.84,1551189429.765625
-17.23,1551189429.78125
-8.93,1551189429.796875
-2.35,1551189429.8125
2.55,1551189429.828125
6.18,1551189429.84375
9.03,1551189429.859375
11.49,1551189429.875
13.75,1551189429.890625
15.78,1551189429.90625
17.5,1551189429.921875
18.94,1551189429.9375
20.3,1551189429.953125
21.83,1551189429.96875
23.7,1551189429.984375
25.86,1551189430.0
28.02,1551189430.015625
29.79,1551189430.03125
30.86,1551189430.046875
31.18,1551189430.0625
30.95,1551189430.078125
30.46,1551189430.09375
29.93,1551189430.109375
29.38,1551189430.125
28.63,1551189430.140625
27.45,1551189430.15625
25.71,1551189430.171875
23.45,1551189430.1875
20.88,1551189430.203125
18.29,1551189430.21875
15.93,1551189430.234375
13.94,1551189430.25
12.33,1551189430.265625
10.98,1551189430.28125
9.67,1551189430.296875
8.12,1551189430.3125
6.09,1551189430.328125
3.48,1551189430.34375
0.4,1551189430.359375
-2.86,1551189430.375
-5.94,1551189430.390625
-8.54,1551189430.40625
-10.58,1551189430.421875
-12.2,1551189430.4375
-13.73,1551189430.453125
-15.52,1551189430.46875
-17.9,1551189430.484375
-21.11,1551189430.5
-25.24,1551189430.515625
-30.17,1551189430.53125
-35.44,1551189430.546875
-40.18,1551189430.5625
-43.28,1551189430.578125
-43.68,1551189430.59375
-40.81,1551189430.609375
-34.81,1551189430.625
-26.62,1551189430.640625
-17.67,1551189430.65625
-9.34,1551189430.671875
-2.58,1551189430.6875
2.35,1551189430.703125
5.85,1551189430.71875
8.67,1551189430.734375
11.53,1551189430.75
14.87,1551189430.765625
18.76,1551189430.78125
22.99,1551189430.796875
27.28,1551189430.8125
31.44,1551189430.828125
35.46,1551189430.84375
39.42,1551189430.859375
43.44,1551189430.875
47.53,1551189430.890625
51.61,1551189430.90625
55.54,1551189430.921875
59.19,1551189430.9375
62.52,1551189430.953125
65.52,1551189430.96875
68.13,1551189430.984375
70.21,1551189431.0
71.42,1551189431.015625
71.42,1551189431.03125
69.92,1551189431.046875
66.88,1551189431.0625
62.56,1551189431.078125
57.46,1551189431.09375
52.17,1551189431.109375
47.29,1551189431.125
43.22,1551189431.140625
40.06,1551189431.15625
37.66,1551189431.171875
35.67,1551189431.1875
33.68,1551189431.203125
31.42,1551189431.21875
28.8,1551189431.234375
25.92,1551189431.25
23.02,1551189431.265625
20.32,1551189431.28125
18.0,1551189431.296875
16.12,1551189431.3125
14.67,1551189431.328125
13.53,1551189431.34375
12.42,1551189431.359375
10.84,1551189431.375
8.09,1551189431.390625
3.48,1551189431.40625
-3.32,1551189431.421875
-11.9,1551189431.4375
-21.1,1551189431.453125
-29.19,1551189431.46875
-34.52,1551189431.484375
-36.03,1551189431.5
-33.74,1551189431.515625
-28.59,1551189431.53125
-22.18,1551189431.546875
-16.09,1551189431.5625
-11.52,1551189431.578125
-8.96,1551189431.59375
-8.35,1551189431.609375
-9.22,1551189431.625
-10.95,1551189431.640625
-13.01,1551189431.65625
-15.03,1551189431.671875
-16.82,1551189431.6875
-18.29,1551189431.703125
-19.35,1551189431.71875
-19.82,1551189431.734375
-19.45,1551189431.75
-18.06,1551189431.765625
-15.69,1551189431.78125
-12.66,1551189431.796875
-9.47,1551189431.8125
-6.6,1551189431.828125
-4.27,1551189431.84375
-2.35,1551189431.859375
-0.52,1551189431.875
1.49,1551189431.890625
3.68,1551189431.90625
5.7,1551189431.921875
7.05,1551189431.9375
7.37,1551189431.953125
6.6,1551189431.96875
5.07,1551189431.984375
3.28,1551189432.0
1.69,1551189432.015625
0.51,1551189432.03125
-0.35,1551189432.046875
-1.13,1551189432.0625
-2.06,1551189432.078125
-3.31,1551189432.09375
-4.85,1551189432.109375
-6.61,1551189432.125
-8.49,1551189432.140625
-10.45,1551189432.15625
-12.45,1551189432.171875
-14.45,1551189432.1875
-16.41,1551189432.203125
-18.35,1551189432.21875
-20.41,1551189432.234375
-22.86,1551189432.25
-26.07,1551189432.265625
-30.4,1551189432.28125
-35.88,1551189432.296875
-42.14,1551189432.3125
-48.31,1551189432.328125
-53.2,1551189432.34375
-55.65,1551189432.359375
-54.91,1551189432.375
-50.89,1551189432.390625
-44.24,1551189432.40625
-36.08,1551189432.421875
-27.7,1551189432.4375
-20.06,1551189432.453125
-13.73,1551189432.46875
-8.74,1551189432.484375
-4.78,1551189432.5
-1.4,1551189432.515625
1.72,1551189432.53125
4.73,1551189432.546875
7.56,1551189432.5625
10.03,1551189432.578125
11.97,1551189432.59375
13.34,1551189432.609375
14.26,1551189432.625
14.99,1551189432.640625
15.8,1551189432.65625
16.9,1551189432.671875
18.32,1551189432.6875
19.91,1551189432.703125
21.47,1551189432.71875
22.77,1551189432.734375
23.71,1551189432.75
24.23,1551189432.765625
24.33,1551189432.78125
23.96,1551189432.796875
23.07,1551189432.8125
21.62,1551189432.828125
19.64,1551189432.84375
17.34,1551189432.859375
15.01,1551189432.875
13.01,1551189432.890625
11.54,1551189432.90625
10.61,1551189432.921875
10.01,1551189432.9375
9.38,1551189432.953125
8.41,1551189432.96875
6.88,1551189432.984375
4.74,1551189433.0
2.03,1551189433.015625
-1.14,1551189433.03125
-4.61,1551189433.046875
-8.27,1551189433.0625
-11.96,1551189433.078125
-15.56,1551189433.09375
-18.99,1551189433.109375
-22.26,1551189433.125
-25.43,1551189433.140625
-28.66,1551189433.15625
-32.16,1551189433.171875
-36.15,1551189433.1875
-40.79,1551189433.203125
-46.04,1551189433.21875
-51.46,1551189433.234375
-56.16,1551189433.25
-58.98,1551189433.265625
-58.82,1551189433.28125
-55.14,1551189433.296875
-48.2,1551189433.3125
-39.09,1551189433.328125
-29.32,1551189433.34375
-20.28,1551189433.359375
-12.82,1551189433.375
-7.04,1551189433.390625
-2.53,1551189433.40625
1.36,1551189433.421875
5.1,1551189433.4375
8.88,1551189433.453125
12.63,1551189433.46875
16.21,1551189433.484375
19.52,1551189433.5
22.59,1551189433.515625
25.57,1551189433.53125
28.6,1551189433.546875
31.81,1551189433.5625
35.21,1551189433.578125
38.71,1551189433.59375
42.12,1551189433.609375
45.19,1551189433.625
47.7,1551189433.640625
49.56,1551189433.65625
50.77,1551189433.671875
51.5,1551189433.6875
51.88,1551189433.703125
51.95,1551189433.71875
51.62,1551189433.734375
50.63,1551189433.75
48.78,1551189433.765625
46.04,1551189433.78125
42.65,1551189433.796875
39.01,1551189433.8125
35.56,1551189433.828125
32.55,1551189433.84375
29.95,1551189433.859375
27.46,1551189433.875
24.69,1551189433.890625
21.33,1551189433.90625
17.33,1551189433.921875
12.85,1551189433.9375
8.19,1551189433.953125
3.62,1551189433.96875
-0.73,1551189433.984375
-4.84,1551189434.0
-8.8,1551189434.015625
-12.68,1551189434.03125
-16.58,1551189434.046875
-20.68,1551189434.0625
-25.2,1551189434.078125
-30.35,1551189434.09375
-36.11,1551189434.109375
-42.09,1551189434.125
-47.43,1551189434.140625
-50.97,1551189434.15625
-51.66,1551189434.171875
-48.9,1551189434.1875
-42.78,1551189434.203125
-34.1,1551189434.21875
-24.13,1551189434.234375
-14.17,1551189434.25
-5.25,1551189434.265625
2.1,1551189434.28125
7.85,1551189434.296875
12.32,1551189434.3125
15.96,1551189434.328125
19.06,1551189434.34375
21.68,1551189434.359375
23.65,1551189434.375
24.84,1551189434.390625
25.32,1551189434.40625
25.42,1551189434.421875
25.68,1551189434.4375
26.52,1551189434.453125
28.1,1551189434.46875
30.22,1551189434.484375
32.48,1551189434.5
34.45,1551189434.515625
35.91,1551189434.53125
36.86,1551189434.546875
37.41,1551189434.5625
37.64,1551189434.578125
37.5,1551189434.59375
36.84,1551189434.609375
35.5,1551189434.625
33.44,1551189434.640625
30.76,1551189434.65625
27.67,1551189434.671875
24.42,1551189434.6875
21.2,1551189434.703125
18.17,1551189434.71875
15.36,1551189434.734375
12.8,1551189434.75
10.45,1551189434.765625
8.23,1551189434.78125
6.01,1551189434.796875
3.67,1551189434.8125
1.09,1551189434.828125
-1.77,1551189434.84375
-4.84,1551189434.859375
-7.93,1551189434.875
-10.9,1551189434.890625
-13.68,1551189434.90625
-16.42,1551189434.921875
-19.38,1551189434.9375
-22.89,1551189434.953125
-27.17,1551189434.96875
-32.29,1551189434.984375
-38.14,1551189435.0
-44.36,1551189435.015625
-50.4,1551189435.03125
-55.46,1551189435.046875
-58.56,1551189435.0625
-58.82,1551189435.078125
-55.72,1551189435.09375
-49.41,1551189435.109375
-40.71,1551189435.125
-30.92,1551189435.140625
-21.43,1551189435.15625
-13.23,1551189435.171875
-6.69,1551189435.1875
-1.5,1551189435.203125
3.0,1551189435.21875
7.49,1551189435.234375
12.32,1551189435.25
17.35,1551189435.265625
22.12,1551189435.28125
26.07,1551189435.296875
28.83,1551189435.3125
30.45,1551189435.328125
31.37,1551189435.34375
32.13,1551189435.359375
33.23,1551189435.375
34.81,1551189435.390625
36.68,1551189435.40625
38.46,1551189435.421875
39.79,1551189435.4375
40.5,1551189435.453125
40.59,1551189435.46875
40.16,1551189435.484375
39.26,1551189435.5
37.88,1551189435.515625
35.94,1551189435.53125
33.41,1551189435.546875
30.38,1551189435.5625
27.08,1551189435.578125
23.81,1551189435.59375
20.76,1551189435.609375
17.97,1551189435.625
15.32,1551189435.640625
12.66,1551189435.65625
9.88,1551189435.671875
6.97,1551189435.6875
4.05,1551189435.703125
1.21,1551189435.71875
-1.53,1551189435.734375
-4.22,1551189435.75
-6.93,1551189435.765625
-9.67,1551189435.78125
-12.38,1551189435.796875
-14.97,1551189435.8125
-17.4,1551189435.828125
-19.71,1551189435.84375
-22.09,1551189435.859375
-24.79,1551189435.875
-28.03,1551189435.890625
-31.98,1551189435.90625
-36.69,1551189435.921875
-41.99,1551189435.9375
-47.49,1551189435.953125
-52.45,1551189435.96875
-55.93,1551189435.984375
-57.01,1551189436.0
-55.12,1551189436.015625
-50.25,1551189436.03125
-42.98,1551189436.046875
-34.32,1551189436.0625
-25.39,1551189436.078125
-17.04,1551189436.09375
-9.74,1551189436.109375
-3.51,1551189436.125
1.83,1551189436.140625
6.54,1551189436.15625
10.75,1551189436.171875
14.42,1551189436.1875
17.42,1551189436.203125
19.65,1551189436.21875
21.18,1551189436.234375
22.22,1551189436.25
23.11,1551189436.265625
24.17,1551189436.28125
25.56,1551189436.296875
27.19,1551189436.3125
28.79,1551189436.328125
30.07,1551189436.34375
30.85,1551189436.359375
31.16,1551189436.375
31.15,1551189436.390625
31.0,1551189436.40625
30.81,1551189436.421875
30.54,1551189436.4375
30.07,1551189436.453125
29.34,1551189436.46875
28.35,1551189436.484375
27.19,1551189436.5
25.97,1551189436.515625
24.71,1551189436.53125
23.38,1551189436.546875
21.87,1551189436.5625
20.15,1551189436.578125
18.25,1551189436.59375
16.15,1551189436.609375
13.79,1551189436.625
11.02,1551189436.640625
7.73,1551189436.65625
3.89,1551189436.671875
-0.29,1551189436.6875
-4.52,1551189436.703125
-8.64,1551189436.71875
-12.61,1551189436.734375
-16.7,1551189436.75
-21.23,1551189436.765625
-26.46,1551189436.78125
-32.44,1551189436.796875
-39.04,1551189436.8125
-46.05,1551189436.828125
-53.2,1551189436.84375
-60.13,1551189436.859375
-66.16,1551189436.875
-70.37,1551189436.890625
-71.68,1551189436.90625
-69.36,1551189436.921875
-63.38,1551189436.9375
-54.6,1551189436.953125
-44.49,1551189436.96875
-34.62,1551189436.984375
-26.11,1551189437.0
-19.29,1551189437.015625
-13.87,1551189437.03125
-9.22,1551189437.046875
-4.82,1551189437.0625
-0.5,1551189437.078125
3.55,1551189437.09375
7.0,1551189437.109375
9.58,1551189437.125
11.16,1551189437.140625
11.85,1551189437.15625
11.88,1551189437.171875
11.59,1551189437.1875
11.33,1551189437.203125
11.36,1551189437.21875
11.8,1551189437.234375
12.51,1551189437.25
13.23,1551189437.265625
13.57,1551189437.28125
13.24,1551189437.296875
12.06,1551189437.3125
10.02,1551189437.328125
7.19,1551189437.34375
3.64,1551189437.359375
-0.56,1551189437.375
-5.35,1551189437.390625
-10.59,1551189437.40625
-16.08,1551189437.421875
