PPG GREEN,time
2075647.0,1551189360.021
2075717.0,1551189360.062
2076205.0,1551189360.103
2076566.0,1551189360.141
2076749.0,1551189360.182
2077242.0,1551189360.262
2077053.0,1551189360.223
2077754.0,1551189360.302
2077918.0,1551189360.343
2078390.0,1551189360.382
2078306.0,1551189360.422
2078010.0,1551189360.503
2078114.0,1551189360.542
2078394.0,1551189360.583
2078362.0,1551189360.463
2078262.0,1551189360.619
2078714.0,1551189360.66
2078653.0,1551189360.702
2078996.0,1551189360.74
2079683.0,1551189360.78
2080462.0,1551189360.822
2081504.0,1551189360.861
2082233.0,1551189360.902
2082968.0,1551189360.942
2083421.0,1551189360.981
2083629.0,1551189361.022
2083581.0,1551189361.061
2083912.0,1551189361.1
2084842.0,1551189361.14
2089659.0,1551189361.22
2093866.0,1551189361.26
2100280.0,1551189361.302
2086896.0,1551189361.181
2113528.0,1551189361.381
2107744.0,1551189361.341
2118157.0,1551189361.422
2128411.0,1551189361.502
2123290.0,1551189361.461
2133302.0,1551189361.541
2138311.0,1551189361.58
2143242.0,1551189361.62
2152435.0,1551189361.701
2149309.0,1551189361.662
2152846.0,1551189361.741
2152982.0,1551189361.782
2152803.0,1551189361.821
2152489.0,1551189361.862
2153102.0,1551189361.904
2153233.0,1551189361.94
2154046.0,1551189361.98
2155349.0,1551189362.022
2157532.0,1551189362.061
2159211.0,1551189362.102
2160908.0,1551189362.143
2162845.0,1551189362.182
2163628.0,1551189362.222
2163866.0,1551189362.263
2163976.0,1551189362.301
2164458.0,1551189362.382
2164211.0,1551189362.341
2165673.0,1551189362.421
2167101.0,1551189362.461
2168186.0,1551189362.503
2169782.0,1551189362.542
2171359.0,1551189362.582
2172929.0,1551189362.623
2176735.0,1551189362.703
2174921.0,1551189362.662
2178657.0,1551189362.742
2180137.0,1551189362.781
2181360.0,1551189362.821
2181821.0,1551189362.862
2180820.0,1551189362.942
2181752.0,1551189362.902
2179362.0,1551189362.983
2175749.0,1551189363.063
2177829.0,1551189363.023
2170034.0,1551189363.141
2164725.0,1551189363.223
2162492.0,1551189363.262
2160465.0,1551189363.303
2158727.0,1551189363.343
2157209.0,1551189363.382
2155312.0,1551189363.423
2167109.0,1551189363.181
2173359.0,1551189363.103
2154006.0,1551189363.464
2152367.0,1551189363.504
2151033.0,1551189363.541
2149638.0,1551189363.582
2148246.0,1551189363.622
2146913.0,1551189363.662
2146103.0,1551189363.704
2143997.0,1551189363.783
2143290.0,1551189363.821
2142219.0,1551189363.86
2141563.0,1551189363.901
2140704.0,1551189363.943
2140257.0,1551189363.982
2138144.0,1551189364.021
2135187.0,1551189364.063
2144922.0,1551189363.742
2132381.0,1551189364.103
2129424.0,1551189364.142
2126947.0,1551189364.183
2124413.0,1551189364.223
2121889.0,1551189364.263
2119887.0,1551189364.305
2117101.0,1551189364.343
2114805.0,1551189364.383
2112368.0,1551189364.425
2110423.0,1551189364.462
2108712.0,1551189364.503
2105028.0,1551189364.582
2103355.0,1551189364.623
2100443.0,1551189364.704
2098631.0,1551189364.743
2097370.0,1551189364.785
2106718.0,1551189364.543
2101936.0,1551189364.664
2094802.0,1551189364.862
2096110.0,1551189364.824
2087660.0,1551189364.943
2083304.0,1551189364.983
2091809.0,1551189364.904
2079801.0,1551189365.025
2076331.0,1551189365.064
2072725.0,1551189365.104
2070017.0,1551189365.145
2066593.0,1551189365.184
2060287.0,1551189365.264
2063238.0,1551189365.222
2057261.0,1551189365.303
2054739.0,1551189365.343
2051948.0,1551189365.384
2049417.0,1551189365.423
2046403.0,1551189365.464
2044367.0,1551189365.506
2042432.0,1551189365.544
2040365.0,1551189365.588
2038616.0,1551189365.629
2037146.0,1551189365.668
2035610.0,1551189365.709
2034123.0,1551189365.749
2030979.0,1551189365.788
2026453.0,1551189365.828
2021339.0,1551189365.869
2017160.0,1551189365.909
2013360.0,1551189365.948
2009141.0,1551189365.989
2005967.0,1551189366.028
2002445.0,1551189366.069
1999040.0,1551189366.11
1995886.0,1551189366.149
1992766.0,1551189366.189
1990601.0,1551189366.23
1988082.0,1551189366.269
1985801.0,1551189366.31
1983849.0,1551189366.35
1981904.0,1551189366.389
1980045.0,1551189366.429
1978305.0,1551189366.47
1976418.0,1551189366.51
1974841.0,1551189366.549
1973413.0,1551189366.59
1972083.0,1551189366.629
1970317.0,1551189366.67
1966306.0,1551189366.711
1961384.0,1551189366.75
1957141.0,1551189366.79
1953218.0,1551189366.831
1949391.0,1551189366.87
1945780.0,1551189366.911
1942389.0,1551189366.951
1939275.0,1551189366.99
1936015.0,1551189367.03
1933042.0,1551189367.071
1930861.0,1551189367.111
1929055.0,1551189367.15
1927498.0,1551189367.192
1925975.0,1551189367.231
1924073.0,1551189367.271
1922277.0,1551189367.312
1920801.0,1551189367.351
1919538.0,1551189367.391
1918731.0,1551189367.432
1917939.0,1551189367.471
1917152.0,1551189367.512
1916205.0,1551189367.552
1913455.0,1551189367.591
1909066.0,1551189367.631
1904890.0,1551189367.672
1901814.0,1551189367.712
1899665.0,1551189367.752
1897458.0,1551189367.793
1895463.0,1551189367.832
1893520.0,1551189367.872
1891242.0,1551189367.914
1889213.0,1551189367.952
1887496.0,1551189367.992
1886309.0,1551189368.033
1885277.0,1551189368.072
1884175.0,1551189368.113
1883482.0,1551189368.154
1884157.0,1551189368.193
1886570.0,1551189368.233
1889385.0,1551189368.274
1891838.0,1551189368.313
1894041.0,1551189368.353
1894903.0,1551189368.394
1895462.0,1551189368.433
1895702.0,1551189368.473
1893193.0,1551189368.515
1889662.0,1551189368.553
1886731.0,1551189368.593
1884133.0,1551189368.634
1881827.0,1551189368.673
1879009.0,1551189368.714
1876778.0,1551189368.755
1874193.0,1551189368.794
1871096.0,1551189368.834
1868506.0,1551189368.875
1866290.0,1551189368.915
1864270.0,1551189368.954
1862255.0,1551189368.995
1860449.0,1551189369.034
1859122.0,1551189369.074
1857907.0,1551189369.116
1857183.0,1551189369.154
1856610.0,1551189369.194
1856497.0,1551189369.236
1856594.0,1551189369.275
1856676.0,1551189369.315
1856327.0,1551189369.356
1853736.0,1551189369.395
1850563.0,1551189369.435
1848442.0,1551189369.476
1846463.0,1551189369.516
1844653.0,1551189369.555
1843431.0,1551189369.596
1842158.0,1551189369.635
1840848.0,1551189369.675
1839472.0,1551189369.717
1838331.0,1551189369.756
1837863.0,1551189369.796
1837490.0,1551189369.837
1837169.0,1551189369.876
1837382.0,1551189369.917
1837167.0,1551189369.957
1837325.0,1551189369.996
1837438.0,1551189370.036
1837846.0,1551189370.077
1837730.0,1551189370.117
1838405.0,1551189370.156
1838869.0,1551189370.198
1838356.0,1551189370.237
1835761.0,1551189370.277
1832654.0,1551189370.319
1830347.0,1551189370.357
1828328.0,1551189370.397
1826329.0,1551189370.433
1825108.0,1551189370.469
1823862.0,1551189370.51
1822876.0,1551189370.55
1821747.0,1551189370.59
1821087.0,1551189370.63
1820763.0,1551189370.671
1820630.0,1551189370.711
1820823.0,1551189370.751
1821223.0,1551189370.792
1821701.0,1551189370.829
1822237.0,1551189370.869
1823330.0,1551189370.911
1824108.0,1551189370.95
1824911.0,1551189370.99
1825852.0,1551189371.033
1826811.0,1551189371.071
1827381.0,1551189371.112
1825894.0,1551189371.15
1823047.0,1551189371.19
1820689.0,1551189371.23
1818934.0,1551189371.271
1817377.0,1551189371.311
1815670.0,1551189371.351
1814604.0,1551189371.392
1813532.0,1551189371.431
1812375.0,1551189371.471
1811309.0,1551189371.513
1810618.0,1551189371.55
1810481.0,1551189371.59
1810509.0,1551189371.631
1810754.0,1551189371.67
1811037.0,1551189371.711
1811446.0,1551189371.752
1811840.0,1551189371.791
1812608.0,1551189371.831
1813433.0,1551189371.873
1814205.0,1551189371.91
1815347.0,1551189371.95
1816240.0,1551189371.991
1816018.0,1551189372.031
1813923.0,1551189372.071
1811901.0,1551189372.113
1810627.0,1551189372.151
1809965.0,1551189372.192
1808783.0,1551189372.231
1808753.0,1551189372.27
1808148.0,1551189372.311
1807742.0,1551189372.352
1807426.0,1551189372.391
1807416.0,1551189372.431
1808000.0,1551189372.473
1808557.0,1551189372.513
1809390.0,1551189372.552
1810155.0,1551189372.591
1810993.0,1551189372.63
1812087.0,1551189372.671
1812778.0,1551189372.713
1813787.0,1551189372.751
1815164.0,1551189372.792
1816303.0,1551189372.833
1817391.0,1551189372.872
1817021.0,1551189372.911
1814464.0,1551189372.952
1811646.0,1551189372.991
1809514.0,1551189373.032
1807633.0,1551189373.073
1805890.0,1551189373.113
1805737.0,1551189373.152
1806475.0,1551189373.193
1807249.0,1551189373.231
1808554.0,1551189373.271
1810281.0,1551189373.313
1812058.0,1551189373.351
1813939.0,1551189373.392
1815827.0,1551189373.433
1819253.0,1551189373.472
1822630.0,1551189373.513
1825592.0,1551189373.554
1827912.0,1551189373.591
1829905.0,1551189373.631
1831302.0,1551189373.673
1832940.0,1551189373.712
1834892.0,1551189373.752
1837226.0,1551189373.793
1837860.0,1551189373.833
1836515.0,1551189373.873
1834137.0,1551189373.913
1831447.0,1551189373.951
1828608.0,1551189373.992
1825847.0,1551189374.033
1823415.0,1551189374.072
1821739.0,1551189374.113
1819811.0,1551189374.153
1818242.0,1551189374.192
1817421.0,1551189374.233
1816597.0,1551189374.274
1815984.0,1551189374.314
1815868.0,1551189374.353
1815647.0,1551189374.392
1815745.0,1551189374.432
1815783.0,1551189374.472
1816142.0,1551189374.514
1816534.0,1551189374.553
1817094.0,1551189374.593
1817848.0,1551189374.634
1818195.0,1551189374.673
1816751.0,1551189374.712
1814409.0,1551189374.753
1812464.0,1551189374.792
1811242.0,1551189374.832
1810025.0,1551189374.874
1809041.0,1551189374.914
1808410.0,1551189374.953
1807945.0,1551189374.995
1809046.0,1551189375.034
1810600.0,1551189375.072
1812507.0,1551189375.114
1814417.0,1551189375.152
1816598.0,1551189375.193
1819413.0,1551189375.234
1823192.0,1551189375.273
1827770.0,1551189375.314
1832098.0,1551189375.355
1835939.0,1551189375.394
1839628.0,1551189375.432
1842821.0,1551189375.473
1845630.0,1551189375.513
1847240.0,1551189375.553
1847072.0,1551189375.594
1846661.0,1551189375.633
1847166.0,1551189375.674
1847563.0,1551189375.716
1848369.0,1551189375.754
1849291.0,1551189375.792
1850880.0,1551189375.834
1852569.0,1551189375.873
1853017.0,1551189375.914
1853399.0,1551189375.955
1853538.0,1551189375.994
1854103.0,1551189376.035
1854697.0,1551189376.076
1855795.0,1551189376.113
1856693.0,1551189376.153
1857582.0,1551189376.194
1858510.0,1551189376.233
1859202.0,1551189376.274
1860073.0,1551189376.316
1860797.0,1551189376.354
1861451.0,1551189376.394
1861813.0,1551189376.436
1860823.0,1551189376.473
1857438.0,1551189376.514
1854184.0,1551189376.554
1849519.0,1551189376.634
1851808.0,1551189376.594
1847357.0,1551189376.675
1843514.0,1551189376.754
1841433.0,1551189376.796
1845166.0,1551189376.715
1839321.0,1551189376.835
1837933.0,1551189376.873
1837096.0,1551189376.915
1836075.0,1551189376.954
1835593.0,1551189376.994
1835106.0,1551189377.036
1834815.0,1551189377.075
1834638.0,1551189377.116
1834527.0,1551189377.156
1834572.0,1551189377.193
1834872.0,1551189377.234
1834853.0,1551189377.275
1833500.0,1551189377.315
1830444.0,1551189377.354
1827443.0,1551189377.396
1825361.0,1551189377.435
1823052.0,1551189377.475
1821249.0,1551189377.517
1819843.0,1551189377.554
1818893.0,1551189377.596
1817608.0,1551189377.637
1816707.0,1551189377.676
1816178.0,1551189377.716
1816065.0,1551189377.757
1816009.0,1551189377.796
1816234.0,1551189377.836
1816541.0,1551189377.877
1816960.0,1551189377.917
1817593.0,1551189377.956
1818039.0,1551189377.997
1818761.0,1551189378.036
1819716.0,1551189378.076
1820460.0,1551189378.118
1821695.0,1551189378.155
1820800.0,1551189378.195
1818413.0,1551189378.237
1816025.0,1551189378.276
1814306.0,1551189378.317
1812681.0,1551189378.357
1811105.0,1551189378.396
1809971.0,1551189378.437
1809288.0,1551189378.478
1808286.0,1551189378.516
1807700.0,1551189378.555
1807152.0,1551189378.597
1807168.0,1551189378.636
1807230.0,1551189378.676
1807764.0,1551189378.718
1807767.0,1551189378.757
1808223.0,1551189378.797
1808764.0,1551189378.838
1809508.0,1551189378.875
1810097.0,1551189378.916
1810819.0,1551189378.957
1811689.0,1551189378.996
1812695.0,1551189379.037
1813321.0,1551189379.078
1811803.0,1551189379.118
1809832.0,1551189379.157
1808205.0,1551189379.199
1807426.0,1551189379.238
1806739.0,1551189379.278
1805937.0,1551189379.319
1805848.0,1551189379.356
1806158.0,1551189379.396
1806478.0,1551189379.437
1807546.0,1551189379.477
1809728.0,1551189379.518
1812973.0,1551189379.558
1816301.0,1551189379.597
1819930.0,1551189379.638
1823382.0,1551189379.679
1826147.0,1551189379.717
1829257.0,1551189379.756
1832533.0,1551189379.798
1835297.0,1551189379.837
1838281.0,1551189379.877
1841761.0,1551189379.919
1845271.0,1551189379.958
1847578.0,1551189379.998
1847514.0,1551189380.039
1846922.0,1551189380.076
1846832.0,1551189380.117
1846959.0,1551189380.158
1847128.0,1551189380.197
1847142.0,1551189380.237
1847068.0,1551189380.279
1846832.0,1551189380.319
1846383.0,1551189380.358
1846269.0,1551189380.399
1846604.0,1551189380.436
1847129.0,1551189380.477
1847681.0,1551189380.519
1848374.0,1551189380.557
1848431.0,1551189380.598
1849168.0,1551189380.639
1849980.0,1551189380.678
1850423.0,1551189380.719
1851505.0,1551189380.76
1853156.0,1551189380.797
1854546.0,1551189380.837
1855074.0,1551189380.878
1854778.0,1551189380.918
1852541.0,1551189380.958
1849379.0,1551189380.999
1847140.0,1551189381.039
1844857.0,1551189381.079
1842851.0,1551189381.119
1841002.0,1551189381.157
1839574.0,1551189381.197
1838247.0,1551189381.239
1837144.0,1551189381.278
1836469.0,1551189381.319
1836081.0,1551189381.359
1835839.0,1551189381.399
1836209.0,1551189381.439
1836613.0,1551189381.478
1837168.0,1551189381.518
1837739.0,1551189381.558
1838478.0,1551189381.599
1839421.0,1551189381.638
1840310.0,1551189381.678
1841163.0,1551189381.718
1842076.0,1551189381.757
1842821.0,1551189381.798
1842481.0,1551189381.838
1840476.0,1551189381.877
1838931.0,1551189381.918
1838030.0,1551189381.959
1836997.0,1551189381.998
1836043.0,1551189382.039
1835748.0,1551189382.08
1835817.0,1551189382.12
1835467.0,1551189382.159
1835259.0,1551189382.199
1835494.0,1551189382.238
1835974.0,1551189382.278
1836683.0,1551189382.32
1837348.0,1551189382.359
1838454.0,1551189382.399
1839159.0,1551189382.44
1840528.0,1551189382.479
1841738.0,1551189382.52
1843442.0,1551189382.559
1844727.0,1551189382.598
1846175.0,1551189382.638
1847494.0,1551189382.68
1848552.0,1551189382.72
1848316.0,1551189382.759
1846297.0,1551189382.801
1845061.0,1551189382.84
1844432.0,1551189382.878
1845285.0,1551189382.92
1847819.0,1551189382.959
1850516.0,1551189382.999
1853213.0,1551189383.041
1855762.0,1551189383.08
1858815.0,1551189383.121
1861775.0,1551189383.161
1865033.0,1551189383.198
1867853.0,1551189383.239
1871152.0,1551189383.28
1874122.0,1551189383.32
1877309.0,1551189383.359
1880221.0,1551189383.401
1883073.0,1551189383.44
1885800.0,1551189383.48
1888552.0,1551189383.522
1891333.0,1551189383.559
1893868.0,1551189383.599
1895387.0,1551189383.64
1895167.0,1551189383.679
1894843.0,1551189383.72
1895374.0,1551189383.761
1896485.0,1551189383.8
1897413.0,1551189383.84
1898638.0,1551189383.882
1899493.0,1551189383.919
1900277.0,1551189383.959
1901225.0,1551189384.0
1902686.0,1551189384.04
1905005.0,1551189384.08
1907905.0,1551189384.122
1910502.0,1551189384.16
1912840.0,1551189384.201
1914748.0,1551189384.24
1916735.0,1551189384.279
1918658.0,1551189384.32
1920297.0,1551189384.36
1922473.0,1551189384.4
1924338.0,1551189384.44
1926370.0,1551189384.481
1927702.0,1551189384.521
1926913.0,1551189384.561
1925821.0,1551189384.602
1925177.0,1551189384.641
1925028.0,1551189384.679
1924255.0,1551189384.721
1923914.0,1551189384.76
1923644.0,1551189384.8
1923113.0,1551189384.842
1922225.0,1551189384.881
1921611.0,1551189384.922
1920846.0,1551189384.962
1920727.0,1551189385.0
1920360.0,1551189385.04
1920318.0,1551189385.081
1920290.0,1551189385.121
1920261.0,1551189385.161
1920721.0,1551189385.202
1921138.0,1551189385.241
1921493.0,1551189385.282
1922116.0,1551189385.321
1922756.0,1551189385.36
1923200.0,1551189385.4
1922407.0,1551189385.442
1919993.0,1551189385.481
1918220.0,1551189385.522
1917111.0,1551189385.562
1915907.0,1551189385.601
1914881.0,1551189385.642
1914408.0,1551189385.681
1913780.0,1551189385.721
1913034.0,1551189385.761
1912344.0,1551189385.802
1912011.0,1551189385.841
1912096.0,1551189385.881
1912281.0,1551189385.923
1912595.0,1551189385.962
1912836.0,1551189386.002
1913315.0,1551189386.044
1913723.0,1551189386.08
1913998.0,1551189386.121
1914665.0,1551189386.162
1915236.0,1551189386.201
1916145.0,1551189386.241
1916264.0,1551189386.283
1914824.0,1551189386.323
1913256.0,1551189386.362
1912663.0,1551189386.403
1912068.0,1551189386.44
1911368.0,1551189386.481
1910361.0,1551189386.523
1909870.0,1551189386.561
1909424.0,1551189386.602
1909332.0,1551189386.643
1910052.0,1551189386.682
1912035.0,1551189386.723
1917196.0,1551189386.801
1919479.0,1551189386.84
1914053.0,1551189386.764
1921584.0,1551189386.882
1923919.0,1551189386.921
1925983.0,1551189386.961
1927916.0,1551189387.002
1930273.0,1551189387.042
1932735.0,1551189387.082
1935533.0,1551189387.124
1937910.0,1551189387.162
1938418.0,1551189387.203
1937541.0,1551189387.244
1936764.0,1551189387.281
1936472.0,1551189387.322
1937797.0,1551189387.402
1936807.0,1551189387.363
1937928.0,1551189387.442
1937181.0,1551189387.483
1937141.0,1551189387.523
1937267.0,1551189387.563
1938825.0,1551189387.641
1938115.0,1551189387.604
1939389.0,1551189387.682
1939769.0,1551189387.724
1941136.0,1551189387.762
1942631.0,1551189387.802
1943807.0,1551189387.844
1945159.0,1551189387.883
1946770.0,1551189387.924
1951578.0,1551189388.002
1955538.0,1551189388.043
1948785.0,1551189387.963
1957088.0,1551189388.084
1957157.0,1551189388.123
1956150.0,1551189388.163
1955216.0,1551189388.204
1953836.0,1551189388.243
1952197.0,1551189388.282
1951395.0,1551189388.324
1950857.0,1551189388.362
1950422.0,1551189388.403
1950354.0,1551189388.444
1950364.0,1551189388.483
1950505.0,1551189388.524
1950516.0,1551189388.565
1950575.0,1551189388.604
1950314.0,1551189388.642
1950211.0,1551189388.683
1950535.0,1551189388.723
1950693.0,1551189388.763
1950891.0,1551189388.804
1951314.0,1551189388.843
1951874.0,1551189388.884
1951781.0,1551189388.926
1949938.0,1551189388.962
1947391.0,1551189389.002
1945776.0,1551189389.044
1943894.0,1551189389.083
1941580.0,1551189389.124
1940008.0,1551189389.165
1938733.0,1551189389.204
1936750.0,1551189389.244
1934842.0,1551189389.283
1932903.0,1551189389.323
1932112.0,1551189389.363
1931075.0,1551189389.404
1930218.0,1551189389.443
1930221.0,1551189389.483
1930147.0,1551189389.525
1930170.0,1551189389.564
1930205.0,1551189389.604
1930274.0,1551189389.645
1930396.0,1551189389.684
1930703.0,1551189389.725
1930808.0,1551189389.765
1930452.0,1551189389.804
1928500.0,1551189389.845
1926068.0,1551189389.886
1924427.0,1551189389.925
1923257.0,1551189389.965
1921929.0,1551189390.006
1921169.0,1551189390.045
1920419.0,1551189390.083
1919889.0,1551189390.125
1919033.0,1551189390.163
1918305.0,1551189390.204
1918022.0,1551189390.245
1918116.0,1551189390.284
1918304.0,1551189390.325
1918711.0,1551189390.366
1919036.0,1551189390.405
1919466.0,1551189390.443
1920112.0,1551189390.484
1920683.0,1551189390.524
1921166.0,1551189390.564
1922034.0,1551189390.605
1923262.0,1551189390.644
1924193.0,1551189390.685
1922576.0,1551189390.727
1920122.0,1551189390.765
1917516.0,1551189390.803
1915330.0,1551189390.845
1913314.0,1551189390.884
1912176.0,1551189390.925
1911419.0,1551189390.966
1910820.0,1551189391.005
1910276.0,1551189391.046
1910370.0,1551189391.087
1910983.0,1551189391.124
1911991.0,1551189391.164
1912658.0,1551189391.205
1913223.0,1551189391.244
1914026.0,1551189391.285
1914406.0,1551189391.327
1914712.0,1551189391.365
1915633.0,1551189391.405
1916254.0,1551189391.447
1917091.0,1551189391.484
1918348.0,1551189391.525
1919638.0,1551189391.565
1920052.0,1551189391.605
1917583.0,1551189391.645
1914561.0,1551189391.686
1912959.0,1551189391.726
1911544.0,1551189391.766
1909858.0,1551189391.807
1909678.0,1551189391.844
1910301.0,1551189391.884
1910586.0,1551189391.926
1911098.0,1551189391.964
1912175.0,1551189392.004
1913547.0,1551189392.045
1914689.0,1551189392.084
1915517.0,1551189392.125
1915856.0,1551189392.166
1916154.0,1551189392.205
1916140.0,1551189392.245
1916344.0,1551189392.287
1916921.0,1551189392.327
1917420.0,1551189392.366
1918097.0,1551189392.408
1918682.0,1551189392.445
1917568.0,1551189392.485
1915248.0,1551189392.527
1913562.0,1551189392.565
1912138.0,1551189392.605
1910966.0,1551189392.647
1909735.0,1551189392.686
1909157.0,1551189392.727
1908550.0,1551189392.768
1907737.0,1551189392.805
1907548.0,1551189392.845
1907281.0,1551189392.886
1907236.0,1551189392.926
1907804.0,1551189393.007
1908226.0,1551189393.047
1907549.0,1551189392.966
1908670.0,1551189393.087
1909088.0,1551189393.127
1909830.0,1551189393.165
1910741.0,1551189393.206
1911380.0,1551189393.247
1912369.0,1551189393.286
1913217.0,1551189393.327
1911094.0,1551189393.407
1909726.0,1551189393.447
1912620.0,1551189393.368
1909035.0,1551189393.486
1907273.0,1551189393.566
1908123.0,1551189393.526
1906845.0,1551189393.646
1907032.0,1551189393.607
1906659.0,1551189393.729
1906798.0,1551189393.687
1906631.0,1551189393.767
1907635.0,1551189393.847
1906962.0,1551189393.807
1909140.0,1551189393.927
1908519.0,1551189393.886
1909860.0,1551189393.967
1910712.0,1551189394.007
1911561.0,1551189394.048
1912660.0,1551189394.088
1913889.0,1551189394.128
1916320.0,1551189394.207
1915129.0,1551189394.166
1916889.0,1551189394.246
1915661.0,1551189394.286
1914591.0,1551189394.329
1914404.0,1551189394.367
1914189.0,1551189394.407
1913889.0,1551189394.449
1914049.0,1551189394.488
1914423.0,1551189394.529
1914573.0,1551189394.568
1914676.0,1551189394.607
1915405.0,1551189394.647
1916373.0,1551189394.689
1917319.0,1551189394.729
1918051.0,1551189394.766
1918740.0,1551189394.807
1919669.0,1551189394.847
1920488.0,1551189394.887
1921485.0,1551189394.929
1922592.0,1551189394.967
1923473.0,1551189395.008
1924942.0,1551189395.049
1925786.0,1551189395.088
1926453.0,1551189395.127
1924990.0,1551189395.168
1923118.0,1551189395.207
1921303.0,1551189395.247
1920082.0,1551189395.288
1918411.0,1551189395.328
1917079.0,1551189395.368
1916441.0,1551189395.409
1915847.0,1551189395.448
1914845.0,1551189395.489
1914700.0,1551189395.528
1914394.0,1551189395.567
1914352.0,1551189395.607
1914650.0,1551189395.648
1915096.0,1551189395.688
1915575.0,1551189395.729
1916015.0,1551189395.769
1916777.0,1551189395.808
1917576.0,1551189395.849
1918158.0,1551189395.888
1919201.0,1551189395.928
1920351.0,1551189395.967
1921149.0,1551189396.009
1921828.0,1551189396.049
1921087.0,1551189396.088
1920760.0,1551189396.13
1921440.0,1551189396.169
1922309.0,1551189396.209
1922751.0,1551189396.248
1923630.0,1551189396.287
1924579.0,1551189396.328
1924951.0,1551189396.369
1925597.0,1551189396.408
1926465.0,1551189396.448
1927415.0,1551189396.49
1928950.0,1551189396.529
1930053.0,1551189396.569
1931504.0,1551189396.61
1933103.0,1551189396.647
1934458.0,1551189396.688
1936148.0,1551189396.73
1937564.0,1551189396.768
1939289.0,1551189396.808
1940895.0,1551189396.85
1942723.0,1551189396.889
1944220.0,1551189396.93
1944293.0,1551189396.971
1943792.0,1551189397.008
1943809.0,1551189397.048
1943847.0,1551189397.089
1943673.0,1551189397.129
1944331.0,1551189397.168
1945644.0,1551189397.21
1946639.0,1551189397.249
1947129.0,1551189397.289
1947695.0,1551189397.331
1948388.0,1551189397.37
1949158.0,1551189397.41
1950151.0,1551189397.449
1951262.0,1551189397.488
1952179.0,1551189397.529
1953435.0,1551189397.57
1954450.0,1551189397.609
1955426.0,1551189397.649
1956551.0,1551189397.69
1957516.0,1551189397.73
1958697.0,1551189397.77
1960002.0,1551189397.811
1961068.0,1551189397.848
1961537.0,1551189397.889
1961085.0,1551189397.93
1961649.0,1551189397.969
1964570.0,1551189398.009
1966124.0,1551189398.052
1966263.0,1551189398.09
1965462.0,1551189398.131
1965321.0,1551189398.169
1966129.0,1551189398.209
1966312.0,1551189398.249
1966593.0,1551189398.29
1966711.0,1551189398.33
1967065.0,1551189398.37
1967976.0,1551189398.411
1969455.0,1551189398.45
1970721.0,1551189398.49
1972410.0,1551189398.532
1974716.0,1551189398.569
1977648.0,1551189398.609
1979933.0,1551189398.65
1983132.0,1551189398.73
1981984.0,1551189398.689
1983150.0,1551189398.771
1982265.0,1551189398.81
1980745.0,1551189398.85
1979540.0,1551189398.892
1978605.0,1551189398.93
1977286.0,1551189398.969
1976521.0,1551189399.01
1976244.0,1551189399.051
1976064.0,1551189399.09
1975942.0,1551189399.132
1976400.0,1551189399.211
1976922.0,1551189399.289
1977702.0,1551189399.33
1976508.0,1551189399.252
1975976.0,1551189399.171
1978610.0,1551189399.41
1977963.0,1551189399.371
1979812.0,1551189399.491
1979206.0,1551189399.45
1981673.0,1551189399.571
1980742.0,1551189399.531
1982577.0,1551189399.612
1983956.0,1551189399.648
1983442.0,1551189399.73
1984279.0,1551189399.688
1982307.0,1551189399.769
1981236.0,1551189399.81
1979632.0,1551189399.89
1978703.0,1551189399.971
1977905.0,1551189400.051
1979117.0,1551189399.931
1978130.0,1551189400.01
1980520.0,1551189399.851
1976608.0,1551189400.132
1977024.0,1551189400.092
1975908.0,1551189400.213
1975990.0,1551189400.171
1975915.0,1551189400.29
1975489.0,1551189400.25
1975837.0,1551189400.332
1976450.0,1551189400.411
1977415.0,1551189400.491
1978284.0,1551189400.573
1977840.0,1551189400.532
1976738.0,1551189400.452
1976062.0,1551189400.371
1976857.0,1551189400.612
1974798.0,1551189400.691
1973648.0,1551189400.771
1974150.0,1551189400.731
1975588.0,1551189400.65
1973699.0,1551189400.812
1972981.0,1551189400.892
1973163.0,1551189400.851
1972828.0,1551189400.972
1972726.0,1551189400.934
1972986.0,1551189401.01
1973364.0,1551189401.052
1973788.0,1551189401.091
1975009.0,1551189401.173
1975604.0,1551189401.212
1976362.0,1551189401.252
1976904.0,1551189401.293
1974382.0,1551189401.132
1978330.0,1551189401.371
1977518.0,1551189401.333
1979395.0,1551189401.412
1979831.0,1551189401.451
1978856.0,1551189401.491
1977505.0,1551189401.533
1976284.0,1551189401.572
1975615.0,1551189401.607
1974444.0,1551189401.649
1973756.0,1551189401.688
1973684.0,1551189401.728
1973106.0,1551189401.769
1972838.0,1551189401.808
1972346.0,1551189401.848
1972229.0,1551189401.889
1972439.0,1551189401.929
1972514.0,1551189401.968
1973156.0,1551189402.009
1973246.0,1551189402.048
1973653.0,1551189402.088
1973925.0,1551189402.13
1974586.0,1551189402.168
1974749.0,1551189402.208
1975636.0,1551189402.249
1976166.0,1551189402.286
1976888.0,1551189402.327
1976106.0,1551189402.368
1974724.0,1551189402.407
1973425.0,1551189402.447
1972653.0,1551189402.489
1971972.0,1551189402.528
1971257.0,1551189402.568
1971386.0,1551189402.609
1970815.0,1551189402.648
1970251.0,1551189402.686
1970054.0,1551189402.728
1970213.0,1551189402.767
1970164.0,1551189402.807
1970501.0,1551189402.849
1970980.0,1551189402.888
1971552.0,1551189402.929
1972240.0,1551189402.969
1972793.0,1551189403.009
1972660.0,1551189403.088
1973063.0,1551189403.049
1972060.0,1551189403.128
1971651.0,1551189403.167
1970854.0,1551189403.209
1968778.0,1551189403.248
1966137.0,1551189403.288
1963647.0,1551189403.33
1962606.0,1551189403.369
1961794.0,1551189403.409
1961070.0,1551189403.448
1960476.0,1551189403.487
1959773.0,1551189403.528
1959467.0,1551189403.569
1958452.0,1551189403.608
1958479.0,1551189403.648
1959209.0,1551189403.69
1960417.0,1551189403.729
1961853.0,1551189403.769
1962842.0,1551189403.808
1963574.0,1551189403.848
1964364.0,1551189403.888
1965112.0,1551189403.93
1965637.0,1551189403.968
1966474.0,1551189404.009
1967425.0,1551189404.051
1968138.0,1551189404.089
1969186.0,1551189404.128
1969381.0,1551189404.169
1968848.0,1551189404.208
1968022.0,1551189404.248
1967544.0,1551189404.289
1966846.0,1551189404.329
1966504.0,1551189404.369
1966665.0,1551189404.41
1967169.0,1551189404.449
1967375.0,1551189404.49
1967373.0,1551189404.53
1967695.0,1551189404.568
1967851.0,1551189404.608
1967706.0,1551189404.65
1967273.0,1551189404.689
1966453.0,1551189404.73
1966135.0,1551189404.768
1966449.0,1551189404.808
1967065.0,1551189404.848
1969075.0,1551189404.889
1971370.0,1551189404.929
1972988.0,1551189404.968
1973875.0,1551189405.01
1973755.0,1551189405.05
1971817.0,1551189405.089
1970282.0,1551189405.131
1968972.0,1551189405.17
1967121.0,1551189405.21
1965742.0,1551189405.249
1964602.0,1551189405.289
1964073.0,1551189405.33
1963733.0,1551189405.37
1963060.0,1551189405.409
1962729.0,1551189405.45
1962500.0,1551189405.491
1962410.0,1551189405.531
1962601.0,1551189405.57
1962439.0,1551189405.61
1962665.0,1551189405.649
1963078.0,1551189405.689
1963546.0,1551189405.731
1963852.0,1551189405.77
1964604.0,1551189405.81
1965268.0,1551189405.851
1965385.0,1551189405.891
1965762.0,1551189405.929
1964758.0,1551189405.97
1962889.0,1551189406.009
1961323.0,1551189406.05
1959860.0,1551189406.091
1958804.0,1551189406.131
1957567.0,1551189406.171
1956711.0,1551189406.212
1955921.0,1551189406.249
1954869.0,1551189406.289
1953866.0,1551189406.331
1953529.0,1551189406.37
1953459.0,1551189406.41
1953251.0,1551189406.451
1953412.0,1551189406.491
1953564.0,1551189406.531
1954048.0,1551189406.572
1954749.0,1551189406.609
1955360.0,1551189406.65
1956316.0,1551189406.691
1957313.0,1551189406.731
1958393.0,1551189406.77
1959203.0,1551189406.812
1955653.0,1551189406.931
1954775.0,1551189406.97
1953814.0,1551189407.01
1953000.0,1551189407.053
1957157.0,1551189406.891
1958791.0,1551189406.851
1952122.0,1551189407.091
1951516.0,1551189407.132
1950490.0,1551189407.212
1950420.0,1551189407.291
1950256.0,1551189407.25
1950958.0,1551189407.172
1951080.0,1551189407.331
1952195.0,1551189407.37
1954146.0,1551189407.411
1956444.0,1551189407.491
1955491.0,1551189407.45
1958081.0,1551189407.533
1964224.0,1551189407.611
1967948.0,1551189407.653
1961039.0,1551189407.571
1974593.0,1551189407.731
1976024.0,1551189407.771
1977263.0,1551189407.811
1978024.0,1551189407.851
1978357.0,1551189407.892
1976270.0,1551189407.932
1971658.0,1551189407.692
1971800.0,1551189408.013
1973411.0,1551189407.972
1970553.0,1551189408.052
1969492.0,1551189408.132
1969727.0,1551189408.09
1967684.0,1551189408.171
1965525.0,1551189408.211
1964026.0,1551189408.252
1962106.0,1551189408.292
1960957.0,1551189408.333
1959974.0,1551189408.373
1959254.0,1551189408.412
1958558.0,1551189408.451
1957768.0,1551189408.492
1957061.0,1551189408.532
1956187.0,1551189408.571
1955553.0,1551189408.613
1954917.0,1551189408.652
1953008.0,1551189408.692
1951609.0,1551189408.734
1950844.0,1551189408.773
1949843.0,1551189408.811
1949110.0,1551189408.852
1948728.0,1551189408.891
1948410.0,1551189408.932
1948440.0,1551189408.973
1948401.0,1551189409.012
1949673.0,1551189409.053
1951960.0,1551189409.094
1953998.0,1551189409.132
1955343.0,1551189409.171
1955487.0,1551189409.213
1955114.0,1551189409.252
1955402.0,1551189409.292
1955725.0,1551189409.334
1956538.0,1551189409.373
1957521.0,1551189409.413
1958176.0,1551189409.454
1959227.0,1551189409.491
1959619.0,1551189409.532
1959761.0,1551189409.573
1958595.0,1551189409.612
1957497.0,1551189409.652
1956713.0,1551189409.694
1956184.0,1551189409.734
1955631.0,1551189409.773
1955272.0,1551189409.813
1955371.0,1551189409.852
1955225.0,1551189409.892
1954973.0,1551189409.934
1954719.0,1551189409.972
1954888.0,1551189410.012
1954978.0,1551189410.055
1955364.0,1551189410.093
1956011.0,1551189410.134
1956726.0,1551189410.173
1957668.0,1551189410.212
1958854.0,1551189410.252
1960160.0,1551189410.294
1961055.0,1551189410.333
1962179.0,1551189410.373
1963152.0,1551189410.414
1962360.0,1551189410.454
1961050.0,1551189410.494
1960063.0,1551189410.534
1959550.0,1551189410.572
1959035.0,1551189410.613
1959296.0,1551189410.654
1959544.0,1551189410.693
1960006.0,1551189410.734
1960718.0,1551189410.775
1961750.0,1551189410.814
1962334.0,1551189410.854
1963450.0,1551189410.893
1964400.0,1551189410.933
1966656.0,1551189410.973
1969477.0,1551189411.014
1971095.0,1551189411.054
1972134.0,1551189411.094
1976474.0,1551189411.174
1979312.0,1551189411.254
1978455.0,1551189411.212
1974085.0,1551189411.136
1980920.0,1551189411.293
1981054.0,1551189411.334
1980468.0,1551189411.375
1979599.0,1551189411.414
1979005.0,1551189411.454
1977884.0,1551189411.495
1976626.0,1551189411.535
1975898.0,1551189411.573
1976063.0,1551189411.614
1976636.0,1551189411.653
1976980.0,1551189411.693
1978098.0,1551189411.736
1979486.0,1551189411.774
1981258.0,1551189411.814
1983275.0,1551189411.856
1984944.0,1551189411.893
1987006.0,1551189411.934
1988873.0,1551189411.975
1990200.0,1551189412.014
1991338.0,1551189412.055
1992148.0,1551189412.096
1993011.0,1551189412.135
1993815.0,1551189412.175
1994117.0,1551189412.214
1993117.0,1551189412.253
1991474.0,1551189412.294
1990227.0,1551189412.336
1989474.0,1551189412.374
1988658.0,1551189412.417
1988371.0,1551189412.454
1988053.0,1551189412.494
1987388.0,1551189412.534
1986756.0,1551189412.574
1986184.0,1551189412.614
1985524.0,1551189412.654
1985191.0,1551189412.695
1985127.0,1551189412.735
1985074.0,1551189412.775
1984546.0,1551189412.816
1984378.0,1551189412.856
1984091.0,1551189412.894
1983975.0,1551189412.936
1983802.0,1551189412.974
1983777.0,1551189413.015
1982457.0,1551189413.057
1979803.0,1551189413.095
1977738.0,1551189413.136
1975469.0,1551189413.175
1973502.0,1551189413.214
1971474.0,1551189413.254
1970168.0,1551189413.296
1969120.0,1551189413.336
1968095.0,1551189413.375
1966998.0,1551189413.416
1966166.0,1551189413.456
1966067.0,1551189413.496
1965114.0,1551189413.536
1964508.0,1551189413.574
1964341.0,1551189413.615
1963947.0,1551189413.656
1963965.0,1551189413.695
1963844.0,1551189413.736
1963697.0,1551189413.776
1963665.0,1551189413.815
1963662.0,1551189413.856
1961896.0,1551189413.936
1959416.0,1551189413.976
1963549.0,1551189413.897
1957213.0,1551189414.017
1955521.0,1551189414.056
1952246.0,1551189414.138
1953916.0,1551189414.096
1951104.0,1551189414.174
1949937.0,1551189414.215
1948956.0,1551189414.256
1947713.0,1551189414.295
1947185.0,1551189414.336
1946730.0,1551189414.416
1946874.0,1551189414.377
1946364.0,1551189414.456
1946597.0,1551189414.498
1947187.0,1551189414.575
1946682.0,1551189414.535
1947297.0,1551189414.616
1947183.0,1551189414.655
1947436.0,1551189414.696
1946889.0,1551189414.738
1946293.0,1551189414.776
1944355.0,1551189414.817
1942853.0,1551189414.858
1942187.0,1551189414.895
1941772.0,1551189414.936
1941208.0,1551189414.977
1941062.0,1551189415.016
1940824.0,1551189415.057
1940282.0,1551189415.097
1940307.0,1551189415.137
1939879.0,1551189415.177
1939865.0,1551189415.218
1940193.0,1551189415.255
1940640.0,1551189415.295
1941093.0,1551189415.337
1941515.0,1551189415.376
1942094.0,1551189415.416
1942852.0,1551189415.458
1943280.0,1551189415.497
1943935.0,1551189415.538
1945212.0,1551189415.578
1945850.0,1551189415.617
1945737.0,1551189415.655
1944238.0,1551189415.697
1942701.0,1551189415.737
1941887.0,1551189415.776
1941020.0,1551189415.818
1940576.0,1551189415.857
1941324.0,1551189415.897
1942782.0,1551189415.939
1942954.0,1551189415.978
1942871.0,1551189416.016
1943484.0,1551189416.057
1944519.0,1551189416.096
1946013.0,1551189416.137
1946478.0,1551189416.178
1945329.0,1551189416.217
1943708.0,1551189416.258
1943341.0,1551189416.299
1943471.0,1551189416.337
1942984.0,1551189416.376
1942345.0,1551189416.417
1942395.0,1551189416.457
1942890.0,1551189416.497
1942693.0,1551189416.539
1941442.0,1551189416.577
1939334.0,1551189416.618
1936965.0,1551189416.659
1935276.0,1551189416.696
1933592.0,1551189416.737
1931741.0,1551189416.778
1931769.0,1551189416.817
1934241.0,1551189416.857
1935779.0,1551189416.899
1935813.0,1551189416.939
1935344.0,1551189416.978
1933889.0,1551189417.019
1933203.0,1551189417.059
1932426.0,1551189417.096
1932070.0,1551189417.138
1931850.0,1551189417.177
1931942.0,1551189417.217
1933100.0,1551189417.259
1934102.0,1551189417.298
1935205.0,1551189417.339
1936020.0,1551189417.379
1936869.0,1551189417.418
1936763.0,1551189417.457
1935017.0,1551189417.498
1933615.0,1551189417.539
1933072.0,1551189417.576
1933217.0,1551189417.618
1933314.0,1551189417.657
1934172.0,1551189417.697
1934783.0,1551189417.739
1935529.0,1551189417.777
1935719.0,1551189417.818
1936575.0,1551189417.859
1936970.0,1551189417.898
1937919.0,1551189417.939
1938534.0,1551189417.98
1939671.0,1551189418.019
1941142.0,1551189418.059
1942184.0,1551189418.098
1943518.0,1551189418.138
1944795.0,1551189418.178
1946038.0,1551189418.219
1947211.0,1551189418.258
1948345.0,1551189418.298
1948297.0,1551189418.34
1947328.0,1551189418.379
1946264.0,1551189418.419
1945793.0,1551189418.458
1945194.0,1551189418.498
1945090.0,1551189418.539
1945527.0,1551189418.579
1947068.0,1551189418.618
1948568.0,1551189418.659
1949437.0,1551189418.7
1949282.0,1551189418.74
1948901.0,1551189418.78
1947376.0,1551189418.819
1946481.0,1551189418.858
1946203.0,1551189418.898
1946168.0,1551189418.94
1946358.0,1551189418.979
1947022.0,1551189419.019
1947773.0,1551189419.062
1948597.0,1551189419.1
1949318.0,1551189419.139
1949170.0,1551189419.179
1947874.0,1551189419.218
1946347.0,1551189419.259
1945474.0,1551189419.3
1945046.0,1551189419.34
1944224.0,1551189419.379
1944145.0,1551189419.421
1944022.0,1551189419.46
1943655.0,1551189419.498
1943530.0,1551189419.54
1943506.0,1551189419.579
1943529.0,1551189419.619
1943892.0,1551189419.66
1943777.0,1551189419.699
1944259.0,1551189419.74
1944531.0,1551189419.781
1944917.0,1551189419.82
1945402.0,1551189419.858
1945855.0,1551189419.9
1946264.0,1551189419.94
1947257.0,1551189419.979
1947529.0,1551189420.02
1947413.0,1551189420.06
1945477.0,1551189420.1
1944085.0,1551189420.139
1943129.0,1551189420.178
1942145.0,1551189420.218
1940968.0,1551189420.26
1940154.0,1551189420.299
1939618.0,1551189420.339
1938870.0,1551189420.38
1938112.0,1551189420.419
1937700.0,1551189420.459
1937371.0,1551189420.501
1937302.0,1551189420.54
1937066.0,1551189420.58
1937095.0,1551189420.621
1937391.0,1551189420.66
1937492.0,1551189420.701
1937619.0,1551189420.743
1937798.0,1551189420.781
1938077.0,1551189420.819
1938780.0,1551189420.86
1941523.0,1551189420.9
1946581.0,1551189420.941
1950713.0,1551189420.981
1952908.0,1551189421.02
1954521.0,1551189421.062
1956618.0,1551189421.102
1958578.0,1551189421.14
1960026.0,1551189421.18
1961316.0,1551189421.221
1962374.0,1551189421.26
1963774.0,1551189421.3
1965443.0,1551189421.342
1967028.0,1551189421.381
1968825.0,1551189421.421
1970426.0,1551189421.462
1971865.0,1551189421.5
1972914.0,1551189421.54
1974028.0,1551189421.581
1975275.0,1551189421.62
1978644.0,1551189421.661
1982114.0,1551189421.702
1984048.0,1551189421.742
1984901.0,1551189421.781
1985389.0,1551189421.823
1984875.0,1551189421.86
1982642.0,1551189421.9
1980763.0,1551189421.942
1979428.0,1551189421.981
1977466.0,1551189422.021
1975543.0,1551189422.063
1974349.0,1551189422.102
1973449.0,1551189422.143
1971976.0,1551189422.181
1970426.0,1551189422.22
1968966.0,1551189422.261
1968364.0,1551189422.302
1968365.0,1551189422.342
1968152.0,1551189422.381
1968653.0,1551189422.423
1969017.0,1551189422.462
1969373.0,1551189422.502
1970089.0,1551189422.542
1971000.0,1551189422.581
1971693.0,1551189422.621
1972409.0,1551189422.662
1973520.0,1551189422.701
1973697.0,1551189422.742
1972665.0,1551189422.783
1970781.0,1551189422.862
1971555.0,1551189422.822
1969970.0,1551189422.903
1969108.0,1551189422.981
1969255.0,1551189423.022
1969135.0,1551189423.062
1969447.0,1551189422.941
1969117.0,1551189423.102
1969175.0,1551189423.144
1969424.0,1551189423.182
1969918.0,1551189423.222
1970200.0,1551189423.262
1970494.0,1551189423.301
1971356.0,1551189423.342
1972075.0,1551189423.383
1973245.0,1551189423.422
1973686.0,1551189423.462
1974658.0,1551189423.503
1975525.0,1551189423.543
1976412.0,1551189423.583
1975939.0,1551189423.622
1974542.0,1551189423.661
1973445.0,1551189423.702
1972109.0,1551189423.744
1971089.0,1551189423.782
1970108.0,1551189423.822
1969678.0,1551189423.864
1969282.0,1551189423.903
1968792.0,1551189423.942
1968494.0,1551189423.982
1968449.0,1551189424.063
1968570.0,1551189424.103
1968860.0,1551189424.143
1969021.0,1551189424.183
1968279.0,1551189424.022
1969649.0,1551189424.224
1969947.0,1551189424.261
1970377.0,1551189424.302
1970976.0,1551189424.344
1971797.0,1551189424.382
1972429.0,1551189424.422
1973039.0,1551189424.464
1972667.0,1551189424.503
1970893.0,1551189424.544
1969575.0,1551189424.585
1968581.0,1551189424.622
1967609.0,1551189424.662
1966914.0,1551189424.703
1966536.0,1551189424.743
1965746.0,1551189424.824
1965478.0,1551189424.863
1965551.0,1551189424.944
1966100.0,1551189424.783
1965561.0,1551189424.904
1965986.0,1551189424.982
1965978.0,1551189425.022
1966614.0,1551189425.103
1966391.0,1551189425.065
1967541.0,1551189425.185
1968070.0,1551189425.226
1968741.0,1551189425.267
1966933.0,1551189425.144
1969377.0,1551189425.306
1970002.0,1551189425.343
1968776.0,1551189425.424
1966771.0,1551189425.463
1965724.0,1551189425.503
1965082.0,1551189425.545
1964109.0,1551189425.584
1970051.0,1551189425.382
1963787.0,1551189425.627
1963210.0,1551189425.668
1962766.0,1551189425.707
1962221.0,1551189425.747
1961817.0,1551189425.788
1961751.0,1551189425.827
1961940.0,1551189425.867
1961766.0,1551189425.908
1962156.0,1551189425.948
1962822.0,1551189426.028
1963829.0,1551189426.067
1964496.0,1551189426.107
1965164.0,1551189426.149
1962413.0,1551189425.987
1966037.0,1551189426.187
1966792.0,1551189426.225
1967432.0,1551189426.266
1966383.0,1551189426.305
1964771.0,1551189426.346
1963987.0,1551189426.387
1963338.0,1551189426.426
1961533.0,1551189426.508
1962271.0,1551189426.466
1961254.0,1551189426.548
1960728.0,1551189426.585
1960020.0,1551189426.626
1959770.0,1551189426.665
1959979.0,1551189426.706
1960270.0,1551189426.748
1960415.0,1551189426.786
1960692.0,1551189426.827
1961147.0,1551189426.868
1961546.0,1551189426.905
1962214.0,1551189426.946
1963004.0,1551189426.987
1963568.0,1551189427.026
1964315.0,1551189427.067
1965209.0,1551189427.108
1965948.0,1551189427.148
1966153.0,1551189427.187
1964743.0,1551189427.226
1963478.0,1551189427.266
1962345.0,1551189427.306
1961673.0,1551189427.348
1961038.0,1551189427.386
1960633.0,1551189427.427
1960439.0,1551189427.468
1960062.0,1551189427.507
1959335.0,1551189427.548
1958975.0,1551189427.587
1958709.0,1551189427.626
1958535.0,1551189427.708
1958570.0,1551189427.666
1958819.0,1551189427.747
1958896.0,1551189427.785
1959195.0,1551189427.826
1960372.0,1551189427.948
1961060.0,1551189427.986
1959466.0,1551189427.866
1961719.0,1551189428.026
1959828.0,1551189427.906
1961775.0,1551189428.069
1960597.0,1551189428.107
1959159.0,1551189428.148
1958468.0,1551189428.189
1957060.0,1551189428.266
1957037.0,1551189428.307
1957716.0,1551189428.228
1956790.0,1551189428.347
1955719.0,1551189428.428
1956089.0,1551189428.387
1955787.0,1551189428.467
1955860.0,1551189428.508
1956317.0,1551189428.588
1955976.0,1551189428.55
1956480.0,1551189428.626
1956693.0,1551189428.668
1957522.0,1551189428.748
1957021.0,1551189428.707
1958124.0,1551189428.789
1958572.0,1551189428.828
1959031.0,1551189428.909
1958903.0,1551189428.868
1958047.0,1551189428.949
1955013.0,1551189428.987
1950561.0,1551189429.028
1946225.0,1551189429.067
1939509.0,1551189429.15
1942827.0,1551189429.108
1937591.0,1551189429.188
1935860.0,1551189429.228
1934516.0,1551189429.27
1933990.0,1551189429.307
1933071.0,1551189429.348
1932818.0,1551189429.388
1932978.0,1551189429.428
1933401.0,1551189429.468
1941158.0,1551189429.549
1936440.0,1551189429.509
1944221.0,1551189429.589
1945292.0,1551189429.63
1945239.0,1551189429.667
1944287.0,1551189429.707
1943500.0,1551189429.749
1942918.0,1551189429.788
1942460.0,1551189429.828
1941750.0,1551189429.87
1939892.0,1551189429.909
1934128.0,1551189430.028
1937759.0,1551189429.95
1931626.0,1551189430.109
1932780.0,1551189430.069
1935727.0,1551189429.988
1929204.0,1551189430.189
1930208.0,1551189430.149
1927925.0,1551189430.23
1927124.0,1551189430.269
1926468.0,1551189430.308
1926089.0,1551189430.35
1926320.0,1551189430.388
1926363.0,1551189430.428
1926141.0,1551189430.469
1924949.0,1551189430.509
1924104.0,1551189430.55
1924116.0,1551189430.59
1924948.0,1551189430.629
1926051.0,1551189430.67
1927432.0,1551189430.709
1928266.0,1551189430.749
1927502.0,1551189430.788
1926211.0,1551189430.83
1924789.0,1551189430.869
1923839.0,1551189430.909
1922721.0,1551189430.951
1921899.0,1551189430.99
1921375.0,1551189431.03
1920920.0,1551189431.071
1920588.0,1551189431.108
1920049.0,1551189431.149
1920138.0,1551189431.19
1920742.0,1551189431.229
1921199.0,1551189431.269
1921428.0,1551189431.31
1922247.0,1551189431.35
1922897.0,1551189431.39
1923561.0,1551189431.431
1924021.0,1551189431.468
1924682.0,1551189431.509
1925258.0,1551189431.551
1925888.0,1551189431.589
1926692.0,1551189431.629
1926730.0,1551189431.671
1924962.0,1551189431.71
1923931.0,1551189431.751
1922984.0,1551189431.791
1922217.0,1551189431.829
1921595.0,1551189431.869
1921364.0,1551189431.91
1921061.0,1551189431.95
1920680.0,1551189431.99
1920362.0,1551189432.031
1920056.0,1551189432.071
1920255.0,1551189432.111
1920509.0,1551189432.151
1920609.0,1551189432.189
1921116.0,1551189432.229
1921467.0,1551189432.271
1922019.0,1551189432.31
1922470.0,1551189432.351
1923230.0,1551189432.391
1923882.0,1551189432.431
1924779.0,1551189432.471
1925439.0,1551189432.51
1924954.0,1551189432.55
1923097.0,1551189432.59
1921467.0,1551189432.631
1920350.0,1551189432.67
1919398.0,1551189432.71
1918431.0,1551189432.752
1918384.0,1551189432.791
1919886.0,1551189432.831
1921886.0,1551189432.87
1924414.0,1551189432.95
1925227.0,1551189432.991
1926360.0,1551189433.03
1923448.0,1551189432.91
1927696.0,1551189433.071
1928188.0,1551189433.112
1928623.0,1551189433.152
1929201.0,1551189433.191
1929610.0,1551189433.231
1930296.0,1551189433.27
1930771.0,1551189433.31
1931068.0,1551189433.352
1931858.0,1551189433.391
1932402.0,1551189433.431
1932001.0,1551189433.472
1930167.0,1551189433.511
1928868.0,1551189433.552
1927836.0,1551189433.591
1926810.0,1551189433.63
1925543.0,1551189433.67
1924535.0,1551189433.712
1923497.0,1551189433.752
1921930.0,1551189433.791
1921186.0,1551189433.832
1920593.0,1551189433.872
1919707.0,1551189433.91
1919508.0,1551189433.952
1918724.0,1551189433.991
1918015.0,1551189434.031
1917429.0,1551189434.073
1916503.0,1551189434.112
1914969.0,1551189434.153
1913901.0,1551189434.193
1912582.0,1551189434.23
1912130.0,1551189434.271
1912137.0,1551189434.312
1911359.0,1551189434.352
1909220.0,1551189434.391
1907135.0,1551189434.433
1905614.0,1551189434.472
1903803.0,1551189434.512
1902506.0,1551189434.554
1901574.0,1551189434.59
1901032.0,1551189434.631
1900067.0,1551189434.672
1899363.0,1551189434.711
1899090.0,1551189434.752
1899156.0,1551189434.793
1898967.0,1551189434.832
1899508.0,1551189434.872
1900400.0,1551189434.914
1901472.0,1551189434.951
1903064.0,1551189434.991
1904627.0,1551189435.032
1907237.0,1551189435.072
1909896.0,1551189435.112
1911935.0,1551189435.154
1914468.0,1551189435.192
1916441.0,1551189435.233
1916733.0,1551189435.272
1916329.0,1551189435.311
1917099.0,1551189435.352
1917562.0,1551189435.393
1917416.0,1551189435.432
1917375.0,1551189435.47
1918561.0,1551189435.512
1919442.0,1551189435.552
1920301.0,1551189435.591
1921273.0,1551189435.632
1922890.0,1551189435.671
1925497.0,1551189435.712
1927506.0,1551189435.754
1929604.0,1551189435.792
1931434.0,1551189435.833
1933092.0,1551189435.874
1934423.0,1551189435.913
1935590.0,1551189435.954
1936532.0,1551189435.992
1937670.0,1551189436.032
1938487.0,1551189436.073
1939763.0,1551189436.113
1940551.0,1551189436.153
1939719.0,1551189436.193
1938700.0,1551189436.234
1937678.0,1551189436.273
1937498.0,1551189436.312
1937507.0,1551189436.354
1937347.0,1551189436.392
1937671.0,1551189436.432
1937387.0,1551189436.474
1936775.0,1551189436.513
1936654.0,1551189436.554
1937491.0,1551189436.595
1938330.0,1551189436.634
1939703.0,1551189436.672
1940972.0,1551189436.713
1942555.0,1551189436.753
1944233.0,1551189436.793
1946099.0,1551189436.834
1946924.0,1551189436.873
1947314.0,1551189436.914
1946995.0,1551189436.956
1947110.0,1551189436.994
1946929.0,1551189437.032
1946364.0,1551189437.074
1944570.0,1551189437.113
1941888.0,1551189437.154
1939813.0,1551189437.194
1938038.0,1551189437.234
1936326.0,1551189437.274
1934674.0,1551189437.315
1933578.0,1551189437.353
1932481.0,1551189437.393
1931196.0,1551189437.434
1930593.0,1551189437.473
1929612.0,1551189437.513
1929036.0,1551189437.555
1928257.0,1551189437.594
1927582.0,1551189437.637
1927195.0,1551189437.678
1926826.0,1551189437.717
1926774.0,1551189437.758
1926929.0,1551189437.838
1926849.0,1551189437.799
1927209.0,1551189437.878
1927733.0,1551189437.919
1928697.0,1551189437.959
1929682.0,1551189437.998
1930032.0,1551189438.039
1928485.0,1551189438.078
1926594.0,1551189438.118
1924969.0,1551189438.16
1924086.0,1551189438.198
1922880.0,1551189438.238
1921472.0,1551189438.319
1921925.0,1551189438.28
1920588.0,1551189438.359
1919616.0,1551189438.4
1919177.0,1551189438.439
1918952.0,1551189438.479
1918571.0,1551189438.52
1918885.0,1551189438.56
1919710.0,1551189438.599
1924550.0,1551189438.64
1928272.0,1551189438.679
1930820.0,1551189438.716
1934054.0,1551189438.758
1936819.0,1551189438.797
1938801.0,1551189438.837
1943294.0,1551189438.918
1940772.0,1551189438.879
1944821.0,1551189438.959
1944450.0,1551189438.999
1943115.0,1551189439.037
1943397.0,1551189439.118
1944183.0,1551189439.158
1942668.0,1551189439.077
1945088.0,1551189439.198
1946397.0,1551189439.239
1948096.0,1551189439.278
1949928.0,1551189439.319
1952798.0,1551189439.359
1955427.0,1551189439.397
1957347.0,1551189439.437
1958816.0,1551189439.479
1958869.0,1551189439.518
1958332.0,1551189439.559
1958320.0,1551189439.599
1957473.0,1551189439.639
1956134.0,1551189439.679
1955213.0,1551189439.72
1954372.0,1551189439.76
1954200.0,1551189439.799
1954490.0,1551189439.841
1954863.0,1551189439.88
1954362.0,1551189439.92
1953571.0,1551189439.961
1953075.0,1551189440.0
1952595.0,1551189440.04
1952049.0,1551189440.081
1951424.0,1551189440.12
1951555.0,1551189440.161
1951367.0,1551189440.201
1951089.0,1551189440.24
1951276.0,1551189440.28
1951630.0,1551189440.321
1951958.0,1551189440.361
1952640.0,1551189440.401
1952778.0,1551189440.442
1953199.0,1551189440.481
1953838.0,1551189440.521
1954448.0,1551189440.563
1954999.0,1551189440.601
1955562.0,1551189440.641
1956114.0,1551189440.682
1956647.0,1551189440.721
1955765.0,1551189440.762
1954567.0,1551189440.802
1953566.0,1551189440.837
1953144.0,1551189440.877
1952432.0,1551189440.915
1952380.0,1551189440.955
1952307.0,1551189440.995
1952279.0,1551189441.036
1952387.0,1551189441.075
1952297.0,1551189441.115
1952668.0,1551189441.157
1953218.0,1551189441.195
1954164.0,1551189441.235
1954689.0,1551189441.276
1955496.0,1551189441.316
1956350.0,1551189441.356
1957066.0,1551189441.397
1958221.0,1551189441.436
1959208.0,1551189441.476
1960377.0,1551189441.517
1961418.0,1551189441.557
1961895.0,1551189441.596
1960799.0,1551189441.637
1959514.0,1551189441.677
1958726.0,1551189441.717
1958109.0,1551189441.758
1957256.0,1551189441.797
1957157.0,1551189441.837
1957151.0,1551189441.878
1956962.0,1551189441.917
1956958.0,1551189441.959
1956585.0,1551189442.0
1956651.0,1551189442.039
1956835.0,1551189442.079
1957375.0,1551189442.12
1957527.0,1551189442.156
1957635.0,1551189442.195
1958115.0,1551189442.237
1958604.0,1551189442.276
1958849.0,1551189442.316
1959507.0,1551189442.358
1959911.0,1551189442.396
1960594.0,1551189442.436
1959812.0,1551189442.516
1956258.0,1551189442.598
1957944.0,1551189442.557
1960956.0,1551189442.477
1954984.0,1551189442.637
1952470.0,1551189442.718
1951564.0,1551189442.758
1953587.0,1551189442.677
1950429.0,1551189442.797
1949425.0,1551189442.839
1948939.0,1551189442.878
1948283.0,1551189442.919
1947720.0,1551189442.961
1947687.0,1551189443.0
1947493.0,1551189443.039
1947448.0,1551189443.081
1947243.0,1551189443.12
1947314.0,1551189443.161
1947599.0,1551189443.201
1947988.0,1551189443.24
1948210.0,1551189443.281
1947829.0,1551189443.322
1947462.0,1551189443.362
1945711.0,1551189443.401
1943439.0,1551189443.441
1942203.0,1551189443.48
1940974.0,1551189443.52
1940282.0,1551189443.562
1939915.0,1551189443.601
1939993.0,1551189443.641
1939316.0,1551189443.682
1938676.0,1551189443.722
1938312.0,1551189443.762
1938250.0,1551189443.801
1938377.0,1551189443.84
1938677.0,1551189443.88
1938667.0,1551189443.922
1938703.0,1551189443.962
1938307.0,1551189444.001
1938513.0,1551189444.042
1938560.0,1551189444.082
1938835.0,1551189444.12
1939523.0,1551189444.162
1940128.0,1551189444.201
1940549.0,1551189444.241
1939843.0,1551189444.282
1937662.0,1551189444.321
1935535.0,1551189444.362
1934338.0,1551189444.403
1934579.0,1551189444.442
1934896.0,1551189444.48
1934882.0,1551189444.522
1934032.0,1551189444.561
1932770.0,1551189444.601
1931584.0,1551189444.642
1930760.0,1551189444.682
1930295.0,1551189444.722
1930114.0,1551189444.764
1930278.0,1551189444.802
1930135.0,1551189444.841
1930052.0,1551189444.882
1930492.0,1551189444.921
1930695.0,1551189444.962
1930788.0,1551189445.003
1931181.0,1551189445.042
1931412.0,1551189445.083
1931739.0,1551189445.124
1931477.0,1551189445.161
1929813.0,1551189445.201
1928085.0,1551189445.242
1927185.0,1551189445.281
1926526.0,1551189445.322
1925728.0,1551189445.364
1925588.0,1551189445.402
1925446.0,1551189445.442
1925308.0,1551189445.484
1924922.0,1551189445.521
1925041.0,1551189445.562
1925262.0,1551189445.603
1925625.0,1551189445.642
1925967.0,1551189445.682
1926419.0,1551189445.722
1927233.0,1551189445.761
1928274.0,1551189445.801
1928920.0,1551189445.842
1929850.0,1551189445.881
1930593.0,1551189445.921
1931928.0,1551189445.963
1932741.0,1551189446.001
1935363.0,1551189446.042
1938835.0,1551189446.084
1940185.0,1551189446.122
1940283.0,1551189446.163
1940026.0,1551189446.204
1939495.0,1551189446.243
1938921.0,1551189446.281
1938855.0,1551189446.323
1939563.0,1551189446.363
1940128.0,1551189446.402
1941113.0,1551189446.444
1941748.0,1551189446.483
1942673.0,1551189446.523
1942798.0,1551189446.565
1943303.0,1551189446.604
1943901.0,1551189446.642
1944759.0,1551189446.683
1946388.0,1551189446.722
1948144.0,1551189446.763
1949609.0,1551189446.804
1951310.0,1551189446.843
1952583.0,1551189446.883
1953351.0,1551189446.925
1954059.0,1551189446.965
1953115.0,1551189447.002
1951816.0,1551189447.043
1951164.0,1551189447.083
1950986.0,1551189447.123
1950593.0,1551189447.165
1950591.0,1551189447.203
1950128.0,1551189447.244
1949899.0,1551189447.285
1949369.0,1551189447.322
1949493.0,1551189447.363
1950218.0,1551189447.404
1950527.0,1551189447.443
1951191.0,1551189447.483
1951898.0,1551189447.525
1953023.0,1551189447.564
1953789.0,1551189447.604
1954486.0,1551189447.645
1957781.0,1551189447.765
1955697.0,1551189447.682
1956802.0,1551189447.723
1958068.0,1551189447.803
1958879.0,1551189447.844
1958832.0,1551189447.885
1957173.0,1551189447.924
1955593.0,1551189447.965
1954455.0,1551189448.004
1953239.0,1551189448.043
1952446.0,1551189448.084
1952171.0,1551189448.125
1951734.0,1551189448.165
1952296.0,1551189448.204
1953651.0,1551189448.245
1954199.0,1551189448.282
1954612.0,1551189448.322
1954866.0,1551189448.364
1955183.0,1551189448.402
1954986.0,1551189448.443
1955336.0,1551189448.484
1955405.0,1551189448.523
1955498.0,1551189448.564
1955738.0,1551189448.604
1956104.0,1551189448.643
1956434.0,1551189448.684
1957181.0,1551189448.725
1957584.0,1551189448.765
1958027.0,1551189448.805
1957244.0,1551189448.846
1955925.0,1551189448.885
1954986.0,1551189448.923
1954044.0,1551189448.965
1953224.0,1551189449.004
1952564.0,1551189449.044
1952394.0,1551189449.087
1952013.0,1551189449.125
1951713.0,1551189449.166
1951781.0,1551189449.206
1952383.0,1551189449.243
1952974.0,1551189449.284
1953510.0,1551189449.325
1954283.0,1551189449.365
1954967.0,1551189449.404
1956239.0,1551189449.446
1957137.0,1551189449.485
1958027.0,1551189449.525
1959222.0,1551189449.567
1960137.0,1551189449.604
1961397.0,1551189449.647
1962604.0,1551189449.688
1962614.0,1551189449.727
1961370.0,1551189449.768
1960309.0,1551189449.808
1959870.0,1551189449.847
1959175.0,1551189449.888
1958476.0,1551189449.929
1957951.0,1551189449.968
1957651.0,1551189450.008
1957332.0,1551189450.049
1957255.0,1551189450.088
1957617.0,1551189450.128
1958298.0,1551189450.17
1958266.0,1551189450.208
1957201.0,1551189450.248
1955258.0,1551189450.287
1953677.0,1551189450.326
1952792.0,1551189450.367
1952367.0,1551189450.408
1952407.0,1551189450.447
1952371.0,1551189450.487
1952705.0,1551189450.528
1952985.0,1551189450.568
1953004.0,1551189450.608
1951434.0,1551189450.649
1950035.0,1551189450.686
1949069.0,1551189450.727
1948407.0,1551189450.769
1947596.0,1551189450.807
1947439.0,1551189450.847
1947367.0,1551189450.888
1946562.0,1551189450.927
1946067.0,1551189450.968
1946100.0,1551189451.009
1945825.0,1551189451.048
1946140.0,1551189451.088
1946728.0,1551189451.128
1948914.0,1551189451.168
1953329.0,1551189451.207
1956224.0,1551189451.248
1957879.0,1551189451.288
1958573.0,1551189451.328
1958827.0,1551189451.37
1958859.0,1551189451.409
1958548.0,1551189451.449
1956816.0,1551189451.488
1954418.0,1551189451.527
1952706.0,1551189451.568
1950739.0,1551189451.609
1948200.0,1551189451.688
1949241.0,1551189451.648
1947480.0,1551189451.73
1946496.0,1551189451.769
1945481.0,1551189451.809
1945051.0,1551189451.848
1946910.0,1551189451.887
1951263.0,1551189451.928
1953903.0,1551189451.97
1955615.0,1551189452.008
1956556.0,1551189452.048
1957128.0,1551189452.091
1957524.0,1551189452.129
1957608.0,1551189452.168
1958553.0,1551189452.209
1959780.0,1551189452.248
1960958.0,1551189452.288
1962022.0,1551189452.329
1962162.0,1551189452.369
1960496.0,1551189452.409
1958827.0,1551189452.45
1957241.0,1551189452.489
1955800.0,1551189452.528
1954105.0,1551189452.57
1953074.0,1551189452.608
1952622.0,1551189452.648
1952216.0,1551189452.69
1952295.0,1551189452.729
1952695.0,1551189452.77
1952621.0,1551189452.81
1953427.0,1551189452.85
1954160.0,1551189452.888
1955314.0,1551189452.929
1957134.0,1551189452.969
1959221.0,1551189453.009
1961654.0,1551189453.05
1963846.0,1551189453.09
1965231.0,1551189453.129
1965723.0,1551189453.171
1965177.0,1551189453.21
1963931.0,1551189453.248
1962134.0,1551189453.289
1961026.0,1551189453.329
1962248.0,1551189453.37
1963348.0,1551189453.41
1964104.0,1551189453.449
1964329.0,1551189453.489
1964043.0,1551189453.53
1963468.0,1551189453.57
1963247.0,1551189453.61
1963002.0,1551189453.651
1963136.0,1551189453.69
1962541.0,1551189453.728
1962579.0,1551189453.77
1962769.0,1551189453.809
1963300.0,1551189453.849
1963324.0,1551189453.891
1963282.0,1551189453.93
1963406.0,1551189453.971
1963801.0,1551189454.011
1963937.0,1551189454.051
1964417.0,1551189454.091
1964319.0,1551189454.13
1962607.0,1551189454.17
1959967.0,1551189454.209
1958335.0,1551189454.25
1956904.0,1551189454.29
1955678.0,1551189454.33
1954397.0,1551189454.372
1953383.0,1551189454.41
1952803.0,1551189454.451
1951810.0,1551189454.49
1951198.0,1551189454.529
1951024.0,1551189454.57
1949912.0,1551189454.611
1948956.0,1551189454.65
1948034.0,1551189454.69
1948211.0,1551189454.732
1949435.0,1551189454.771
1950436.0,1551189454.811
1952138.0,1551189454.85
1954065.0,1551189454.889
1956382.0,1551189454.93
1958152.0,1551189454.972
1960158.0,1551189455.01
1962174.0,1551189455.05
1963124.0,1551189455.093
1962655.0,1551189455.131
1961429.0,1551189455.17
1960005.0,1551189455.211
1958668.0,1551189455.25
1958291.0,1551189455.29
1958619.0,1551189455.331
1958623.0,1551189455.371
1959086.0,1551189455.411
1959255.0,1551189455.452
1959693.0,1551189455.491
1960692.0,1551189455.53
1961420.0,1551189455.572
1964689.0,1551189455.65
1962982.0,1551189455.61
1966040.0,1551189455.692
1967505.0,1551189455.731
1968683.0,1551189455.772
1969766.0,1551189455.812
1970798.0,1551189455.852
1971917.0,1551189455.89
1973878.0,1551189455.931
1977036.0,1551189455.971
1978153.0,1551189456.01
1977414.0,1551189456.051
1976136.0,1551189456.09
1975434.0,1551189456.131
1975041.0,1551189456.173
1974026.0,1551189456.211
1973632.0,1551189456.251
1973403.0,1551189456.293
1973218.0,1551189456.332
1973062.0,1551189456.373
1973055.0,1551189456.411
1972939.0,1551189456.45
1972934.0,1551189456.491
1973035.0,1551189456.532
1973115.0,1551189456.572
1973033.0,1551189456.611
1972874.0,1551189456.653
1972913.0,1551189456.692
1972843.0,1551189456.732
1972956.0,1551189456.772
1973154.0,1551189456.811
1973296.0,1551189456.851
1973923.0,1551189456.892
1974250.0,1551189456.932
1973559.0,1551189456.973
1971699.0,1551189457.013
1970435.0,1551189457.052
1969447.0,1551189457.093
1968515.0,1551189457.132
1968131.0,1551189457.172
1968154.0,1551189457.211
1967855.0,1551189457.252
1967225.0,1551189457.292
1964804.0,1551189457.332
1963602.0,1551189457.374
1962340.0,1551189457.412
1961533.0,1551189457.453
1960687.0,1551189457.492
1960110.0,1551189457.531
1960178.0,1551189457.572
1960267.0,1551189457.613
1960450.0,1551189457.652
1960798.0,1551189457.692
1961288.0,1551189457.734
1963662.0,1551189457.773
1966211.0,1551189457.813
1967114.0,1551189457.852
1966207.0,1551189457.891
1964499.0,1551189457.932
1963995.0,1551189457.974
1963002.0,1551189458.012
1962424.0,1551189458.052
1961906.0,1551189458.095
1961437.0,1551189458.133
1960953.0,1551189458.172
1960232.0,1551189458.213
1960286.0,1551189458.252
1960178.0,1551189458.292
1960003.0,1551189458.333
1959222.0,1551189458.373
1958682.0,1551189458.413
1957792.0,1551189458.454
1956881.0,1551189458.493
1956288.0,1551189458.533
1956089.0,1551189458.575
1955728.0,1551189458.614
1955603.0,1551189458.652
1955949.0,1551189458.693
1955947.0,1551189458.732
1955714.0,1551189458.773
1954029.0,1551189458.814
1951630.0,1551189458.853
1949671.0,1551189458.893
1948236.0,1551189458.935
1946626.0,1551189458.975
1945030.0,1551189459.012
1943996.0,1551189459.053
1943063.0,1551189459.093
1942007.0,1551189459.133
1941235.0,1551189459.175
1941185.0,1551189459.213
1941799.0,1551189459.254
1942582.0,1551189459.295
1943588.0,1551189459.332
1944647.0,1551189459.373
1948601.0,1551189459.453
1946533.0,1551189459.414
1950579.0,1551189459.493
1952394.0,1551189459.534
1953717.0,1551189459.574
1955608.0,1551189459.614
1956766.0,1551189459.655
1957227.0,1551189459.692
1956559.0,1551189459.733
1955120.0,1551189459.813
1955602.0,1551189459.775
1953922.0,1551189459.853
1953020.0,1551189459.895
1952665.0,1551189459.934
1952343.0,1551189459.975
1953446.0,1551189460.053
1954457.0,1551189460.094
1955444.0,1551189460.135
1952743.0,1551189460.014
1956681.0,1551189460.175
1958379.0,1551189460.214
1960937.0,1551189460.295
1962501.0,1551189460.333
1959616.0,1551189460.255
1963595.0,1551189460.375
1964573.0,1551189460.413
1965854.0,1551189460.454
1966638.0,1551189460.495
1967621.0,1551189460.534
1968413.0,1551189460.575
1966911.0,1551189460.655
1967933.0,1551189460.616
1966546.0,1551189460.693
1965229.0,1551189460.774
1965346.0,1551189460.855
1965791.0,1551189460.734
1965140.0,1551189460.894
1965081.0,1551189460.814
1964888.0,1551189460.977
1965529.0,1551189461.015
1964925.0,1551189460.935
1965825.0,1551189461.053
1966651.0,1551189461.094
1967234.0,1551189461.133
1967638.0,1551189461.174
1968534.0,1551189461.214
1969120.0,1551189461.254
1969909.0,1551189461.294
1971069.0,1551189461.335
1974360.0,1551189461.415
1972667.0,1551189461.375
1975815.0,1551189461.456
1975454.0,1551189461.495
1974755.0,1551189461.536
1973741.0,1551189461.575
1973438.0,1551189461.654
1973664.0,1551189461.695
1974661.0,1551189461.734
1973482.0,1551189461.614
1975994.0,1551189461.815
1976205.0,1551189461.894
1975555.0,1551189461.775
1976232.0,1551189461.854
1977025.0,1551189461.935
1977656.0,1551189461.975
1978409.0,1551189462.015
1979295.0,1551189462.056
1980916.0,1551189462.095
1982448.0,1551189462.135
1984106.0,1551189462.177
1985138.0,1551189462.215
1986625.0,1551189462.256
1987754.0,1551189462.297
1988846.0,1551189462.334
1987992.0,1551189462.375
1986952.0,1551189462.416
1986259.0,1551189462.455
1985820.0,1551189462.495
1985564.0,1551189462.537
1985126.0,1551189462.576
1985404.0,1551189462.616
1985364.0,1551189462.657
1985705.0,1551189462.694
1985739.0,1551189462.735
1986084.0,1551189462.777
1986823.0,1551189462.815
1987415.0,1551189462.856
1987998.0,1551189462.897
1988697.0,1551189462.936
1989239.0,1551189462.977
1990277.0,1551189463.016
1991074.0,1551189463.055
1992177.0,1551189463.095
1993336.0,1551189463.137
1994343.0,1551189463.177
1995030.0,1551189463.216
1994398.0,1551189463.257
1993324.0,1551189463.297
1992736.0,1551189463.337
1992452.0,1551189463.377
1992036.0,1551189463.415
1991389.0,1551189463.455
1991000.0,1551189463.497
1991029.0,1551189463.536
1990750.0,1551189463.577
1991299.0,1551189463.618
1993154.0,1551189463.694
1992242.0,1551189463.654
1993596.0,1551189463.736
1995155.0,1551189463.856
1996016.0,1551189463.895
1994190.0,1551189463.776
1994377.0,1551189463.815
1996872.0,1551189463.936
1997929.0,1551189463.978
1998776.0,1551189464.016
2000020.0,1551189464.057
2000162.0,1551189464.099
1998744.0,1551189464.137
1997451.0,1551189464.176
1996806.0,1551189464.217
1996226.0,1551189464.256
1995708.0,1551189464.296
1995190.0,1551189464.338
1995204.0,1551189464.377
1995073.0,1551189464.417
1994775.0,1551189464.458
1995067.0,1551189464.497
1995293.0,1551189464.538
1995748.0,1551189464.577
1996225.0,1551189464.616
1996959.0,1551189464.656
1997583.0,1551189464.698
1998152.0,1551189464.737
1998884.0,1551189464.778
1999533.0,1551189464.818
2000389.0,1551189464.858
2001097.0,1551189464.898
2001982.0,1551189464.937
2002771.0,1551189464.977
2002049.0,1551189465.016
2000557.0,1551189465.058
1999660.0,1551189465.098
1998964.0,1551189465.137
1998374.0,1551189465.179
1997791.0,1551189465.218
1997606.0,1551189465.258
1997210.0,1551189465.297
1997151.0,1551189465.336
1996620.0,1551189465.377
1996768.0,1551189465.418
1997016.0,1551189465.457
1997478.0,1551189465.498
1997940.0,1551189465.539
1998538.0,1551189465.579
1999047.0,1551189465.618
1999521.0,1551189465.657
2000143.0,1551189465.697
2001125.0,1551189465.737
2002097.0,1551189465.779
2003225.0,1551189465.817
2004110.0,1551189465.858
2003916.0,1551189465.899
2002985.0,1551189465.938
2002131.0,1551189465.977
2001837.0,1551189466.018
2001862.0,1551189466.057
2001916.0,1551189466.098
2002086.0,1551189466.139
2002126.0,1551189466.176
2002100.0,1551189466.216
2002344.0,1551189466.257
2002963.0,1551189466.296
2003456.0,1551189466.337
2004395.0,1551189466.379
2004921.0,1551189466.417
2005502.0,1551189466.457
2006358.0,1551189466.498
2007288.0,1551189466.538
2007996.0,1551189466.579
2008782.0,1551189466.619
2010541.0,1551189466.699
2009457.0,1551189466.658
2011635.0,1551189466.74
2013423.0,1551189466.778
2013689.0,1551189466.817
2013120.0,1551189466.859
2012174.0,1551189466.898
2011965.0,1551189466.938
2011527.0,1551189466.98
2010921.0,1551189467.019
2010920.0,1551189467.059
2011612.0,1551189467.1
2011968.0,1551189467.137
2011757.0,1551189467.178
2011643.0,1551189467.219
2011596.0,1551189467.258
2012220.0,1551189467.299
2012232.0,1551189467.34
2012732.0,1551189467.38
2013497.0,1551189467.419
2014180.0,1551189467.461
2014633.0,1551189467.498
2015086.0,1551189467.538
2015023.0,1551189467.58
2014680.0,1551189467.619
2013861.0,1551189467.659
2013439.0,1551189467.7
2013074.0,1551189467.739
2011923.0,1551189467.78
2009870.0,1551189467.821
2007881.0,1551189467.858
2006352.0,1551189467.898
2005417.0,1551189467.94
2003809.0,1551189467.979
2002723.0,1551189468.019
2002257.0,1551189468.06
2001345.0,1551189468.1
2000934.0,1551189468.14
2001040.0,1551189468.18
2001512.0,1551189468.218
2002512.0,1551189468.259
2003168.0,1551189468.3
2004192.0,1551189468.339
2005510.0,1551189468.38
2006708.0,1551189468.421
2007865.0,1551189468.46
2008387.0,1551189468.5
2009287.0,1551189468.539
2009916.0,1551189468.579
2010806.0,1551189468.619
2011697.0,1551189468.66
2011377.0,1551189468.699
2009996.0,1551189468.74
2008848.0,1551189468.779
2008119.0,1551189468.818
2007411.0,1551189468.858
2007091.0,1551189468.9
2006941.0,1551189468.939
2006738.0,1551189468.98
2006580.0,1551189469.02
2006002.0,1551189469.059
2006049.0,1551189469.101
2006090.0,1551189469.141
2006279.0,1551189469.181
2006384.0,1551189469.221
2007026.0,1551189469.262
2007304.0,1551189469.299
2007890.0,1551189469.339
2008566.0,1551189469.381
2009448.0,1551189469.42
2010194.0,1551189469.46
2010570.0,1551189469.501
2011195.0,1551189469.54
2011297.0,1551189469.581
2010380.0,1551189469.622
2008559.0,1551189469.659
2007444.0,1551189469.7
2006311.0,1551189469.741
2005228.0,1551189469.781
2004725.0,1551189469.82
2004027.0,1551189469.862
2002976.0,1551189469.901
2002404.0,1551189469.941
2001833.0,1551189469.981
2001768.0,1551189470.02
2001319.0,1551189470.06
2001439.0,1551189470.102
2001326.0,1551189470.141
2001530.0,1551189470.182
2001910.0,1551189470.222
2002161.0,1551189470.261
2002379.0,1551189470.3
2003034.0,1551189470.341
2003634.0,1551189470.381
2004036.0,1551189470.42
2002865.0,1551189470.501
2004271.0,1551189470.462
2000960.0,1551189470.541
1999155.0,1551189470.583
1997813.0,1551189470.622
1997507.0,1551189470.662
1997111.0,1551189470.701
1997580.0,1551189470.74
1997665.0,1551189470.781
1997639.0,1551189470.822
1997593.0,1551189470.861
1997468.0,1551189470.901
1997904.0,1551189470.943
1997892.0,1551189470.981
1997649.0,1551189471.02
1998002.0,1551189471.062
1998202.0,1551189471.102
1998780.0,1551189471.141
1999009.0,1551189471.183
1999735.0,1551189471.222
2000280.0,1551189471.262
2001302.0,1551189471.303
2002021.0,1551189471.342
2002393.0,1551189471.383
2001327.0,1551189471.423
1999948.0,1551189471.46
1999151.0,1551189471.501
1999796.0,1551189471.542
2000209.0,1551189471.582
2000743.0,1551189471.621
2000928.0,1551189471.663
1999957.0,1551189471.702
1998529.0,1551189471.742
1997840.0,1551189471.784
1997106.0,1551189471.821
1997330.0,1551189471.861
1997979.0,1551189471.902
1998576.0,1551189471.942
1998566.0,1551189471.983
1998808.0,1551189472.023
1998883.0,1551189472.062
1999156.0,1551189472.103
1999287.0,1551189472.142
1999659.0,1551189472.182
2000084.0,1551189472.221
2000138.0,1551189472.263
1993499.0,1551189472.384
1997931.0,1551189472.302
1995499.0,1551189472.342
1991884.0,1551189472.423
1990235.0,1551189472.463
1988248.0,1551189472.502
1987003.0,1551189472.541
1985646.0,1551189472.582
1984239.0,1551189472.623
1983181.0,1551189472.662
1982261.0,1551189472.702
1981608.0,1551189472.744
1981279.0,1551189472.784
1981084.0,1551189472.823
1980653.0,1551189472.862
1980420.0,1551189472.902
1979711.0,1551189472.942
1979238.0,1551189472.984
1979047.0,1551189473.022
1978694.0,1551189473.063
1979335.0,1551189473.105
1980124.0,1551189473.143
1979176.0,1551189473.182
1977284.0,1551189473.223
1975080.0,1551189473.262
1973151.0,1551189473.302
1971592.0,1551189473.344
1970350.0,1551189473.384
1970086.0,1551189473.423
1969525.0,1551189473.464
1968949.0,1551189473.504
1968514.0,1551189473.544
1968320.0,1551189473.584
1968425.0,1551189473.622
1968511.0,1551189473.654
1969080.0,1551189473.696
1969744.0,1551189473.735
1970151.0,1551189473.775
1970218.0,1551189473.816
1970016.0,1551189473.855
1970268.0,1551189473.895
1970775.0,1551189473.936
1971263.0,1551189473.976
1971369.0,1551189474.015
1969610.0,1551189474.056
1967093.0,1551189474.095
1965350.0,1551189474.135
1963569.0,1551189474.177
1962260.0,1551189474.215
1960966.0,1551189474.256
1960151.0,1551189474.297
1959283.0,1551189474.333
1958194.0,1551189474.374
1957798.0,1551189474.415
1957203.0,1551189474.454
1957231.0,1551189474.494
1957088.0,1551189474.536
1957192.0,1551189474.576
1957528.0,1551189474.615
1957749.0,1551189474.657
1958148.0,1551189474.694
1958500.0,1551189474.734
1959160.0,1551189474.776
1959798.0,1551189474.814
1960793.0,1551189474.855
1961263.0,1551189474.896
1959773.0,1551189474.935
1956640.0,1551189474.976
1954238.0,1551189475.015
1952615.0,1551189475.054
1951498.0,1551189475.095
1950866.0,1551189475.136
1950580.0,1551189475.176
1950543.0,1551189475.215
1950310.0,1551189475.257
1950487.0,1551189475.296
1950498.0,1551189475.334
1950461.0,1551189475.376
1950665.0,1551189475.415
1951002.0,1551189475.455
1950948.0,1551189475.496
1951383.0,1551189475.535
1951824.0,1551189475.576
1952330.0,1551189475.617
1953220.0,1551189475.656
1954015.0,1551189475.694
1955942.0,1551189475.736
1957771.0,1551189475.775
1958514.0,1551189475.815
1956877.0,1551189475.856
1954295.0,1551189475.896
1952592.0,1551189475.936
1950992.0,1551189475.978
1949612.0,1551189476.016
1948762.0,1551189476.055
1948438.0,1551189476.096
1947971.0,1551189476.135
1947547.0,1551189476.176
1947460.0,1551189476.217
1947899.0,1551189476.256
1948507.0,1551189476.296
1948993.0,1551189476.338
1949860.0,1551189476.375
1950361.0,1551189476.415
1951315.0,1551189476.456
1951901.0,1551189476.495
1952576.0,1551189476.535
1953571.0,1551189476.577
1954567.0,1551189476.615
1955709.0,1551189476.655
1956518.0,1551189476.696
1955814.0,1551189476.735
1953940.0,1551189476.776
1952293.0,1551189476.817
1950590.0,1551189476.856
1949053.0,1551189476.896
1947449.0,1551189476.938
1946716.0,1551189476.978
1945940.0,1551189477.015
1945410.0,1551189477.057
1944678.0,1551189477.096
1944171.0,1551189477.136
1944091.0,1551189477.178
1944171.0,1551189477.217
1944759.0,1551189477.257
1944838.0,1551189477.298
1945455.0,1551189477.335
1946104.0,1551189477.376
1947098.0,1551189477.417
1948123.0,1551189477.456
1949437.0,1551189477.497
1950555.0,1551189477.538
1951482.0,1551189477.578
1952298.0,1551189477.617
1951912.0,1551189477.659
1949883.0,1551189477.696
1948140.0,1551189477.736
1947005.0,1551189477.778
1945995.0,1551189477.816
1945308.0,1551189477.857
1945082.0,1551189477.898
1944634.0,1551189477.937
1943970.0,1551189477.978
1943605.0,1551189478.017
1943675.0,1551189478.056
1943774.0,1551189478.097
1943962.0,1551189478.138
1944279.0,1551189478.178
1944757.0,1551189478.217
1945141.0,1551189478.259
1944963.0,1551189478.298
1945298.0,1551189478.336
1946063.0,1551189478.378
1947078.0,1551189478.417
1947959.0,1551189478.457
1949140.0,1551189478.498
1949843.0,1551189478.537
1949264.0,1551189478.578
1946976.0,1551189478.619
1945311.0,1551189478.658
1944455.0,1551189478.696
1942898.0,1551189478.738
1942500.0,1551189478.778
1942199.0,1551189478.817
1942086.0,1551189478.858
1941880.0,1551189478.898
1942312.0,1551189478.938
1943365.0,1551189478.98
1944911.0,1551189479.018
1945546.0,1551189479.057
1946128.0,1551189479.098
1946683.0,1551189479.137
1947396.0,1551189479.178
1948799.0,1551189479.219
1949632.0,1551189479.258
1950703.0,1551189479.298
1951745.0,1551189479.34
1953087.0,1551189479.377
1954325.0,1551189479.417
1955626.0,1551189479.458
1956385.0,1551189479.498
1955376.0,1551189479.538
1953565.0,1551189479.58
1952782.0,1551189479.618
1952136.0,1551189479.659
1951111.0,1551189479.7
1950817.0,1551189479.737
1950597.0,1551189479.778
1950400.0,1551189479.819
1950053.0,1551189479.858
1950110.0,1551189479.898
1950158.0,1551189479.939
1950447.0,1551189479.979
1950966.0,1551189480.019
1951906.0,1551189480.06
1952941.0,1551189480.099
1953664.0,1551189480.137
1954758.0,1551189480.179
1955742.0,1551189480.218
1956777.0,1551189480.258
1957953.0,1551189480.299
1959349.0,1551189480.339
1959968.0,1551189480.38
1959097.0,1551189480.42
1958677.0,1551189480.459
1959251.0,1551189480.498
1959698.0,1551189480.539
1960345.0,1551189480.578
1961246.0,1551189480.618
1961466.0,1551189480.659
1960618.0,1551189480.698
1960521.0,1551189480.739
1961115.0,1551189480.781
1961374.0,1551189480.819
1961845.0,1551189480.86
1961849.0,1551189480.899
1962314.0,1551189480.938
1963002.0,1551189480.979
1964016.0,1551189481.02
1964802.0,1551189481.059
1965504.0,1551189481.1
1966874.0,1551189481.141
1967704.0,1551189481.181
1968936.0,1551189481.218
1969394.0,1551189481.259
1968305.0,1551189481.299
1966490.0,1551189481.339
1965014.0,1551189481.381
1963790.0,1551189481.419
1962375.0,1551189481.46
1961276.0,1551189481.501
1961178.0,1551189481.54
1961606.0,1551189481.581
1962169.0,1551189481.619
1962691.0,1551189481.659
1963752.0,1551189481.699
1964773.0,1551189481.74
1965515.0,1551189481.78
1965989.0,1551189481.82
1966917.0,1551189481.861
1967692.0,1551189481.9
1969058.0,1551189481.938
1970395.0,1551189481.981
1971611.0,1551189482.019
1972658.0,1551189482.059
1974449.0,1551189482.102
1974698.0,1551189482.14
1973594.0,1551189482.181
1972579.0,1551189482.222
1971606.0,1551189482.259
1971013.0,1551189482.299
1969995.0,1551189482.34
1969749.0,1551189482.38
1969492.0,1551189482.42
1968890.0,1551189482.461
1968350.0,1551189482.5
1968186.0,1551189482.541
1968584.0,1551189482.583
1969051.0,1551189482.619
1970110.0,1551189482.659
1971928.0,1551189482.701
1972901.0,1551189482.74
1973476.0,1551189482.781
1973823.0,1551189482.821
1974496.0,1551189482.86
1975118.0,1551189482.901
1975635.0,1551189482.942
1976436.0,1551189482.98
1976673.0,1551189483.019
1974956.0,1551189483.061
1971975.0,1551189483.101
1969566.0,1551189483.14
1967646.0,1551189483.182
1965039.0,1551189483.221
1963032.0,1551189483.261
1961328.0,1551189483.3
1959825.0,1551189483.34
1958273.0,1551189483.381
1956910.0,1551189483.421
1956334.0,1551189483.46
1955228.0,1551189483.501
1954841.0,1551189483.542
1954819.0,1551189483.582
1954411.0,1551189483.622
1954124.0,1551189483.661
1954262.0,1551189483.7
1954238.0,1551189483.74
1954210.0,1551189483.782
1954043.0,1551189483.821
1954016.0,1551189483.861
1953644.0,1551189483.902
1951450.0,1551189483.942
1948958.0,1551189483.981
1947117.0,1551189484.021
1945522.0,1551189484.06
1943872.0,1551189484.104
1943206.0,1551189484.14
1942684.0,1551189484.18
1941828.0,1551189484.219
1941093.0,1551189484.261
1940691.0,1551189484.3
1940470.0,1551189484.34
1940464.0,1551189484.382
1940328.0,1551189484.42
1940385.0,1551189484.461
1940992.0,1551189484.502
1941720.0,1551189484.541
1942513.0,1551189484.582
1943063.0,1551189484.623
1944054.0,1551189484.662
1945293.0,1551189484.702
1947245.0,1551189484.741
1948535.0,1551189484.781
1947001.0,1551189484.821
1944557.0,1551189484.862
1942483.0,1551189484.901
1940456.0,1551189484.942
1938236.0,1551189484.984
1936782.0,1551189485.022
1935824.0,1551189485.063
1934738.0,1551189485.104
1933710.0,1551189485.141
1932771.0,1551189485.182
1932290.0,1551189485.222
1931627.0,1551189485.302
1931693.0,1551189485.343
1931565.0,1551189485.261
1931819.0,1551189485.383
1932257.0,1551189485.423
1932455.0,1551189485.464
1932760.0,1551189485.501
1933497.0,1551189485.541
1934059.0,1551189485.583
1934928.0,1551189485.622
1935944.0,1551189485.665
1934930.0,1551189485.706
1933342.0,1551189485.745
1931901.0,1551189485.786
1930687.0,1551189485.826
1929454.0,1551189485.865
1928910.0,1551189485.905
1928579.0,1551189485.946
1928609.0,1551189486.025
1928278.0,1551189485.986
1928961.0,1551189486.067
1929737.0,1551189486.106
1930464.0,1551189486.146
1931459.0,1551189486.187
1932189.0,1551189486.226
1933308.0,1551189486.266
1934813.0,1551189486.307
1936001.0,1551189486.346
1937170.0,1551189486.387
1938778.0,1551189486.425
1940465.0,1551189486.464
1942064.0,1551189486.504
1943475.0,1551189486.545
1940062.0,1551189486.624
1942420.0,1551189486.584
1938352.0,1551189486.665
1936721.0,1551189486.704
1935082.0,1551189486.744
1934174.0,1551189486.785
1933785.0,1551189486.825
1933007.0,1551189486.865
1932753.0,1551189486.906
1932472.0,1551189486.945
1932829.0,1551189486.986
1933397.0,1551189487.027
1933829.0,1551189487.066
1934550.0,1551189487.107
1935283.0,1551189487.148
1936257.0,1551189487.188
1937241.0,1551189487.227
1938526.0,1551189487.266
1939582.0,1551189487.305
1941179.0,1551189487.346
1942501.0,1551189487.388
1944026.0,1551189487.426
1944092.0,1551189487.466
1942486.0,1551189487.508
1940804.0,1551189487.547
1939975.0,1551189487.588
1939241.0,1551189487.628
1938410.0,1551189487.665
1938294.0,1551189487.706
1938026.0,1551189487.747
1938008.0,1551189487.787
1937654.0,1551189487.827
1937887.0,1551189487.868
1938602.0,1551189487.907
1939279.0,1551189487.947
1940072.0,1551189487.987
1941426.0,1551189488.026
1942559.0,1551189488.066
1943826.0,1551189488.109
1945309.0,1551189488.147
1946873.0,1551189488.188
1949044.0,1551189488.228
1951053.0,1551189488.268
1952762.0,1551189488.306
1953352.0,1551189488.347
1952080.0,1551189488.387
1951338.0,1551189488.427
1950776.0,1551189488.468
1949623.0,1551189488.507
1948529.0,1551189488.547
1947940.0,1551189488.589
1947644.0,1551189488.628
1947205.0,1551189488.666
1947039.0,1551189488.707
1947101.0,1551189488.747
1946963.0,1551189488.788
1946278.0,1551189488.828
1946394.0,1551189488.867
1946836.0,1551189488.908
1947108.0,1551189488.949
1947862.0,1551189488.989
1948745.0,1551189489.026
1950171.0,1551189489.068
1951843.0,1551189489.107
1954010.0,1551189489.147
1955641.0,1551189489.189
1957098.0,1551189489.225
1956983.0,1551189489.265
1955903.0,1551189489.307
1954885.0,1551189489.346
1954858.0,1551189489.386
1954720.0,1551189489.428
1954456.0,1551189489.467
1954604.0,1551189489.507
1954170.0,1551189489.548
1953567.0,1551189489.588
1953643.0,1551189489.627
1953824.0,1551189489.669
1954362.0,1551189489.708
1955018.0,1551189489.748
1955546.0,1551189489.79
1956315.0,1551189489.829
1956931.0,1551189489.869
1957477.0,1551189489.908
1958165.0,1551189489.947
1959032.0,1551189489.988
1960205.0,1551189490.029
1961525.0,1551189490.068
1962516.0,1551189490.109
1962117.0,1551189490.15
1960344.0,1551189490.19
1959153.0,1551189490.227
1958714.0,1551189490.268
1958373.0,1551189490.308
1958057.0,1551189490.348
1957987.0,1551189490.39
1958271.0,1551189490.428
1957904.0,1551189490.469
1958016.0,1551189490.51
1958625.0,1551189490.549
1959690.0,1551189490.588
1960779.0,1551189490.629
1961750.0,1551189490.668
1962838.0,1551189490.708
1963414.0,1551189490.75
1964163.0,1551189490.789
1965346.0,1551189490.829
1966541.0,1551189490.87
1967788.0,1551189490.908
1968977.0,1551189490.948
1970647.0,1551189490.99
1971241.0,1551189491.028
1970217.0,1551189491.069
1969269.0,1551189491.111
1968984.0,1551189491.15
1969395.0,1551189491.19
1969068.0,1551189491.229
1968665.0,1551189491.268
1967787.0,1551189491.308
1966984.0,1551189491.35
1966213.0,1551189491.39
1966013.0,1551189491.429
1966093.0,1551189491.471
1966440.0,1551189491.51
1967042.0,1551189491.55
1967643.0,1551189491.59
1968747.0,1551189491.628
1969583.0,1551189491.669
1970934.0,1551189491.71
1972206.0,1551189491.749
1973405.0,1551189491.788
1975085.0,1551189491.829
1976593.0,1551189491.868
1977532.0,1551189491.908
1976709.0,1551189491.949
1975339.0,1551189491.989
1974532.0,1551189492.029
1974361.0,1551189492.07
1973638.0,1551189492.11
1973546.0,1551189492.15
1973710.0,1551189492.192
1973651.0,1551189492.23
1973542.0,1551189492.271
1973938.0,1551189492.31
1974152.0,1551189492.349
1974747.0,1551189492.39
1975215.0,1551189492.43
1976410.0,1551189492.47
1976956.0,1551189492.51
1976608.0,1551189492.551
1975577.0,1551189492.591
1975514.0,1551189492.631
1975830.0,1551189492.67
1976382.0,1551189492.709
1977374.0,1551189492.749
1977581.0,1551189492.791
1975701.0,1551189492.83
1973342.0,1551189492.87
1971284.0,1551189492.912
1968802.0,1551189492.951
1966443.0,1551189492.992
1964272.0,1551189493.03
1963050.0,1551189493.069
1961570.0,1551189493.111
1960607.0,1551189493.151
1959997.0,1551189493.191
1959777.0,1551189493.231
1959874.0,1551189493.272
1959883.0,1551189493.311
1960023.0,1551189493.349
1960305.0,1551189493.391
1959883.0,1551189493.43
1959544.0,1551189493.47
1959083.0,1551189493.511
1959080.0,1551189493.551
1959538.0,1551189493.592
1959950.0,1551189493.632
1959591.0,1551189493.671
1957807.0,1551189493.71
1955464.0,1551189493.751
1954341.0,1551189493.791
1953894.0,1551189493.83
1953109.0,1551189493.872
1952926.0,1551189493.911
1952788.0,1551189493.951
1952934.0,1551189493.993
1953071.0,1551189494.032
1952976.0,1551189494.07
1953300.0,1551189494.111
1953767.0,1551189494.15
1954654.0,1551189494.191
1955283.0,1551189494.232
1956276.0,1551189494.271
1957274.0,1551189494.311
1958119.0,1551189494.35
1958953.0,1551189494.39
1960016.0,1551189494.429
1961089.0,1551189494.471
1962224.0,1551189494.51
1963572.0,1551189494.55
1963201.0,1551189494.592
1963218.0,1551189494.63
1964248.0,1551189494.67
1965662.0,1551189494.712
1966323.0,1551189494.751
1967416.0,1551189494.792
1968504.0,1551189494.833
1968856.0,1551189494.872
1968408.0,1551189494.912
1968259.0,1551189494.951
1967623.0,1551189494.991
1967325.0,1551189495.031
1967517.0,1551189495.072
1967459.0,1551189495.112
1967866.0,1551189495.152
1968698.0,1551189495.194
1969700.0,1551189495.232
1970546.0,1551189495.271
1971211.0,1551189495.312
1972363.0,1551189495.351
1973687.0,1551189495.392
1973690.0,1551189495.433
1972120.0,1551189495.472
1970654.0,1551189495.512
1969635.0,1551189495.553
1968568.0,1551189495.593
1967956.0,1551189495.631
1967939.0,1551189495.672
1967764.0,1551189495.711
1967773.0,1551189495.752
1967887.0,1551189495.794
1968395.0,1551189495.832
1969278.0,1551189495.872
1970229.0,1551189495.914
1971447.0,1551189495.951
1972139.0,1551189495.992
1973198.0,1551189496.033
1974305.0,1551189496.072
1975374.0,1551189496.113
1976387.0,1551189496.154
1977747.0,1551189496.194
1978836.0,1551189496.233
1977886.0,1551189496.272
1975843.0,1551189496.312
1974385.0,1551189496.352
1973209.0,1551189496.394
1971991.0,1551189496.432
1971212.0,1551189496.473
1970790.0,1551189496.514
1970262.0,1551189496.553
1969759.0,1551189496.594
1969270.0,1551189496.633
1969388.0,1551189496.672
1969804.0,1551189496.712
1970282.0,1551189496.753
1970870.0,1551189496.793
1971137.0,1551189496.833
1971822.0,1551189496.874
1972571.0,1551189496.914
1972988.0,1551189496.954
1973882.0,1551189496.995
1975209.0,1551189497.032
1975529.0,1551189497.072
1974590.0,1551189497.114
1972502.0,1551189497.153
1970837.0,1551189497.194
1969699.0,1551189497.234
1968067.0,1551189497.273
1966738.0,1551189497.314
1966119.0,1551189497.353
1965569.0,1551189497.393
1964486.0,1551189497.432
1963873.0,1551189497.474
1963574.0,1551189497.513
1963638.0,1551189497.553
1963321.0,1551189497.595
1963462.0,1551189497.634
1963773.0,1551189497.677
1963670.0,1551189497.718
1963618.0,1551189497.757
1964120.0,1551189497.798
1964434.0,1551189497.838
1965514.0,1551189497.877
1966152.0,1551189497.917
1966112.0,1551189497.958
1964148.0,1551189497.998
1962538.0,1551189498.037
1961554.0,1551189498.078
1960898.0,1551189498.118
1960098.0,1551189498.156
1959784.0,1551189498.198
1959797.0,1551189498.236
1959238.0,1551189498.276
1959157.0,1551189498.318
1959358.0,1551189498.357
1959776.0,1551189498.398
1960457.0,1551189498.438
1961439.0,1551189498.478
1962278.0,1551189498.516
1963550.0,1551189498.557
1964457.0,1551189498.597
1965567.0,1551189498.637
1967028.0,1551189498.678
1968272.0,1551189498.717
1969699.0,1551189498.757
1970543.0,1551189498.799
1969470.0,1551189498.838
1968190.0,1551189498.876
1966792.0,1551189498.917
1965194.0,1551189498.957
1963867.0,1551189498.998
1962707.0,1551189499.038
1962346.0,1551189499.077
1961551.0,1551189499.119
1960812.0,1551189499.159
1960427.0,1551189499.197
1960556.0,1551189499.237
1960613.0,1551189499.278
1961081.0,1551189499.317
1962320.0,1551189499.399
1961744.0,1551189499.357
1963028.0,1551189499.438
1963755.0,1551189499.476
1964938.0,1551189499.517
1965882.0,1551189499.556
1966869.0,1551189499.597
1969020.0,1551189499.677
1968517.0,1551189499.717
1968092.0,1551189499.638
1966786.0,1551189499.758
1964811.0,1551189499.798
1963594.0,1551189499.838
1962237.0,1551189499.879
1961044.0,1551189499.918
1960385.0,1551189499.959
1959807.0,1551189500.001
1959311.0,1551189500.037
1958580.0,1551189500.077
1958640.0,1551189500.119
1958539.0,1551189500.158
1958890.0,1551189500.199
1959444.0,1551189500.239
1959900.0,1551189500.279
1960333.0,1551189500.319
1960903.0,1551189500.358
1961768.0,1551189500.398
1962585.0,1551189500.438
1963516.0,1551189500.479
1964514.0,1551189500.518
1965337.0,1551189500.558
1964470.0,1551189500.6
1962812.0,1551189500.639
1961347.0,1551189500.679
1960030.0,1551189500.718
1958813.0,1551189500.758
1957868.0,1551189500.799
1957153.0,1551189500.839
1956262.0,1551189500.879
1954597.0,1551189500.919
1953145.0,1551189500.96
1952408.0,1551189501.0
1951805.0,1551189501.038
1951783.0,1551189501.079
1951643.0,1551189501.118
1951889.0,1551189501.159
1952654.0,1551189501.201
1953409.0,1551189501.239
1954513.0,1551189501.279
1955434.0,1551189501.321
1956839.0,1551189501.358
1958534.0,1551189501.399
1958951.0,1551189501.439
1957998.0,1551189501.479
1954897.0,1551189501.519
1953743.0,1551189501.56
1953588.0,1551189501.6
1954212.0,1551189501.64
1954760.0,1551189501.681
1954979.0,1551189501.718
1955396.0,1551189501.758
1956022.0,1551189501.8
1956415.0,1551189501.839
1957189.0,1551189501.879
1957950.0,1551189501.921
1958485.0,1551189501.96
1958953.0,1551189502.001
1959476.0,1551189502.039
1960120.0,1551189502.078
1961003.0,1551189502.118
1961825.0,1551189502.16
1962819.0,1551189502.199
1964470.0,1551189502.238
1966734.0,1551189502.28
1968448.0,1551189502.319
1970398.0,1551189502.359
1970208.0,1551189502.401
1969479.0,1551189502.44
1969125.0,1551189502.48
1969059.0,1551189502.521
1969071.0,1551189502.56
1969466.0,1551189502.599
1969967.0,1551189502.64
1970434.0,1551189502.679
1970887.0,1551189502.719
1971540.0,1551189502.761
1972288.0,1551189502.801
1973172.0,1551189502.84
1974165.0,1551189502.882
1975467.0,1551189502.921
1976562.0,1551189502.959
1977835.0,1551189503.001
1978758.0,1551189503.039
1979280.0,1551189503.08
1980259.0,1551189503.122
1981306.0,1551189503.16
1982485.0,1551189503.201
1982405.0,1551189503.242
1980658.0,1551189503.279
1978858.0,1551189503.319
1975603.0,1551189503.401
1977250.0,1551189503.361
1974632.0,1551189503.44
1973532.0,1551189503.482
1973351.0,1551189503.521
1972883.0,1551189503.561
1972289.0,1551189503.603
1972093.0,1551189503.639
1971938.0,1551189503.68
1972252.0,1551189503.721
1972513.0,1551189503.76
1972739.0,1551189503.801
1973301.0,1551189503.842
1973529.0,1551189503.881
1973820.0,1551189503.921
1974793.0,1551189503.963
1975030.0,1551189504.0
1975594.0,1551189504.04
1976233.0,1551189504.081
1975059.0,1551189504.121
1973420.0,1551189504.161
1972136.0,1551189504.203
1971370.0,1551189504.241
1970742.0,1551189504.282
1970186.0,1551189504.321
1970325.0,1551189504.36
1970237.0,1551189504.401
1969949.0,1551189504.442
1969960.0,1551189504.481
1969832.0,1551189504.521
1970030.0,1551189504.563
1970481.0,1551189504.6
1970678.0,1551189504.639
1971122.0,1551189504.681
1971378.0,1551189504.72
1972033.0,1551189504.76
1972701.0,1551189504.802
1973194.0,1551189504.84
1973554.0,1551189504.881
1973581.0,1551189504.922
1972104.0,1551189504.961
1970848.0,1551189505.002
1969701.0,1551189505.043
1968668.0,1551189505.082
1967254.0,1551189505.122
1966842.0,1551189505.161
1966714.0,1551189505.201
1966625.0,1551189505.241
1966537.0,1551189505.282
1966582.0,1551189505.321
1966984.0,1551189505.362
1967596.0,1551189505.404
1968316.0,1551189505.442
1969093.0,1551189505.482
1970129.0,1551189505.522
1970944.0,1551189505.561
1972233.0,1551189505.602
1973256.0,1551189505.642
1974692.0,1551189505.682
1975485.0,1551189505.722
1976510.0,1551189505.763
1976391.0,1551189505.803
1974422.0,1551189505.843
1972616.0,1551189505.882
1971291.0,1551189505.921
1970335.0,1551189505.961
1968911.0,1551189506.003
1968482.0,1551189506.042
1968134.0,1551189506.082
1967780.0,1551189506.125
1967332.0,1551189506.163
1967296.0,1551189506.202
1967685.0,1551189506.242
1968308.0,1551189506.282
1968781.0,1551189506.322
1969001.0,1551189506.363
1969270.0,1551189506.403
1969663.0,1551189506.443
1969989.0,1551189506.484
1969305.0,1551189506.523
1967566.0,1551189506.561
1966675.0,1551189506.603
1966354.0,1551189506.642
1964994.0,1551189506.682
1964045.0,1551189506.723
1963559.0,1551189506.763
1963230.0,1551189506.804
1963137.0,1551189506.844
1962844.0,1551189506.884
1963089.0,1551189506.922
1962252.0,1551189506.963
1961205.0,1551189507.003
1960789.0,1551189507.042
1961189.0,1551189507.084
1961361.0,1551189507.124
1962233.0,1551189507.161
1963097.0,1551189507.202
1964313.0,1551189507.241
1965284.0,1551189507.282
1965833.0,1551189507.324
1966925.0,1551189507.362
1967967.0,1551189507.403
1969003.0,1551189507.443
1970177.0,1551189507.483
1970410.0,1551189507.523
1968870.0,1551189507.564
1966897.0,1551189507.604
1964718.0,1551189507.644
1963198.0,1551189507.685
1961906.0,1551189507.722
1961215.0,1551189507.762
1960669.0,1551189507.804
1959705.0,1551189507.843
1958916.0,1551189507.883
1958467.0,1551189507.925
1958211.0,1551189507.964
1957964.0,1551189508.005
1957409.0,1551189508.043
1956979.0,1551189508.083
1956419.0,1551189508.123
1956375.0,1551189508.164
1956417.0,1551189508.204
1956270.0,1551189508.285
1956459.0,1551189508.244
1956489.0,1551189508.324
1955356.0,1551189508.404
1949896.0,1551189508.483
1956734.0,1551189508.365
1952700.0,1551189508.443
1948318.0,1551189508.524
1946891.0,1551189508.564
1945548.0,1551189508.605
1944771.0,1551189508.645
1944240.0,1551189508.684
1943221.0,1551189508.725
1942836.0,1551189508.764
1942142.0,1551189508.804
1942071.0,1551189508.843
1942011.0,1551189508.885
1942431.0,1551189508.924
1943409.0,1551189509.006
1942753.0,1551189508.964
1943772.0,1551189509.045
1944494.0,1551189509.085
1945271.0,1551189509.126
1945564.0,1551189509.163
1946589.0,1551189509.204
1946012.0,1551189509.245
1941802.0,1551189509.324
1939804.0,1551189509.366
1936810.0,1551189509.405
1943973.0,1551189509.284
1933079.0,1551189509.445
1929891.0,1551189509.486
1927137.0,1551189509.523
1923622.0,1551189509.564
1916754.0,1551189509.644
1919661.0,1551189509.606
