bvp,time
62.9,1708002920.03125
57.12,1708002920.046875
50.88,1708002920.0625
44.65,1708002920.078125
38.87,1708002920.09375
33.86,1708002920.109375
29.76,1708002920.125
26.56,1708002920.140625
24.13,1708002920.15625
22.34,1708002920.171875
21.01,1708002920.1875
19.95,1708002920.203125
18.92,1708002920.21875
17.63,1708002920.234375
15.8,1708002920.25
13.22,1708002920.265625
9.83,1708002920.28125
5.74,1708002920.296875
1.23,1708002920.3125
-3.24,1708002920.328125
-7.15,1708002920.34375
-9.99,1708002920.359375
-11.44,1708002920.375
-11.48,1708002920.390625
-10.41,1708002920.40625
-8.85,1708002920.421875
-7.5,1708002920.4375
-7.0,1708002920.453125
-7.76,1708002920.46875
-9.87,1708002920.484375
-13.14,1708002920.5
-17.16,1708002920.515625
-21.44,1708002920.53125
-25.56,1708002920.546875
-29.3,1708002920.5625
-32.74,1708002920.578125
-36.23,1708002920.59375
-40.26,1708002920.609375
-45.19,1708002920.625
-51.12,1708002920.640625
-57.77,1708002920.65625
-64.49,1708002920.671875
-70.43,1708002920.6875
-74.74,1708002920.703125
-76.75,1708002920.71875
-76.11,1708002920.734375
-72.95,1708002920.75
-67.86,1708002920.765625
-61.9,1708002920.78125
-56.38,1708002920.796875
-52.46,1708002920.8125
-50.71,1708002920.828125
-50.87,1708002920.84375
-51.82,1708002920.859375
-52.0,1708002920.875
-49.85,1708002920.890625
-44.38,1708002920.90625
-35.51,1708002920.921875
-24.08,1708002920.9375
-11.51,1708002920.953125
0.69,1708002920.96875
11.5,1708002920.984375
20.79,1708002921.0
29.6,1708002921.015625
39.79,1708002921.03125
53.35,1708002921.046875
71.6,1708002921.0625
94.59,1708002921.078125
121.18,1708002921.09375
149.47,1708002921.109375
177.16,1708002921.125
202.15,1708002921.140625
222.97,1708002921.15625
238.99,1708002921.171875
250.57,1708002921.1875
258.8,1708002921.203125
265.3,1708002921.21875
272.15,1708002921.234375
281.22,1708002921.25
293.15,1708002921.265625
306.91,1708002921.28125
320.11,1708002921.296875
329.72,1708002921.3125
333.1,1708002921.328125
328.4,1708002921.34375
314.82,1708002921.359375
292.99,1708002921.375
264.72,1708002921.390625
232.03,1708002921.40625
196.58,1708002921.421875
159.65,1708002921.4375
121.82,1708002921.453125
82.92,1708002921.46875
41.49,1708002921.484375
-4.68,1708002921.5
-56.55,1708002921.515625
-112.44,1708002921.53125
-168.17,1708002921.546875
-218.28,1708002921.5625
-257.8,1708002921.578125
-284.84,1708002921.59375
-298.98,1708002921.609375
-301.05,1708002921.625
-296.05,1708002921.640625
-290.12,1708002921.65625
-285.54,1708002921.671875
-280.42,1708002921.6875
-272.03,1708002921.703125
-259.43,1708002921.71875
-244.41,1708002921.734375
-229.56,1708002921.75
-216.69,1708002921.765625
-206.03,1708002921.78125
-195.96,1708002921.796875
-184.31,1708002921.8125
-170.12,1708002921.828125
-155.61,1708002921.84375
-141.81,1708002921.859375
-130.24,1708002921.875
-121.56,1708002921.890625
-115.44,1708002921.90625
-110.81,1708002921.921875
-105.86,1708002921.9375
-98.52,1708002921.953125
-87.7,1708002921.96875
-73.72,1708002921.984375
-57.71,1708002922.0
-41.43,1708002922.015625
-26.17,1708002922.03125
-12.59,1708002922.046875
-0.65,1708002922.0625
9.31,1708002922.078125
17.35,1708002922.09375
23.52,1708002922.109375
27.7,1708002922.125
29.92,1708002922.140625
30.1,1708002922.15625
28.49,1708002922.171875
25.48,1708002922.1875
21.46,1708002922.203125
16.96,1708002922.21875
12.68,1708002922.234375
9.23,1708002922.25
6.95,1708002922.265625
6.06,1708002922.28125
6.48,1708002922.296875
8.09,1708002922.3125
10.68,1708002922.328125
13.97,1708002922.34375
17.6,1708002922.359375
21.32,1708002922.375
24.82,1708002922.390625
27.75,1708002922.40625
29.87,1708002922.421875
31.01,1708002922.4375
31.16,1708002922.453125
30.42,1708002922.46875
28.95,1708002922.484375
26.91,1708002922.5
24.52,1708002922.515625
21.91,1708002922.53125
19.18,1708002922.546875
16.3,1708002922.5625
13.15,1708002922.578125
9.67,1708002922.59375
5.91,1708002922.609375
2.1,1708002922.625
-1.5,1708002922.640625
-4.62,1708002922.65625
-7.21,1708002922.671875
-9.46,1708002922.6875
-11.63,1708002922.703125
-13.96,1708002922.71875
-16.5,1708002922.734375
-19.21,1708002922.75
-21.94,1708002922.765625
-24.6,1708002922.78125
-27.22,1708002922.796875
-29.91,1708002922.8125
-32.77,1708002922.828125
-35.9,1708002922.84375
-39.34,1708002922.859375
-43.18,1708002922.875
-47.59,1708002922.890625
-52.73,1708002922.90625
-58.66,1708002922.921875
-65.12,1708002922.9375
-71.39,1708002922.953125
-76.33,1708002922.96875
-78.56,1708002922.984375
-76.9,1708002923.0
-70.7,1708002923.015625
-60.1,1708002923.03125
-46.0,1708002923.046875
-29.8,1708002923.0625
-13.01,1708002923.078125
3.08,1708002923.09375
17.51,1708002923.109375
29.67,1708002923.125
39.14,1708002923.140625
45.72,1708002923.15625
49.33,1708002923.171875
50.15,1708002923.1875
48.67,1708002923.203125
45.58,1708002923.21875
41.69,1708002923.234375
37.8,1708002923.25
34.55,1708002923.265625
32.38,1708002923.28125
31.51,1708002923.296875
31.93,1708002923.3125
33.51,1708002923.328125
36.03,1708002923.34375
39.2,1708002923.359375
42.74,1708002923.375
46.36,1708002923.390625
49.71,1708002923.40625
52.41,1708002923.421875
54.15,1708002923.4375
54.66,1708002923.453125
53.89,1708002923.46875
51.98,1708002923.484375
49.23,1708002923.5
46.03,1708002923.515625
42.71,1708002923.53125
39.45,1708002923.546875
36.24,1708002923.5625
32.98,1708002923.578125
29.51,1708002923.59375
25.72,1708002923.609375
21.64,1708002923.625
17.4,1708002923.640625
13.21,1708002923.65625
9.22,1708002923.671875
5.52,1708002923.6875
2.03,1708002923.703125
-1.34,1708002923.71875
-4.71,1708002923.734375
-8.14,1708002923.75
-11.59,1708002923.765625
-15.01,1708002923.78125
-18.29,1708002923.796875
-21.42,1708002923.8125
-24.48,1708002923.828125
-27.71,1708002923.84375
-31.52,1708002923.859375
-36.32,1708002923.875
-42.34,1708002923.890625
-49.32,1708002923.90625
-56.47,1708002923.921875
-62.57,1708002923.9375
-66.18,1708002923.953125
-66.15,1708002923.96875
-61.83,1708002923.984375
-53.19,1708002924.0
-40.8,1708002924.015625
-25.65,1708002924.03125
-8.97,1708002924.046875
7.87,1708002924.0625
23.56,1708002924.078125
37.05,1708002924.09375
47.67,1708002924.109375
55.25,1708002924.125
60.02,1708002924.140625
62.4,1708002924.15625
62.79,1708002924.171875
61.53,1708002924.1875
58.87,1708002924.203125
55.16,1708002924.21875
50.91,1708002924.234375
46.76,1708002924.25
43.32,1708002924.265625
41.05,1708002924.28125
40.14,1708002924.296875
40.51,1708002924.3125
41.9,1708002924.328125
43.96,1708002924.34375
46.35,1708002924.359375
48.76,1708002924.375
50.89,1708002924.390625
52.46,1708002924.40625
53.23,1708002924.421875
52.99,1708002924.4375
51.64,1708002924.453125
49.25,1708002924.46875
46.03,1708002924.484375
42.29,1708002924.5
38.32,1708002924.515625
34.32,1708002924.53125
30.27,1708002924.546875
26.05,1708002924.5625
21.5,1708002924.578125
16.59,1708002924.59375
11.47,1708002924.609375
6.42,1708002924.625
1.77,1708002924.640625
-2.28,1708002924.65625
-5.72,1708002924.671875
-8.78,1708002924.6875
-11.72,1708002924.703125
-14.77,1708002924.71875
-18.01,1708002924.734375
-21.42,1708002924.75
-24.87,1708002924.765625
-28.27,1708002924.78125
-31.58,1708002924.796875
-34.81,1708002924.8125
-38.01,1708002924.828125
-41.3,1708002924.84375
-44.9,1708002924.859375
-49.1,1708002924.875
-54.21,1708002924.890625
-60.3,1708002924.90625
-67.01,1708002924.921875
-73.4,1708002924.9375
-78.06,1708002924.953125
-79.5,1708002924.96875
-76.54,1708002924.984375
-68.78,1708002925.0
-56.65,1708002925.015625
-41.33,1708002925.03125
-24.35,1708002925.046875
-7.25,1708002925.0625
8.66,1708002925.078125
22.45,1708002925.09375
33.57,1708002925.109375
41.77,1708002925.125
47.09,1708002925.140625
49.81,1708002925.15625
50.42,1708002925.171875
49.46,1708002925.1875
47.48,1708002925.203125
44.94,1708002925.21875
42.2,1708002925.234375
39.53,1708002925.25
37.17,1708002925.265625
35.37,1708002925.28125
34.34,1708002925.296875
34.22,1708002925.3125
35.0,1708002925.328125
36.54,1708002925.34375
38.58,1708002925.359375
40.77,1708002925.375
42.76,1708002925.390625
44.22,1708002925.40625
44.85,1708002925.421875
44.46,1708002925.4375
42.96,1708002925.453125
40.4,1708002925.46875
37.02,1708002925.484375
33.18,1708002925.5
29.31,1708002925.515625
25.7,1708002925.53125
22.44,1708002925.546875
19.35,1708002925.5625
16.16,1708002925.578125
12.62,1708002925.59375
8.69,1708002925.609375
4.57,1708002925.625
0.65,1708002925.640625
-2.75,1708002925.65625
-5.5,1708002925.671875
-7.68,1708002925.6875
-9.58,1708002925.703125
-11.53,1708002925.71875
-13.75,1708002925.734375
-16.31,1708002925.75
-19.14,1708002925.765625
-22.13,1708002925.78125
-25.13,1708002925.796875
-28.07,1708002925.8125
-30.89,1708002925.828125
-33.56,1708002925.84375
-36.19,1708002925.859375
-38.98,1708002925.875
-42.26,1708002925.890625
-46.37,1708002925.90625
-51.39,1708002925.921875
-57.0,1708002925.9375
-62.35,1708002925.953125
-66.16,1708002925.96875
-67.13,1708002925.984375
-64.27,1708002926.0
-57.32,1708002926.015625
-46.81,1708002926.03125
-33.94,1708002926.046875
-20.19,1708002926.0625
-6.91,1708002926.078125
4.93,1708002926.09375
14.79,1708002926.109375
22.48,1708002926.125
28.01,1708002926.140625
31.41,1708002926.15625
32.79,1708002926.171875
32.39,1708002926.1875
30.59,1708002926.203125
27.94,1708002926.21875
25.02,1708002926.234375
22.33,1708002926.25
20.25,1708002926.265625
18.93,1708002926.28125
18.42,1708002926.296875
18.73,1708002926.3125
19.81,1708002926.328125
21.59,1708002926.34375
23.9,1708002926.359375
26.47,1708002926.375
28.93,1708002926.390625
30.89,1708002926.40625
32.06,1708002926.421875
32.26,1708002926.4375
31.47,1708002926.453125
29.82,1708002926.46875
27.54,1708002926.484375
24.94,1708002926.5
22.28,1708002926.515625
19.73,1708002926.53125
17.3,1708002926.546875
14.84,1708002926.5625
12.15,1708002926.578125
9.08,1708002926.59375
5.59,1708002926.609375
1.85,1708002926.625
-1.85,1708002926.640625
-5.22,1708002926.65625
-8.02,1708002926.671875
-10.21,1708002926.6875
-11.9,1708002926.703125
-13.34,1708002926.71875
-14.81,1708002926.734375
-16.56,1708002926.75
-18.7,1708002926.765625
-21.24,1708002926.78125
-24.05,1708002926.796875
-26.96,1708002926.8125
-29.77,1708002926.828125
-32.36,1708002926.84375
-34.7,1708002926.859375
-36.89,1708002926.875
-39.17,1708002926.890625
-41.88,1708002926.90625
-45.38,1708002926.921875
-49.84,1708002926.9375
-55.1,1708002926.953125
-60.51,1708002926.96875
-64.98,1708002926.984375
-67.23,1708002927.0
-66.21,1708002927.015625
-61.36,1708002927.03125
-52.93,1708002927.046875
-41.82,1708002927.0625
-29.36,1708002927.078125
-16.86,1708002927.09375
-5.3,1708002927.109375
4.78,1708002927.125
13.22,1708002927.140625
20.07,1708002927.15625
25.33,1708002927.171875
28.98,1708002927.1875
30.96,1708002927.203125
31.35,1708002927.21875
30.45,1708002927.234375
28.73,1708002927.25
26.7,1708002927.265625
24.83,1708002927.28125
23.36,1708002927.296875
22.42,1708002927.3125
22.09,1708002927.328125
22.43,1708002927.34375
23.51,1708002927.359375
25.32,1708002927.375
27.68,1708002927.390625
30.23,1708002927.40625
32.55,1708002927.421875
34.24,1708002927.4375
35.1,1708002927.453125
35.08,1708002927.46875
34.27,1708002927.484375
32.83,1708002927.5
30.88,1708002927.515625
28.52,1708002927.53125
25.89,1708002927.546875
23.16,1708002927.5625
20.48,1708002927.578125
17.96,1708002927.59375
15.59,1708002927.609375
13.27,1708002927.625
10.89,1708002927.640625
8.44,1708002927.65625
6.04,1708002927.671875
3.91,1708002927.6875
2.24,1708002927.703125
1.09,1708002927.71875
0.34,1708002927.734375
-0.27,1708002927.75
-1.05,1708002927.765625
-2.2,1708002927.78125
-3.75,1708002927.796875
-5.61,1708002927.8125
-7.61,1708002927.828125
-9.63,1708002927.84375
-11.6,1708002927.859375
-13.57,1708002927.875
-15.64,1708002927.890625
-17.9,1708002927.90625
-20.38,1708002927.921875
-23.08,1708002927.9375
-25.94,1708002927.953125
-28.87,1708002927.96875
-31.8,1708002927.984375
-34.66,1708002928.0
-37.43,1708002928.015625
-40.17,1708002928.03125
-43.04,1708002928.046875
-46.3,1708002928.0625
-50.21,1708002928.078125
-54.84,1708002928.09375
-59.94,1708002928.109375
-64.84,1708002928.125
-68.53,1708002928.140625
-69.88,1708002928.15625
-68.0,1708002928.171875
-62.5,1708002928.1875
-53.63,1708002928.203125
-42.21,1708002928.21875
-29.41,1708002928.234375
-16.46,1708002928.25
-4.38,1708002928.265625
6.11,1708002928.28125
14.62,1708002928.296875
21.03,1708002928.3125
25.37,1708002928.328125
27.84,1708002928.34375
28.69,1708002928.359375
28.31,1708002928.375
27.13,1708002928.390625
25.6,1708002928.40625
24.1,1708002928.421875
22.87,1708002928.4375
22.04,1708002928.453125
21.66,1708002928.46875
21.76,1708002928.484375
22.36,1708002928.5
23.5,1708002928.515625
25.15,1708002928.53125
27.17,1708002928.546875
29.34,1708002928.5625
31.36,1708002928.578125
32.93,1708002928.59375
33.89,1708002928.609375
34.16,1708002928.625
33.72,1708002928.640625
32.6,1708002928.65625
30.84,1708002928.671875
28.56,1708002928.6875
25.94,1708002928.703125
23.23,1708002928.71875
20.7,1708002928.734375
18.5,1708002928.75
16.62,1708002928.765625
14.92,1708002928.78125
13.22,1708002928.796875
11.42,1708002928.8125
9.57,1708002928.828125
7.83,1708002928.84375
6.4,1708002928.859375
5.31,1708002928.875
4.44,1708002928.890625
3.54,1708002928.90625
2.37,1708002928.921875
0.79,1708002928.9375
-1.15,1708002928.953125
-3.28,1708002928.96875
-5.34,1708002928.984375
-7.17,1708002929.0
-8.71,1708002929.015625
-10.05,1708002929.03125
-11.4,1708002929.046875
-12.99,1708002929.0625
-15.05,1708002929.078125
-17.66,1708002929.09375
-20.75,1708002929.109375
-24.12,1708002929.125
-27.48,1708002929.140625
-30.58,1708002929.15625
-33.28,1708002929.171875
-35.67,1708002929.1875
-37.98,1708002929.203125
-40.6,1708002929.21875
-43.89,1708002929.234375
-47.99,1708002929.25
-52.68,1708002929.265625
-57.25,1708002929.28125
-60.69,1708002929.296875
-61.85,1708002929.3125
-59.91,1708002929.328125
-54.54,1708002929.34375
-46.12,1708002929.359375
-35.51,1708002929.375
-23.8,1708002929.390625
-12.07,1708002929.40625
-1.18,1708002929.421875
8.28,1708002929.4375
15.93,1708002929.453125
21.59,1708002929.46875
25.26,1708002929.484375
27.09,1708002929.5
27.38,1708002929.515625
26.53,1708002929.53125
24.9,1708002929.546875
22.85,1708002929.5625
20.69,1708002929.578125
18.76,1708002929.59375
17.37,1708002929.609375
16.76,1708002929.625
17.08,1708002929.640625
18.33,1708002929.65625
20.35,1708002929.671875
22.88,1708002929.6875
25.61,1708002929.703125
28.24,1708002929.71875
30.51,1708002929.734375
32.18,1708002929.75
33.12,1708002929.765625
33.23,1708002929.78125
32.5,1708002929.796875
31.06,1708002929.8125
29.05,1708002929.828125
26.73,1708002929.84375
24.35,1708002929.859375
22.1,1708002929.875
20.05,1708002929.890625
18.16,1708002929.90625
16.33,1708002929.921875
14.4,1708002929.9375
12.3,1708002929.953125
10.09,1708002929.96875
7.91,1708002929.984375
5.97,1708002930.0
4.38,1708002930.015625
3.16,1708002930.03125
2.15,1708002930.046875
1.11,1708002930.0625
-0.18,1708002930.078125
-1.83,1708002930.09375
-3.77,1708002930.109375
-5.82,1708002930.125
-7.77,1708002930.140625
-9.52,1708002930.15625
-11.13,1708002930.171875
-12.75,1708002930.1875
-14.59,1708002930.203125
-16.77,1708002930.21875
-19.36,1708002930.234375
-22.34,1708002930.25
-25.61,1708002930.265625
-29.04,1708002930.28125
-32.43,1708002930.296875
-35.56,1708002930.3125
-38.29,1708002930.328125
-40.63,1708002930.34375
-42.79,1708002930.359375
-45.18,1708002930.375
-48.23,1708002930.390625
-52.22,1708002930.40625
-57.02,1708002930.421875
-62.04,1708002930.4375
-66.26,1708002930.453125
-68.49,1708002930.46875
-67.72,1708002930.484375
-63.38,1708002930.5
-55.58,1708002930.515625
-45.0,1708002930.53125
-32.71,1708002930.546875
-19.95,1708002930.5625
-7.8,1708002930.578125
2.94,1708002930.59375
11.75,1708002930.609375
18.46,1708002930.625
23.14,1708002930.640625
26.08,1708002930.65625
27.64,1708002930.671875
28.17,1708002930.6875
27.93,1708002930.703125
27.09,1708002930.71875
25.81,1708002930.734375
24.28,1708002930.75
22.8,1708002930.765625
21.71,1708002930.78125
21.3,1708002930.796875
21.73,1708002930.8125
22.99,1708002930.828125
24.95,1708002930.84375
27.44,1708002930.859375
30.23,1708002930.875
33.09,1708002930.890625
35.77,1708002930.90625
37.94,1708002930.921875
39.28,1708002930.9375
39.57,1708002930.953125
38.74,1708002930.96875
36.98,1708002930.984375
34.67,1708002931.0
32.21,1708002931.015625
29.9,1708002931.03125
27.84,1708002931.046875
25.88,1708002931.0625
23.78,1708002931.078125
21.38,1708002931.09375
18.67,1708002931.109375
15.87,1708002931.125
13.26,1708002931.140625
11.1,1708002931.15625
9.47,1708002931.171875
8.24,1708002931.1875
7.16,1708002931.203125
5.94,1708002931.21875
4.43,1708002931.234375
2.66,1708002931.25
0.79,1708002931.265625
-0.98,1708002931.28125
-2.53,1708002931.296875
-3.9,1708002931.3125
-5.3,1708002931.328125
-6.98,1708002931.34375
-9.13,1708002931.359375
-11.77,1708002931.375
-14.77,1708002931.390625
-17.92,1708002931.40625
-21.06,1708002931.421875
-24.1,1708002931.4375
-27.01,1708002931.453125
-29.8,1708002931.46875
-32.47,1708002931.484375
-35.06,1708002931.5
-37.69,1708002931.515625
-40.61,1708002931.53125
-44.05,1708002931.546875
-48.09,1708002931.5625
-52.46,1708002931.578125
-56.45,1708002931.59375
-59.05,1708002931.609375
-59.22,1708002931.625
-56.24,1708002931.640625
-49.95,1708002931.65625
-40.83,1708002931.671875
-29.81,1708002931.6875
-18.02,1708002931.703125
-6.51,1708002931.71875
3.94,1708002931.734375
12.78,1708002931.75
19.74,1708002931.765625
24.69,1708002931.78125
27.67,1708002931.796875
28.85,1708002931.8125
28.53,1708002931.828125
27.12,1708002931.84375
25.05,1708002931.859375
22.71,1708002931.875
20.38,1708002931.890625
18.33,1708002931.90625
16.73,1708002931.921875
15.73,1708002931.9375
15.44,1708002931.953125
15.9,1708002931.96875
17.09,1708002931.984375
18.92,1708002932.0
21.28,1708002932.015625
23.95,1708002932.03125
26.69,1708002932.046875
29.16,1708002932.0625
31.02,1708002932.078125
32.0,1708002932.09375
31.94,1708002932.109375
30.89,1708002932.125
29.07,1708002932.140625
26.8,1708002932.15625
24.4,1708002932.171875
22.06,1708002932.1875
19.82,1708002932.203125
17.64,1708002932.21875
15.41,1708002932.234375
13.1,1708002932.25
10.68,1708002932.265625
8.18,1708002932.28125
5.64,1708002932.296875
3.14,1708002932.3125
0.77,1708002932.328125
-1.35,1708002932.34375
-3.12,1708002932.359375
-4.53,1708002932.375
-5.64,1708002932.390625
-6.68,1708002932.40625
-7.87,1708002932.421875
-9.43,1708002932.4375
-11.43,1708002932.453125
-13.84,1708002932.46875
-16.51,1708002932.484375
-19.29,1708002932.5
-22.1,1708002932.515625
-24.89,1708002932.53125
-27.67,1708002932.546875
-30.44,1708002932.5625
-33.27,1708002932.578125
-36.27,1708002932.59375
-39.64,1708002932.609375
-43.57,1708002932.625
-48.12,1708002932.640625
-53.01,1708002932.65625
-57.53,1708002932.671875
-60.74,1708002932.6875
-61.59,1708002932.703125
-59.35,1708002932.71875
-53.77,1708002932.734375
-45.18,1708002932.75
-34.37,1708002932.765625
-22.39,1708002932.78125
-10.32,1708002932.796875
0.92,1708002932.8125
10.63,1708002932.828125
18.39,1708002932.84375
24.04,1708002932.859375
27.62,1708002932.875
29.36,1708002932.890625
29.57,1708002932.90625
28.63,1708002932.921875
26.92,1708002932.9375
24.84,1708002932.953125
22.73,1708002932.96875
20.85,1708002932.984375
19.41,1708002933.0
18.56,1708002933.015625
18.41,1708002933.03125
19.03,1708002933.046875
20.44,1708002933.0625
22.54,1708002933.078125
25.08,1708002933.09375
27.69,1708002933.109375
30.01,1708002933.125
31.77,1708002933.140625
32.83,1708002933.15625
33.2,1708002933.171875
32.94,1708002933.1875
32.16,1708002933.203125
30.94,1708002933.21875
29.38,1708002933.234375
27.53,1708002933.25
25.47,1708002933.265625
23.2,1708002933.28125
20.71,1708002933.296875
17.99,1708002933.3125
15.08,1708002933.328125
12.08,1708002933.34375
9.17,1708002933.359375
6.51,1708002933.375
4.21,1708002933.390625
2.29,1708002933.40625
0.69,1708002933.421875
-0.75,1708002933.4375
-2.2,1708002933.453125
-3.77,1708002933.46875
-5.52,1708002933.484375
-7.39,1708002933.5
-9.29,1708002933.515625
-11.16,1708002933.53125
-13.05,1708002933.546875
-15.14,1708002933.5625
-17.6,1708002933.578125
-20.52,1708002933.59375
-23.78,1708002933.609375
-27.12,1708002933.625
-30.23,1708002933.640625
-32.92,1708002933.65625
-35.26,1708002933.671875
-37.49,1708002933.6875
-40.03,1708002933.703125
-43.25,1708002933.71875
-47.35,1708002933.734375
-52.2,1708002933.75
-57.3,1708002933.765625
-61.78,1708002933.78125
-64.6,1708002933.796875
-64.75,1708002933.8125
-61.59,1708002933.828125
-55.0,1708002933.84375
-45.5,1708002933.859375
-34.02,1708002933.875
-21.72,1708002933.890625
-9.67,1708002933.90625
1.28,1708002933.921875
10.58,1708002933.9375
17.92,1708002933.953125
23.16,1708002933.96875
26.33,1708002933.984375
27.62,1708002934.0
27.41,1708002934.015625
26.16,1708002934.03125
24.41,1708002934.046875
22.64,1708002934.0625
21.15,1708002934.078125
20.07,1708002934.09375
19.37,1708002934.109375
18.99,1708002934.125
18.94,1708002934.140625
19.39,1708002934.15625
20.5,1708002934.171875
22.35,1708002934.1875
24.83,1708002934.203125
27.58,1708002934.21875
30.13,1708002934.234375
32.11,1708002934.25
33.28,1708002934.265625
33.68,1708002934.28125
33.43,1708002934.296875
32.68,1708002934.3125
31.49,1708002934.328125
29.86,1708002934.34375
27.79,1708002934.359375
25.34,1708002934.375
22.68,1708002934.390625
19.97,1708002934.40625
17.39,1708002934.421875
15.0,1708002934.4375
12.76,1708002934.453125
10.61,1708002934.46875
8.46,1708002934.484375
6.29,1708002934.5
4.09,1708002934.515625
1.91,1708002934.53125
-0.23,1708002934.546875
-2.32,1708002934.5625
-4.37,1708002934.578125
-6.41,1708002934.59375
-8.45,1708002934.609375
-10.53,1708002934.625
-12.7,1708002934.640625
-15.03,1708002934.65625
-17.57,1708002934.671875
-20.35,1708002934.6875
-23.32,1708002934.703125
-26.35,1708002934.71875
-29.29,1708002934.734375
-32.04,1708002934.75
-34.62,1708002934.765625
-37.21,1708002934.78125
-40.13,1708002934.796875
-43.68,1708002934.8125
-48.02,1708002934.828125
-52.96,1708002934.84375
-57.89,1708002934.859375
-61.85,1708002934.875
-63.78,1708002934.890625
-62.78,1708002934.90625
-58.39,1708002934.921875
-50.76,1708002934.9375
-40.55,1708002934.953125
-28.8,1708002934.96875
-16.63,1708002934.984375
-5.06,1708002935.0
5.18,1708002935.015625
13.62,1708002935.03125
20.07,1708002935.046875
24.57,1708002935.0625
27.28,1708002935.078125
28.47,1708002935.09375
28.46,1708002935.109375
27.61,1708002935.125
26.26,1708002935.140625
24.68,1708002935.15625
23.11,1708002935.171875
21.7,1708002935.1875
20.61,1708002935.203125
20.0,1708002935.21875
20.04,1708002935.234375
20.89,1708002935.25
22.56,1708002935.265625
24.91,1708002935.28125
27.66,1708002935.296875
30.44,1708002935.3125
32.87,1708002935.328125
34.69,1708002935.34375
35.74,1708002935.359375
35.93,1708002935.375
35.27,1708002935.390625
33.84,1708002935.40625
31.84,1708002935.421875
29.48,1708002935.4375
26.99,1708002935.453125
24.5,1708002935.46875
22.05,1708002935.484375
19.6,1708002935.5
17.11,1708002935.515625
14.54,1708002935.53125
11.95,1708002935.546875
9.38,1708002935.5625
6.9,1708002935.578125
4.54,1708002935.59375
2.36,1708002935.609375
0.4,1708002935.625
-1.29,1708002935.640625
-2.73,1708002935.65625
-4.02,1708002935.671875
-5.36,1708002935.6875
-6.92,1708002935.703125
-8.84,1708002935.71875
-11.11,1708002935.734375
-13.61,1708002935.75
-16.11,1708002935.765625
-18.45,1708002935.78125
-20.53,1708002935.796875
-22.37,1708002935.8125
-24.1,1708002935.828125
-25.95,1708002935.84375
-28.2,1708002935.859375
-31.15,1708002935.875
-35.0,1708002935.890625
-39.7,1708002935.90625
-44.85,1708002935.921875
-49.66,1708002935.9375
-53.09,1708002935.953125
-54.11,1708002935.96875
-51.98,1708002935.984375
-46.46,1708002936.0
-37.93,1708002936.015625
-27.25,1708002936.03125
-15.6,1708002936.046875
-4.16,1708002936.0625
6.04,1708002936.078125
14.33,1708002936.09375
20.39,1708002936.109375
24.27,1708002936.125
26.25,1708002936.140625
26.7,1708002936.15625
25.96,1708002936.171875
24.34,1708002936.1875
22.08,1708002936.203125
19.5,1708002936.21875
17.0,1708002936.234375
15.0,1708002936.25
13.86,1708002936.265625
13.76,1708002936.28125
14.66,1708002936.296875
16.37,1708002936.3125
18.64,1708002936.328125
21.25,1708002936.34375
24.0,1708002936.359375
26.67,1708002936.375
29.0,1708002936.390625
30.72,1708002936.40625
31.59,1708002936.421875
31.54,1708002936.4375
30.66,1708002936.453125
29.15,1708002936.46875
27.21,1708002936.484375
25.03,1708002936.5
22.7,1708002936.515625
20.29,1708002936.53125
17.88,1708002936.546875
15.56,1708002936.5625
13.38,1708002936.578125
11.33,1708002936.59375
9.3,1708002936.609375
7.17,1708002936.625
4.87,1708002936.640625
2.47,1708002936.65625
0.09,1708002936.671875
-2.12,1708002936.6875
-4.04,1708002936.703125
-5.74,1708002936.71875
-7.33,1708002936.734375
-8.96,1708002936.75
-10.75,1708002936.765625
-12.72,1708002936.78125
-14.86,1708002936.796875
-17.16,1708002936.8125
-19.59,1708002936.828125
-22.13,1708002936.84375
-24.74,1708002936.859375
-27.38,1708002936.875
-30.03,1708002936.890625
-32.81,1708002936.90625
-35.95,1708002936.921875
-39.67,1708002936.9375
-44.08,1708002936.953125
-48.96,1708002936.96875
-53.68,1708002936.984375
-57.32,1708002937.0
-58.84,1708002937.015625
-57.41,1708002937.03125
-52.66,1708002937.046875
-44.8,1708002937.0625
-34.57,1708002937.078125
-23.06,1708002937.09375
-11.4,1708002937.109375
-0.61,1708002937.125
8.64,1708002937.140625
15.97,1708002937.15625
21.3,1708002937.171875
24.7,1708002937.1875
26.4,1708002937.203125
26.71,1708002937.21875
26.01,1708002937.234375
24.69,1708002937.25
23.12,1708002937.265625
21.58,1708002937.28125
20.25,1708002937.296875
19.24,1708002937.3125
18.7,1708002937.328125
18.74,1708002937.34375
19.49,1708002937.359375
20.94,1708002937.375
22.99,1708002937.390625
25.34,1708002937.40625
27.66,1708002937.421875
29.67,1708002937.4375
31.19,1708002937.453125
32.17,1708002937.46875
32.6,1708002937.484375
32.51,1708002937.5
31.85,1708002937.515625
30.58,1708002937.53125
28.71,1708002937.546875
26.31,1708002937.5625
23.53,1708002937.578125
20.59,1708002937.59375
17.63,1708002937.609375
14.8,1708002937.625
12.21,1708002937.640625
9.92,1708002937.65625
7.93,1708002937.671875
6.2,1708002937.6875
4.6,1708002937.703125
3.0,1708002937.71875
1.3,1708002937.734375
-0.53,1708002937.75
-2.41,1708002937.765625
-4.27,1708002937.78125
-6.07,1708002937.796875
-7.91,1708002937.8125
-9.93,1708002937.828125
-12.31,1708002937.84375
-15.1,1708002937.859375
-18.19,1708002937.875
-21.39,1708002937.890625
-24.43,1708002937.90625
-27.15,1708002937.921875
-29.54,1708002937.9375
-31.77,1708002937.953125
-34.1,1708002937.96875
-36.82,1708002937.984375
-40.21,1708002938.0
-44.41,1708002938.015625
-49.36,1708002938.03125
-54.73,1708002938.046875
-59.87,1708002938.0625
-63.84,1708002938.078125
-65.61,1708002938.09375
-64.3,1708002938.109375
-59.49,1708002938.125
-51.38,1708002938.140625
-40.74,1708002938.15625
-28.79,1708002938.171875
-16.77,1708002938.1875
-5.71,1708002938.203125
3.73,1708002938.21875
11.3,1708002938.234375
17.03,1708002938.25
21.1,1708002938.265625
23.68,1708002938.28125
24.98,1708002938.296875
25.21,1708002938.3125
24.65,1708002938.328125
23.59,1708002938.34375
22.37,1708002938.359375
21.27,1708002938.375
20.5,1708002938.390625
20.18,1708002938.40625
20.43,1708002938.421875
21.34,1708002938.4375
22.98,1708002938.453125
25.33,1708002938.46875
28.2,1708002938.484375
31.26,1708002938.5
34.07,1708002938.515625
36.22,1708002938.53125
37.43,1708002938.546875
37.62,1708002938.5625
36.93,1708002938.578125
35.58,1708002938.59375
33.84,1708002938.609375
31.92,1708002938.625
29.9,1708002938.640625
27.79,1708002938.65625
25.53,1708002938.671875
23.05,1708002938.6875
20.38,1708002938.703125
17.58,1708002938.71875
14.81,1708002938.734375
12.25,1708002938.75
10.03,1708002938.765625
8.15,1708002938.78125
6.55,1708002938.796875
5.04,1708002938.8125
3.48,1708002938.828125
1.75,1708002938.84375
-0.17,1708002938.859375
-2.24,1708002938.875
-4.4,1708002938.890625
-6.62,1708002938.90625
-8.92,1708002938.921875
-11.38,1708002938.9375
-14.09,1708002938.953125
-17.12,1708002938.96875
-20.49,1708002938.984375
-24.1,1708002939.0
-27.74,1708002939.015625
-31.18,1708002939.03125
-34.22,1708002939.046875
-36.84,1708002939.0625
-39.28,1708002939.078125
-42.01,1708002939.09375
-45.58,1708002939.109375
-50.32,1708002939.125
-56.18,1708002939.140625
-62.56,1708002939.15625
-68.39,1708002939.171875
-72.43,1708002939.1875
-73.55,1708002939.203125
-71.08,1708002939.21875
-64.93,1708002939.234375
-55.6,1708002939.25
-44.01,1708002939.265625
-31.29,1708002939.28125
-18.56,1708002939.296875
-6.73,1708002939.3125
3.55,1708002939.328125
11.95,1708002939.34375
18.39,1708002939.359375
22.99,1708002939.375
26.02,1708002939.390625
27.79,1708002939.40625
28.62,1708002939.421875
28.76,1708002939.4375
28.46,1708002939.453125
27.87,1708002939.46875
27.18,1708002939.484375
26.59,1708002939.5
26.34,1708002939.515625
26.71,1708002939.53125
27.84,1708002939.546875
29.78,1708002939.5625
32.39,1708002939.578125
35.39,1708002939.59375
38.41,1708002939.609375
41.1,1708002939.625
43.17,1708002939.640625
44.41,1708002939.65625
44.71,1708002939.671875
44.07,1708002939.6875
42.6,1708002939.703125
40.52,1708002939.71875
38.09,1708002939.734375
35.58,1708002939.75
33.17,1708002939.765625
30.89,1708002939.78125
28.7,1708002939.796875
26.52,1708002939.8125
24.26,1708002939.828125
21.92,1708002939.84375
19.52,1708002939.859375
17.13,1708002939.875
14.79,1708002939.890625
12.58,1708002939.90625
10.56,1708002939.921875
8.82,1708002939.9375
7.36,1708002939.953125
6.11,1708002939.96875
4.94,1708002939.984375
3.64,1708002940.0
2.06,1708002940.015625
0.15,1708002940.03125
-2.05,1708002940.046875
-4.44,1708002940.0625
-6.94,1708002940.078125
-9.51,1708002940.09375
-12.21,1708002940.109375
-15.12,1708002940.125
-18.28,1708002940.140625
-21.68,1708002940.15625
-25.24,1708002940.171875
-28.88,1708002940.1875
-32.5,1708002940.203125
-36.08,1708002940.21875
-39.66,1708002940.234375
-43.31,1708002940.25
-47.15,1708002940.265625
-51.35,1708002940.28125
-56.02,1708002940.296875
-61.18,1708002940.3125
-66.59,1708002940.328125
-71.73,1708002940.34375
-75.73,1708002940.359375
-77.54,1708002940.375
-76.18,1708002940.390625
-71.01,1708002940.40625
-62.01,1708002940.421875
-49.87,1708002940.4375
-35.78,1708002940.453125
-21.21,1708002940.46875
-7.48,1708002940.484375
4.47,1708002940.5
14.23,1708002940.515625
21.78,1708002940.53125
27.36,1708002940.546875
31.26,1708002940.5625
33.71,1708002940.578125
34.84,1708002940.59375
34.83,1708002940.609375
33.91,1708002940.625
32.46,1708002940.640625
30.95,1708002940.65625
29.84,1708002940.671875
29.48,1708002940.6875
30.06,1708002940.703125
31.53,1708002940.71875
33.76,1708002940.734375
36.5,1708002940.75
39.46,1708002940.765625
42.36,1708002940.78125
44.91,1708002940.796875
46.82,1708002940.8125
47.89,1708002940.828125
48.03,1708002940.84375
47.26,1708002940.859375
45.78,1708002940.875
43.8,1708002940.890625
41.54,1708002940.90625
39.14,1708002940.921875
36.65,1708002940.9375
34.07,1708002940.953125
31.38,1708002940.96875
28.56,1708002940.984375
25.64,1708002941.0
22.71,1708002941.015625
19.95,1708002941.03125
17.56,1708002941.046875
15.68,1708002941.0625
14.32,1708002941.078125
13.34,1708002941.09375
12.49,1708002941.109375
11.54,1708002941.125
10.34,1708002941.140625
8.9,1708002941.15625
7.32,1708002941.171875
5.73,1708002941.1875
4.2,1708002941.203125
2.71,1708002941.21875
1.14,1708002941.234375
-0.63,1708002941.25
-2.67,1708002941.265625
-4.99,1708002941.28125
-7.5,1708002941.296875
-10.12,1708002941.3125
-12.76,1708002941.328125
-15.41,1708002941.34375
-18.11,1708002941.359375
-20.94,1708002941.375
-23.96,1708002941.390625
-27.15,1708002941.40625
-30.47,1708002941.421875
-33.85,1708002941.4375
-37.18,1708002941.453125
-40.43,1708002941.46875
-43.56,1708002941.484375
-46.61,1708002941.5
-49.68,1708002941.515625
-52.99,1708002941.53125
-56.82,1708002941.546875
-61.42,1708002941.5625
-66.8,1708002941.578125
-72.57,1708002941.59375
-77.88,1708002941.609375
-81.56,1708002941.625
-82.35,1708002941.640625
-79.27,1708002941.65625
-71.88,1708002941.671875
-60.43,1708002941.6875
-45.86,1708002941.703125
-29.57,1708002941.71875
-13.16,1708002941.734375
1.93,1708002941.75
14.72,1708002941.765625
24.75,1708002941.78125
32.03,1708002941.796875
36.92,1708002941.8125
39.78,1708002941.828125
40.99,1708002941.84375
40.79,1708002941.859375
39.48,1708002941.875
37.44,1708002941.890625
35.22,1708002941.90625
33.35,1708002941.921875
32.28,1708002941.9375
32.21,1708002941.953125
33.09,1708002941.96875
34.7,1708002941.984375
36.79,1708002942.0
39.2,1708002942.015625
41.81,1708002942.03125
44.49,1708002942.046875
47.03,1708002942.0625
49.11,1708002942.078125
50.41,1708002942.09375
50.72,1708002942.109375
49.99,1708002942.125
48.41,1708002942.140625
46.22,1708002942.15625
43.65,1708002942.171875
40.8,1708002942.1875
37.71,1708002942.203125
34.41,1708002942.21875
30.99,1708002942.234375
27.6,1708002942.25
24.42,1708002942.265625
21.54,1708002942.28125
18.97,1708002942.296875
16.65,1708002942.3125
14.5,1708002942.328125
12.5,1708002942.34375
10.66,1708002942.359375
9.05,1708002942.375
7.65,1708002942.390625
6.41,1708002942.40625
5.21,1708002942.421875
3.9,1708002942.4375
2.37,1708002942.453125
0.59,1708002942.46875
-1.4,1708002942.484375
-3.53,1708002942.5
-5.7,1708002942.515625
-7.89,1708002942.53125
-10.08,1708002942.546875
-12.32,1708002942.5625
-14.69,1708002942.578125
-17.27,1708002942.59375
-20.13,1708002942.609375
-23.31,1708002942.625
-26.77,1708002942.640625
-30.38,1708002942.65625
-33.91,1708002942.671875
-37.21,1708002942.6875
-40.18,1708002942.703125
-42.92,1708002942.71875
-45.73,1708002942.734375
-49.01,1708002942.75
-53.1,1708002942.765625
-58.09,1708002942.78125
-63.72,1708002942.796875
-69.28,1708002942.8125
-73.76,1708002942.828125
-75.97,1708002942.84375
-74.9,1708002942.859375
-69.92,1708002942.875
-60.97,1708002942.890625
-48.64,1708002942.90625
-34.0,1708002942.921875
-18.4,1708002942.9375
-3.19,1708002942.953125
10.52,1708002942.96875
22.01,1708002942.984375
30.92,1708002943.0
37.19,1708002943.015625
40.97,1708002943.03125
42.51,1708002943.046875
42.14,1708002943.0625
40.27,1708002943.078125
37.4,1708002943.09375
34.07,1708002943.109375
30.8,1708002943.125
28.01,1708002943.140625
26.02,1708002943.15625
25.0,1708002943.171875
25.08,1708002943.1875
26.26,1708002943.203125
28.47,1708002943.21875
31.49,1708002943.234375
34.95,1708002943.25
38.41,1708002943.265625
41.4,1708002943.28125
43.53,1708002943.296875
44.57,1708002943.3125
44.45,1708002943.328125
43.27,1708002943.34375
41.28,1708002943.359375
38.75,1708002943.375
35.95,1708002943.390625
33.01,1708002943.40625
29.96,1708002943.421875
26.72,1708002943.4375
23.26,1708002943.453125
19.66,1708002943.46875
16.13,1708002943.484375
12.94,1708002943.5
10.29,1708002943.515625
8.21,1708002943.53125
6.58,1708002943.546875
5.15,1708002943.5625
3.72,1708002943.578125
2.14,1708002943.59375
0.37,1708002943.609375
-1.56,1708002943.625
-3.57,1708002943.640625
-5.55,1708002943.65625
-7.38,1708002943.671875
-9.04,1708002943.6875
-10.59,1708002943.703125
-12.27,1708002943.71875
-14.34,1708002943.734375
-17.02,1708002943.75
-20.3,1708002943.765625
-23.97,1708002943.78125
-27.68,1708002943.796875
-31.13,1708002943.8125
-34.21,1708002943.828125
-37.05,1708002943.84375
-39.98,1708002943.859375
-43.38,1708002943.875
-47.57,1708002943.890625
-52.63,1708002943.90625
-58.28,1708002943.921875
-63.82,1708002943.9375
-68.24,1708002943.953125
-70.35,1708002943.96875
-69.12,1708002943.984375
-63.99,1708002944.0
-55.03,1708002944.015625
-42.98,1708002944.03125
-29.05,1708002944.046875
-14.57,1708002944.0625
-0.78,1708002944.078125
11.4,1708002944.09375
21.37,1708002944.109375
28.88,1708002944.125
33.88,1708002944.140625
36.55,1708002944.15625
37.19,1708002944.171875
36.22,1708002944.1875
34.13,1708002944.203125
31.38,1708002944.21875
28.43,1708002944.234375
25.61,1708002944.25
23.19,1708002944.265625
21.33,1708002944.28125
20.19,1708002944.296875
19.91,1708002944.3125
20.63,1708002944.328125
22.41,1708002944.34375
25.16,1708002944.359375
28.54,1708002944.375
32.06,1708002944.390625
35.09,1708002944.40625
37.14,1708002944.421875
37.93,1708002944.4375
37.48,1708002944.453125
36.05,1708002944.46875
33.98,1708002944.484375
31.61,1708002944.5
29.13,1708002944.515625
26.63,1708002944.53125
24.05,1708002944.546875
21.3,1708002944.5625
18.34,1708002944.578125
15.23,1708002944.59375
12.12,1708002944.609375
9.21,1708002944.625
6.69,1708002944.640625
4.61,1708002944.65625
2.87,1708002944.671875
1.3,1708002944.6875
-0.3,1708002944.703125
-2.04,1708002944.71875
-3.94,1708002944.734375
-5.97,1708002944.75
-8.03,1708002944.765625
-10.07,1708002944.78125
-12.04,1708002944.796875
-13.9,1708002944.8125
-15.7,1708002944.828125
-17.48,1708002944.84375
-19.37,1708002944.859375
-21.45,1708002944.875
-23.82,1708002944.890625
-26.44,1708002944.90625
-29.23,1708002944.921875
-32.06,1708002944.9375
-34.84,1708002944.953125
-37.57,1708002944.96875
-40.4,1708002944.984375
-43.56,1708002945.0
-47.29,1708002945.015625
-51.66,1708002945.03125
-56.45,1708002945.046875
-61.07,1708002945.0625
-64.61,1708002945.078125
-66.06,1708002945.09375
-64.62,1708002945.109375
-59.89,1708002945.125
-52.04,1708002945.140625
-41.74,1708002945.15625
-29.94,1708002945.171875
-17.62,1708002945.1875
-5.69,1708002945.203125
5.18,1708002945.21875
14.44,1708002945.234375
21.7,1708002945.25
26.68,1708002945.265625
29.31,1708002945.28125
29.75,1708002945.296875
28.43,1708002945.3125
25.97,1708002945.328125
23.06,1708002945.34375
20.27,1708002945.359375
17.98,1708002945.375
16.36,1708002945.390625
15.45,1708002945.40625
15.26,1708002945.421875
15.84,1708002945.4375
17.23,1708002945.453125
19.4,1708002945.46875
22.14,1708002945.484375
25.13,1708002945.5
27.96,1708002945.515625
30.29,1708002945.53125
31.92,1708002945.546875
32.82,1708002945.5625
33.05,1708002945.578125
32.69,1708002945.59375
31.76,1708002945.609375
30.26,1708002945.625
28.2,1708002945.640625
25.66,1708002945.65625
22.77,1708002945.671875
19.68,1708002945.6875
16.58,1708002945.703125
13.57,1708002945.71875
10.74,1708002945.734375
8.14,1708002945.75
5.77,1708002945.765625
3.64,1708002945.78125
1.72,1708002945.796875
0.02,1708002945.8125
-1.48,1708002945.828125
-2.84,1708002945.84375
-4.13,1708002945.859375
-5.44,1708002945.875
-6.86,1708002945.890625
-8.43,1708002945.90625
-10.17,1708002945.921875
-12.03,1708002945.9375
-13.99,1708002945.953125
-16.03,1708002945.96875
-18.12,1708002945.984375
-20.24,1708002946.0
-22.37,1708002946.015625
-24.51,1708002946.03125
-26.7,1708002946.046875
-29.1,1708002946.0625
-31.92,1708002946.078125
-35.34,1708002946.09375
-39.4,1708002946.109375
-43.88,1708002946.125
-48.25,1708002946.140625
-51.71,1708002946.15625
-53.41,1708002946.171875
-52.6,1708002946.1875
-48.87,1708002946.203125
-42.27,1708002946.21875
-33.34,1708002946.234375
-22.96,1708002946.25
-12.15,1708002946.265625
-1.84,1708002946.28125
7.28,1708002946.296875
14.77,1708002946.3125
20.43,1708002946.328125
24.22,1708002946.34375
26.14,1708002946.359375
26.28,1708002946.375
24.83,1708002946.390625
22.13,1708002946.40625
18.69,1708002946.421875
15.13,1708002946.4375
12.01,1708002946.453125
9.76,1708002946.46875
8.59,1708002946.484375
8.48,1708002946.5
9.29,1708002946.515625
10.83,1708002946.53125
12.94,1708002946.546875
15.48,1708002946.5625
18.23,1708002946.578125
20.92,1708002946.59375
23.17,1708002946.609375
24.62,1708002946.625
25.05,1708002946.640625
24.46,1708002946.65625
23.06,1708002946.671875
21.13,1708002946.6875
18.97,1708002946.703125
16.73,1708002946.71875
14.47,1708002946.734375
12.11,1708002946.75
9.58,1708002946.765625
6.86,1708002946.78125
4.0,1708002946.796875
1.11,1708002946.8125
-1.67,1708002946.828125
-4.24,1708002946.84375
-6.53,1708002946.859375
-8.56,1708002946.875
-10.43,1708002946.890625
-12.23,1708002946.90625
-14.02,1708002946.921875
-15.8,1708002946.9375
-17.46,1708002946.953125
-18.96,1708002946.96875
-20.3,1708002946.984375
-21.57,1708002947.0
-22.92,1708002947.015625
-24.53,1708002947.03125
-26.54,1708002947.046875
-29.07,1708002947.0625
-32.21,1708002947.078125
-35.96,1708002947.09375
-40.12,1708002947.109375
-44.14,1708002947.125
-47.21,1708002947.140625
-48.35,1708002947.15625
-46.78,1708002947.171875
-42.19,1708002947.1875
-34.88,1708002947.203125
-25.63,1708002947.21875
-15.46,1708002947.234375
-5.33,1708002947.25
4.04,1708002947.265625
12.14,1708002947.28125
18.62,1708002947.296875
23.2,1708002947.3125
25.67,1708002947.328125
26.0,1708002947.34375
24.41,1708002947.359375
21.37,1708002947.375
17.54,1708002947.390625
13.61,1708002947.40625
10.16,1708002947.421875
7.63,1708002947.4375
6.29,1708002947.453125
6.26,1708002947.46875
7.48,1708002947.484375
9.74,1708002947.5
12.64,1708002947.515625
15.71,1708002947.53125
18.51,1708002947.546875
20.73,1708002947.5625
22.27,1708002947.578125
23.17,1708002947.59375
23.5,1708002947.609375
23.24,1708002947.625
22.32,1708002947.640625
20.67,1708002947.65625
18.29,1708002947.671875
15.34,1708002947.6875
12.15,1708002947.703125
9.06,1708002947.71875
6.28,1708002947.734375
3.84,1708002947.75
1.57,1708002947.765625
-0.74,1708002947.78125
-3.25,1708002947.796875
-5.9,1708002947.8125
-8.49,1708002947.828125
-10.77,1708002947.84375
-12.59,1708002947.859375
-13.99,1708002947.875
-15.24,1708002947.890625
-16.66,1708002947.90625
-18.57,1708002947.921875
-21.11,1708002947.9375
-24.29,1708002947.953125
-28.0,1708002947.96875
-32.03,1708002947.984375
-36.05,1708002948.0
-39.6,1708002948.015625
-42.08,1708002948.03125
-42.8,1708002948.046875
-41.17,1708002948.0625
-36.86,1708002948.078125
-30.02,1708002948.09375
-21.21,1708002948.109375
-11.36,1708002948.125
-1.48,1708002948.140625
7.56,1708002948.15625
15.17,1708002948.171875
21.07,1708002948.1875
25.19,1708002948.203125
27.52,1708002948.21875
28.11,1708002948.234375
27.06,1708002948.25
24.68,1708002948.265625
21.46,1708002948.28125
18.04,1708002948.296875
15.05,1708002948.3125
12.94,1708002948.328125
11.91,1708002948.34375
11.96,1708002948.359375
12.93,1708002948.375
14.67,1708002948.390625
16.97,1708002948.40625
19.6,1708002948.421875
22.26,1708002948.4375
24.56,1708002948.453125
26.15,1708002948.46875
26.72,1708002948.484375
26.18,1708002948.5
24.59,1708002948.515625
22.21,1708002948.53125
19.36,1708002948.546875
16.3,1708002948.5625
13.22,1708002948.578125
10.1,1708002948.59375
6.86,1708002948.609375
3.37,1708002948.625
-0.4,1708002948.640625
-4.34,1708002948.65625
-8.24,1708002948.671875
-11.86,1708002948.6875
-15.02,1708002948.703125
-17.69,1708002948.71875
-19.93,1708002948.734375
-21.94,1708002948.75
-23.95,1708002948.765625
-26.21,1708002948.78125
-28.99,1708002948.796875
-32.46,1708002948.8125
-36.58,1708002948.828125
-41.04,1708002948.84375
-45.19,1708002948.859375
-48.18,1708002948.875
-49.18,1708002948.890625
-47.65,1708002948.90625
-43.46,1708002948.921875
-36.94,1708002948.9375
-28.71,1708002948.953125
-19.51,1708002948.96875
-10.08,1708002948.984375
-1.07,1708002949.0
6.95,1708002949.015625
13.52,1708002949.03125
18.31,1708002949.046875
21.16,1708002949.0625
22.17,1708002949.078125
21.66,1708002949.09375
20.08,1708002949.109375
17.94,1708002949.125
15.7,1708002949.140625
13.73,1708002949.15625
12.32,1708002949.171875
11.61,1708002949.1875
11.71,1708002949.203125
12.59,1708002949.21875
14.2,1708002949.234375
16.35,1708002949.25
18.81,1708002949.265625
21.28,1708002949.28125
23.47,1708002949.296875
25.12,1708002949.3125
26.0,1708002949.328125
26.0,1708002949.34375
25.07,1708002949.359375
23.29,1708002949.375
20.78,1708002949.390625
17.71,1708002949.40625
14.31,1708002949.421875
10.72,1708002949.4375
7.06,1708002949.453125
3.36,1708002949.46875
-0.36,1708002949.484375
-4.08,1708002949.5
-7.7,1708002949.515625
-11.11,1708002949.53125
-14.17,1708002949.546875
-16.85,1708002949.5625
-19.26,1708002949.578125
-21.62,1708002949.59375
-24.21,1708002949.609375
-27.28,1708002949.625
-30.92,1708002949.640625
-35.04,1708002949.65625
-39.31,1708002949.671875
-43.16,1708002949.6875
-45.87,1708002949.703125
-46.67,1708002949.71875
-44.89,1708002949.734375
-40.2,1708002949.75
-32.72,1708002949.765625
-23.09,1708002949.78125
-12.34,1708002949.796875
-1.6,1708002949.8125
8.12,1708002949.828125
16.22,1708002949.84375
22.49,1708002949.859375
27.01,1708002949.875
29.96,1708002949.890625
31.48,1708002949.90625
31.67,1708002949.921875
30.68,1708002949.9375
28.78,1708002949.953125
26.38,1708002949.96875
23.99,1708002949.984375
22.06,1708002950.0
20.89,1708002950.015625
20.58,1708002950.03125
21.06,1708002950.046875
22.24,1708002950.0625
23.98,1708002950.078125
26.12,1708002950.09375
28.48,1708002950.109375
30.75,1708002950.125
32.56,1708002950.140625
33.55,1708002950.15625
33.46,1708002950.171875
32.29,1708002950.1875
30.23,1708002950.203125
27.64,1708002950.21875
24.86,1708002950.234375
22.06,1708002950.25
19.23,1708002950.265625
16.23,1708002950.28125
12.95,1708002950.296875
9.43,1708002950.3125
5.91,1708002950.328125
2.63,1708002950.34375
-0.22,1708002950.359375
-2.71,1708002950.375
-5.08,1708002950.390625
-7.62,1708002950.40625
-10.47,1708002950.421875
-13.52,1708002950.4375
-16.54,1708002950.453125
-19.29,1708002950.46875
-21.63,1708002950.484375
-23.66,1708002950.5
-25.58,1708002950.515625
-27.61,1708002950.53125
-29.99,1708002950.546875
-32.87,1708002950.5625
-36.41,1708002950.578125
-40.67,1708002950.59375
-45.56,1708002950.609375
-50.61,1708002950.625
-55.04,1708002950.640625
-57.82,1708002950.65625
-57.97,1708002950.671875
-54.87,1708002950.6875
-48.43,1708002950.703125
-39.16,1708002950.71875
-27.99,1708002950.734375
-16.07,1708002950.75
-4.48,1708002950.765625
5.9,1708002950.78125
14.58,1708002950.796875
21.38,1708002950.8125
26.37,1708002950.828125
29.78,1708002950.84375
31.84,1708002950.859375
32.76,1708002950.875
32.71,1708002950.890625
31.88,1708002950.90625
30.55,1708002950.921875
29.1,1708002950.9375
27.91,1708002950.953125
27.31,1708002950.96875
27.51,1708002950.984375
28.49,1708002951.0
30.13,1708002951.015625
32.17,1708002951.03125
34.36,1708002951.046875
36.49,1708002951.0625
38.4,1708002951.078125
40.0,1708002951.09375
41.16,1708002951.109375
41.76,1708002951.125
41.67,1708002951.140625
40.81,1708002951.15625
39.19,1708002951.171875
36.93,1708002951.1875
34.29,1708002951.203125
31.54,1708002951.21875
28.92,1708002951.234375
26.55,1708002951.25
24.44,1708002951.265625
22.52,1708002951.28125
20.71,1708002951.296875
19.0,1708002951.3125
17.44,1708002951.328125
16.09,1708002951.34375
14.99,1708002951.359375
14.12,1708002951.375
13.38,1708002951.390625
12.66,1708002951.40625
11.82,1708002951.421875
10.8,1708002951.4375
9.62,1708002951.453125
8.35,1708002951.46875
7.1,1708002951.484375
5.92,1708002951.5
4.83,1708002951.515625
3.75,1708002951.53125
2.59,1708002951.546875
1.27,1708002951.5625
-0.25,1708002951.578125
-1.95,1708002951.59375
-3.73,1708002951.609375
-5.47,1708002951.625
-7.11,1708002951.640625
-8.64,1708002951.65625
-10.12,1708002951.671875
-11.66,1708002951.6875
-13.36,1708002951.703125
-15.33,1708002951.71875
-17.56,1708002951.734375
-20.05,1708002951.75
-22.7,1708002951.765625
-25.36,1708002951.78125
-27.88,1708002951.796875
-30.09,1708002951.8125
-31.94,1708002951.828125
-33.5,1708002951.84375
-35.04,1708002951.859375
-36.95,1708002951.875
-39.61,1708002951.890625
-43.21,1708002951.90625
-47.56,1708002951.921875
-52.1,1708002951.9375
-55.96,1708002951.953125
-58.21,1708002951.96875
-58.06,1708002951.984375
-55.06,1708002952.0
-49.23,1708002952.015625
-41.01,1708002952.03125
-31.17,1708002952.046875
-20.69,1708002952.0625
-10.49,1708002952.078125
-1.33,1708002952.09375
6.32,1708002952.109375
12.31,1708002952.125
16.69,1708002952.140625
19.66,1708002952.15625
21.49,1708002952.171875
22.41,1708002952.1875
22.64,1708002952.203125
22.39,1708002952.21875
21.85,1708002952.234375
21.25,1708002952.25
20.74,1708002952.265625
20.46,1708002952.28125
20.46,1708002952.296875
20.78,1708002952.3125
21.43,1708002952.328125
22.38,1708002952.34375
23.61,1708002952.359375
25.06,1708002952.375
26.63,1708002952.390625
28.13,1708002952.40625
29.29,1708002952.421875
29.84,1708002952.4375
29.62,1708002952.453125
28.61,1708002952.46875
26.99,1708002952.484375
25.04,1708002952.5
23.06,1708002952.515625
21.23,1708002952.53125
19.61,1708002952.546875
18.14,1708002952.5625
16.76,1708002952.578125
15.39,1708002952.59375
14.02,1708002952.609375
12.67,1708002952.625
11.32,1708002952.640625
9.95,1708002952.65625
8.55,1708002952.671875
7.17,1708002952.6875
5.89,1708002952.703125
4.82,1708002952.71875
3.98,1708002952.734375
3.33,1708002952.75
2.76,1708002952.765625
2.16,1708002952.78125
1.43,1708002952.796875
0.58,1708002952.8125
-0.33,1708002952.828125
-1.23,1708002952.84375
-2.09,1708002952.859375
-2.93,1708002952.875
-3.83,1708002952.890625
-4.87,1708002952.90625
-6.07,1708002952.921875
-7.4,1708002952.9375
-8.81,1708002952.953125
-10.21,1708002952.96875
-11.57,1708002952.984375
-12.89,1708002953.0
-14.19,1708002953.015625
-15.51,1708002953.03125
-16.89,1708002953.046875
-18.36,1708002953.0625
-19.95,1708002953.078125
-21.64,1708002953.09375
-23.36,1708002953.109375
-25.04,1708002953.125
-26.63,1708002953.140625
-28.17,1708002953.15625
-29.77,1708002953.171875
-31.62,1708002953.1875
-33.85,1708002953.203125
-36.47,1708002953.21875
-39.36,1708002953.234375
-42.28,1708002953.25
-44.84,1708002953.265625
-46.64,1708002953.28125
-47.21,1708002953.296875
-46.11,1708002953.3125
-43.03,1708002953.328125
-37.91,1708002953.34375
-31.02,1708002953.359375
-23.01,1708002953.375
-14.7,1708002953.390625
-6.93,1708002953.40625
-0.33,1708002953.421875
4.82,1708002953.4375
8.52,1708002953.453125
10.98,1708002953.46875
12.43,1708002953.484375
13.09,1708002953.5
13.14,1708002953.515625
12.71,1708002953.53125
12.0,1708002953.546875
11.15,1708002953.5625
10.36,1708002953.578125
9.74,1708002953.59375
9.4,1708002953.609375
9.42,1708002953.625
9.82,1708002953.640625
10.62,1708002953.65625
11.81,1708002953.671875
13.31,1708002953.6875
14.97,1708002953.703125
16.62,1708002953.71875
18.06,1708002953.734375
19.11,1708002953.75
19.65,1708002953.765625
19.63,1708002953.78125
19.09,1708002953.796875
18.17,1708002953.8125
16.98,1708002953.828125
15.64,1708002953.84375
14.17,1708002953.859375
12.55,1708002953.875
10.8,1708002953.890625
8.97,1708002953.90625
7.22,1708002953.921875
5.69,1708002953.9375
4.52,1708002953.953125
3.7,1708002953.96875
3.17,1708002953.984375
2.78,1708002954.0
2.37,1708002954.015625
1.83,1708002954.03125
1.12,1708002954.046875
0.27,1708002954.0625
-0.62,1708002954.078125
-1.46,1708002954.09375
-2.18,1708002954.109375
-2.78,1708002954.125
-3.33,1708002954.140625
-3.95,1708002954.15625
-4.73,1708002954.171875
-5.71,1708002954.1875
-6.86,1708002954.203125
-8.08,1708002954.21875
-9.28,1708002954.234375
-10.41,1708002954.25
-11.49,1708002954.265625
-12.61,1708002954.28125
-13.9,1708002954.296875
-15.47,1708002954.3125
-17.37,1708002954.328125
-19.57,1708002954.34375
-22.0,1708002954.359375
-24.54,1708002954.375
-27.1,1708002954.390625
-29.58,1708002954.40625
-31.9,1708002954.421875
-34.02,1708002954.4375
-35.97,1708002954.453125
-37.91,1708002954.46875
-40.08,1708002954.484375
-42.69,1708002954.5
-45.7,1708002954.515625
-48.69,1708002954.53125
-50.91,1708002954.546875
-51.5,1708002954.5625
-49.77,1708002954.578125
-45.52,1708002954.59375
-39.07,1708002954.609375
-31.17,1708002954.625
-22.75,1708002954.640625
-14.65,1708002954.65625
-7.47,1708002954.671875
-1.53,1708002954.6875
3.09,1708002954.703125
6.45,1708002954.71875
8.71,1708002954.734375
10.06,1708002954.75
10.69,1708002954.765625
10.75,1708002954.78125
10.34,1708002954.796875
9.62,1708002954.8125
8.73,1708002954.828125
7.9,1708002954.84375
7.33,1708002954.859375
7.19,1708002954.875
7.56,1708002954.890625
8.44,1708002954.90625
9.77,1708002954.921875
11.48,1708002954.9375
13.49,1708002954.953125
15.72,1708002954.96875
18.05,1708002954.984375
20.33,1708002955.0
22.29,1708002955.015625
23.67,1708002955.03125
24.26,1708002955.046875
24.0,1708002955.0625
23.03,1708002955.078125
21.67,1708002955.09375
20.26,1708002955.109375
19.06,1708002955.125
18.11,1708002955.140625
17.28,1708002955.15625
16.37,1708002955.171875
15.21,1708002955.1875
13.81,1708002955.203125
12.32,1708002955.21875
10.87,1708002955.234375
9.55,1708002955.25
8.35,1708002955.265625
7.19,1708002955.28125
6.04,1708002955.296875
4.94,1708002955.3125
3.99,1708002955.328125
3.24,1708002955.34375
2.67,1708002955.359375
2.12,1708002955.375
1.39,1708002955.390625
0.29,1708002955.40625
-1.21,1708002955.421875
-3.04,1708002955.4375
-5.08,1708002955.453125
-7.2,1708002955.46875
-9.37,1708002955.484375
-11.64,1708002955.5
-14.1,1708002955.515625
-16.86,1708002955.53125
-19.89,1708002955.546875
-23.1,1708002955.5625
-26.34,1708002955.578125
-29.45,1708002955.59375
-32.39,1708002955.609375
-35.2,1708002955.625
-38.0,1708002955.640625
-40.9,1708002955.65625
-43.96,1708002955.671875
-47.26,1708002955.6875
-50.85,1708002955.703125
-54.77,1708002955.71875
-59.03,1708002955.734375
-63.4,1708002955.75
-67.39,1708002955.765625
-70.2,1708002955.78125
-70.92,1708002955.796875
-68.76,1708002955.8125
-63.41,1708002955.828125
-55.16,1708002955.84375
-44.81,1708002955.859375
-33.46,1708002955.875
-22.16,1708002955.890625
-11.7,1708002955.90625
-2.55,1708002955.921875
5.08,1708002955.9375
11.14,1708002955.953125
15.71,1708002955.96875
18.91,1708002955.984375
20.99,1708002956.0
22.23,1708002956.015625
22.91,1708002956.03125
23.26,1708002956.046875
23.4,1708002956.0625
23.4,1708002956.078125
23.37,1708002956.09375
23.52,1708002956.109375
24.12,1708002956.125
25.44,1708002956.140625
27.6,1708002956.15625
30.51,1708002956.171875
33.9,1708002956.1875
37.43,1708002956.203125
40.76,1708002956.21875
43.59,1708002956.234375
45.74,1708002956.25
47.05,1708002956.265625
47.4,1708002956.28125
46.76,1708002956.296875
45.17,1708002956.3125
42.8,1708002956.328125
39.98,1708002956.34375
37.05,1708002956.359375
34.32,1708002956.375
32.02,1708002956.390625
30.2,1708002956.40625
28.79,1708002956.421875
27.58,1708002956.4375
26.34,1708002956.453125
24.92,1708002956.46875
23.28,1708002956.484375
21.53,1708002956.5
19.83,1708002956.515625
18.35,1708002956.53125
17.14,1708002956.546875
16.13,1708002956.5625
15.18,1708002956.578125
14.11,1708002956.59375
12.8,1708002956.609375
11.18,1708002956.625
9.21,1708002956.640625
6.91,1708002956.65625
4.29,1708002956.671875
1.43,1708002956.6875
-1.56,1708002956.703125
-4.55,1708002956.71875
-7.43,1708002956.734375
-10.21,1708002956.75
-13.02,1708002956.765625
-16.07,1708002956.78125
-19.53,1708002956.796875
-23.43,1708002956.8125
-27.61,1708002956.828125
-31.77,1708002956.84375
-35.61,1708002956.859375
-39.02,1708002956.875
-42.13,1708002956.890625
-45.29,1708002956.90625
-48.94,1708002956.921875
-53.38,1708002956.9375
-58.57,1708002956.953125
-64.11,1708002956.96875
-69.25,1708002956.984375
-73.06,1708002957.0
-74.57,1708002957.015625
-72.98,1708002957.03125
-67.86,1708002957.046875
-59.24,1708002957.0625
-47.66,1708002957.078125
-34.1,1708002957.09375
-19.8,1708002957.109375
-5.98,1708002957.125
6.32,1708002957.140625
16.45,1708002957.15625
24.17,1708002957.171875
29.62,1708002957.1875
33.23,1708002957.203125
35.46,1708002957.21875
36.77,1708002957.234375
37.43,1708002957.25
37.59,1708002957.265625
37.39,1708002957.28125
36.98,1708002957.296875
36.65,1708002957.3125
36.69,1708002957.328125
37.36,1708002957.34375
38.75,1708002957.359375
40.8,1708002957.375
43.34,1708002957.390625
46.16,1708002957.40625
49.09,1708002957.421875
51.93,1708002957.4375
54.43,1708002957.453125
56.28,1708002957.46875
57.17,1708002957.484375
56.91,1708002957.5
55.49,1708002957.515625
53.1,1708002957.53125
50.09,1708002957.546875
46.81,1708002957.5625
43.54,1708002957.578125
40.44,1708002957.59375
37.6,1708002957.609375
35.01,1708002957.625
32.62,1708002957.640625
30.39,1708002957.65625
28.26,1708002957.671875
26.17,1708002957.6875
24.12,1708002957.703125
22.11,1708002957.71875
20.2,1708002957.734375
18.4,1708002957.75
16.71,1708002957.765625
15.12,1708002957.78125
13.58,1708002957.796875
12.05,1708002957.8125
10.48,1708002957.828125
8.84,1708002957.84375
7.05,1708002957.859375
5.02,1708002957.875
2.68,1708002957.890625
-0.02,1708002957.90625
-3.0,1708002957.921875
-6.12,1708002957.9375
-9.17,1708002957.953125
-12.03,1708002957.96875
-14.7,1708002957.984375
-17.28,1708002958.0
-19.95,1708002958.015625
-22.86,1708002958.03125
-26.0,1708002958.046875
-29.27,1708002958.0625
-32.49,1708002958.078125
-35.56,1708002958.09375
-38.45,1708002958.109375
-41.3,1708002958.125
-44.38,1708002958.140625
-47.96,1708002958.15625
-52.27,1708002958.171875
-57.37,1708002958.1875
-62.96,1708002958.203125
-68.37,1708002958.21875
-72.59,1708002958.234375
-74.53,1708002958.25
-73.28,1708002958.265625
-68.41,1708002958.28125
-60.09,1708002958.296875
-48.96,1708002958.3125
-35.97,1708002958.328125
-22.2,1708002958.34375
-8.64,1708002958.359375
3.81,1708002958.375
14.47,1708002958.390625
22.86,1708002958.40625
28.86,1708002958.421875
32.67,1708002958.4375
34.73,1708002958.453125
35.59,1708002958.46875
35.72,1708002958.484375
35.45,1708002958.5
34.97,1708002958.515625
34.43,1708002958.53125
33.99,1708002958.546875
33.83,1708002958.5625
34.15,1708002958.578125
35.07,1708002958.59375
36.6,1708002958.609375
38.64,1708002958.625
41.0,1708002958.640625
43.42,1708002958.65625
45.65,1708002958.671875
47.41,1708002958.6875
48.48,1708002958.703125
48.7,1708002958.71875
48.03,1708002958.734375
46.59,1708002958.75
44.55,1708002958.765625
42.15,1708002958.78125
39.56,1708002958.796875
36.88,1708002958.8125
34.14,1708002958.828125
31.3,1708002958.84375
28.4,1708002958.859375
25.5,1708002958.875
22.72,1708002958.890625
20.21,1708002958.90625
18.06,1708002958.921875
16.3,1708002958.9375
14.89,1708002958.953125
13.79,1708002958.96875
12.9,1708002958.984375
12.14,1708002959.0
11.39,1708002959.015625
10.49,1708002959.03125
9.33,1708002959.046875
7.87,1708002959.0625
6.12,1708002959.078125
4.17,1708002959.09375
2.14,1708002959.109375
0.11,1708002959.125
-1.88,1708002959.140625
-3.88,1708002959.15625
-5.95,1708002959.171875
-8.15,1708002959.1875
-10.52,1708002959.203125
-13.03,1708002959.21875
-15.63,1708002959.234375
-18.26,1708002959.25
-20.86,1708002959.265625
-23.39,1708002959.28125
-25.84,1708002959.296875
-28.27,1708002959.3125
-30.75,1708002959.328125
-33.36,1708002959.34375
-36.11,1708002959.359375
-38.95,1708002959.375
-41.79,1708002959.390625
-44.55,1708002959.40625
-47.3,1708002959.421875
-50.26,1708002959.4375
-53.69,1708002959.453125
-57.81,1708002959.46875
-62.56,1708002959.484375
-67.52,1708002959.5
-71.89,1708002959.515625
-74.69,1708002959.53125
-74.95,1708002959.546875
-71.98,1708002959.5625
-65.51,1708002959.578125
-55.8,1708002959.59375
-43.6,1708002959.609375
-30.06,1708002959.625
-16.44,1708002959.640625
-3.94,1708002959.65625
6.63,1708002959.671875
14.87,1708002959.6875
20.85,1708002959.703125
24.92,1708002959.71875
27.53,1708002959.734375
29.08,1708002959.75
29.84,1708002959.765625
29.99,1708002959.78125
29.69,1708002959.796875
29.08,1708002959.8125
28.35,1708002959.828125
27.72,1708002959.84375
27.39,1708002959.859375
27.54,1708002959.875
28.28,1708002959.890625
29.67,1708002959.90625
31.66,1708002959.921875
34.08,1708002959.9375
36.72,1708002959.953125
39.28,1708002959.96875
41.47,1708002959.984375
43.0,1708002960.0
43.65,1708002960.015625
43.31,1708002960.03125
41.98,1708002960.046875
39.83,1708002960.0625
37.1,1708002960.078125
34.05,1708002960.09375
30.93,1708002960.109375
27.88,1708002960.125
24.99,1708002960.140625
22.28,1708002960.15625
19.76,1708002960.171875
17.44,1708002960.1875
15.34,1708002960.203125
13.48,1708002960.21875
11.86,1708002960.234375
10.41,1708002960.25
9.03,1708002960.265625
7.62,1708002960.28125
6.16,1708002960.296875
4.65,1708002960.3125
3.17,1708002960.328125
1.78,1708002960.34375
0.48,1708002960.359375
-0.85,1708002960.375
-2.36,1708002960.390625
-4.15,1708002960.40625
-6.27,1708002960.421875
-8.63,1708002960.4375
-11.08,1708002960.453125
-13.49,1708002960.46875
-15.77,1708002960.484375
-17.93,1708002960.5
-20.04,1708002960.515625
-22.2,1708002960.53125
-24.51,1708002960.546875
-27.04,1708002960.5625
-29.82,1708002960.578125
-32.82,1708002960.59375
-35.95,1708002960.609375
-39.08,1708002960.625
-42.11,1708002960.640625
-44.96,1708002960.65625
-47.71,1708002960.671875
-50.57,1708002960.6875
-53.85,1708002960.703125
-57.81,1708002960.71875
-62.5,1708002960.734375
-67.61,1708002960.75
-72.39,1708002960.765625
-75.84,1708002960.78125
-76.84,1708002960.796875
-74.54,1708002960.8125
-68.57,1708002960.828125
-59.17,1708002960.84375
-47.16,1708002960.859375
-33.73,1708002960.875
-20.18,1708002960.890625
-7.67,1708002960.90625
3.02,1708002960.921875
11.52,1708002960.9375
17.88,1708002960.953125
22.38,1708002960.96875
25.4,1708002960.984375
27.28,1708002961.0
28.26,1708002961.015625
28.52,1708002961.03125
28.21,1708002961.046875
27.53,1708002961.0625
26.75,1708002961.078125
26.18,1708002961.09375
26.08,1708002961.109375
26.68,1708002961.125
28.05,1708002961.140625
30.14,1708002961.15625
32.79,1708002961.171875
35.77,1708002961.1875
38.79,1708002961.203125
41.53,1708002961.21875
43.71,1708002961.234375
45.07,1708002961.25
45.45,1708002961.265625
44.79,1708002961.28125
43.22,1708002961.296875
40.97,1708002961.3125
38.38,1708002961.328125
35.71,1708002961.34375
33.15,1708002961.359375
30.7,1708002961.375
28.31,1708002961.390625
25.91,1708002961.40625
23.54,1708002961.421875
21.27,1708002961.4375
19.2,1708002961.453125
17.38,1708002961.46875
15.74,1708002961.484375
14.2,1708002961.5
12.69,1708002961.515625
11.21,1708002961.53125
9.81,1708002961.546875
8.53,1708002961.5625
7.32,1708002961.578125
6.05,1708002961.59375
4.56,1708002961.609375
2.75,1708002961.625
0.6,1708002961.640625
-1.77,1708002961.65625
-4.24,1708002961.671875
-6.68,1708002961.6875
-9.05,1708002961.703125
-11.37,1708002961.71875
-13.7,1708002961.734375
-16.13,1708002961.75
-18.74,1708002961.765625
-21.64,1708002961.78125
-24.88,1708002961.796875
-28.43,1708002961.8125
-32.21,1708002961.828125
-36.04,1708002961.84375
-39.71,1708002961.859375
-43.03,1708002961.875
-45.94,1708002961.890625
-48.55,1708002961.90625
-51.18,1708002961.921875
-54.28,1708002961.9375
-58.21,1708002961.953125
-63.07,1708002961.96875
-68.51,1708002961.984375
-73.71,1708002962.0
-77.52,1708002962.015625
-78.78,1708002962.03125
-76.61,1708002962.046875
-70.64,1708002962.0625
-61.07,1708002962.078125
-48.59,1708002962.09375
-34.25,1708002962.109375
-19.27,1708002962.125
-4.87,1708002962.140625
7.93,1708002962.15625
18.4,1708002962.171875
26.27,1708002962.1875
31.65,1708002962.203125
34.95,1708002962.21875
36.67,1708002962.234375
37.27,1708002962.25
37.08,1708002962.265625
36.3,1708002962.28125
35.11,1708002962.296875
33.75,1708002962.3125
32.52,1708002962.328125
31.75,1708002962.34375
31.7,1708002962.359375
32.54,1708002962.375
34.24,1708002962.390625
36.65,1708002962.40625
39.49,1708002962.421875
42.44,1708002962.4375
45.19,1708002962.453125
47.5,1708002962.46875
49.13,1708002962.484375
49.91,1708002962.5
49.71,1708002962.515625
48.48,1708002962.53125
46.32,1708002962.546875
43.49,1708002962.5625
40.35,1708002962.578125
37.25,1708002962.59375
34.39,1708002962.609375
31.72,1708002962.625
29.08,1708002962.640625
26.26,1708002962.65625
23.22,1708002962.671875
20.11,1708002962.6875
17.22,1708002962.703125
14.82,1708002962.71875
13.02,1708002962.734375
11.71,1708002962.75
10.66,1708002962.765625
9.62,1708002962.78125
8.5,1708002962.796875
7.36,1708002962.8125
6.3,1708002962.828125
5.38,1708002962.84375
4.56,1708002962.859375
3.64,1708002962.875
2.41,1708002962.890625
0.72,1708002962.90625
-1.46,1708002962.921875
-4.0,1708002962.9375
-6.75,1708002962.953125
-9.54,1708002962.96875
-12.34,1708002962.984375
-15.19,1708002963.0
-18.21,1708002963.015625
-21.52,1708002963.03125
-25.11,1708002963.046875
-28.86,1708002963.0625
-32.57,1708002963.078125
-36.08,1708002963.09375
-39.31,1708002963.109375
-42.34,1708002963.125
-45.35,1708002963.140625
-48.57,1708002963.15625
-52.18,1708002963.171875
-56.32,1708002963.1875
-61.02,1708002963.203125
-66.18,1708002963.21875
-71.45,1708002963.234375
-76.22,1708002963.25
-79.56,1708002963.265625
-80.43,1708002963.28125
-77.92,1708002963.296875
-71.52,1708002963.3125
-61.35,1708002963.328125
-48.15,1708002963.34375
-33.12,1708002963.359375
-17.67,1708002963.375
-3.11,1708002963.390625
9.57,1708002963.40625
19.82,1708002963.421875
27.47,1708002963.4375
32.71,1708002963.453125
35.88,1708002963.46875
37.38,1708002963.484375
37.59,1708002963.5
36.84,1708002963.515625
35.44,1708002963.53125
33.68,1708002963.546875
31.87,1708002963.5625
30.32,1708002963.578125
29.33,1708002963.59375
29.12,1708002963.609375
29.81,1708002963.625
31.38,1708002963.640625
33.68,1708002963.65625
36.46,1708002963.671875
39.41,1708002963.6875
42.19,1708002963.703125
44.48,1708002963.71875
46.05,1708002963.734375
46.75,1708002963.75
46.53,1708002963.765625
45.42,1708002963.78125
43.53,1708002963.796875
41.05,1708002963.8125
38.18,1708002963.828125
35.1,1708002963.84375
31.96,1708002963.859375
28.83,1708002963.875
25.75,1708002963.890625
22.73,1708002963.90625
19.82,1708002963.921875
17.11,1708002963.9375
14.74,1708002963.953125
12.8,1708002963.96875
11.29,1708002963.984375
10.13,1708002964.0
9.1,1708002964.015625
8.02,1708002964.03125
6.75,1708002964.046875
5.27,1708002964.0625
3.59,1708002964.078125
1.78,1708002964.09375
-0.13,1708002964.109375
-2.11,1708002964.125
-4.16,1708002964.140625
-6.24,1708002964.15625
-8.36,1708002964.171875
-10.52,1708002964.1875
-12.79,1708002964.203125
-15.25,1708002964.21875
-17.98,1708002964.234375
-21.05,1708002964.25
-24.43,1708002964.265625
-28.01,1708002964.28125
-31.63,1708002964.296875
-35.12,1708002964.3125
-38.34,1708002964.328125
-41.24,1708002964.34375
-43.91,1708002964.359375
-46.59,1708002964.375
-49.63,1708002964.390625
-53.33,1708002964.40625
-57.85,1708002964.421875
-62.91,1708002964.4375
-67.8,1708002964.453125
-71.42,1708002964.46875
-72.57,1708002964.484375
-70.24,1708002964.5
-63.95,1708002964.515625
-53.89,1708002964.53125
-40.94,1708002964.546875
-26.43,1708002964.5625
-11.82,1708002964.578125
1.62,1708002964.59375
13.06,1708002964.609375
22.11,1708002964.625
28.76,1708002964.640625
33.2,1708002964.65625
35.68,1708002964.671875
36.43,1708002964.6875
35.74,1708002964.703125
33.95,1708002964.71875
31.49,1708002964.734375
28.86,1708002964.75
26.48,1708002964.765625
24.66,1708002964.78125
23.57,1708002964.796875
23.23,1708002964.8125
23.65,1708002964.828125
24.81,1708002964.84375
26.73,1708002964.859375
29.33,1708002964.875
32.37,1708002964.890625
35.49,1708002964.90625
38.17,1708002964.921875
39.96,1708002964.9375
40.54,1708002964.953125
39.92,1708002964.96875
38.32,1708002964.984375
36.13,1708002965.0
33.74,1708002965.015625
31.33,1708002965.03125
28.96,1708002965.046875
26.49,1708002965.0625
23.83,1708002965.078125
20.94,1708002965.09375
17.88,1708002965.109375
14.83,1708002965.125
11.93,1708002965.140625
9.34,1708002965.15625
7.11,1708002965.171875
5.25,1708002965.1875
3.72,1708002965.203125
2.41,1708002965.21875
1.2,1708002965.234375
-0.08,1708002965.25
-1.53,1708002965.265625
-3.2,1708002965.28125
-5.08,1708002965.296875
-7.09,1708002965.3125
-9.12,1708002965.328125
-11.14,1708002965.34375
-13.19,1708002965.359375
-15.34,1708002965.375
-17.71,1708002965.390625
-20.36,1708002965.40625
-23.24,1708002965.421875
-26.21,1708002965.4375
-29.11,1708002965.453125
-31.84,1708002965.46875
-34.41,1708002965.484375
-36.99,1708002965.5
-39.85,1708002965.515625
-43.27,1708002965.53125
-47.43,1708002965.546875
-52.25,1708002965.5625
-57.36,1708002965.578125
-62.05,1708002965.59375
-65.38,1708002965.609375
-66.38,1708002965.625
-64.27,1708002965.640625
-58.68,1708002965.65625
-49.79,1708002965.671875
-38.33,1708002965.6875
-25.38,1708002965.703125
-12.23,1708002965.71875
-0.0,1708002965.734375
10.42,1708002965.75
18.56,1708002965.765625
24.35,1708002965.78125
27.98,1708002965.796875
29.83,1708002965.8125
30.31,1708002965.828125
29.77,1708002965.84375
28.49,1708002965.859375
26.73,1708002965.875
24.74,1708002965.890625
22.82,1708002965.90625
21.26,1708002965.921875
20.31,1708002965.9375
20.12,1708002965.953125
20.72,1708002965.96875
22.06,1708002965.984375
23.98,1708002966.0
26.3,1708002966.015625
28.76,1708002966.03125
31.07,1708002966.046875
32.92,1708002966.0625
34.06,1708002966.078125
34.35,1708002966.09375
33.75,1708002966.109375
32.33,1708002966.125
30.27,1708002966.140625
27.77,1708002966.15625
25.05,1708002966.171875
22.28,1708002966.1875
19.6,1708002966.203125
17.08,1708002966.21875
14.75,1708002966.234375
12.57,1708002966.25
10.53,1708002966.265625
8.59,1708002966.28125
6.75,1708002966.296875
5.04,1708002966.3125
3.47,1708002966.328125
2.06,1708002966.34375
0.78,1708002966.359375
-0.4,1708002966.375
-1.56,1708002966.390625
-2.79,1708002966.40625
-4.14,1708002966.421875
-5.66,1708002966.4375
-7.32,1708002966.453125
-9.08,1708002966.46875
-10.92,1708002966.484375
-12.91,1708002966.5
-15.15,1708002966.515625
-17.73,1708002966.53125
-20.68,1708002966.546875
-23.87,1708002966.5625
-27.1,1708002966.578125
-30.12,1708002966.59375
-32.78,1708002966.609375
-35.17,1708002966.625
-37.52,1708002966.640625
-40.19,1708002966.65625
-43.47,1708002966.671875
-47.39,1708002966.6875
-51.58,1708002966.703125
-55.28,1708002966.71875
-57.47,1708002966.734375
-57.2,1708002966.75
-53.84,1708002966.765625
-47.37,1708002966.78125
-38.34,1708002966.796875
-27.74,1708002966.8125
-16.69,1708002966.828125
-6.17,1708002966.84375
3.15,1708002966.859375
10.89,1708002966.875
16.87,1708002966.890625
21.03,1708002966.90625
23.41,1708002966.921875
24.16,1708002966.9375
23.59,1708002966.953125
22.13,1708002966.96875
20.25,1708002966.984375
18.35,1708002967.0
16.69,1708002967.015625
15.41,1708002967.03125
14.58,1708002967.046875
14.31,1708002967.0625
14.69,1708002967.078125
15.82,1708002967.09375
17.68,1708002967.109375
20.15,1708002967.125
22.94,1708002967.140625
25.66,1708002967.15625
27.91,1708002967.171875
29.4,1708002967.1875
30.01,1708002967.203125
29.77,1708002967.21875
28.87,1708002967.234375
27.51,1708002967.25
25.86,1708002967.265625
23.97,1708002967.28125
21.87,1708002967.296875
19.53,1708002967.3125
17.01,1708002967.328125
14.43,1708002967.34375
11.92,1708002967.359375
9.59,1708002967.375
7.48,1708002967.390625
5.58,1708002967.40625
3.84,1708002967.421875
2.24,1708002967.4375
0.76,1708002967.453125
-0.62,1708002967.46875
-1.91,1708002967.484375
-3.22,1708002967.5
-4.64,1708002967.515625
-6.27,1708002967.53125
-8.12,1708002967.546875
-10.14,1708002967.5625
-12.2,1708002967.578125
-14.18,1708002967.59375
-16.01,1708002967.609375
-17.69,1708002967.625
-19.32,1708002967.640625
-21.04,1708002967.65625
-22.99,1708002967.671875
-25.31,1708002967.6875
-28.09,1708002967.703125
-31.38,1708002967.71875
-35.13,1708002967.734375
-39.12,1708002967.75
-42.91,1708002967.765625
-45.89,1708002967.78125
-47.37,1708002967.796875
-46.76,1708002967.8125
-43.75,1708002967.828125
-38.35,1708002967.84375
-30.94,1708002967.859375
-22.14,1708002967.875
-12.71,1708002967.890625
-3.42,1708002967.90625
5.0,1708002967.921875
11.96,1708002967.9375
17.07,1708002967.953125
20.19,1708002967.96875
21.4,1708002967.984375
20.96,1708002968.0
19.32,1708002968.015625
16.92,1708002968.03125
14.21,1708002968.046875
11.59,1708002968.0625
9.37,1708002968.078125
7.8,1708002968.09375
7.02,1708002968.109375
7.09,1708002968.125
8.02,1708002968.140625
9.73,1708002968.15625
12.09,1708002968.171875
14.94,1708002968.1875
18.05,1708002968.203125
21.17,1708002968.21875
23.98,1708002968.234375
26.11,1708002968.25
27.24,1708002968.265625
27.18,1708002968.28125
25.91,1708002968.296875
23.67,1708002968.3125
20.86,1708002968.328125
17.95,1708002968.34375
15.28,1708002968.359375
13.01,1708002968.375
11.06,1708002968.390625
9.22,1708002968.40625
7.29,1708002968.421875
5.18,1708002968.4375
2.96,1708002968.453125
0.79,1708002968.46875
-1.17,1708002968.484375
-2.9,1708002968.5
-4.48,1708002968.515625
-6.05,1708002968.53125
-7.73,1708002968.546875
-9.57,1708002968.5625
-11.58,1708002968.578125
-13.7,1708002968.59375
-15.89,1708002968.609375
-18.1,1708002968.625
-20.31,1708002968.640625
-22.48,1708002968.65625
-24.63,1708002968.671875
-26.8,1708002968.6875
-29.13,1708002968.703125
-31.82,1708002968.71875
-35.06,1708002968.734375
-38.99,1708002968.75
-43.48,1708002968.765625
-48.12,1708002968.78125
-52.17,1708002968.796875
-54.71,1708002968.8125
-54.88,1708002968.828125
-52.06,1708002968.84375
-46.14,1708002968.859375
-37.56,1708002968.875
-27.2,1708002968.890625
-16.18,1708002968.90625
-5.56,1708002968.921875
3.84,1708002968.9375
11.56,1708002968.953125
17.42,1708002968.96875
21.49,1708002968.984375
23.92,1708002969.0
24.94,1708002969.015625
24.79,1708002969.03125
23.77,1708002969.046875
22.15,1708002969.0625
20.2,1708002969.078125
18.21,1708002969.09375
16.49,1708002969.109375
15.36,1708002969.125
15.08,1708002969.140625
15.78,1708002969.15625
17.45,1708002969.171875
19.85,1708002969.1875
22.65,1708002969.203125
25.45,1708002969.21875
27.96,1708002969.234375
29.95,1708002969.25
31.28,1708002969.265625
31.85,1708002969.28125
31.52,1708002969.296875
30.26,1708002969.3125
28.12,1708002969.328125
25.33,1708002969.34375
22.26,1708002969.359375
19.29,1708002969.375
16.66,1708002969.390625
14.39,1708002969.40625
12.33,1708002969.421875
10.22,1708002969.4375
7.87,1708002969.453125
5.27,1708002969.46875
2.62,1708002969.484375
0.18,1708002969.5
-1.86,1708002969.515625
-3.53,1708002969.53125
-5.07,1708002969.546875
-6.79,1708002969.5625
-8.98,1708002969.578125
-11.7,1708002969.59375
-14.83,1708002969.609375
-18.08,1708002969.625
-21.17,1708002969.640625
-23.97,1708002969.65625
-26.49,1708002969.671875
-28.96,1708002969.6875
-31.68,1708002969.703125
-34.96,1708002969.71875
-38.99,1708002969.734375
-43.73,1708002969.75
-48.88,1708002969.765625
-53.82,1708002969.78125
-57.76,1708002969.796875
-59.81,1708002969.8125
-59.2,1708002969.828125
-55.46,1708002969.84375
-48.59,1708002969.859375
-39.05,1708002969.875
-27.79,1708002969.890625
-15.99,1708002969.90625
-4.85,1708002969.921875
4.74,1708002969.9375
12.33,1708002969.953125
17.96,1708002969.96875
21.97,1708002969.984375
24.74,1708002970.0
26.54,1708002970.015625
27.44,1708002970.03125
27.41,1708002970.046875
26.51,1708002970.0625
25.01,1708002970.078125
23.36,1708002970.09375
22.1,1708002970.109375
21.64,1708002970.125
22.16,1708002970.140625
23.6,1708002970.15625
25.73,1708002970.171875
28.26,1708002970.1875
30.97,1708002970.203125
33.62,1708002970.21875
36.03,1708002970.234375
37.95,1708002970.25
39.15,1708002970.265625
39.44,1708002970.28125
38.74,1708002970.296875
37.15,1708002970.3125
34.9,1708002970.328125
32.31,1708002970.34375
29.62,1708002970.359375
26.97,1708002970.375
24.37,1708002970.390625
21.78,1708002970.40625
19.13,1708002970.421875
16.43,1708002970.4375
13.71,1708002970.453125
11.03,1708002970.46875
8.4,1708002970.484375
5.83,1708002970.5
3.3,1708002970.515625
0.82,1708002970.53125
-1.58,1708002970.546875
-3.88,1708002970.5625
-6.1,1708002970.578125
-8.34,1708002970.59375
-10.68,1708002970.609375
-13.25,1708002970.625
-16.05,1708002970.640625
-19.06,1708002970.65625
-22.18,1708002970.671875
-25.27,1708002970.6875
-28.24,1708002970.703125
-31.01,1708002970.71875
-33.68,1708002970.734375
-36.49,1708002970.75
-39.78,1708002970.765625
-43.85,1708002970.78125
-48.76,1708002970.796875
-54.16,1708002970.8125
-59.23,1708002970.828125
-62.86,1708002970.84375
-63.95,1708002970.859375
-61.7,1708002970.875
-55.9,1708002970.890625
-46.96,1708002970.90625
-35.8,1708002970.921875
-23.59,1708002970.9375
-11.51,1708002970.953125
-0.52,1708002970.96875
8.74,1708002970.984375
15.96,1708002971.0
21.16,1708002971.015625
24.56,1708002971.03125
26.49,1708002971.046875
27.28,1708002971.0625
27.22,1708002971.078125
26.56,1708002971.09375
25.52,1708002971.109375
24.33,1708002971.125
23.25,1708002971.140625
22.54,1708002971.15625
22.37,1708002971.171875
22.87,1708002971.1875
24.06,1708002971.203125
25.85,1708002971.21875
28.1,1708002971.234375
30.63,1708002971.25
33.18,1708002971.265625
35.49,1708002971.28125
37.28,1708002971.296875
38.36,1708002971.3125
38.58,1708002971.328125
37.95,1708002971.34375
36.54,1708002971.359375
34.49,1708002971.375
31.96,1708002971.390625
29.08,1708002971.40625
26.02,1708002971.421875
22.94,1708002971.4375
19.98,1708002971.453125
17.28,1708002971.46875
14.88,1708002971.484375
12.74,1708002971.5
10.74,1708002971.515625
8.74,1708002971.53125
6.69,1708002971.546875
4.59,1708002971.5625
2.54,1708002971.578125
0.66,1708002971.59375
-1.01,1708002971.609375
-2.53,1708002971.625
-4.07,1708002971.640625
-5.83,1708002971.65625
-7.97,1708002971.671875
-10.51,1708002971.6875
-13.33,1708002971.703125
-16.24,1708002971.71875
-19.05,1708002971.734375
-21.66,1708002971.75
-24.08,1708002971.765625
-26.44,1708002971.78125
-28.98,1708002971.796875
-31.95,1708002971.8125
-35.56,1708002971.828125
-39.87,1708002971.84375
-44.69,1708002971.859375
-49.49,1708002971.875
-53.44,1708002971.890625
-55.57,1708002971.90625
-55.0,1708002971.921875
-51.25,1708002971.9375
-44.36,1708002971.953125
-34.93,1708002971.96875
-23.93,1708002971.984375
-12.49,1708002972.0
-1.62,1708002972.015625
7.92,1708002972.03125
15.68,1708002972.046875
21.51,1708002972.0625
25.44,1708002972.078125
27.63,1708002972.09375
28.31,1708002972.109375
27.74,1708002972.125
26.24,1708002972.140625
24.18,1708002972.15625
21.96,1708002972.171875
19.98,1708002972.1875
18.59,1708002972.203125
18.06,1708002972.21875
18.53,1708002972.234375
20.0,1708002972.25
22.3,1708002972.265625
25.16,1708002972.28125
28.22,1708002972.296875
31.07,1708002972.3125
33.37,1708002972.328125
34.84,1708002972.34375
35.34,1708002972.359375
34.87,1708002972.375
33.57,1708002972.390625
31.65,1708002972.40625
29.31,1708002972.421875
26.74,1708002972.4375
24.07,1708002972.453125
21.4,1708002972.46875
18.78,1708002972.484375
16.27,1708002972.5
13.87,1708002972.515625
11.53,1708002972.53125
9.19,1708002972.546875
6.78,1708002972.5625
4.34,1708002972.578125
1.96,1708002972.59375
-0.19,1708002972.609375
-2.02,1708002972.625
-3.55,1708002972.640625
-4.9,1708002972.65625
-6.24,1708002972.671875
-7.73,1708002972.6875
-9.46,1708002972.703125
-11.42,1708002972.71875
-13.65,1708002972.734375
-16.11,1708002972.75
-18.79,1708002972.765625
-21.6,1708002972.78125
-24.4,1708002972.796875
-27.09,1708002972.8125
-29.65,1708002972.828125
-32.21,1708002972.84375
-35.05,1708002972.859375
-38.5,1708002972.875
-42.79,1708002972.890625
-47.91,1708002972.90625
-53.43,1708002972.921875
-58.53,1708002972.9375
-62.09,1708002972.953125
-63.01,1708002972.96875
-60.52,1708002972.984375
-54.4,1708002973.0
-45.14,1708002973.015625
-33.72,1708002973.03125
-21.38,1708002973.046875
-9.35,1708002973.0625
1.44,1708002973.078125
10.38,1708002973.09375
17.2,1708002973.109375
21.94,1708002973.125
24.82,1708002973.140625
26.23,1708002973.15625
26.57,1708002973.171875
26.2,1708002973.1875
25.41,1708002973.203125
24.38,1708002973.21875
23.29,1708002973.234375
22.33,1708002973.25
21.73,1708002973.265625
21.71,1708002973.28125
22.39,1708002973.296875
23.76,1708002973.3125
25.67,1708002973.328125
27.89,1708002973.34375
30.17,1708002973.359375
32.27,1708002973.375
34.02,1708002973.390625
35.26,1708002973.40625
35.88,1708002973.421875
35.81,1708002973.4375
35.01,1708002973.453125
33.5,1708002973.46875
31.37,1708002973.484375
28.77,1708002973.5
25.93,1708002973.515625
23.08,1708002973.53125
20.37,1708002973.546875
17.91,1708002973.5625
15.68,1708002973.578125
13.55,1708002973.59375
11.42,1708002973.609375
9.19,1708002973.625
6.85,1708002973.640625
4.53,1708002973.65625
2.34,1708002973.671875
0.4,1708002973.6875
-1.27,1708002973.703125
-2.72,1708002973.71875
-4.09,1708002973.734375
-5.51,1708002973.75
-7.08,1708002973.765625
-8.85,1708002973.78125
-10.85,1708002973.796875
-13.13,1708002973.8125
-15.75,1708002973.828125
-18.71,1708002973.84375
-21.96,1708002973.859375
-25.31,1708002973.875
-28.57,1708002973.890625
-31.56,1708002973.90625
-34.36,1708002973.921875
-37.18,1708002973.9375
-40.41,1708002973.953125
-44.34,1708002973.96875
-48.97,1708002973.984375
-53.87,1708002974.0
-58.23,1708002974.015625
-61.05,1708002974.03125
-61.4,1708002974.046875
-58.65,1708002974.0625
-52.71,1708002974.078125
-43.97,1708002974.09375
-33.26,1708002974.109375
-21.62,1708002974.125
-10.14,1708002974.140625
0.24,1708002974.15625
8.88,1708002974.171875
15.45,1708002974.1875
19.97,1708002974.203125
22.74,1708002974.21875
24.17,1708002974.234375
24.71,1708002974.25
24.68,1708002974.265625
24.27,1708002974.28125
23.56,1708002974.296875
22.61,1708002974.3125
21.57,1708002974.328125
20.7,1708002974.34375
20.28,1708002974.359375
20.56,1708002974.375
21.61,1708002974.390625
23.34,1708002974.40625
25.49,1708002974.421875
27.73,1708002974.4375
29.78,1708002974.453125
31.39,1708002974.46875
32.48,1708002974.484375
33.02,1708002974.5
32.99,1708002974.515625
32.42,1708002974.53125
31.33,1708002974.546875
29.79,1708002974.5625
27.9,1708002974.578125
25.78,1708002974.59375
23.5,1708002974.609375
21.09,1708002974.625
18.58,1708002974.640625
15.96,1708002974.65625
13.32,1708002974.671875
10.78,1708002974.6875
8.49,1708002974.703125
6.5,1708002974.71875
4.8,1708002974.734375
3.25,1708002974.75
1.72,1708002974.765625
0.1,1708002974.78125
-1.63,1708002974.796875
-3.46,1708002974.8125
-5.34,1708002974.828125
-7.27,1708002974.84375
-9.29,1708002974.859375
-11.46,1708002974.875
-13.78,1708002974.890625
-16.25,1708002974.90625
-18.81,1708002974.921875
-21.39,1708002974.9375
-23.94,1708002974.953125
-26.47,1708002974.96875
-29.02,1708002974.984375
-31.69,1708002975.0
-34.59,1708002975.015625
-37.82,1708002975.03125
-41.38,1708002975.046875
-45.15,1708002975.0625
-48.81,1708002975.078125
-51.81,1708002975.09375
-53.48,1708002975.109375
-53.06,1708002975.125
-50.05,1708002975.140625
-44.29,1708002975.15625
-36.15,1708002975.171875
-26.4,1708002975.1875
-16.04,1708002975.203125
-6.05,1708002975.21875
2.81,1708002975.234375
10.09,1708002975.25
15.66,1708002975.265625
19.51,1708002975.28125
21.72,1708002975.296875
22.37,1708002975.3125
21.65,1708002975.328125
19.86,1708002975.34375
17.48,1708002975.359375
15.07,1708002975.375
13.18,1708002975.390625
12.16,1708002975.40625
12.14,1708002975.421875
12.98,1708002975.4375
14.45,1708002975.453125
16.31,1708002975.46875
18.43,1708002975.484375
20.76,1708002975.5
23.23,1708002975.515625
25.62,1708002975.53125
27.62,1708002975.546875
28.85,1708002975.5625
29.08,1708002975.578125
28.35,1708002975.59375
26.88,1708002975.609375
25.06,1708002975.625
23.19,1708002975.640625
21.43,1708002975.65625
19.71,1708002975.671875
17.87,1708002975.6875
15.78,1708002975.703125
13.39,1708002975.71875
10.82,1708002975.734375
8.24,1708002975.75
5.86,1708002975.765625
3.79,1708002975.78125
2.02,1708002975.796875
0.47,1708002975.8125
-1.0,1708002975.828125
-2.51,1708002975.84375
-4.15,1708002975.859375
-6.0,1708002975.875
-8.08,1708002975.890625
-10.4,1708002975.90625
-12.93,1708002975.921875
-15.6,1708002975.9375
-18.31,1708002975.953125
-20.91,1708002975.96875
-23.29,1708002975.984375
-25.41,1708002976.0
-27.32,1708002976.015625
-29.24,1708002976.03125
-31.47,1708002976.046875
-34.31,1708002976.0625
-37.94,1708002976.078125
-42.23,1708002976.09375
-46.68,1708002976.109375
-50.42,1708002976.125
-52.43,1708002976.140625
-51.82,1708002976.15625
-48.14,1708002976.171875
-41.5,1708002976.1875
-32.6,1708002976.203125
-22.5,1708002976.21875
-12.3,1708002976.234375
-2.93,1708002976.25
5.06,1708002976.265625
11.43,1708002976.28125
16.23,1708002976.296875
19.57,1708002976.3125
21.61,1708002976.328125
22.51,1708002976.34375
22.48,1708002976.359375
21.79,1708002976.375
20.77,1708002976.390625
19.7,1708002976.40625
18.81,1708002976.421875
18.26,1708002976.4375
18.12,1708002976.453125
18.47,1708002976.46875
19.34,1708002976.484375
20.74,1708002976.5
22.6,1708002976.515625
24.75,1708002976.53125
26.98,1708002976.546875
29.0,1708002976.5625
30.62,1708002976.578125
31.67,1708002976.59375
32.02,1708002976.609375
31.63,1708002976.625
30.51,1708002976.640625
28.77,1708002976.65625
26.54,1708002976.671875
23.99,1708002976.6875
21.26,1708002976.703125
18.47,1708002976.71875
15.69,1708002976.734375
13.04,1708002976.75
10.61,1708002976.765625
8.46,1708002976.78125
6.54,1708002976.796875
4.73,1708002976.8125
2.89,1708002976.828125
0.93,1708002976.84375
-1.1,1708002976.859375
-3.11,1708002976.875
-4.99,1708002976.890625
-6.76,1708002976.90625
-8.52,1708002976.921875
-10.45,1708002976.9375
-12.74,1708002976.953125
-15.45,1708002976.96875
-18.45,1708002976.984375
-21.52,1708002977.0
-24.4,1708002977.015625
-26.95,1708002977.03125
-29.2,1708002977.046875
-31.43,1708002977.0625
-34.05,1708002977.078125
-37.4,1708002977.09375
-41.6,1708002977.109375
-46.38,1708002977.125
-51.09,1708002977.140625
-54.88,1708002977.15625
-56.87,1708002977.171875
-56.41,1708002977.1875
-53.18,1708002977.203125
-47.22,1708002977.21875
-38.95,1708002977.234375
-29.06,1708002977.25
-18.46,1708002977.265625
-8.12,1708002977.28125
1.16,1708002977.296875
8.8,1708002977.3125
14.58,1708002977.328125
18.61,1708002977.34375
21.14,1708002977.359375
22.48,1708002977.375
22.92,1708002977.390625
22.63,1708002977.40625
21.82,1708002977.421875
20.71,1708002977.4375
19.61,1708002977.453125
18.83,1708002977.46875
18.58,1708002977.484375
18.97,1708002977.5
19.96,1708002977.515625
21.39,1708002977.53125
23.1,1708002977.546875
24.93,1708002977.5625
26.82,1708002977.578125
28.72,1708002977.59375
30.52,1708002977.609375
32.05,1708002977.625
33.07,1708002977.640625
33.33,1708002977.65625
32.71,1708002977.671875
31.23,1708002977.6875
29.09,1708002977.703125
26.54,1708002977.71875
23.86,1708002977.734375
21.25,1708002977.75
18.83,1708002977.765625
16.6,1708002977.78125
14.52,1708002977.796875
12.54,1708002977.8125
10.58,1708002977.828125
8.6,1708002977.84375
6.59,1708002977.859375
4.56,1708002977.875
2.58,1708002977.890625
0.72,1708002977.90625
-1.0,1708002977.921875
-2.59,1708002977.9375
-4.14,1708002977.953125
-5.79,1708002977.96875
-7.68,1708002977.984375
-9.89,1708002978.0
-12.41,1708002978.015625
-15.1,1708002978.03125
-17.81,1708002978.046875
-20.37,1708002978.0625
-22.71,1708002978.078125
-24.92,1708002978.09375
-27.19,1708002978.109375
-29.73,1708002978.125
-32.74,1708002978.140625
-36.32,1708002978.15625
-40.39,1708002978.171875
-44.64,1708002978.1875
-48.54,1708002978.203125
-51.38,1708002978.21875
-52.37,1708002978.234375
-50.87,1708002978.25
-46.57,1708002978.265625
-39.66,1708002978.28125
-30.78,1708002978.296875
-20.87,1708002978.3125
-10.98,1708002978.328125
-1.96,1708002978.34375
5.65,1708002978.359375
11.61,1708002978.375
15.91,1708002978.390625
18.61,1708002978.40625
19.83,1708002978.421875
19.73,1708002978.4375
18.57,1708002978.453125
16.71,1708002978.46875
14.62,1708002978.484375
12.79,1708002978.5
11.64,1708002978.515625
11.42,1708002978.53125
12.16,1708002978.546875
13.66,1708002978.5625
15.61,1708002978.578125
17.69,1708002978.59375
19.7,1708002978.609375
21.59,1708002978.625
23.38,1708002978.640625
25.12,1708002978.65625
26.69,1708002978.671875
27.89,1708002978.6875
28.43,1708002978.703125
28.11,1708002978.71875
26.91,1708002978.734375
25.02,1708002978.75
22.72,1708002978.765625
20.32,1708002978.78125
17.96,1708002978.796875
15.68,1708002978.8125
13.39,1708002978.828125
11.01,1708002978.84375
8.48,1708002978.859375
5.88,1708002978.875
3.29,1708002978.890625
0.86,1708002978.90625
-1.31,1708002978.921875
-3.17,1708002978.9375
-4.78,1708002978.953125
-6.26,1708002978.96875
-7.79,1708002978.984375
-9.53,1708002979.0
-11.52,1708002979.015625
-13.72,1708002979.03125
-16.01,1708002979.046875
-18.23,1708002979.0625
-20.32,1708002979.078125
-22.35,1708002979.09375
-24.52,1708002979.109375
-27.13,1708002979.125
-30.4,1708002979.140625
-34.37,1708002979.15625
-38.76,1708002979.171875
-42.94,1708002979.1875
-46.08,1708002979.203125
-47.3,1708002979.21875
-45.97,1708002979.234375
-41.83,1708002979.25
-35.12,1708002979.265625
-26.47,1708002979.28125
-16.79,1708002979.296875
-7.02,1708002979.3125
1.94,1708002979.328125
9.49,1708002979.34375
15.28,1708002979.359375
19.27,1708002979.375
21.66,1708002979.390625
22.78,1708002979.40625
23.02,1708002979.421875
22.66,1708002979.4375
21.92,1708002979.453125
20.92,1708002979.46875
19.78,1708002979.484375
18.65,1708002979.5
17.77,1708002979.515625
17.37,1708002979.53125
17.65,1708002979.546875
18.66,1708002979.5625
20.3,1708002979.578125
22.33,1708002979.59375
24.47,1708002979.609375
26.45,1708002979.625
28.08,1708002979.640625
29.23,1708002979.65625
29.78,1708002979.671875
29.63,1708002979.6875
28.71,1708002979.703125
27.02,1708002979.71875
24.71,1708002979.734375
22.04,1708002979.75
19.33,1708002979.765625
16.89,1708002979.78125
14.87,1708002979.796875
13.19,1708002979.8125
11.6,1708002979.828125
9.77,1708002979.84375
7.5,1708002979.859375
4.8,1708002979.875
1.91,1708002979.890625
-0.8,1708002979.90625
-3.02,1708002979.921875
-4.68,1708002979.9375
-5.91,1708002979.953125
-7.01,1708002979.96875
-8.33,1708002979.984375
-10.07,1708002980.0
-12.29,1708002980.015625
-14.89,1708002980.03125
-17.71,1708002980.046875
-20.59,1708002980.0625
-23.42,1708002980.078125
-26.09,1708002980.09375
-28.59,1708002980.109375
-30.96,1708002980.125
-33.34,1708002980.140625
-36.0,1708002980.15625
-39.15,1708002980.171875
-42.89,1708002980.1875
-46.99,1708002980.203125
-50.92,1708002980.21875
-53.84,1708002980.234375
-54.89,1708002980.25
-53.42,1708002980.265625
-49.18,1708002980.28125
-42.39,1708002980.296875
-33.66,1708002980.3125
-23.82,1708002980.328125
-13.76,1708002980.34375
-4.29,1708002980.359375
3.96,1708002980.375
10.58,1708002980.390625
15.44,1708002980.40625
18.64,1708002980.421875
20.46,1708002980.4375
21.26,1708002980.453125
21.36,1708002980.46875
20.98,1708002980.484375
20.26,1708002980.5
19.33,1708002980.515625
18.36,1708002980.53125
17.59,1708002980.546875
17.26,1708002980.5625
17.55,1708002980.578125
18.53,1708002980.59375
20.11,1708002980.609375
22.11,1708002980.625
24.32,1708002980.640625
26.53,1708002980.65625
28.54,1708002980.671875
30.18,1708002980.6875
31.27,1708002980.703125
31.64,1708002980.71875
31.17,1708002980.734375
29.88,1708002980.75
27.92,1708002980.765625
25.57,1708002980.78125
23.14,1708002980.796875
20.87,1708002980.8125
18.83,1708002980.828125
16.97,1708002980.84375
15.15,1708002980.859375
13.3,1708002980.875
11.41,1708002980.890625
9.58,1708002980.90625
7.86,1708002980.921875
6.2,1708002980.9375
4.49,1708002980.953125
2.58,1708002980.96875
0.46,1708002980.984375
-1.76,1708002981.0
-3.87,1708002981.015625
-5.71,1708002981.03125
-7.3,1708002981.046875
-8.83,1708002981.0625
-10.58,1708002981.078125
-12.74,1708002981.09375
-15.33,1708002981.109375
-18.17,1708002981.125
-21.0,1708002981.140625
-23.63,1708002981.15625
-26.01,1708002981.171875
-28.27,1708002981.1875
-30.68,1708002981.203125
-33.57,1708002981.21875
-37.16,1708002981.234375
-41.5,1708002981.25
-46.28,1708002981.265625
-50.87,1708002981.28125
-54.41,1708002981.296875
-56.02,1708002981.3125
-55.03,1708002981.328125
-51.19,1708002981.34375
-44.7,1708002981.359375
-36.2,1708002981.375
-26.52,1708002981.390625
-16.56,1708002981.40625
-7.09,1708002981.421875
1.28,1708002981.4375
8.15,1708002981.453125
13.35,1708002981.46875
16.88,1708002981.484375
18.94,1708002981.5
19.85,1708002981.515625
19.95,1708002981.53125
19.57,1708002981.546875
19.0,1708002981.5625
18.43,1708002981.578125
17.98,1708002981.59375
17.76,1708002981.609375
17.86,1708002981.625
18.34,1708002981.640625
19.24,1708002981.65625
20.57,1708002981.671875
22.29,1708002981.6875
24.31,1708002981.703125
26.53,1708002981.71875
28.76,1708002981.734375
30.79,1708002981.75
32.33,1708002981.765625
33.1,1708002981.78125
32.95,1708002981.796875
31.84,1708002981.8125
29.95,1708002981.828125
27.58,1708002981.84375
25.02,1708002981.859375
22.47,1708002981.875
20.03,1708002981.890625
17.69,1708002981.90625
15.48,1708002981.921875
13.46,1708002981.9375
11.7,1708002981.953125
10.23,1708002981.96875
8.96,1708002981.984375
7.7,1708002982.0
6.31,1708002982.015625
4.7,1708002982.03125
2.94,1708002982.046875
1.2,1708002982.0625
-0.4,1708002982.078125
-1.87,1708002982.09375
-3.32,1708002982.109375
-4.94,1708002982.125
-6.85,1708002982.140625
-9.06,1708002982.15625
-11.46,1708002982.171875
-13.88,1708002982.1875
-16.14,1708002982.203125
-18.17,1708002982.21875
-19.98,1708002982.234375
-21.68,1708002982.25
-23.49,1708002982.265625
-25.65,1708002982.28125
-28.39,1708002982.296875
-31.81,1708002982.3125
-35.82,1708002982.328125
-40.05,1708002982.34375
-43.83,1708002982.359375
-46.33,1708002982.375
-46.71,1708002982.390625
-44.36,1708002982.40625
-39.14,1708002982.421875
-31.41,1708002982.4375
-22.01,1708002982.453125
-11.97,1708002982.46875
-2.32,1708002982.484375
6.18,1708002982.5
13.12,1708002982.515625
18.38,1708002982.53125
22.02,1708002982.546875
24.14,1708002982.5625
24.88,1708002982.578125
24.4,1708002982.59375
22.96,1708002982.609375
20.94,1708002982.625
18.8,1708002982.640625
17.01,1708002982.65625
15.94,1708002982.671875
15.74,1708002982.6875
16.35,1708002982.703125
17.58,1708002982.71875
19.17,1708002982.734375
20.94,1708002982.75
22.81,1708002982.765625
24.69,1708002982.78125
26.48,1708002982.796875
28.0,1708002982.8125
29.02,1708002982.828125
29.34,1708002982.84375
28.87,1708002982.859375
27.66,1708002982.875
25.9,1708002982.890625
23.82,1708002982.90625
21.62,1708002982.921875
19.41,1708002982.9375
17.23,1708002982.953125
15.05,1708002982.96875
12.88,1708002982.984375
10.77,1708002983.0
8.8,1708002983.015625
7.06,1708002983.03125
5.54,1708002983.046875
4.16,1708002983.0625
2.74,1708002983.078125
1.18,1708002983.09375
-0.57,1708002983.109375
-2.41,1708002983.125
-4.24,1708002983.140625
-5.96,1708002983.15625
-7.6,1708002983.171875
-9.3,1708002983.1875
-11.17,1708002983.203125
-13.28,1708002983.21875
-15.59,1708002983.234375
-17.96,1708002983.25
-20.28,1708002983.265625
-22.53,1708002983.28125
-24.79,1708002983.296875
-27.22,1708002983.3125
-30.02,1708002983.328125
-33.29,1708002983.34375
-37.04,1708002983.359375
-41.04,1708002983.375
-44.87,1708002983.390625
-47.93,1708002983.40625
-49.5,1708002983.421875
-48.97,1708002983.4375
-45.94,1708002983.453125
-40.43,1708002983.46875
-32.81,1708002983.484375
-23.84,1708002983.5
-14.41,1708002983.515625
-5.37,1708002983.53125
2.62,1708002983.546875
9.19,1708002983.5625
14.22,1708002983.578125
17.81,1708002983.59375
20.13,1708002983.609375
21.39,1708002983.625
21.78,1708002983.640625
21.5,1708002983.65625
20.78,1708002983.671875
19.87,1708002983.6875
19.01,1708002983.703125
18.44,1708002983.71875
18.28,1708002983.734375
18.58,1708002983.75
19.35,1708002983.765625
20.48,1708002983.78125
21.88,1708002983.796875
23.42,1708002983.8125
24.95,1708002983.828125
26.3,1708002983.84375
27.33,1708002983.859375
27.9,1708002983.875
27.96,1708002983.890625
27.52,1708002983.90625
26.62,1708002983.921875
25.31,1708002983.9375
23.63,1708002983.953125
21.58,1708002983.96875
19.17,1708002983.984375
16.47,1708002984.0
13.63,1708002984.015625
10.83,1708002984.03125
8.23,1708002984.046875
5.89,1708002984.0625
3.76,1708002984.078125
1.75,1708002984.09375
-0.18,1708002984.109375
-1.94,1708002984.125
-3.4,1708002984.140625
-4.47,1708002984.15625
-5.21,1708002984.171875
-5.85,1708002984.1875
-6.68,1708002984.203125
-7.93,1708002984.21875
-9.67,1708002984.234375
-11.75,1708002984.25
-13.97,1708002984.265625
-16.15,1708002984.28125
-18.22,1708002984.296875
-20.19,1708002984.3125
-22.12,1708002984.328125
-24.02,1708002984.34375
-25.93,1708002984.359375
-27.94,1708002984.375
-30.2,1708002984.390625
-32.94,1708002984.40625
-36.31,1708002984.421875
-40.21,1708002984.4375
-44.2,1708002984.453125
-47.5,1708002984.46875
-49.23,1708002984.484375
-48.66,1708002984.5
-45.51,1708002984.515625
-39.98,1708002984.53125
-32.68,1708002984.546875
-24.43,1708002984.5625
-16.0,1708002984.578125
-7.98,1708002984.59375
-0.77,1708002984.609375
5.37,1708002984.625
10.27,1708002984.640625
13.85,1708002984.65625
16.12,1708002984.671875
17.23,1708002984.6875
17.4,1708002984.703125
16.92,1708002984.71875
16.0,1708002984.734375
14.78,1708002984.75
13.41,1708002984.765625
12.04,1708002984.78125
10.88,1708002984.796875
10.22,1708002984.8125
10.28,1708002984.828125
11.18,1708002984.84375
12.88,1708002984.859375
15.17,1708002984.875
17.71,1708002984.890625
20.17,1708002984.90625
22.22,1708002984.921875
23.66,1708002984.9375
24.36,1708002984.953125
24.3,1708002984.96875
23.51,1708002984.984375
22.14,1708002985.0
20.37,1708002985.015625
18.46,1708002985.03125
16.61,1708002985.046875
14.95,1708002985.0625
13.44,1708002985.078125
11.94,1708002985.09375
10.26,1708002985.109375
8.3,1708002985.125
6.14,1708002985.140625
4.0,1708002985.15625
2.08,1708002985.171875
0.5,1708002985.1875
-0.77,1708002985.203125
-1.92,1708002985.21875
-3.12,1708002985.234375
-4.49,1708002985.25
-6.07,1708002985.265625
-7.87,1708002985.28125
-9.82,1708002985.296875
-11.9,1708002985.3125
-14.02,1708002985.328125
-16.08,1708002985.34375
-17.98,1708002985.359375
-19.67,1708002985.375
-21.22,1708002985.390625
-22.84,1708002985.40625
-24.78,1708002985.421875
-27.3,1708002985.4375
-30.52,1708002985.453125
-34.37,1708002985.46875
-38.47,1708002985.484375
-42.23,1708002985.5
-44.87,1708002985.515625
-45.62,1708002985.53125
-43.96,1708002985.546875
-39.74,1708002985.5625
-33.26,1708002985.578125
-25.17,1708002985.59375
-16.3,1708002985.609375
-7.45,1708002985.625
0.67,1708002985.640625
7.6,1708002985.65625
13.08,1708002985.671875
17.01,1708002985.6875
19.49,1708002985.703125
20.71,1708002985.71875
20.9,1708002985.734375
20.29,1708002985.75
19.08,1708002985.765625
17.48,1708002985.78125
15.79,1708002985.796875
14.34,1708002985.8125
13.47,1708002985.828125
13.36,1708002985.84375
14.04,1708002985.859375
15.37,1708002985.875
17.12,1708002985.890625
19.12,1708002985.90625
21.22,1708002985.921875
23.31,1708002985.9375
25.21,1708002985.953125
26.72,1708002985.96875
27.61,1708002985.984375
27.75,1708002986.0
27.14,1708002986.015625
25.92,1708002986.03125
24.25,1708002986.046875
22.31,1708002986.0625
20.16,1708002986.078125
17.85,1708002986.09375
15.39,1708002986.109375
12.88,1708002986.125
10.42,1708002986.140625
8.16,1708002986.15625
6.17,1708002986.171875
4.43,1708002986.1875
2.86,1708002986.203125
1.35,1708002986.21875
-0.18,1708002986.234375
-1.81,1708002986.25
-3.56,1708002986.265625
-5.46,1708002986.28125
-7.54,1708002986.296875
-9.85,1708002986.3125
-12.38,1708002986.328125
-15.06,1708002986.34375
-17.77,1708002986.359375
-20.35,1708002986.375
-22.68,1708002986.390625
-24.74,1708002986.40625
-26.64,1708002986.421875
-28.57,1708002986.4375
-30.8,1708002986.453125
-33.65,1708002986.46875
-37.34,1708002986.484375
-41.84,1708002986.5
-46.81,1708002986.515625
-51.53,1708002986.53125
-55.06,1708002986.546875
-56.49,1708002986.5625
-55.24,1708002986.578125
-51.13,1708002986.59375
-44.43,1708002986.609375
-35.76,1708002986.625
-25.94,1708002986.640625
-15.84,1708002986.65625
-6.32,1708002986.671875
1.98,1708002986.6875
8.69,1708002986.703125
13.77,1708002986.71875
17.43,1708002986.734375
19.98,1708002986.75
21.64,1708002986.765625
22.52,1708002986.78125
22.63,1708002986.796875
22.03,1708002986.8125
20.94,1708002986.828125
19.71,1708002986.84375
18.71,1708002986.859375
18.2,1708002986.875
18.34,1708002986.890625
19.13,1708002986.90625
20.53,1708002986.921875
22.4,1708002986.9375
24.6,1708002986.953125
26.91,1708002986.96875
29.04,1708002986.984375
30.74,1708002987.0
31.8,1708002987.015625
32.15,1708002987.03125
31.8,1708002987.046875
30.88,1708002987.0625
29.58,1708002987.078125
28.1,1708002987.09375
26.6,1708002987.109375
25.15,1708002987.125
23.72,1708002987.140625
22.18,1708002987.15625
20.37,1708002987.171875
18.17,1708002987.1875
15.55,1708002987.203125
12.56,1708002987.21875
9.37,1708002987.234375
6.19,1708002987.25
3.26,1708002987.265625
0.81,1708002987.28125
-1.03,1708002987.296875
-2.29,1708002987.3125
-3.13,1708002987.328125
-3.84,1708002987.34375
-4.75,1708002987.359375
-6.08,1708002987.375
-7.94,1708002987.390625
-10.26,1708002987.40625
-12.87,1708002987.421875
-15.6,1708002987.4375
-18.32,1708002987.453125
-21.02,1708002987.46875
-23.77,1708002987.484375
-26.71,1708002987.5
-30.03,1708002987.515625
-33.8,1708002987.53125
-37.99,1708002987.546875
-42.33,1708002987.5625
-46.3,1708002987.578125
-49.23,1708002987.59375
-50.4,1708002987.609375
-49.23,1708002987.625
-45.46,1708002987.640625
-39.22,1708002987.65625
-31.0,1708002987.671875
-21.57,1708002987.6875
-11.81,1708002987.703125
-2.52,1708002987.71875
5.65,1708002987.734375
12.31,1708002987.75
17.34,1708002987.765625
20.76,1708002987.78125
22.71,1708002987.796875
23.39,1708002987.8125
23.04,1708002987.828125
21.93,1708002987.84375
20.41,1708002987.859375
18.82,1708002987.875
17.48,1708002987.890625
16.6,1708002987.90625
16.26,1708002987.921875
16.45,1708002987.9375
17.09,1708002987.953125
18.16,1708002987.96875
19.63,1708002987.984375
21.48,1708002988.0
23.59,1708002988.015625
25.69,1708002988.03125
27.49,1708002988.046875
28.68,1708002988.0625
29.05,1708002988.078125
28.59,1708002988.09375
27.39,1708002988.109375
25.66,1708002988.125
23.59,1708002988.140625
21.35,1708002988.15625
18.99,1708002988.171875
16.56,1708002988.1875
14.06,1708002988.203125
11.49,1708002988.21875
8.91,1708002988.234375
6.35,1708002988.25
3.89,1708002988.265625
1.58,1708002988.28125
-0.54,1708002988.296875
-2.5,1708002988.3125
-4.36,1708002988.328125
-6.18,1708002988.34375
-7.99,1708002988.359375
-9.8,1708002988.375
-11.57,1708002988.390625
-13.3,1708002988.40625
-15.02,1708002988.421875
-16.81,1708002988.4375
-18.74,1708002988.453125
-20.91,1708002988.46875
-23.4,1708002988.484375
-26.3,1708002988.5
-29.61,1708002988.515625
-33.2,1708002988.53125
-36.68,1708002988.546875
-39.48,1708002988.5625
-40.89,1708002988.578125
-40.25,1708002988.59375
-37.24,1708002988.609375
-31.9,1708002988.625
-24.66,1708002988.640625
-16.24,1708002988.65625
-7.4,1708002988.671875
1.11,1708002988.6875
8.68,1708002988.703125
14.87,1708002988.71875
19.37,1708002988.734375
22.08,1708002988.75
23.11,1708002988.765625
22.77,1708002988.78125
21.51,1708002988.796875
19.77,1708002988.8125
17.92,1708002988.828125
16.19,1708002988.84375
14.69,1708002988.859375
13.51,1708002988.875
12.76,1708002988.890625
12.58,1708002988.90625
13.05,1708002988.921875
14.21,1708002988.9375
15.94,1708002988.953125
18.01,1708002988.96875
20.16,1708002988.984375
22.06,1708002989.0
23.48,1708002989.015625
24.24,1708002989.03125
24.25,1708002989.046875
23.56,1708002989.0625
22.26,1708002989.078125
20.53,1708002989.09375
18.52,1708002989.109375
16.34,1708002989.125
14.05,1708002989.140625
11.68,1708002989.15625
9.26,1708002989.171875
6.86,1708002989.1875
4.57,1708002989.203125
2.46,1708002989.21875
0.54,1708002989.234375
-1.27,1708002989.25
-3.13,1708002989.265625
-5.19,1708002989.28125
-7.54,1708002989.296875
-10.13,1708002989.3125
-12.8,1708002989.328125
-15.32,1708002989.34375
-17.53,1708002989.359375
-19.36,1708002989.375
-20.89,1708002989.390625
-22.37,1708002989.40625
-24.08,1708002989.421875
-26.33,1708002989.4375
-29.32,1708002989.453125
-33.05,1708002989.46875
-37.25,1708002989.484375
-41.38,1708002989.5
-44.62,1708002989.515625
-46.12,1708002989.53125
-45.21,1708002989.546875
-41.62,1708002989.5625
-35.55,1708002989.578125
-27.61,1708002989.59375
-18.7,1708002989.609375
-9.69,1708002989.625
-1.33,1708002989.640625
5.87,1708002989.65625
11.62,1708002989.671875
15.86,1708002989.6875
18.66,1708002989.703125
20.25,1708002989.71875
20.89,1708002989.734375
20.83,1708002989.75
20.31,1708002989.765625
19.47,1708002989.78125
18.45,1708002989.796875
17.41,1708002989.8125
16.56,1708002989.828125
16.11,1708002989.84375
16.21,1708002989.859375
16.93,1708002989.875
18.21,1708002989.890625
19.9,1708002989.90625
21.82,1708002989.921875
23.74,1708002989.9375
25.38,1708002989.953125
26.46,1708002989.96875
26.74,1708002989.984375
26.11,1708002990.0
24.69,1708002990.015625
22.76,1708002990.03125
20.68,1708002990.046875
18.67,1708002990.0625
16.8,1708002990.078125
14.89,1708002990.09375
12.76,1708002990.109375
10.27,1708002990.125
7.49,1708002990.140625
4.63,1708002990.15625
1.93,1708002990.171875
-0.44,1708002990.1875
-2.46,1708002990.203125
-4.18,1708002990.21875
-5.77,1708002990.234375
-7.36,1708002990.25
-9.04,1708002990.265625
-10.9,1708002990.28125
-12.94,1708002990.296875
-15.18,1708002990.3125
-17.53,1708002990.328125
-19.91,1708002990.34375
-22.21,1708002990.359375
-24.42,1708002990.375
-26.62,1708002990.390625
-29.05,1708002990.40625
-32.0,1708002990.421875
-35.64,1708002990.4375
-39.84,1708002990.453125
-44.07,1708002990.46875
-47.41,1708002990.484375
-48.87,1708002990.5
-47.64,1708002990.515625
-43.45,1708002990.53125
-36.65,1708002990.546875
-28.08,1708002990.5625
-18.76,1708002990.578125
-9.67,1708002990.59375
-1.47,1708002990.609375
5.51,1708002990.625
11.21,1708002990.640625
15.7,1708002990.65625
19.09,1708002990.671875
21.42,1708002990.6875
22.75,1708002990.703125
23.13,1708002990.71875
22.7,1708002990.734375
21.69,1708002990.75
20.43,1708002990.765625
19.23,1708002990.78125
18.38,1708002990.796875
18.06,1708002990.8125
18.38,1708002990.828125
19.32,1708002990.84375
20.8,1708002990.859375
22.64,1708002990.875
24.58,1708002990.890625
26.35,1708002990.90625
27.69,1708002990.921875
28.47,1708002990.9375
28.64,1708002990.953125
28.27,1708002990.96875
27.42,1708002990.984375
26.13,1708002991.0
24.43,1708002991.015625
22.41,1708002991.03125
20.21,1708002991.046875
18.04,1708002991.0625
16.06,1708002991.078125
14.3,1708002991.09375
12.67,1708002991.109375
10.95,1708002991.125
8.99,1708002991.140625
6.79,1708002991.15625
4.49,1708002991.171875
2.33,1708002991.1875
0.47,1708002991.203125
-1.07,1708002991.21875
-2.4,1708002991.234375
-3.76,1708002991.25
-5.29,1708002991.265625
-7.08,1708002991.28125
-9.12,1708002991.296875
-11.32,1708002991.3125
-13.65,1708002991.328125
-16.09,1708002991.34375
-18.64,1708002991.359375
-21.26,1708002991.375
-23.83,1708002991.390625
-26.31,1708002991.40625
-28.71,1708002991.421875
-31.23,1708002991.4375
-34.13,1708002991.453125
-37.58,1708002991.46875
-41.44,1708002991.484375
-45.21,1708002991.5
-48.11,1708002991.515625
-49.3,1708002991.53125
-48.14,1708002991.546875
-44.42,1708002991.5625
-38.37,1708002991.578125
-30.6,1708002991.59375
-21.89,1708002991.609375
-13.04,1708002991.625
-4.74,1708002991.640625
2.45,1708002991.65625
8.21,1708002991.671875
12.39,1708002991.6875
15.05,1708002991.703125
16.4,1708002991.71875
16.73,1708002991.734375
16.39,1708002991.75
15.71,1708002991.765625
14.97,1708002991.78125
14.41,1708002991.796875
14.16,1708002991.8125
14.28,1708002991.828125
14.77,1708002991.84375
15.58,1708002991.859375
16.61,1708002991.875
17.79,1708002991.890625
19.04,1708002991.90625
20.33,1708002991.921875
21.63,1708002991.9375
22.89,1708002991.953125
24.03,1708002991.96875
24.87,1708002991.984375
25.2,1708002992.0
24.8,1708002992.015625
23.63,1708002992.03125
21.79,1708002992.046875
19.58,1708002992.0625
17.33,1708002992.078125
15.29,1708002992.09375
13.54,1708002992.109375
11.93,1708002992.125
10.28,1708002992.140625
8.44,1708002992.15625
6.4,1708002992.171875
4.29,1708002992.1875
2.29,1708002992.203125
0.5,1708002992.21875
-1.08,1708002992.234375
-2.53,1708002992.25
-3.98,1708002992.265625
-5.48,1708002992.28125
-7.09,1708002992.296875
-8.87,1708002992.3125
-10.84,1708002992.328125
-13.02,1708002992.34375
-15.34,1708002992.359375
-17.63,1708002992.375
-19.73,1708002992.390625
-21.54,1708002992.40625
-23.15,1708002992.421875
-24.81,1708002992.4375
-26.9,1708002992.453125
-29.68,1708002992.46875
-33.21,1708002992.484375
-37.16,1708002992.5
-40.85,1708002992.515625
-43.38,1708002992.53125
-43.87,1708002992.546875
-41.7,1708002992.5625
-36.76,1708002992.578125
-29.47,1708002992.59375
-20.67,1708002992.609375
-11.39,1708002992.625
-2.52,1708002992.640625
5.28,1708002992.65625
11.68,1708002992.671875
16.53,1708002992.6875
19.82,1708002992.703125
21.57,1708002992.71875
21.92,1708002992.734375
21.11,1708002992.75
19.53,1708002992.765625
17.63,1708002992.78125
15.81,1708002992.796875
14.34,1708002992.8125
13.37,1708002992.828125
12.94,1708002992.84375
13.07,1708002992.859375
13.76,1708002992.875
15.02,1708002992.890625
16.79,1708002992.90625
18.91,1708002992.921875
21.19,1708002992.9375
23.36,1708002992.953125
25.19,1708002992.96875
26.5,1708002992.984375
27.17,1708002993.0
27.12,1708002993.015625
26.35,1708002993.03125
24.89,1708002993.046875
22.88,1708002993.0625
20.52,1708002993.078125
18.05,1708002993.09375
15.69,1708002993.109375
13.56,1708002993.125
11.66,1708002993.140625
9.85,1708002993.15625
7.99,1708002993.171875
5.99,1708002993.1875
3.89,1708002993.203125
1.81,1708002993.21875
-0.13,1708002993.234375
-1.88,1708002993.25
-3.51,1708002993.265625
-5.21,1708002993.28125
-7.17,1708002993.296875
-9.43,1708002993.3125
-11.93,1708002993.328125
-14.48,1708002993.34375
-16.89,1708002993.359375
-19.05,1708002993.375
-21.01,1708002993.390625
-22.87,1708002993.40625
-24.76,1708002993.421875
-26.84,1708002993.4375
-29.23,1708002993.453125
-32.06,1708002993.46875
-35.42,1708002993.484375
-39.26,1708002993.5
-43.28,1708002993.515625
-46.88,1708002993.53125
-49.27,1708002993.546875
-49.6,1708002993.5625
-47.28,1708002993.578125
-42.18,1708002993.59375
-34.7,1708002993.609375
-25.64,1708002993.625
-16.0,1708002993.640625
-6.73,1708002993.65625
1.53,1708002993.671875
8.41,1708002993.6875
13.85,1708002993.703125
17.88,1708002993.71875
20.64,1708002993.734375
22.22,1708002993.75
22.75,1708002993.765625
22.42,1708002993.78125
21.47,1708002993.796875
20.24,1708002993.8125
19.03,1708002993.828125
18.12,1708002993.84375
17.67,1708002993.859375
17.78,1708002993.875
18.44,1708002993.890625
19.61,1708002993.90625
21.22,1708002993.921875
23.15,1708002993.9375
25.27,1708002993.953125
27.41,1708002993.96875
29.33,1708002993.984375
30.74,1708002994.0
31.43,1708002994.015625
31.26,1708002994.03125
30.3,1708002994.046875
28.69,1708002994.0625
26.7,1708002994.078125
24.52,1708002994.09375
22.3,1708002994.109375
20.07,1708002994.125
17.84,1708002994.140625
15.62,1708002994.15625
13.48,1708002994.171875
11.45,1708002994.1875
9.54,1708002994.203125
7.68,1708002994.21875
5.78,1708002994.234375
3.8,1708002994.25
1.78,1708002994.265625
-0.16,1708002994.28125
-1.93,1708002994.296875
-3.55,1708002994.3125
-5.17,1708002994.328125
-6.98,1708002994.34375
-9.12,1708002994.359375
-11.58,1708002994.375
-14.22,1708002994.390625
-16.87,1708002994.40625
-19.38,1708002994.421875
-21.71,1708002994.4375
-23.93,1708002994.453125
-26.15,1708002994.46875
-28.49,1708002994.484375
-31.11,1708002994.5
-34.16,1708002994.515625
-37.77,1708002994.53125
-41.87,1708002994.546875
-46.06,1708002994.5625
-49.64,1708002994.578125
-51.67,1708002994.59375
-51.3,1708002994.609375
-48.03,1708002994.625
-41.94,1708002994.640625
-33.6,1708002994.65625
-23.97,1708002994.671875
-14.08,1708002994.6875
-4.8,1708002994.703125
3.26,1708002994.71875
9.81,1708002994.734375
14.78,1708002994.75
18.28,1708002994.765625
20.56,1708002994.78125
21.91,1708002994.796875
22.61,1708002994.8125
22.9,1708002994.828125
22.9,1708002994.84375
22.64,1708002994.859375
22.17,1708002994.875
21.55,1708002994.890625
20.92,1708002994.90625
20.5,1708002994.921875
20.49,1708002994.9375
20.98,1708002994.953125
21.97,1708002994.96875
23.35,1708002994.984375
24.95,1708002995.0
26.57,1708002995.015625
28.0,1708002995.03125
29.07,1708002995.046875
29.6,1708002995.0625
29.45,1708002995.078125
28.61,1708002995.09375
27.16,1708002995.109375
25.26,1708002995.125
23.13,1708002995.140625
20.98,1708002995.15625
18.93,1708002995.171875
17.02,1708002995.1875
15.23,1708002995.203125
13.47,1708002995.21875
11.64,1708002995.234375
9.7,1708002995.25
7.6,1708002995.265625
5.4,1708002995.28125
3.19,1708002995.296875
1.11,1708002995.3125
-0.71,1708002995.328125
-2.21,1708002995.34375
-3.46,1708002995.359375
-4.62,1708002995.375
-5.93,1708002995.390625
-7.57,1708002995.40625
-9.59,1708002995.421875
-11.91,1708002995.4375
-14.35,1708002995.453125
-16.7,1708002995.46875
-18.92,1708002995.484375
-21.05,1708002995.5
-23.22,1708002995.515625
-25.56,1708002995.53125
-28.09,1708002995.546875
-30.84,1708002995.5625
-33.84,1708002995.578125
-37.14,1708002995.59375
-40.72,1708002995.609375
-44.35,1708002995.625
-47.46,1708002995.640625
-49.25,1708002995.65625
-48.93,1708002995.671875
-46.02,1708002995.6875
-40.53,1708002995.703125
-33.0,1708002995.71875
-24.24,1708002995.734375
-15.12,1708002995.75
-6.33,1708002995.765625
1.63,1708002995.78125
8.45,1708002995.796875
13.88,1708002995.8125
17.74,1708002995.828125
19.97,1708002995.84375
20.68,1708002995.859375
20.14,1708002995.875
18.73,1708002995.890625
16.9,1708002995.90625
15.06,1708002995.921875
13.51,1708002995.9375
12.48,1708002995.953125
12.09,1708002995.96875
12.36,1708002995.984375
13.22,1708002996.0
14.57,1708002996.015625
16.28,1708002996.03125
18.21,1708002996.046875
20.18,1708002996.0625
22.02,1708002996.078125
23.55,1708002996.09375
24.63,1708002996.109375
25.17,1708002996.125
25.12,1708002996.140625
24.53,1708002996.15625
23.43,1708002996.171875
21.93,1708002996.1875
20.14,1708002996.203125
18.16,1708002996.21875
16.11,1708002996.234375
14.03,1708002996.25
11.96,1708002996.265625
9.89,1708002996.28125
7.8,1708002996.296875
5.67,1708002996.3125
3.55,1708002996.328125
1.48,1708002996.34375
-0.45,1708002996.359375
-2.15,1708002996.375
-3.6,1708002996.390625
-4.81,1708002996.40625
-5.88,1708002996.421875
-6.96,1708002996.4375
-8.21,1708002996.453125
-9.69,1708002996.46875
-11.41,1708002996.484375
-13.29,1708002996.5
-15.2,1708002996.515625
-17.06,1708002996.53125
-18.85,1708002996.546875
-20.63,1708002996.5625
-22.53,1708002996.578125
-24.66,1708002996.59375
-27.12,1708002996.609375
-29.99,1708002996.625
-33.24,1708002996.640625
-36.75,1708002996.65625
-40.2,1708002996.671875
-43.06,1708002996.6875
-44.67,1708002996.703125
-44.41,1708002996.71875
-41.83,1708002996.734375
-36.85,1708002996.75
-29.81,1708002996.765625
-21.42,1708002996.78125
-12.55,1708002996.796875
-4.07,1708002996.8125
3.4,1708002996.828125
9.5,1708002996.84375
14.11,1708002996.859375
17.3,1708002996.875
19.18,1708002996.890625
19.92,1708002996.90625
19.67,1708002996.921875
18.65,1708002996.9375
17.13,1708002996.953125
15.43,1708002996.96875
13.87,1708002996.984375
12.72,1708002997.0
12.14,1708002997.015625
12.21,1708002997.03125
12.86,1708002997.046875
14.02,1708002997.0625
15.51,1708002997.078125
17.18,1708002997.09375
18.81,1708002997.109375
20.25,1708002997.125
21.34,1708002997.140625
22.04,1708002997.15625
22.32,1708002997.171875
22.2,1708002997.1875
21.69,1708002997.203125
20.82,1708002997.21875
19.61,1708002997.234375
18.12,1708002997.25
16.44,1708002997.265625
14.66,1708002997.28125
12.84,1708002997.296875
10.98,1708002997.3125
9.02,1708002997.328125
6.92,1708002997.34375
4.67,1708002997.359375
2.31,1708002997.375
-0.05,1708002997.390625
-2.33,1708002997.40625
-4.47,1708002997.421875
-6.53,1708002997.4375
-8.6,1708002997.453125
-10.77,1708002997.46875
-13.07,1708002997.484375
-15.46,1708002997.5
-17.86,1708002997.515625
-20.22,1708002997.53125
-22.54,1708002997.546875
