PPG GREEN,time
2062920.0,1708002920.037
2062924.0,1708002920.076
2063166.0,1708002920.117
2063119.0,1708002920.157
2063141.0,1708002920.193
2063089.0,1708002920.233
2063542.0,1708002920.275
2063826.0,1708002920.314
2064677.0,1708002920.354
2065445.0,1708002920.395
2066168.0,1708002920.434
2066994.0,1708002920.474
2067866.0,1708002920.516
2068547.0,1708002920.554
2069504.0,1708002920.594
2070282.0,1708002920.635
2071121.0,1708002920.674
2071915.0,1708002920.715
2073053.0,1708002920.755
2073895.0,1708002920.794
2075066.0,1708002920.834
2075478.0,1708002920.876
2072418.0,1708002920.955
2070729.0,1708002920.996
2069520.0,1708002921.035
2074173.0,1708002920.915
2068706.0,1708002921.075
2068150.0,1708002921.117
2068050.0,1708002921.155
2067276.0,1708002921.236
2067642.0,1708002921.195
2066108.0,1708002921.316
2066664.0,1708002921.275
2065816.0,1708002921.356
2065899.0,1708002921.395
2066201.0,1708002921.435
2066508.0,1708002921.476
2066847.0,1708002921.516
2067530.0,1708002921.556
2068084.0,1708002921.597
2068507.0,1708002921.636
2069048.0,1708002921.676
2069581.0,1708002921.718
2070268.0,1708002921.756
2070709.0,1708002921.796
2071194.0,1708002921.837
2072025.0,1708002921.876
2072684.0,1708002921.917
2073012.0,1708002921.957
2071561.0,1708002921.996
2068999.0,1708002922.036
2066445.0,1708002922.078
2064580.0,1708002922.117
2063084.0,1708002922.157
2062175.0,1708002922.198
2061786.0,1708002922.237
2061317.0,1708002922.277
2057572.0,1708002922.438
2058933.0,1708002922.799
2058367.0,1708002922.718
2058699.0,1708002922.758
2057433.0,1708002922.559
2059204.0,1708002922.357
2057596.0,1708002922.598
2058039.0,1708002922.679
2057298.0,1708002922.518
2057312.0,1708002922.477
2058283.0,1708002922.397
2057975.0,1708002922.638
2060247.0,1708002922.319
2059172.0,1708002922.838
2059633.0,1708002922.878
2060095.0,1708002922.92
2060736.0,1708002922.958
2060598.0,1708002922.998
2058849.0,1708002923.04
2056159.0,1708002923.079
2053157.0,1708002923.16
2054244.0,1708002923.119
2052747.0,1708002923.199
2052843.0,1708002923.239
2052889.0,1708002923.28
2052620.0,1708002923.32
2052090.0,1708002923.359
2051536.0,1708002923.4
2051638.0,1708002923.439
2051913.0,1708002923.479
2052289.0,1708002923.521
2052813.0,1708002923.559
2053570.0,1708002923.6
2054320.0,1708002923.641
2055101.0,1708002923.68
2055697.0,1708002923.72
2056422.0,1708002923.761
2057135.0,1708002923.8
2057715.0,1708002923.84
2058665.0,1708002923.881
2059435.0,1708002923.921
2060209.0,1708002923.96
2059025.0,1708002924.001
2056626.0,1708002924.04
2054785.0,1708002924.08
2053395.0,1708002924.122
2052595.0,1708002924.161
2052388.0,1708002924.201
2052543.0,1708002924.242
2052284.0,1708002924.281
2052165.0,1708002924.321
2051785.0,1708002924.362
2051569.0,1708002924.401
2051655.0,1708002924.441
2052147.0,1708002924.482
2052644.0,1708002924.522
2053238.0,1708002924.561
2054120.0,1708002924.602
2054774.0,1708002924.641
2055656.0,1708002924.682
2056335.0,1708002924.723
2057133.0,1708002924.762
2057827.0,1708002924.802
2058702.0,1708002924.843
2059504.0,1708002924.882
2060616.0,1708002924.923
2061213.0,1708002924.963
2060427.0,1708002925.002
2058359.0,1708002925.042
2056802.0,1708002925.083
2055532.0,1708002925.123
2054702.0,1708002925.163
2054420.0,1708002925.204
2054498.0,1708002925.243
2054312.0,1708002925.283
2053881.0,1708002925.325
2053547.0,1708002925.363
2053287.0,1708002925.403
2053173.0,1708002925.444
2053481.0,1708002925.483
2054014.0,1708002925.524
2054413.0,1708002925.564
2054883.0,1708002925.603
2055462.0,1708002925.643
2056000.0,1708002925.684
2056507.0,1708002925.724
2057034.0,1708002925.764
2057623.0,1708002925.805
2058276.0,1708002925.844
2058878.0,1708002925.884
2059678.0,1708002925.926
2060341.0,1708002925.964
2060075.0,1708002926.004
2058556.0,1708002926.045
2056592.0,1708002926.084
2055542.0,1708002926.125
2054666.0,1708002926.165
2054392.0,1708002926.204
2054280.0,1708002926.244
2054345.0,1708002926.286
2054089.0,1708002926.325
2053720.0,1708002926.365
2053614.0,1708002926.406
2053650.0,1708002926.445
2053862.0,1708002926.485
2054330.0,1708002926.527
2054845.0,1708002926.565
2055424.0,1708002926.605
2056381.0,1708002926.646
2056899.0,1708002926.685
2057521.0,1708002926.726
2058190.0,1708002926.767
2059107.0,1708002926.806
2059859.0,1708002926.846
2060639.0,1708002926.887
2061593.0,1708002926.927
2062470.0,1708002926.966
2063016.0,1708002927.007
2062092.0,1708002927.046
2060449.0,1708002927.086
2058807.0,1708002927.128
2057738.0,1708002927.166
2056897.0,1708002927.207
2056553.0,1708002927.248
2056473.0,1708002927.287
2056310.0,1708002927.328
2056034.0,1708002927.368
2055678.0,1708002927.407
2055507.0,1708002927.447
2055494.0,1708002927.488
2056034.0,1708002927.528
2056358.0,1708002927.567
2056984.0,1708002927.609
2057615.0,1708002927.648
2058414.0,1708002927.688
2059230.0,1708002927.73
2059906.0,1708002927.768
2060785.0,1708002927.808
2061637.0,1708002927.849
2062627.0,1708002927.888
2063535.0,1708002927.929
2064616.0,1708002927.969
2065501.0,1708002928.008
2066521.0,1708002928.048
2067730.0,1708002928.089
2068636.0,1708002928.129
2069481.0,1708002928.168
2068426.0,1708002928.21
2066961.0,1708002928.249
2065869.0,1708002928.289
2065011.0,1708002928.33
2064369.0,1708002928.369
2063983.0,1708002928.409
2064119.0,1708002928.45
2063962.0,1708002928.489
2063722.0,1708002928.53
2063505.0,1708002928.57
2063449.0,1708002928.609
2063514.0,1708002928.649
2063843.0,1708002928.69
2064238.0,1708002928.73
2065038.0,1708002928.769
2065463.0,1708002928.811
2066098.0,1708002928.85
2066816.0,1708002928.89
2067443.0,1708002928.931
2068192.0,1708002928.97
2068913.0,1708002929.01
2069526.0,1708002929.051
2070268.0,1708002929.09
2071063.0,1708002929.131
2071791.0,1708002929.171
2072671.0,1708002929.21
2073647.0,1708002929.25
2074506.0,1708002929.291
2074899.0,1708002929.331
2073728.0,1708002929.367
2072707.0,1708002929.408
2071571.0,1708002929.447
2070907.0,1708002929.487
2070693.0,1708002929.529
2070571.0,1708002929.567
2070929.0,1708002929.607
2070701.0,1708002929.649
2070495.0,1708002929.688
2070478.0,1708002929.728
2070472.0,1708002929.769
2070735.0,1708002929.808
2071222.0,1708002929.848
2071880.0,1708002929.889
2072452.0,1708002929.929
2073225.0,1708002929.968
2074001.0,1708002930.009
2074833.0,1708002930.049
2075517.0,1708002930.09
2076194.0,1708002930.132
2076995.0,1708002930.171
2077930.0,1708002930.211
2078660.0,1708002930.253
2079654.0,1708002930.291
2080402.0,1708002930.324
2081365.0,1708002930.364
2082387.0,1708002930.403
2083452.0,1708002930.443
2083700.0,1708002930.484
2082540.0,1708002930.524
2080761.0,1708002930.563
2079262.0,1708002930.604
2078135.0,1708002930.643
2077213.0,1708002930.683
2076755.0,1708002930.725
2076490.0,1708002930.764
2076133.0,1708002930.804
2075555.0,1708002930.845
2075064.0,1708002930.884
2074580.0,1708002930.924
2074546.0,1708002930.965
2074481.0,1708002930.997
2074873.0,1708002931.038
2075027.0,1708002931.079
2075501.0,1708002931.111
2075998.0,1708002931.151
2076392.0,1708002931.192
2076689.0,1708002931.231
2076975.0,1708002931.271
2077446.0,1708002931.314
2077952.0,1708002931.351
2078394.0,1708002931.392
2079075.0,1708002931.433
2079530.0,1708002931.472
2080217.0,1708002931.513
2080746.0,1708002931.554
2081309.0,1708002931.593
2080686.0,1708002931.627
2078707.0,1708002931.668
2076502.0,1708002931.708
2074794.0,1708002931.747
2073541.0,1708002931.788
2072782.0,1708002931.827
2072564.0,1708002931.867
2072151.0,1708002931.909
2071450.0,1708002931.948
2070551.0,1708002931.988
2069934.0,1708002932.029
2069368.0,1708002932.068
2069196.0,1708002932.109
2069343.0,1708002932.149
2069645.0,1708002932.241
2069994.0,1708002932.281
2070404.0,1708002932.322
2070798.0,1708002932.362
2071231.0,1708002932.401
2071827.0,1708002932.442
2072185.0,1708002932.482
2072787.0,1708002932.522
2073277.0,1708002932.563
2073882.0,1708002932.602
2074498.0,1708002932.642
2075392.0,1708002932.683
2075898.0,1708002932.722
2075334.0,1708002932.763
2073087.0,1708002932.803
2070817.0,1708002932.842
2068781.0,1708002932.882
2067328.0,1708002932.923
2066389.0,1708002932.964
2065946.0,1708002933.003
2065542.0,1708002933.045
2064845.0,1708002933.085
2064320.0,1708002933.125
2063688.0,1708002933.167
2063420.0,1708002933.205
2063294.0,1708002933.245
2063408.0,1708002933.287
2063615.0,1708002933.326
2064152.0,1708002933.367
2064820.0,1708002933.407
2065417.0,1708002933.447
2066017.0,1708002933.487
2066624.0,1708002933.519
2067162.0,1708002933.559
2068001.0,1708002933.598
2068724.0,1708002933.639
2069551.0,1708002933.678
2070119.0,1708002933.718
2071164.0,1708002933.76
2072019.0,1708002933.799
2072470.0,1708002933.839
2071154.0,1708002933.88
2068586.0,1708002933.919
2066446.0,1708002933.96
2064931.0,1708002934.0
2063992.0,1708002934.039
2063303.0,1708002934.079
2062859.0,1708002934.12
2062754.0,1708002934.16
2062288.0,1708002934.199
2061728.0,1708002934.242
2061371.0,1708002934.278
2061261.0,1708002934.318
2061318.0,1708002934.355
2061869.0,1708002934.393
2062323.0,1708002934.418
2063017.0,1708002934.459
2063704.0,1708002934.498
2064481.0,1708002934.539
2065074.0,1708002934.579
2065892.0,1708002934.618
2066488.0,1708002934.658
2067326.0,1708002934.7
2068147.0,1708002934.739
2068961.0,1708002934.779
2069882.0,1708002934.82
2070898.0,1708002934.859
2071800.0,1708002934.899
2070824.0,1708002934.941
2068887.0,1708002934.979
2066912.0,1708002935.019
2065386.0,1708002935.06
2064238.0,1708002935.099
2063825.0,1708002935.137
2063475.0,1708002935.169
2063416.0,1708002935.206
2062860.0,1708002935.246
2062329.0,1708002935.287
2061967.0,1708002935.327
2061904.0,1708002935.359
2062045.0,1708002935.401
2062538.0,1708002935.44
2062902.0,1708002935.48
2063461.0,1708002935.521
2064136.0,1708002935.56
2064559.0,1708002935.6
2065236.0,1708002935.641
2065812.0,1708002935.68
2066455.0,1708002935.721
2067130.0,1708002935.761
2067709.0,1708002935.8
2068614.0,1708002935.84
2069427.0,1708002935.881
2070306.0,1708002935.921
2070718.0,1708002935.961
2069442.0,1708002936.002
2067432.0,1708002936.042
2066027.0,1708002936.082
2064753.0,1708002936.121
2064366.0,1708002936.16
2064320.0,1708002936.195
2064368.0,1708002936.23
2064114.0,1708002936.267
2063721.0,1708002936.307
2063479.0,1708002936.347
2063458.0,1708002936.386
2063405.0,1708002936.426
2063778.0,1708002936.468
2064319.0,1708002936.508
2065002.0,1708002936.548
2065573.0,1708002936.589
2066252.0,1708002936.628
2067011.0,1708002936.669
2067838.0,1708002936.711
2068338.0,1708002936.747
2068976.0,1708002936.787
2070031.0,1708002936.829
2070870.0,1708002936.868
2071736.0,1708002936.909
2072807.0,1708002936.95
2073479.0,1708002936.989
2072591.0,1708002937.029
2070872.0,1708002937.068
2069335.0,1708002937.108
2068054.0,1708002937.148
2067257.0,1708002937.188
2066980.0,1708002937.227
2067030.0,1708002937.267
2066914.0,1708002937.309
2066544.0,1708002937.347
2066309.0,1708002937.387
2065795.0,1708002937.428
2066064.0,1708002937.467
2066230.0,1708002937.508
2066637.0,1708002937.549
2067106.0,1708002937.588
2067856.0,1708002937.628
2068322.0,1708002937.669
2069002.0,1708002937.709
2069652.0,1708002937.748
2070255.0,1708002937.789
2070910.0,1708002937.828
2071707.0,1708002937.868
2072470.0,1708002937.911
2073292.0,1708002937.949
2074093.0,1708002937.987
2074987.0,1708002938.029
2075614.0,1708002938.068
2074589.0,1708002938.106
2072413.0,1708002938.146
2070311.0,1708002938.185
2068464.0,1708002938.225
2067002.0,1708002938.266
2065974.0,1708002938.306
2065405.0,1708002938.345
2064713.0,1708002938.386
2063897.0,1708002938.425
2062703.0,1708002938.466
2062078.0,1708002938.507
2061417.0,1708002938.546
2061017.0,1708002938.586
2061060.0,1708002938.627
2061129.0,1708002938.666
2061329.0,1708002938.707
2061555.0,1708002938.747
2061826.0,1708002938.786
2062301.0,1708002938.867
2061967.0,1708002938.827
2062618.0,1708002938.907
2063000.0,1708002938.947
2063414.0,1708002938.989
2064378.0,1708002939.068
2063948.0,1708002939.028
2065744.0,1708002939.149
2065161.0,1708002939.11
2065545.0,1708002939.189
2063085.0,1708002939.23
2059943.0,1708002939.269
2056906.0,1708002939.31
2054148.0,1708002939.349
2051794.0,1708002939.388
2049993.0,1708002939.428
2048769.0,1708002939.47
2047324.0,1708002939.51
2045645.0,1708002939.549
2043814.0,1708002939.591
2042509.0,1708002939.629
2041612.0,1708002939.669
2040821.0,1708002939.711
2040534.0,1708002939.749
2040363.0,1708002939.789
2040333.0,1708002939.83
2040274.0,1708002939.869
2040398.0,1708002939.91
2040354.0,1708002939.95
2040508.0,1708002939.989
2040761.0,1708002940.029
2041041.0,1708002940.07
2041488.0,1708002940.11
2042040.0,1708002940.149
2042520.0,1708002940.191
2043252.0,1708002940.23
2043639.0,1708002940.27
2044435.0,1708002940.311
2044732.0,1708002940.351
2042647.0,1708002940.391
2038451.0,1708002940.432
2034258.0,1708002940.47
2030851.0,1708002940.509
2027760.0,1708002940.55
2025599.0,1708002940.589
2024054.0,1708002940.629
2022781.0,1708002940.67
2021186.0,1708002940.71
2019250.0,1708002940.75
2018105.0,1708002940.791
2017149.0,1708002940.828
2016693.0,1708002940.868
2016612.0,1708002940.907
2016442.0,1708002940.946
2016846.0,1708002940.986
2017031.0,1708002941.027
2017461.0,1708002941.066
2017719.0,1708002941.107
2017980.0,1708002941.147
2018529.0,1708002941.186
2018933.0,1708002941.226
2019779.0,1708002941.267
2020470.0,1708002941.307
2021320.0,1708002941.346
2022292.0,1708002941.387
2023107.0,1708002941.426
2023996.0,1708002941.466
2024862.0,1708002941.508
2025853.0,1708002941.546
2026840.0,1708002941.587
2026235.0,1708002941.629
2022231.0,1708002941.668
2017516.0,1708002941.709
2013696.0,1708002941.75
2010950.0,1708002941.788
2008830.0,1708002941.824
2007841.0,1708002941.865
2007082.0,1708002941.905
2006184.0,1708002941.944
2005020.0,1708002941.985
2003921.0,1708002942.024
2003370.0,1708002942.064
2003332.0,1708002942.106
2003707.0,1708002942.145
2004492.0,1708002942.185
2005227.0,1708002942.226
2006073.0,1708002942.265
2006958.0,1708002942.306
2007906.0,1708002942.346
2008744.0,1708002942.385
2009654.0,1708002942.425
2010586.0,1708002942.466
2011683.0,1708002942.506
2012932.0,1708002942.545
2014268.0,1708002942.587
2015538.0,1708002942.626
2016781.0,1708002942.667
2018196.0,1708002942.708
2019522.0,1708002942.746
2021024.0,1708002942.786
2021707.0,1708002942.828
2019531.0,1708002942.867
2015291.0,1708002942.907
2012098.0,1708002942.948
2009978.0,1708002942.987
2008634.0,1708002943.027
2008404.0,1708002943.068
2008587.0,1708002943.107
2008808.0,1708002943.147
2008214.0,1708002943.188
2007870.0,1708002943.227
2007783.0,1708002943.267
2008206.0,1708002943.309
2008992.0,1708002943.347
2010058.0,1708002943.387
2011577.0,1708002943.429
2012936.0,1708002943.469
2014266.0,1708002943.51
2015725.0,1708002943.55
2017147.0,1708002943.589
2018341.0,1708002943.63
2020012.0,1708002943.671
2021530.0,1708002943.711
2023056.0,1708002943.751
2024750.0,1708002943.792
2026441.0,1708002943.831
2028250.0,1708002943.869
2030199.0,1708002943.911
2031467.0,1708002943.95
2030430.0,1708002943.989
2027813.0,1708002944.03
2025626.0,1708002944.069
2024428.0,1708002944.111
2023839.0,1708002944.152
2025025.0,1708002944.225
2024186.0,1708002944.185
2025582.0,1708002944.266
2025893.0,1708002944.306
2026019.0,1708002944.345
2026633.0,1708002944.386
2027366.0,1708002944.425
2028399.0,1708002944.465
2029742.0,1708002944.507
2031452.0,1708002944.546
2032923.0,1708002944.586
2034609.0,1708002944.627
2036212.0,1708002944.665
2037757.0,1708002944.704
2039206.0,1708002944.741
2040749.0,1708002944.772
2042397.0,1708002944.811
2044097.0,1708002944.849
2044097.0,1708002944.884
2045469.0,1708002944.924
2047373.0,1708002944.965
2049043.0,1708002945.004
2050923.0,1708002945.044
2052442.0,1708002945.086
2052052.0,1708002945.124
2050317.0,1708002945.164
2048782.0,1708002945.205
2048012.0,1708002945.244
2047665.0,1708002945.285
2047880.0,1708002945.325
2048514.0,1708002945.364
2049148.0,1708002945.405
2049353.0,1708002945.446
2049375.0,1708002945.485
2049661.0,1708002945.525
2050194.0,1708002945.566
2051031.0,1708002945.599
2052021.0,1708002945.63
2053161.0,1708002945.672
2054348.0,1708002945.711
2055501.0,1708002945.751
2056547.0,1708002945.792
2057619.0,1708002945.832
2058710.0,1708002945.871
2059609.0,1708002945.911
2060679.0,1708002945.95
2061983.0,1708002945.991
2063039.0,1708002946.032
2064147.0,1708002946.072
2065373.0,1708002946.111
2066409.0,1708002946.153
2065856.0,1708002946.19
2064148.0,1708002946.23
2062771.0,1708002946.272
2061938.0,1708002946.311
2061939.0,1708002946.351
2062178.0,1708002946.392
2062645.0,1708002946.431
2062645.0,1708002946.472
2062666.0,1708002946.502
2062415.0,1708002946.541
2062389.0,1708002946.581
2062449.0,1708002946.622
2062893.0,1708002946.662
2063699.0,1708002946.702
2064237.0,1708002946.743
2065030.0,1708002946.782
2065594.0,1708002946.822
2066175.0,1708002946.864
2066894.0,1708002946.902
2067404.0,1708002946.942
2067865.0,1708002946.983
2068579.0,1708002947.022
2069241.0,1708002947.063
2069816.0,1708002947.104
2069643.0,1708002947.143
2067803.0,1708002947.183
2065594.0,1708002947.22
2064126.0,1708002947.25
2062885.0,1708002947.29
2062519.0,1708002947.331
2062496.0,1708002947.37
2062191.0,1708002947.408
2061430.0,1708002947.45
2060298.0,1708002947.488
2059415.0,1708002947.528
2058839.0,1708002947.569
2058650.0,1708002947.609
2058469.0,1708002947.649
2058584.0,1708002947.69
2058726.0,1708002947.729
2058739.0,1708002947.769
2058661.0,1708002947.81
2058713.0,1708002947.85
2058653.0,1708002947.889
2058725.0,1708002947.93
2058911.0,1708002947.969
2058504.0,1708002948.009
2056078.0,1708002948.051
2052965.0,1708002948.089
2050235.0,1708002948.13
2048109.0,1708002948.171
2046977.0,1708002948.21
2046271.0,1708002948.251
2045647.0,1708002948.291
2044239.0,1708002948.331
2042669.0,1708002948.371
2041154.0,1708002948.412
2040251.0,1708002948.452
2039630.0,1708002948.49
2039258.0,1708002948.531
2039130.0,1708002948.57
2039075.0,1708002948.61
2038861.0,1708002948.652
2038698.0,1708002948.691
2038360.0,1708002948.731
2038382.0,1708002948.773
2038437.0,1708002948.81
2037574.0,1708002948.851
2035047.0,1708002948.891
2031555.0,1708002948.931
2031555.0,1708002948.965
2028603.0,1708002949.006
2026239.0,1708002949.045
2024972.0,1708002949.085
2024278.0,1708002949.126
2023538.0,1708002949.165
2022431.0,1708002949.205
2020897.0,1708002949.247
2019564.0,1708002949.285
2018884.0,1708002949.325
2018426.0,1708002949.366
2018196.0,1708002949.405
2018302.0,1708002949.446
2018573.0,1708002949.525
2018429.0,1708002949.486
2018602.0,1708002949.566
2018815.0,1708002949.607
2019104.0,1708002949.646
2019272.0,1708002949.687
2018498.0,1708002949.728
2015557.0,1708002949.768
2012269.0,1708002949.806
2009903.0,1708002949.845
2008025.0,1708002949.88
2006967.0,1708002949.913
2006754.0,1708002949.952
2006282.0,1708002949.991
2005522.0,1708002950.032
2004610.0,1708002950.073
2003886.0,1708002950.112
2003479.0,1708002950.152
2003523.0,1708002950.194
2003836.0,1708002950.234
2004204.0,1708002950.271
2004770.0,1708002950.313
2005359.0,1708002950.352
2005828.0,1708002950.392
2006029.0,1708002950.434
2006573.0,1708002950.472
2007159.0,1708002950.51
2007945.0,1708002950.551
2008670.0,1708002950.59
2009344.0,1708002950.631
2008002.0,1708002950.671
2004840.0,1708002950.71
2002147.0,1708002950.75
1999999.0,1708002950.791
1998643.0,1708002950.831
1997909.0,1708002950.87
1997972.0,1708002950.911
1997783.0,1708002950.95
1997357.0,1708002950.99
1996846.0,1708002951.032
1996761.0,1708002951.07
1996909.0,1708002951.11
1997569.0,1708002951.152
1998493.0,1708002951.191
1999448.0,1708002951.232
2000437.0,1708002951.273
2001526.0,1708002951.312
2002495.0,1708002951.352
2003600.0,1708002951.394
2005967.0,1708002951.473
2004705.0,1708002951.433
2007419.0,1708002951.515
2008965.0,1708002951.552
2010345.0,1708002951.592
2011837.0,1708002951.634
2013445.0,1708002951.673
2015197.0,1708002951.71
2016724.0,1708002951.742
2018230.0,1708002951.781
2019762.0,1708002951.821
2021416.0,1708002951.862
2023271.0,1708002951.901
2024778.0,1708002951.941
2024881.0,1708002951.982
2023996.0,1708002952.022
2023369.0,1708002952.061
2022966.0,1708002952.102
2023201.0,1708002952.141
2023679.0,1708002952.181
2024497.0,1708002952.223
2025342.0,1708002952.261
2026209.0,1708002952.301
2026906.0,1708002952.342
2027829.0,1708002952.381
2028714.0,1708002952.415
2029936.0,1708002952.455
2031253.0,1708002952.494
2032948.0,1708002952.531
2034452.0,1708002952.572
2035879.0,1708002952.612
2035879.0,1708002952.645
2037551.0,1708002952.686
2038796.0,1708002952.725
2040219.0,1708002952.766
2041735.0,1708002952.807
2043246.0,1708002952.846
2044560.0,1708002952.886
2046107.0,1708002952.927
2047778.0,1708002952.966
2049321.0,1708002953.007
2050846.0,1708002953.047
2052238.0,1708002953.086
2053765.0,1708002953.126
2055145.0,1708002953.167
2056748.0,1708002953.207
2058284.0,1708002953.246
2059609.0,1708002953.287
2060272.0,1708002953.326
2060685.0,1708002953.36
2060930.0,1708002953.396
2061419.0,1708002953.432
2062172.0,1708002953.472
2062864.0,1708002953.509
2064017.0,1708002953.548
2065075.0,1708002953.588
2066029.0,1708002953.629
2066935.0,1708002953.668
2067882.0,1708002953.708
2068893.0,1708002953.749
2069879.0,1708002953.789
2071142.0,1708002953.828
2072210.0,1708002953.869
2073493.0,1708002953.908
2074652.0,1708002953.948
2075871.0,1708002953.99
2076959.0,1708002954.028
2078106.0,1708002954.068
2079361.0,1708002954.109
2080367.0,1708002954.148
2081712.0,1708002954.189
2082575.0,1708002954.229
2083891.0,1708002954.265
2085101.0,1708002954.304
2086248.0,1708002954.339
2087303.0,1708002954.375
2088412.0,1708002954.411
2089592.0,1708002954.453
2090679.0,1708002954.491
2091360.0,1708002954.532
2090952.0,1708002954.574
2090592.0,1708002954.613
2089967.0,1708002954.653
2089516.0,1708002954.694
2089262.0,1708002954.733
2088929.0,1708002954.773
2089065.0,1708002954.814
2088695.0,1708002954.853
2088634.0,1708002954.893
2088197.0,1708002954.934
2087718.0,1708002954.974
2087557.0,1708002955.013
2087409.0,1708002955.054
2087531.0,1708002955.093
2087763.0,1708002955.133
2087911.0,1708002955.175
2088228.0,1708002955.213
2088349.0,1708002955.253
2088411.0,1708002955.295
2088516.0,1708002955.332
2088800.0,1708002955.373
2089017.0,1708002955.413
2089225.0,1708002955.452
2089543.0,1708002955.493
2089861.0,1708002955.534
2090190.0,1708002955.574
2090562.0,1708002955.614
2090767.0,1708002955.654
2091294.0,1708002955.693
2091528.0,1708002955.733
2090399.0,1708002955.775
2087542.0,1708002955.812
2083729.0,1708002955.852
2080130.0,1708002955.893
2076977.0,1708002955.933
2074543.0,1708002955.974
2072410.0,1708002956.014
2072410.0,1708002956.053
2070895.0,1708002956.093
2069098.0,1708002956.134
2066842.0,1708002956.174
2064590.0,1708002956.213
2062754.0,1708002956.254
2061311.0,1708002956.293
2060325.0,1708002956.333
2059597.0,1708002956.375
2059312.0,1708002956.414
2058785.0,1708002956.454
2058411.0,1708002956.495
2057785.0,1708002956.534
2057474.0,1708002956.575
2057117.0,1708002956.615
2057072.0,1708002956.654
2056934.0,1708002956.694
2057027.0,1708002956.732
2057256.0,1708002956.767
2057533.0,1708002956.806
2057773.0,1708002956.847
2057980.0,1708002956.886
2058326.0,1708002956.926
2058674.0,1708002956.968
2058506.0,1708002957.006
2055308.0,1708002957.046
2050295.0,1708002957.087
2045132.0,1708002957.126
2040757.0,1708002957.167
2037586.0,1708002957.208
2035125.0,1708002957.247
2033650.0,1708002957.287
2032204.0,1708002957.328
2030447.0,1708002957.367
2028471.0,1708002957.407
2026878.0,1708002957.448
2025846.0,1708002957.488
2025225.0,1708002957.52
2025265.0,1708002957.562
2025469.0,1708002957.599
2025688.0,1708002957.637
2025845.0,1708002957.668
2026113.0,1708002957.707
2026291.0,1708002957.748
2026637.0,1708002957.788
2027078.0,1708002957.827
2027606.0,1708002957.867
2028333.0,1708002957.908
2028989.0,1708002957.948
2029956.0,1708002957.987
2030866.0,1708002958.028
2031665.0,1708002958.067
2032613.0,1708002958.107
2033575.0,1708002958.149
2034628.0,1708002958.187
2034901.0,1708002958.228
2032101.0,1708002958.269
2027978.0,1708002958.308
2023647.0,1708002958.348
2020887.0,1708002958.383
2019094.0,1708002958.419
2018239.0,1708002958.457
2018106.0,1708002958.498
2017829.0,1708002958.538
2017328.0,1708002958.578
2016393.0,1708002958.657
2016523.0,1708002958.733
2017100.0,1708002958.771
2018004.0,1708002958.811
2019070.0,1708002958.852
2020307.0,1708002958.891
2016776.0,1708002958.618
2016393.0,1708002958.691
2021357.0,1708002958.932
2022557.0,1708002958.972
2023571.0,1708002959.011
2024732.0,1708002959.052
2025955.0,1708002959.093
2027262.0,1708002959.132
2028638.0,1708002959.172
2030184.0,1708002959.213
2031675.0,1708002959.252
2033187.0,1708002959.292
2034751.0,1708002959.334
2036195.0,1708002959.372
2037678.0,1708002959.412
2039240.0,1708002959.451
2040950.0,1708002959.485
2042272.0,1708002959.526
2041200.0,1708002959.564
2038589.0,1708002959.6
2036129.0,1708002959.638
2034248.0,1708002959.679
2033206.0,1708002959.719
2032832.0,1708002959.759
2033051.0,1708002959.8
2033463.0,1708002959.839
2033634.0,1708002959.879
2033614.0,1708002959.921
2033742.0,1708002959.96
2034268.0,1708002959.998
2035007.0,1708002960.039
2036109.0,1708002960.078
2040127.0,1708002960.199
2037501.0,1708002960.119
2038761.0,1708002960.16
2041334.0,1708002960.233
2042449.0,1708002960.274
2043705.0,1708002960.313
2046360.0,1708002960.394
2045090.0,1708002960.353
2047715.0,1708002960.433
2049160.0,1708002960.473
2050692.0,1708002960.515
2051990.0,1708002960.553
2053629.0,1708002960.593
2055158.0,1708002960.634
2056493.0,1708002960.673
2057949.0,1708002960.714
2059321.0,1708002960.755
2059072.0,1708002960.794
2057032.0,1708002960.834
2054535.0,1708002960.875
2052207.0,1708002960.909
2050560.0,1708002960.949
2049620.0,1708002960.99
2049377.0,1708002961.03
2049279.0,1708002961.066
2049073.0,1708002961.108
2048484.0,1708002961.148
2048183.0,1708002961.188
2047931.0,1708002961.23
2048207.0,1708002961.269
2048651.0,1708002961.309
2049676.0,1708002961.35
2050429.0,1708002961.389
2051343.0,1708002961.429
2052318.0,1708002961.47
2052990.0,1708002961.51
2053833.0,1708002961.549
2054565.0,1708002961.59
2055657.0,1708002961.629
2056693.0,1708002961.669
2057741.0,1708002961.711
2058805.0,1708002961.75
2059953.0,1708002961.79
2061053.0,1708002961.831
2062375.0,1708002961.864
2063243.0,1708002961.899
2064490.0,1708002961.938
2065350.0,1708002961.976
2064493.0,1708002962.017
2061789.0,1708002962.058
2061789.0,1708002962.09
2058603.0,1708002962.13
2055631.0,1708002962.171
2053786.0,1708002962.21
2052543.0,1708002962.25
2051775.0,1708002962.292
2051350.0,1708002962.33
2050900.0,1708002962.37
2049965.0,1708002962.411
2049143.0,1708002962.45
2048564.0,1708002962.491
2048555.0,1708002962.532
2048865.0,1708002962.571
2049413.0,1708002962.611
2050120.0,1708002962.652
2050999.0,1708002962.692
2051510.0,1708002962.731
2052223.0,1708002962.772
2052801.0,1708002962.806
2053672.0,1708002962.841
2054321.0,1708002962.881
2055240.0,1708002962.919
2056118.0,1708002962.959
2057215.0,1708002963.001
2058268.0,1708002963.04
2059275.0,1708002963.081
2060349.0,1708002963.121
2061226.0,1708002963.161
2062391.0,1708002963.201
2063414.0,1708002963.24
2063058.0,1708002963.279
2060003.0,1708002963.317
2056258.0,1708002963.358
2052980.0,1708002963.397
2050517.0,1708002963.437
2049283.0,1708002963.478
2048594.0,1708002963.517
2048142.0,1708002963.557
2047592.0,1708002963.598
2046646.0,1708002963.637
2045768.0,1708002963.678
2045207.0,1708002963.718
2044900.0,1708002963.757
2045242.0,1708002963.797
2045730.0,1708002963.838
2046515.0,1708002963.878
2047315.0,1708002963.917
2048034.0,1708002963.958
2048719.0,1708002963.998
2049544.0,1708002964.039
2050248.0,1708002964.081
2051013.0,1708002964.119
2052110.0,1708002964.159
2053047.0,1708002964.201
2054205.0,1708002964.24
2055216.0,1708002964.281
2056390.0,1708002964.321
2057547.0,1708002964.361
2058694.0,1708002964.401
2059914.0,1708002964.442
2059768.0,1708002964.478
2056991.0,1708002964.518
2053593.0,1708002964.559
2050942.0,1708002964.599
2049079.0,1708002964.639
2048158.0,1708002964.681
2047815.0,1708002964.72
2047900.0,1708002964.76
2047578.0,1708002964.801
2046984.0,1708002964.84
2046419.0,1708002964.881
2046039.0,1708002964.922
2046087.0,1708002964.961
2046616.0,1708002965.001
2047308.0,1708002965.041
2048109.0,1708002965.08
2048962.0,1708002965.12
2049926.0,1708002965.161
2050707.0,1708002965.201
2051494.0,1708002965.241
2052432.0,1708002965.283
2053340.0,1708002965.321
2054414.0,1708002965.361
2055554.0,1708002965.401
2056624.0,1708002965.439
2057795.0,1708002965.47
2059043.0,1708002965.511
2060205.0,1708002965.55
2061063.0,1708002965.59
2060041.0,1708002965.631
2057356.0,1708002965.671
2054960.0,1708002965.71
2053347.0,1708002965.751
2052405.0,1708002965.79
2052033.0,1708002965.83
2052066.0,1708002965.872
2052251.0,1708002965.91
2051895.0,1708002965.95
2051502.0,1708002965.992
2051250.0,1708002966.031
2051340.0,1708002966.071
2051752.0,1708002966.112
2052462.0,1708002966.151
2053171.0,1708002966.191
2053985.0,1708002966.232
2055043.0,1708002966.272
2055762.0,1708002966.311
2056741.0,1708002966.352
2057578.0,1708002966.391
2058504.0,1708002966.426
2059561.0,1708002966.463
2060576.0,1708002966.499
2061690.0,1708002966.539
2062911.0,1708002966.581
2063961.0,1708002966.62
2065398.0,1708002966.661
2066264.0,1708002966.701
2065427.0,1708002966.74
2063450.0,1708002966.781
2061888.0,1708002966.822
2060865.0,1708002966.86
2060287.0,1708002966.899
2060414.0,1708002966.941
2060567.0,1708002966.98
2060567.0,1708002967.015
2060682.0,1708002967.057
2060595.0,1708002967.095
2060466.0,1708002967.135
2060448.0,1708002967.176
2060549.0,1708002967.215
2060963.0,1708002967.256
2061570.0,1708002967.297
2062476.0,1708002967.336
2063047.0,1708002967.376
2063949.0,1708002967.417
2064709.0,1708002967.457
2065348.0,1708002967.496
2066216.0,1708002967.537
2066955.0,1708002967.576
2067684.0,1708002967.616
2068460.0,1708002967.658
2069422.0,1708002967.697
2070561.0,1708002967.735
2071335.0,1708002967.774
2071694.0,1708002967.809
2070466.0,1708002967.841
2069067.0,1708002967.882
2068172.0,1708002967.921
2067511.0,1708002967.96
2067591.0,1708002967.999
2068271.0,1708002968.038
2068624.0,1708002968.077
2068623.0,1708002968.116
2068557.0,1708002968.155
2068564.0,1708002968.194
2068847.0,1708002968.233
2069437.0,1708002968.272
2070097.0,1708002968.311
2070811.0,1708002968.35
2071703.0,1708002968.389
2073420.0,1708002968.467
2074227.0,1708002968.506
2075225.0,1708002968.545
2075900.0,1708002968.584
2072456.0,1708002968.428
2077028.0,1708002968.623
2078123.0,1708002968.662
2078931.0,1708002968.701
2080339.0,1708002968.74
2081014.0,1708002968.779
2080126.0,1708002968.818
2078622.0,1708002968.857
2077245.0,1708002968.896
2075495.0,1708002969.013
2075575.0,1708002969.052
2075361.0,1708002969.091
2074618.0,1708002969.169
2075116.0,1708002969.13
2074525.0,1708002969.208
2074981.0,1708002969.286
2075733.0,1708002968.974
2076214.0,1708002968.935
2075378.0,1708002969.325
2074685.0,1708002969.247
2076032.0,1708002969.364
2076625.0,1708002969.403
2076625.0,1708002969.442
2077288.0,1708002969.481
2079861.0,1708002969.637
2080593.0,1708002969.676
2081413.0,1708002969.715
2082318.0,1708002969.754
2082607.0,1708002969.793
2079164.0,1708002969.598
2077955.0,1708002969.52
2078545.0,1708002969.559
2078859.0,1708002969.871
2081270.0,1708002969.832
2076784.0,1708002969.91
2075041.0,1708002969.949
2073633.0,1708002969.988
2072927.0,1708002970.027
2071853.0,1708002970.105
2072508.0,1708002970.066
2071172.0,1708002970.144
2070326.0,1708002970.183
2069903.0,1708002970.222
2069704.0,1708002970.261
2069811.0,1708002970.3
2069983.0,1708002970.339
2071494.0,1708002970.456
2072077.0,1708002970.495
2070903.0,1708002970.417
2070385.0,1708002970.378
2073282.0,1708002970.573
2074408.0,1708002970.651
2073724.0,1708002970.612
2075498.0,1708002970.69
2076325.0,1708002970.729
2077047.0,1708002970.768
2072668.0,1708002970.534
2075748.0,1708002970.846
2077479.0,1708002970.807
2073383.0,1708002970.885
2071074.0,1708002970.924
2069344.0,1708002970.963
2068106.0,1708002971.002
2067451.0,1708002971.041
2067168.0,1708002971.08
2066732.0,1708002971.119
2066096.0,1708002971.158
2065563.0,1708002971.197
2065027.0,1708002971.236
2064968.0,1708002971.275
2065243.0,1708002971.314
2065530.0,1708002971.353
2065968.0,1708002971.392
2066643.0,1708002971.431
2066971.0,1708002971.47
2067662.0,1708002971.509
2068134.0,1708002971.548
2068862.0,1708002971.587
2069409.0,1708002971.626
2070101.0,1708002971.665
2070792.0,1708002971.704
2071562.0,1708002971.743
2072591.0,1708002971.782
2073327.0,1708002971.821
2072738.0,1708002971.86
2070670.0,1708002971.899
2068717.0,1708002971.938
2067155.0,1708002971.977
2066219.0,1708002972.016
2065958.0,1708002972.055
2066032.0,1708002972.094
2065875.0,1708002972.133
2065515.0,1708002972.173
2065056.0,1708002972.213
2064794.0,1708002972.253
2064915.0,1708002972.293
2065358.0,1708002972.333
2065792.0,1708002972.373
2066498.0,1708002972.413
2067100.0,1708002972.453
2067869.0,1708002972.493
2068735.0,1708002972.533
2069323.0,1708002972.573
2070110.0,1708002972.613
2070893.0,1708002972.653
2071741.0,1708002972.693
2072645.0,1708002972.733
2073709.0,1708002972.773
2074632.0,1708002972.813
2075567.0,1708002972.853
2075397.0,1708002972.893
2073670.0,1708002972.933
2071511.0,1708002972.973
2069557.0,1708002973.013
2068017.0,1708002973.053
2067189.0,1708002973.093
2066756.0,1708002973.133
2066345.0,1708002973.173
2066101.0,1708002973.213
2065492.0,1708002973.253
2064871.0,1708002973.293
2064707.0,1708002973.333
2064709.0,1708002973.373
2064974.0,1708002973.413
2065384.0,1708002973.453
2065999.0,1708002973.493
2066592.0,1708002973.533
2067191.0,1708002973.573
2067982.0,1708002973.613
2068622.0,1708002973.653
2069264.0,1708002973.693
2070084.0,1708002973.733
2071026.0,1708002973.773
2071895.0,1708002973.813
2072931.0,1708002973.853
2073969.0,1708002973.893
2074808.0,1708002973.933
2074622.0,1708002973.973
2072547.0,1708002974.013
2070581.0,1708002974.053
2068897.0,1708002974.093
2067658.0,1708002974.133
2066755.0,1708002974.173
2066464.0,1708002974.213
2066366.0,1708002974.253
2065988.0,1708002974.293
2065461.0,1708002974.333
2064984.0,1708002974.373
2064900.0,1708002974.413
2065079.0,1708002974.453
2065280.0,1708002974.493
2065834.0,1708002974.533
2066416.0,1708002974.573
2066962.0,1708002974.613
2067653.0,1708002974.653
2068159.0,1708002974.693
2068857.0,1708002974.733
2069748.0,1708002974.773
2070476.0,1708002974.813
2071165.0,1708002974.853
2072006.0,1708002974.893
2073020.0,1708002974.933
2073960.0,1708002974.973
2074656.0,1708002975.013
2074246.0,1708002975.053
2072491.0,1708002975.093
2071025.0,1708002975.133
2070094.0,1708002975.173
2069412.0,1708002975.213
2069224.0,1708002975.253
2069532.0,1708002975.293
2069634.0,1708002975.333
2069518.0,1708002975.373
2069326.0,1708002975.413
2069422.0,1708002975.453
2069829.0,1708002975.493
2070196.0,1708002975.533
2070954.0,1708002975.573
2071829.0,1708002975.613
2072577.0,1708002975.653
2073567.0,1708002975.693
2074415.0,1708002975.733
2075425.0,1708002975.773
2076406.0,1708002975.813
2077429.0,1708002975.853
2078324.0,1708002975.893
2079487.0,1708002975.933
2080557.0,1708002975.973
2081820.0,1708002976.013
2082541.0,1708002976.053
2082106.0,1708002976.093
2080601.0,1708002976.133
2079741.0,1708002976.173
2078864.0,1708002976.213
2078584.0,1708002976.253
2078685.0,1708002976.293
2079041.0,1708002976.333
2079199.0,1708002976.373
2079177.0,1708002976.413
2079210.0,1708002976.453
2079311.0,1708002976.493
2079774.0,1708002976.533
2080311.0,1708002976.573
2080920.0,1708002976.613
2081802.0,1708002976.653
2082593.0,1708002976.693
2083632.0,1708002976.733
2084549.0,1708002976.773
2085411.0,1708002976.813
2086246.0,1708002976.853
2086246.0,1708002976.893
2087054.0,1708002976.933
2088118.0,1708002976.973
2089114.0,1708002977.013
2090227.0,1708002977.053
2091179.0,1708002977.093
2091779.0,1708002977.133
2090921.0,1708002977.173
2089441.0,1708002977.213
2088318.0,1708002977.253
2087346.0,1708002977.293
2086670.0,1708002977.333
2086485.0,1708002977.373
2086608.0,1708002977.413
2086445.0,1708002977.453
2085979.0,1708002977.493
2085729.0,1708002977.533
2085554.0,1708002977.573
2085560.0,1708002977.613
2085825.0,1708002977.653
2086143.0,1708002977.693
2086736.0,1708002977.733
2087340.0,1708002977.773
2087761.0,1708002977.813
2088318.0,1708002977.853
2089033.0,1708002977.893
2089476.0,1708002977.933
2090251.0,1708002977.973
2090903.0,1708002978.013
2091449.0,1708002978.053
2092171.0,1708002978.093
2093039.0,1708002978.133
2093390.0,1708002978.173
2092794.0,1708002978.213
2090829.0,1708002978.253
2089075.0,1708002978.293
2087734.0,1708002978.333
2086648.0,1708002978.373
2086239.0,1708002978.413
2085925.0,1708002978.453
2085614.0,1708002978.493
2084824.0,1708002978.533
2084333.0,1708002978.573
2083850.0,1708002978.613
2083660.0,1708002978.653
2083677.0,1708002978.693
2083853.0,1708002978.733
2084088.0,1708002978.773
2084494.0,1708002978.813
2084981.0,1708002978.853
2085639.0,1708002978.893
2086051.0,1708002978.933
2086570.0,1708002978.973
2087201.0,1708002979.013
2087899.0,1708002979.053
2088532.0,1708002979.093
2089330.0,1708002979.133
2089539.0,1708002979.173
2088362.0,1708002979.213
2086282.0,1708002979.253
2084921.0,1708002979.293
2083575.0,1708002979.333
2082768.0,1708002979.373
2082472.0,1708002979.413
2082324.0,1708002979.453
2081913.0,1708002979.493
2081498.0,1708002979.533
2081232.0,1708002979.573
2081152.0,1708002979.613
2081229.0,1708002979.653
2081481.0,1708002979.693
2081996.0,1708002979.733
2082552.0,1708002979.773
2083122.0,1708002979.812
2083769.0,1708002979.851
2084301.0,1708002979.89
2085111.0,1708002979.929
2085818.0,1708002979.968
2086625.0,1708002980.007
2087338.0,1708002980.046
2088189.0,1708002980.085
2089151.0,1708002980.124
2090167.0,1708002980.163
2090166.0,1708002980.202
2088477.0,1708002980.241
2086607.0,1708002980.28
2085094.0,1708002980.319
2083918.0,1708002980.358
2083085.0,1708002980.397
2082751.0,1708002980.436
2082634.0,1708002980.475
2082374.0,1708002980.514
2081769.0,1708002980.553
2081343.0,1708002980.592
2081347.0,1708002980.631
2081307.0,1708002980.67
2081762.0,1708002980.709
2082858.0,1708002980.787
2083307.0,1708002980.826
2084025.0,1708002980.865
2082169.0,1708002980.748
2084647.0,1708002980.904
2086024.0,1708002980.984
2086894.0,1708002981.024
2087724.0,1708002981.064
2088500.0,1708002981.104
2089549.0,1708002981.144
2090638.0,1708002981.184
2091310.0,1708002981.224
2090718.0,1708002981.264
2088890.0,1708002981.304
2087550.0,1708002981.344
2086287.0,1708002981.384
2084791.0,1708002981.464
2084539.0,1708002981.504
2085228.0,1708002981.424
2084515.0,1708002981.544
2083996.0,1708002981.584
2083658.0,1708002981.624
2085301.0,1708002980.944
2083401.0,1708002981.664
2083375.0,1708002981.704
2083547.0,1708002981.744
2083892.0,1708002981.784
2084405.0,1708002981.824
2084693.0,1708002981.864
2085354.0,1708002981.904
2085746.0,1708002981.944
2086355.0,1708002981.984
2086842.0,1708002982.024
2087619.0,1708002982.064
2088147.0,1708002982.104
2088834.0,1708002982.144
2089421.0,1708002982.184
2090340.0,1708002982.224
2091195.0,1708002982.264
2091787.0,1708002982.304
2090699.0,1708002982.344
2089370.0,1708002982.384
2088227.0,1708002982.424
2087410.0,1708002982.464
2087191.0,1708002982.504
2087279.0,1708002982.544
2087615.0,1708002982.584
2087326.0,1708002982.624
2087486.0,1708002982.664
2087355.0,1708002982.704
2087476.0,1708002982.744
2087966.0,1708002982.784
2088342.0,1708002982.824
2090624.0,1708002982.944
2089861.0,1708002982.904
2091384.0,1708002982.984
2092973.0,1708002983.064
2094022.0,1708002983.104
2095669.0,1708002983.184
2094790.0,1708002983.144
2096638.0,1708002983.224
2097356.0,1708002983.264
2098618.0,1708002983.304
2092221.0,1708002983.024
2089121.0,1708002982.864
2098476.0,1708002983.384
2096860.0,1708002983.424
2095732.0,1708002983.464
2094575.0,1708002983.504
2099260.0,1708002983.344
2093939.0,1708002983.544
2093701.0,1708002983.584
2093613.0,1708002983.624
2093425.0,1708002983.664
2092558.0,1708002983.744
2093089.0,1708002983.704
2092360.0,1708002983.784
2092357.0,1708002983.864
2092357.0,1708002983.824
2093025.0,1708002983.944
2093411.0,1708002983.984
2092771.0,1708002983.904
2094696.0,1708002984.064
2094064.0,1708002984.024
2095785.0,1708002984.144
2095119.0,1708002984.104
2096283.0,1708002984.184
2097070.0,1708002984.224
2097784.0,1708002984.264
2098436.0,1708002984.304
2099226.0,1708002984.344
2099920.0,1708002984.384
2100864.0,1708002984.424
2100777.0,1708002984.464
2099132.0,1708002984.504
2097254.0,1708002984.544
2095644.0,1708002984.584
2094464.0,1708002984.624
2093659.0,1708002984.664
2093345.0,1708002984.704
2092953.0,1708002984.744
2091791.0,1708002984.824
2092492.0,1708002984.784
2091355.0,1708002984.864
2090730.0,1708002984.944
2090820.0,1708002984.904
2090843.0,1708002984.984
2091040.0,1708002985.024
2091254.0,1708002985.064
2091701.0,1708002985.104
2092114.0,1708002985.144
2092462.0,1708002985.184
2092763.0,1708002985.224
2093327.0,1708002985.264
2093953.0,1708002985.304
2094560.0,1708002985.344
2095232.0,1708002985.384
2096185.0,1708002985.424
2096655.0,1708002985.504
2096926.0,1708002985.464
2093053.0,1708002985.584
2095084.0,1708002985.544
2091776.0,1708002985.624
2090398.0,1708002985.704
2090334.0,1708002985.744
2090873.0,1708002985.664
2090322.0,1708002985.784
2090164.0,1708002985.824
2089495.0,1708002985.864
2089541.0,1708002985.904
2089436.0,1708002985.944
2089556.0,1708002985.984
2090121.0,1708002986.024
2090760.0,1708002986.064
2091299.0,1708002986.104
2092154.0,1708002986.144
2092872.0,1708002986.184
2093711.0,1708002986.224
2094350.0,1708002986.264
2095165.0,1708002986.304
2095925.0,1708002986.344
2096908.0,1708002986.384
2097612.0,1708002986.424
2098724.0,1708002986.464
2099719.0,1708002986.504
2099478.0,1708002986.544
2097734.0,1708002986.584
2095934.0,1708002986.624
2094427.0,1708002986.664
2092847.0,1708002986.744
2092640.0,1708002986.824
2091846.0,1708002986.904
2091597.0,1708002986.944
2092303.0,1708002986.864
2091565.0,1708002986.984
2091652.0,1708002987.024
2092684.0,1708002986.784
2093589.0,1708002986.704
2092017.0,1708002987.064
2092609.0,1708002987.104
2093132.0,1708002987.144
2093823.0,1708002987.184
2094492.0,1708002987.224
2095234.0,1708002987.264
2095782.0,1708002987.304
2096497.0,1708002987.344
2097293.0,1708002987.384
2097904.0,1708002987.424
2098625.0,1708002987.464
2099427.0,1708002987.504
2100387.0,1708002987.544
2100172.0,1708002987.584
2098320.0,1708002987.624
2096607.0,1708002987.664
2095228.0,1708002987.704
2094239.0,1708002987.744
2093819.0,1708002987.784
2093764.0,1708002987.824
2093611.0,1708002987.864
2093185.0,1708002987.904
2092655.0,1708002987.944
2092243.0,1708002987.984
2091820.0,1708002988.024
2091950.0,1708002988.064
2092115.0,1708002988.104
2092546.0,1708002988.144
2092767.0,1708002988.184
2093307.0,1708002988.224
2093754.0,1708002988.264
2094022.0,1708002988.304
2094593.0,1708002988.344
2094986.0,1708002988.384
2095654.0,1708002988.424
2096289.0,1708002988.464
2097093.0,1708002988.504
2097250.0,1708002988.544
2096207.0,1708002988.584
2094453.0,1708002988.624
2093292.0,1708002988.664
2092525.0,1708002988.704
2092048.0,1708002988.744
2092141.0,1708002988.784
2092024.0,1708002988.824
2092067.0,1708002988.864
2091693.0,1708002988.904
2091350.0,1708002988.944
2091533.0,1708002988.984
2091819.0,1708002989.024
2092192.0,1708002989.064
2092766.0,1708002989.104
2093466.0,1708002989.144
2094118.0,1708002989.184
2094872.0,1708002989.224
2095543.0,1708002989.264
2096171.0,1708002989.304
2096907.0,1708002989.344
2097631.0,1708002989.384
2098597.0,1708002989.424
2099407.0,1708002989.464
2099301.0,1708002989.504
2097741.0,1708002989.544
2095959.0,1708002989.584
2094638.0,1708002989.624
2093669.0,1708002989.664
2093003.0,1708002989.704
2092813.0,1708002989.744
2092674.0,1708002989.784
2092314.0,1708002989.824
2091925.0,1708002989.864
2091557.0,1708002989.904
2091309.0,1708002989.944
2091450.0,1708002989.984
2091859.0,1708002990.024
2091859.0,1708002990.064
2092254.0,1708002990.104
2092792.0,1708002990.144
2093109.0,1708002990.184
2093827.0,1708002990.224
2094533.0,1708002990.264
2095189.0,1708002990.304
2095753.0,1708002990.344
2096434.0,1708002990.384
2097252.0,1708002990.424
2098150.0,1708002990.464
2098145.0,1708002990.504
2096696.0,1708002990.544
2094772.0,1708002990.584
2093402.0,1708002990.624
2092214.0,1708002990.664
2091218.0,1708002990.704
2091114.0,1708002990.744
2090943.0,1708002990.784
2090725.0,1708002990.824
2090208.0,1708002990.864
2089902.0,1708002990.904
2089735.0,1708002990.944
2089816.0,1708002990.984
2090143.0,1708002991.024
2090507.0,1708002991.064
2091049.0,1708002991.104
2091651.0,1708002991.144
2092391.0,1708002991.184
2092937.0,1708002991.224
2093736.0,1708002991.264
2094212.0,1708002991.304
2095221.0,1708002991.344
2095659.0,1708002991.384
2096666.0,1708002991.424
2097643.0,1708002991.464
2098375.0,1708002991.504
2098333.0,1708002991.544
2096923.0,1708002991.584
2095467.0,1708002991.624
2094405.0,1708002991.664
2093485.0,1708002991.704
2093342.0,1708002991.744
2093211.0,1708002991.783
2093202.0,1708002991.822
2093020.0,1708002991.861
2092722.0,1708002991.9
2092510.0,1708002991.939
2092526.0,1708002991.978
2092527.0,1708002992.017
2093032.0,1708002992.056
2093331.0,1708002992.095
2093860.0,1708002992.134
2094631.0,1708002992.173
2095204.0,1708002992.212
2095772.0,1708002992.251
2096351.0,1708002992.29
2096922.0,1708002992.329
2097710.0,1708002992.368
2098466.0,1708002992.407
2099303.0,1708002992.446
2100093.0,1708002992.485
2100460.0,1708002992.524
2099585.0,1708002992.563
2098545.0,1708002992.602
2097475.0,1708002992.641
2096973.0,1708002992.68
2096833.0,1708002992.719
2097163.0,1708002992.758
2097228.0,1708002992.797
2097263.0,1708002992.836
2097282.0,1708002992.875
2097282.0,1708002992.914
2097350.0,1708002992.953
2097274.0,1708002992.992
2097840.0,1708002993.031
2098394.0,1708002993.07
2098958.0,1708002993.109
2099743.0,1708002993.148
2100417.0,1708002993.187
2101363.0,1708002993.226
2102167.0,1708002993.265
2102901.0,1708002993.304
2103728.0,1708002993.343
2104421.0,1708002993.382
2105420.0,1708002993.421
2106303.0,1708002993.46
2107293.0,1708002993.499
2108042.0,1708002993.538
2107465.0,1708002993.577
2105806.0,1708002993.616
2104852.0,1708002993.655
2103714.0,1708002993.694
2102844.0,1708002993.733
2102448.0,1708002993.772
2102270.0,1708002993.811
2101961.0,1708002993.85
2101537.0,1708002993.889
2101003.0,1708002993.928
2100777.0,1708002993.967
2100694.0,1708002994.006
2100818.0,1708002994.045
2101097.0,1708002994.084
2101475.0,1708002994.123
2101969.0,1708002994.162
2102429.0,1708002994.201
2102899.0,1708002994.24
2103422.0,1708002994.279
2104049.0,1708002994.318
2104582.0,1708002994.357
2105318.0,1708002994.396
2105835.0,1708002994.435
2106658.0,1708002994.474
2107770.0,1708002994.513
2108249.0,1708002994.552
2107386.0,1708002994.591
2105348.0,1708002994.63
2103264.0,1708002994.669
2101629.0,1708002994.708
2100351.0,1708002994.747
2099468.0,1708002994.786
2098926.0,1708002994.825
2098413.0,1708002994.864
2097701.0,1708002994.903
2096744.0,1708002994.942
2096099.0,1708002994.981
2095630.0,1708002995.02
2095547.0,1708002995.059
2095513.0,1708002995.098
2095469.0,1708002995.137
2095886.0,1708002995.176
2096328.0,1708002995.215
2096652.0,1708002995.254
2097002.0,1708002995.293
2097325.0,1708002995.332
2097325.0,1708002995.371
2097643.0,1708002995.41
2098293.0,1708002995.449
2098749.0,1708002995.488
2099208.0,1708002995.527
2099998.0,1708002995.566
2100765.0,1708002995.605
2100643.0,1708002995.644
2098676.0,1708002995.683
2095923.0,1708002995.722
2093709.0,1708002995.761
2091802.0,1708002995.8
2090533.0,1708002995.839
2089578.0,1708002995.878
2089040.0,1708002995.917
2088287.0,1708002995.956
2087126.0,1708002995.995
2086188.0,1708002996.034
2085380.0,1708002996.073
2084873.0,1708002996.112
2084737.0,1708002996.151
2084802.0,1708002996.19
2084836.0,1708002996.229
2085110.0,1708002996.268
2085384.0,1708002996.307
2085538.0,1708002996.346
2085772.0,1708002996.385
2086117.0,1708002996.424
2086204.0,1708002996.463
2086568.0,1708002996.502
2087140.0,1708002996.541
2087677.0,1708002996.58
2088256.0,1708002996.619
2088703.0,1708002996.658
2087202.0,1708002996.697
2084594.0,1708002996.736
2082716.0,1708002996.775
2081184.0,1708002996.814
2080672.0,1708002996.853
2080393.0,1708002996.892
2080333.0,1708002996.931
2079947.0,1708002996.97
2079383.0,1708002997.009
2079008.0,1708002997.048
2078813.0,1708002997.087
2078914.0,1708002997.126
2079212.0,1708002997.165
2079433.0,1708002997.204
2080231.0,1708002997.243
2080872.0,1708002997.282
2081398.0,1708002997.321
2082197.0,1708002997.36
2083003.0,1708002997.399
2083680.0,1708002997.438
2084570.0,1708002997.477
2085339.0,1708002997.516
2086272.0,1708002997.555
2087207.0,1708002997.594
2087999.0,1708002997.633
2087326.0,1708002997.672
2084920.0,1708002997.711
2082921.0,1708002997.75
2081310.0,1708002997.789
2080341.0,1708002997.828
2079744.0,1708002997.867
2079553.0,1708002997.906
2079438.0,1708002997.945
2078887.0,1708002997.984
2078460.0,1708002998.024
2078172.0,1708002998.064
2077946.0,1708002998.104
2078343.0,1708002998.144
2078530.0,1708002998.184
2079429.0,1708002998.224
2080070.0,1708002998.264
2080656.0,1708002998.304
2081442.0,1708002998.344
2082245.0,1708002998.384
2082892.0,1708002998.424
2083532.0,1708002998.464
2084419.0,1708002998.504
2085274.0,1708002998.544
2086322.0,1708002998.584
2087104.0,1708002998.624
2086322.0,1708002998.664
2084432.0,1708002998.704
2082489.0,1708002998.744
2080903.0,1708002998.784
2079860.0,1708002998.824
2079425.0,1708002998.864
2079186.0,1708002998.904
2078990.0,1708002998.944
2078701.0,1708002998.984
2078114.0,1708002999.024
2077685.0,1708002999.064
2077487.0,1708002999.104
2077488.0,1708002999.144
2078022.0,1708002999.184
2078593.0,1708002999.224
2079183.0,1708002999.264
2079847.0,1708002999.304
2080439.0,1708002999.344
2080928.0,1708002999.384
2081669.0,1708002999.424
2082207.0,1708002999.464
2082955.0,1708002999.504
2083538.0,1708002999.544
2084254.0,1708002999.584
2085005.0,1708002999.624
2084216.0,1708002999.664
2082225.0,1708002999.704
2080232.0,1708002999.744
2078977.0,1708002999.784
2078086.0,1708002999.824
2077607.0,1708002999.864
2077750.0,1708002999.904
2077675.0,1708002999.944
2077061.0,1708002999.984
2076475.0,1708003000.024
2076113.0,1708003000.064
2076128.0,1708003000.104
2076207.0,1708003000.144
2076801.0,1708003000.184
2077347.0,1708003000.224
2077833.0,1708003000.264
2078437.0,1708003000.304
2079266.0,1708003000.344
2079758.0,1708003000.384
2080414.0,1708003000.424
2080414.0,1708003000.464
2081236.0,1708003000.504
2081774.0,1708003000.544
2082759.0,1708003000.584
2083356.0,1708003000.624
2082698.0,1708003000.664
2080378.0,1708003000.704
2078411.0,1708003000.744
2076927.0,1708003000.784
2075766.0,1708003000.824
2075529.0,1708003000.864
2075351.0,1708003000.904
2075172.0,1708003000.944
2074458.0,1708003000.984
2074026.0,1708003001.024
2073622.0,1708003001.064
2073477.0,1708003001.104
2073570.0,1708003001.144
2073955.0,1708003001.184
2074321.0,1708003001.224
2074811.0,1708003001.264
2075458.0,1708003001.304
2076178.0,1708003001.344
2076734.0,1708003001.384
2077235.0,1708003001.424
2077664.0,1708003001.464
2078598.0,1708003001.504
2079187.0,1708003001.544
2079903.0,1708003001.584
2080713.0,1708003001.624
2079321.0,1708003001.664
2076726.0,1708003001.704
2074392.0,1708003001.744
2072477.0,1708003001.784
2071163.0,1708003001.824
2070193.0,1708003001.864
2069758.0,1708003001.904
2069203.0,1708003001.944
2068408.0,1708003001.984
2067485.0,1708003002.024
2066851.0,1708003002.064
2066495.0,1708003002.104
2066210.0,1708003002.144
2066583.0,1708003002.184
2066925.0,1708003002.224
2067415.0,1708003002.264
2067806.0,1708003002.304
2068175.0,1708003002.344
2068736.0,1708003002.384
2069202.0,1708003002.424
2069762.0,1708003002.464
2070601.0,1708003002.504
2071276.0,1708003002.544
2072002.0,1708003002.584
2072817.0,1708003002.624
2073609.0,1708003002.664
2072417.0,1708003002.704
2069856.0,1708003002.744
2067136.0,1708003002.784
2065314.0,1708003002.824
2063789.0,1708003002.864
2062653.0,1708003002.904
2062224.0,1708003002.944
2061695.0,1708003002.984
2061036.0,1708003003.024
2060297.0,1708003003.064
2059536.0,1708003003.104
2059099.0,1708003003.144
2059054.0,1708003003.184
2059318.0,1708003003.224
2059693.0,1708003003.264
2060282.0,1708003003.304
2060615.0,1708003003.344
2061377.0,1708003003.384
2061805.0,1708003003.424
2062570.0,1708003003.464
2062973.0,1708003003.504
2063849.0,1708003003.544
2064614.0,1708003003.584
2065219.0,1708003003.635
2066193.0,1708003003.675
2066994.0,1708003003.716
2067063.0,1708003003.756
2065087.0,1708003003.795
2062620.0,1708003003.836
2060607.0,1708003003.875
2059276.0,1708003003.915
2058568.0,1708003003.957
2058343.0,1708003003.995
2058155.0,1708003004.035
2057784.0,1708003004.076
2057292.0,1708003004.115
2056854.0,1708003004.156
2056774.0,1708003004.197
2056867.0,1708003004.236
2057218.0,1708003004.276
2057739.0,1708003004.317
2058682.0,1708003004.356
2059399.0,1708003004.396
2060249.0,1708003004.434
2061038.0,1708003004.473
2061934.0,1708003004.514
2062781.0,1708003004.556
2063711.0,1708003004.594
2064678.0,1708003004.634
2065908.0,1708003004.676
2066963.0,1708003004.715
2067880.0,1708003004.756
2067975.0,1708003004.794
2066172.0,1708003004.834
2064308.0,1708003004.874
2062851.0,1708003004.915
2062014.0,1708003004.951
2061600.0,1708003004.99
2061687.0,1708003005.031
2061717.0,1708003005.07
2061704.0,1708003005.11
2061454.0,1708003005.152
2061410.0,1708003005.191
2061542.0,1708003005.231
2062096.0,1708003005.272
2062533.0,1708003005.311
2063495.0,1708003005.351
2064332.0,1708003005.392
2065270.0,1708003005.431
2066292.0,1708003005.471
2067205.0,1708003005.512
2068115.0,1708003005.552
2069170.0,1708003005.591
2070305.0,1708003005.632
2071374.0,1708003005.672
2072374.0,1708003005.712
2073520.0,1708003005.755
2074718.0,1708003005.794
2075776.0,1708003005.834
2076500.0,1708003005.875
2073341.0,1708003005.955
2071858.0,1708003005.995
2070872.0,1708003006.035
2070351.0,1708003006.075
2070136.0,1708003006.116
2075343.0,1708003005.914
2070157.0,1708003006.153
2069913.0,1708003006.188
2069592.0,1708003006.35
2070113.0,1708003006.388
2069663.0,1708003006.229
2069377.0,1708003006.308
2069506.0,1708003006.268
2071241.0,1708003006.469
2070477.0,1708003006.428
2072862.0,1708003006.549
2073591.0,1708003006.59
2071928.0,1708003006.508
2075228.0,1708003006.669
2074269.0,1708003006.629
2077000.0,1708003006.749
2076174.0,1708003006.71
2077933.0,1708003006.789
2079008.0,1708003006.83
2080021.0,1708003006.87
2081227.0,1708003006.907
2082188.0,1708003006.943
2083029.0,1708003006.977
2081956.0,1708003007.015
2079974.0,1708003007.056
2078734.0,1708003007.095
2077677.0,1708003007.136
2077176.0,1708003007.177
2076990.0,1708003007.256
2076778.0,1708003007.216
2076833.0,1708003007.298
2076485.0,1708003007.336
2076260.0,1708003007.375
2076210.0,1708003007.411
2076330.0,1708003007.45
2076537.0,1708003007.49
2076960.0,1708003007.532
2077476.0,1708003007.57
2078290.0,1708003007.61
2078934.0,1708003007.651
2079685.0,1708003007.69
2080344.0,1708003007.731
2081064.0,1708003007.771
2081816.0,1708003007.81
2082585.0,1708003007.851
2083254.0,1708003007.892
2084292.0,1708003007.931
2085131.0,1708003007.971
2086088.0,1708003008.012
2086970.0,1708003008.051
2087628.0,1708003008.091
2086530.0,1708003008.13
2084852.0,1708003008.163
2083330.0,1708003008.197
2082307.0,1708003008.235
2081798.0,1708003008.275
2081588.0,1708003008.316
2081820.0,1708003008.356
2081738.0,1708003008.395
2081461.0,1708003008.436
2080977.0,1708003008.477
2080749.0,1708003008.517
2080908.0,1708003008.556
2081093.0,1708003008.595
2081361.0,1708003008.635
2082069.0,1708003008.675
2082686.0,1708003008.717
2082686.0,1708003008.748
2083285.0,1708003008.789
2084024.0,1708003008.83
2084629.0,1708003008.869
2085445.0,1708003008.909
2086076.0,1708003008.95
2086877.0,1708003008.989
2087629.0,1708003009.029
2088485.0,1708003009.07
2089346.0,1708003009.11
2090339.0,1708003009.149
2090794.0,1708003009.19
2089533.0,1708003009.229
2087686.0,1708003009.269
2086015.0,1708003009.311
2084800.0,1708003009.35
2084198.0,1708003009.39
2083907.0,1708003009.469
2083911.0,1708003009.432
2083163.0,1708003009.546
2082405.0,1708003009.617
2083515.0,1708003009.505
2082718.0,1708003009.577
2082435.0,1708003009.697
2082316.0,1708003009.657
2083346.0,1708003009.778
2082764.0,1708003009.736
2083683.0,1708003009.817
2084422.0,1708003009.857
2084917.0,1708003009.899
2085508.0,1708003009.938
2086257.0,1708003009.975
2086639.0,1708003010.016
2087614.0,1708003010.055
2088239.0,1708003010.096
2088863.0,1708003010.136
2089965.0,1708003010.176
2090792.0,1708003010.216
2090964.0,1708003010.257
2089414.0,1708003010.296
2087227.0,1708003010.336
2085374.0,1708003010.377
2083852.0,1708003010.416
2083141.0,1708003010.456
2082667.0,1708003010.498
2082440.0,1708003010.536
2082231.0,1708003010.576
2081450.0,1708003010.617
2080849.0,1708003010.656
2080353.0,1708003010.698
2080077.0,1708003010.739
2080114.0,1708003010.778
2080631.0,1708003010.816
2080808.0,1708003010.857
2081258.0,1708003010.897
2081841.0,1708003010.937
2082445.0,1708003010.978
2082703.0,1708003011.017
2083367.0,1708003011.057
2083850.0,1708003011.1
2084600.0,1708003011.136
2085251.0,1708003011.175
2085905.0,1708003011.209
2086762.0,1708003011.248
2087481.0,1708003011.288
2087596.0,1708003011.329
2085876.0,1708003011.368
2083607.0,1708003011.408
2081837.0,1708003011.449
2080487.0,1708003011.489
2079565.0,1708003011.528
2079236.0,1708003011.569
2079092.0,1708003011.608
2078660.0,1708003011.648
2077891.0,1708003011.69
2077321.0,1708003011.728
2076763.0,1708003011.768
2076725.0,1708003011.81
2077003.0,1708003011.849
2077082.0,1708003011.885
2077462.0,1708003011.919
2077908.0,1708003011.955
2078240.0,1708003011.996
2078703.0,1708003012.037
2079301.0,1708003012.077
2079744.0,1708003012.117
2080293.0,1708003012.157
2080962.0,1708003012.196
2081636.0,1708003012.237
2082383.0,1708003012.279
2083309.0,1708003012.317
2082826.0,1708003012.357
2081148.0,1708003012.399
2079351.0,1708003012.435
2078262.0,1708003012.475
2077621.0,1708003012.516
2077197.0,1708003012.555
2077523.0,1708003012.595
2077454.0,1708003012.636
2077250.0,1708003012.676
2077013.0,1708003012.715
2077106.0,1708003012.756
2076985.0,1708003012.795
2077584.0,1708003012.835
2077960.0,1708003012.877
2078554.0,1708003012.915
2079404.0,1708003012.955
2080174.0,1708003012.996
2080958.0,1708003013.035
2081721.0,1708003013.076
2082561.0,1708003013.117
2083505.0,1708003013.156
2084302.0,1708003013.196
2085118.0,1708003013.237
2086198.0,1708003013.277
2086971.0,1708003013.316
2087216.0,1708003013.357
2085829.0,1708003013.396
2083870.0,1708003013.436
2082594.0,1708003013.478
2081541.0,1708003013.517
2081032.0,1708003013.557
2080829.0,1708003013.598
2080883.0,1708003013.637
2080883.0,1708003013.674
2080753.0,1708003013.715
2080445.0,1708003013.754
2080023.0,1708003013.794
2080012.0,1708003013.835
2080108.0,1708003013.874
2080624.0,1708003013.914
2081125.0,1708003013.955
2081616.0,1708003013.994
2082203.0,1708003014.034
2083068.0,1708003014.076
2083571.0,1708003014.114
2084402.0,1708003014.154
2084986.0,1708003014.195
2085715.0,1708003014.235
2086710.0,1708003014.275
2087496.0,1708003014.316
2088471.0,1708003014.355
2088539.0,1708003014.396
2087007.0,1708003014.437
2085328.0,1708003014.477
2084071.0,1708003014.516
2083123.0,1708003014.557
2082613.0,1708003014.597
2082396.0,1708003014.637
2082518.0,1708003014.679
2082270.0,1708003014.717
2081809.0,1708003014.758
2081611.0,1708003014.799
2081596.0,1708003014.838
2081795.0,1708003014.871
2082065.0,1708003014.912
2082701.0,1708003014.951
2083256.0,1708003014.991
2083963.0,1708003015.032
2084721.0,1708003015.071
2085308.0,1708003015.111
2086106.0,1708003015.152
2086760.0,1708003015.191
2087479.0,1708003015.231
2088387.0,1708003015.273
2089117.0,1708003015.311
2090073.0,1708003015.351
2090871.0,1708003015.392
2090382.0,1708003015.431
2088696.0,1708003015.472
2087100.0,1708003015.513
2085767.0,1708003015.535
2085016.0,1708003015.575
2084669.0,1708003015.616
2084609.0,1708003015.655
2084356.0,1708003015.695
2084070.0,1708003015.736
2083435.0,1708003015.775
2083082.0,1708003015.815
2082981.0,1708003015.857
2083122.0,1708003015.895
2083203.0,1708003015.935
2083816.0,1708003015.976
2084181.0,1708003016.016
2084593.0,1708003016.057
2084958.0,1708003016.087
2085502.0,1708003016.126
2086029.0,1708003016.166
2086597.0,1708003016.207
2087033.0,1708003016.247
2087636.0,1708003016.287
2088458.0,1708003016.328
2089089.0,1708003016.367
2089738.0,1708003016.407
2088559.0,1708003016.448
2086433.0,1708003016.487
2084937.0,1708003016.527
2083495.0,1708003016.568
2082726.0,1708003016.607
2082614.0,1708003016.648
2082272.0,1708003016.688
2081880.0,1708003016.727
2081153.0,1708003016.767
2080646.0,1708003016.808
2080212.0,1708003016.849
2080177.0,1708003016.883
2080238.0,1708003016.922
2080311.0,1708003016.961
2080685.0,1708003017.001
2080967.0,1708003017.043
2081472.0,1708003017.082
2081713.0,1708003017.122
2082206.0,1708003017.164
2082685.0,1708003017.203
2083258.0,1708003017.242
2083674.0,1708003017.282
2084361.0,1708003017.321
2085010.0,1708003017.361
2085628.0,1708003017.402
2086053.0,1708003017.441
2084275.0,1708003017.481
2081445.0,1708003017.522
2078584.0,1708003017.561
2076547.0,1708003017.601
2074706.0,1708003017.643
2073428.0,1708003017.681
2072401.0,1708003017.721
2071373.0,1708003017.762
2070007.0,1708003017.801
2068604.0,1708003017.842
2067500.0,1708003017.882
2066856.0,1708003017.921
2066337.0,1708003017.961
2066106.0,1708003018.003
2065998.0,1708003018.043
2066202.0,1708003018.083
2066260.0,1708003018.124
2066352.0,1708003018.16
2066656.0,1708003018.2
2066824.0,1708003018.242
2067176.0,1708003018.28
2067528.0,1708003018.32
2067968.0,1708003018.363
2068443.0,1708003018.402
2069196.0,1708003018.442
2069703.0,1708003018.483
2068808.0,1708003018.523
2065520.0,1708003018.56
2061503.0,1708003018.601
2058254.0,1708003018.641
2055613.0,1708003018.68
2053404.0,1708003018.721
2052030.0,1708003018.76
2050687.0,1708003018.8
2049299.0,1708003018.842
2047903.0,1708003018.88
2046791.0,1708003018.92
2045640.0,1708003018.961
2045161.0,1708003019.0
2045057.0,1708003019.041
2045167.0,1708003019.082
2045635.0,1708003019.12
2046016.0,1708003019.161
2046508.0,1708003019.202
2046916.0,1708003019.242
2047284.0,1708003019.282
2047949.0,1708003019.323
2048605.0,1708003019.362
2049399.0,1708003019.402
2050104.0,1708003019.445
2051044.0,1708003019.483
2052205.0,1708003019.523
2053052.0,1708003019.565
2052381.0,1708003019.602
2048751.0,1708003019.642
2045028.0,1708003019.683
2041759.0,1708003019.722
2039553.0,1708003019.762
2038166.0,1708003019.797
2037419.0,1708003019.837
2037007.0,1708003019.876
2036081.0,1708003019.917
2035300.0,1708003019.956
2034558.0,1708003019.996
2034151.0,1708003020.038
2034244.0,1708003020.076
2034603.0,1708003020.116
2035211.0,1708003020.157
2035988.0,1708003020.196
2036881.0,1708003020.237
2037684.0,1708003020.278
2038531.0,1708003020.317
2039394.0,1708003020.357
2040361.0,1708003020.398
2041144.0,1708003020.437
2042319.0,1708003020.478
2043379.0,1708003020.517
2044420.0,1708003020.557
2045807.0,1708003020.595
2046977.0,1708003020.632
2047656.0,1708003020.671
2045247.0,1708003020.703
2041379.0,1708003020.741
2038225.0,1708003020.781
2036140.0,1708003020.822
2034575.0,1708003020.862
2034021.0,1708003020.901
2033916.0,1708003020.941
2033636.0,1708003020.983
2033636.0,1708003021.018
2033071.0,1708003021.057
2032365.0,1708003021.098
2031906.0,1708003021.137
2032108.0,1708003021.177
2032525.0,1708003021.219
2033142.0,1708003021.258
2034002.0,1708003021.298
2035185.0,1708003021.339
2035980.0,1708003021.378
2036974.0,1708003021.419
2037878.0,1708003021.459
2038897.0,1708003021.498
2039633.0,1708003021.538
2040804.0,1708003021.579
2041700.0,1708003021.619
2042737.0,1708003021.658
2043970.0,1708003021.7
2045115.0,1708003021.74
2045376.0,1708003021.78
2042684.0,1708003021.822
2039209.0,1708003021.861
2036550.0,1708003021.901
2034846.0,1708003021.943
2034245.0,1708003021.981
2034264.0,1708003022.022
2034525.0,1708003022.063
2034285.0,1708003022.102
2033778.0,1708003022.142
2033297.0,1708003022.184
2033066.0,1708003022.223
2033433.0,1708003022.26
2033965.0,1708003022.301
2034891.0,1708003022.34
2035774.0,1708003022.38
2036852.0,1708003022.422
2037802.0,1708003022.46
2038680.0,1708003022.5
2039671.0,1708003022.541
2040549.0,1708003022.58
2041393.0,1708003022.621
2042511.0,1708003022.661
2043594.0,1708003022.7
2044363.0,1708003022.74
2042996.0,1708003022.781
2039963.0,1708003022.821
2037478.0,1708003022.861
2035994.0,1708003022.902
2035484.0,1708003022.942
2035628.0,1708003022.982
2036165.0,1708003023.023
2036293.0,1708003023.062
2036260.0,1708003023.102
2035940.0,1708003023.143
2035867.0,1708003023.182
2036316.0,1708003023.223
2037190.0,1708003023.264
2038225.0,1708003023.301
2039218.0,1708003023.341
2040504.0,1708003023.382
2041535.0,1708003023.421
2042686.0,1708003023.453
2043643.0,1708003023.494
2044759.0,1708003023.533
2045861.0,1708003023.573
2047022.0,1708003023.615
2048363.0,1708003023.653
2048067.0,1708003023.693
2045639.0,1708003023.734
2042946.0,1708003023.773
2040791.0,1708003023.814
2039651.0,1708003023.855
2039066.0,1708003023.894
2039043.0,1708003023.934
2039156.0,1708003023.975
2039070.0,1708003024.015
2038665.0,1708003024.054
2038677.0,1708003024.095
2038857.0,1708003024.134
2039339.0,1708003024.175
2040366.0,1708003024.211
2041354.0,1708003024.25
2042340.0,1708003024.285
2043722.0,1708003024.324
2044866.0,1708003024.363
2046014.0,1708003024.404
2047213.0,1708003024.445
2048461.0,1708003024.484
2049765.0,1708003024.524
2051257.0,1708003024.566
2052381.0,1708003024.605
2051506.0,1708003024.645
2049317.0,1708003024.683
2047096.0,1708003024.72
2045776.0,1708003024.76
2044675.0,1708003024.802
2044377.0,1708003024.84
2044482.0,1708003024.881
2044521.0,1708003024.922
2044349.0,1708003024.961
2044294.0,1708003025.001
2044378.0,1708003025.042
2044592.0,1708003025.081
2045507.0,1708003025.121
2046270.0,1708003025.162
2047400.0,1708003025.202
2048417.0,1708003025.241
2049599.0,1708003025.282
2050685.0,1708003025.321
2051797.0,1708003025.361
2052808.0,1708003025.404
2053898.0,1708003025.443
2055195.0,1708003025.483
2056506.0,1708003025.524
2057896.0,1708003025.563
2059136.0,1708003025.604
2058357.0,1708003025.645
2056555.0,1708003025.684
2054825.0,1708003025.724
2053409.0,1708003025.766
2052562.0,1708003025.806
2052140.0,1708003025.844
2052379.0,1708003025.885
2052144.0,1708003025.921
2052041.0,1708003025.961
2051707.0,1708003026.003
2051845.0,1708003026.042
2051958.0,1708003026.082
2052534.0,1708003026.123
2053245.0,1708003026.162
2054000.0,1708003026.203
2054857.0,1708003026.243
2055780.0,1708003026.282
2056792.0,1708003026.322
2057711.0,1708003026.363
2058430.0,1708003026.403
2059674.0,1708003026.442
2060664.0,1708003026.483
2061820.0,1708003026.522
2063152.0,1708003026.562
2064400.0,1708003026.605
2065314.0,1708003026.643
2064601.0,1708003026.684
2063046.0,1708003026.725
2061845.0,1708003026.764
2060677.0,1708003026.805
2060079.0,1708003026.846
2059997.0,1708003026.885
2060105.0,1708003026.925
2060352.0,1708003026.966
2060190.0,1708003027.006
2060137.0,1708003027.044
2060403.0,1708003027.085
2060786.0,1708003027.125
2061468.0,1708003027.162
2062200.0,1708003027.203
2063091.0,1708003027.242
2064156.0,1708003027.282
2064987.0,1708003027.323
2065907.0,1708003027.362
2066843.0,1708003027.403
2067666.0,1708003027.443
2068641.0,1708003027.526
2069763.0,1708003027.566
2070917.0,1708003027.607
2072072.0,1708003027.647
2073161.0,1708003027.686
2074468.0,1708003027.727
2075806.0,1708003027.766
2076851.0,1708003027.806
2076265.0,1708003027.848
2074877.0,1708003027.887
2073240.0,1708003027.927
2071946.0,1708003027.969
2070851.0,1708003028.008
2070162.0,1708003028.049
2070030.0,1708003028.09
2069930.0,1708003028.129
2069588.0,1708003028.169
2069271.0,1708003028.21
2068913.0,1708003028.25
2068825.0,1708003028.29
2069095.0,1708003028.331
2069571.0,1708003028.37
2069869.0,1708003028.408
2070633.0,1708003028.449
2071174.0,1708003028.487
2071724.0,1708003028.522
2072489.0,1708003028.563
2072985.0,1708003028.602
2073768.0,1708003028.643
2074507.0,1708003028.683
2075287.0,1708003028.722
2076025.0,1708003028.762
2076463.0,1708003028.803
2077658.0,1708003028.843
2078424.0,1708003028.883
2079467.0,1708003028.924
2080258.0,1708003028.963
2080838.0,1708003029.003
2079667.0,1708003029.045
2077836.0,1708003029.083
2076005.0,1708003029.123
2074363.0,1708003029.164
2073182.0,1708003029.203
2072654.0,1708003029.239
2072358.0,1708003029.271
2072060.0,1708003029.307
2071460.0,1708003029.348
2071053.0,1708003029.389
2070631.0,1708003029.429
2070651.0,1708003029.469
2070787.0,1708003029.51
2071345.0,1708003029.549
2071913.0,1708003029.589
2072674.0,1708003029.631
2073253.0,1708003029.668
2074100.0,1708003029.708
2074710.0,1708003029.749
2075496.0,1708003029.788
2076192.0,1708003029.829
2077217.0,1708003029.87
2078086.0,1708003029.909
2078909.0,1708003029.949
2080056.0,1708003029.99
2081066.0,1708003030.03
2081928.0,1708003030.069
2082417.0,1708003030.11
2077148.0,1708003030.231
2080807.0,1708003030.149
2075581.0,1708003030.269
2079027.0,1708003030.189
2074055.0,1708003030.351
2074543.0,1708003030.31
2073742.0,1708003030.43
2073815.0,1708003030.39
2073082.0,1708003030.471
2072829.0,1708003030.51
2072572.0,1708003030.589
2072567.0,1708003030.548
2072852.0,1708003030.629
2073479.0,1708003030.669
2073921.0,1708003030.71
2074711.0,1708003030.749
2075459.0,1708003030.789
2076043.0,1708003030.831
2076842.0,1708003030.87
2077666.0,1708003030.908
2078541.0,1708003030.949
2079547.0,1708003030.988
2080441.0,1708003031.028
2081295.0,1708003031.068
2081295.0,1708003031.099
2082295.0,1708003031.139
2083419.0,1708003031.18
2084407.0,1708003031.22
2085281.0,1708003031.259
2084336.0,1708003031.301
2082344.0,1708003031.34
2080341.0,1708003031.38
2078612.0,1708003031.422
2077343.0,1708003031.46
2076638.0,1708003031.5
2076528.0,1708003031.541
2076148.0,1708003031.58
2075680.0,1708003031.621
2075183.0,1708003031.661
2074683.0,1708003031.7
2074418.0,1708003031.74
2074458.0,1708003031.782
2074840.0,1708003031.818
2075282.0,1708003031.857
2075645.0,1708003031.892
2076288.0,1708003031.929
2076779.0,1708003031.969
2077472.0,1708003032.012
2077994.0,1708003032.05
2078552.0,1708003032.09
2079247.0,1708003032.132
2079756.0,1708003032.171
2080862.0,1708003032.212
2081796.0,1708003032.251
2082739.0,1708003032.289
2082274.0,1708003032.33
2080308.0,1708003032.371
2078509.0,1708003032.411
2077157.0,1708003032.45
2076298.0,1708003032.491
2076046.0,1708003032.53
2076243.0,1708003032.57
2076428.0,1708003032.612
2076388.0,1708003032.651
2076173.0,1708003032.691
2076153.0,1708003032.732
2076509.0,1708003032.771
2076697.0,1708003032.811
2077395.0,1708003032.852
2078239.0,1708003032.891
2079196.0,1708003032.931
2080011.0,1708003032.972
2080861.0,1708003033.013
2081757.0,1708003033.05
2082550.0,1708003033.091
2083421.0,1708003033.13
2084271.0,1708003033.17
2085398.0,1708003033.212
2086325.0,1708003033.251
2087454.0,1708003033.291
2087241.0,1708003033.332
2085422.0,1708003033.372
2083482.0,1708003033.41
2081662.0,1708003033.451
2080448.0,1708003033.49
2079605.0,1708003033.53
2079389.0,1708003033.566
2079269.0,1708003033.605
2078923.0,1708003033.645
2078672.0,1708003033.686
2078327.0,1708003033.725
2077956.0,1708003033.765
2078127.0,1708003033.807
2078473.0,1708003033.845
2079092.0,1708003033.885
2079698.0,1708003033.926
2080434.0,1708003033.966
2081056.0,1708003034.006
2081824.0,1708003034.047
2082670.0,1708003034.086
2083299.0,1708003034.126
2084153.0,1708003034.167
2084935.0,1708003034.207
2085843.0,1708003034.244
2086829.0,1708003034.283
2086381.0,1708003034.322
2084226.0,1708003034.357
2081663.0,1708003034.393
2077740.0,1708003034.469
2079558.0,1708003034.429
2076552.0,1708003034.511
2076122.0,1708003034.55
2075623.0,1708003034.591
2074926.0,1708003034.631
2074138.0,1708003034.671
2073502.0,1708003034.711
2072838.0,1708003034.752
2072838.0,1708003034.787
2072594.0,1708003034.826
2072749.0,1708003034.867
2073082.0,1708003034.907
2073321.0,1708003034.947
2073885.0,1708003034.988
2074281.0,1708003035.027
2074765.0,1708003035.067
2075129.0,1708003035.108
2075592.0,1708003035.147
2076019.0,1708003035.188
2076717.0,1708003035.228
2077305.0,1708003035.267
2077945.0,1708003035.308
2077380.0,1708003035.349
2075109.0,1708003035.389
2072263.0,1708003035.428
2069911.0,1708003035.47
2068161.0,1708003035.509
2067323.0,1708003035.55
2066787.0,1708003035.591
2066636.0,1708003035.629
2065861.0,1708003035.67
2065328.0,1708003035.711
2064660.0,1708003035.75
2064387.0,1708003035.791
2064271.0,1708003035.832
2064727.0,1708003035.871
2065181.0,1708003035.911
2065870.0,1708003035.951
2066411.0,1708003035.99
2067057.0,1708003036.027
2067725.0,1708003036.068
2068296.0,1708003036.107
2069061.0,1708003036.147
2069780.0,1708003036.189
2070657.0,1708003036.227
2070804.0,1708003036.267
2068895.0,1708003036.308
2066019.0,1708003036.348
2063651.0,1708003036.388
2061773.0,1708003036.429
2060247.0,1708003036.468
2059913.0,1708003036.508
2059514.0,1708003036.549
2059322.0,1708003036.589
2058595.0,1708003036.628
2058027.0,1708003036.669
2057483.0,1708003036.708
2057502.0,1708003036.749
2057815.0,1708003036.792
2058324.0,1708003036.83
2058969.0,1708003036.87
2059814.0,1708003036.911
2060670.0,1708003036.95
2061308.0,1708003036.991
2062160.0,1708003037.032
2062705.0,1708003037.071
2063748.0,1708003037.111
2064744.0,1708003037.153
2065426.0,1708003037.193
2063988.0,1708003037.224
2061194.0,1708003037.265
2058841.0,1708003037.304
2056873.0,1708003037.344
2055469.0,1708003037.386
2054743.0,1708003037.424
2054728.0,1708003037.464
2054512.0,1708003037.506
2054023.0,1708003037.545
2053498.0,1708003037.585
2053087.0,1708003037.626
2053213.0,1708003037.665
2053707.0,1708003037.705
2054378.0,1708003037.746
2055158.0,1708003037.786
2056015.0,1708003037.825
2056800.0,1708003037.866
2057604.0,1708003037.905
2058357.0,1708003037.938
2059272.0,1708003037.975
2060163.0,1708003038.011
2061042.0,1708003038.051
2062277.0,1708003038.093
2062579.0,1708003038.132
2060707.0,1708003038.173
2058679.0,1708003038.213
2056979.0,1708003038.253
2055758.0,1708003038.293
2055214.0,1708003038.334
2055264.0,1708003038.372
2055566.0,1708003038.411
2055319.0,1708003038.453
2055223.0,1708003038.492
2054960.0,1708003038.532
2055002.0,1708003038.573
2055528.0,1708003038.612
2056007.0,1708003038.652
2056956.0,1708003038.693
2057663.0,1708003038.732
2058560.0,1708003038.773
2059454.0,1708003038.813
2060419.0,1708003038.852
2062271.0,1708003038.933
2061274.0,1708003038.892
2063269.0,1708003038.973
2064412.0,1708003039.012
2065261.0,1708003039.053
2064669.0,1708003039.092
2062777.0,1708003039.132
2061425.0,1708003039.173
2060346.0,1708003039.212
2060002.0,1708003039.252
2060289.0,1708003039.293
2060740.0,1708003039.332
2060832.0,1708003039.373
2060711.0,1708003039.414
2060904.0,1708003039.457
2060995.0,1708003039.497
2061633.0,1708003039.538
2062255.0,1708003039.578
2063384.0,1708003039.617
2064125.0,1708003039.658
2065251.0,1708003039.698
2066254.0,1708003039.738
2067418.0,1708003039.779
2068175.0,1708003039.818
2069358.0,1708003039.858
2070292.0,1708003039.899
2071463.0,1708003039.938
2072790.0,1708003039.978
2073799.0,1708003040.019
2073064.0,1708003040.058
2071332.0,1708003040.098
2069336.0,1708003040.139
2067871.0,1708003040.179
2066701.0,1708003040.218
2066286.0,1708003040.259
2066140.0,1708003040.298
2065873.0,1708003040.338
2065746.0,1708003040.381
2065201.0,1708003040.42
2064856.0,1708003040.46
2064752.0,1708003040.501
2065135.0,1708003040.54
2065615.0,1708003040.581
2066232.0,1708003040.622
2066983.0,1708003040.652
2067553.0,1708003040.692
2068529.0,1708003040.733
2069266.0,1708003040.773
2069981.0,1708003040.813
2070815.0,1708003040.854
2071631.0,1708003040.893
2072443.0,1708003040.933
2073438.0,1708003040.975
2074401.0,1708003041.013
2074173.0,1708003041.053
2071743.0,1708003041.094
2069250.0,1708003041.133
2066950.0,1708003041.174
2065370.0,1708003041.214
2064179.0,1708003041.253
2063443.0,1708003041.293
2063150.0,1708003041.335
2062493.0,1708003041.374
2061480.0,1708003041.414
2061015.0,1708003041.455
2060566.0,1708003041.494
2060553.0,1708003041.534
2060744.0,1708003041.576
2061245.0,1708003041.614
2061668.0,1708003041.654
2062276.0,1708003041.696
2062979.0,1708003041.735
2063666.0,1708003041.775
2064354.0,1708003041.816
2064998.0,1708003041.855
2065913.0,1708003041.895
2066604.0,1708003041.936
2067508.0,1708003041.976
2068533.0,1708003042.015
2069316.0,1708003042.056
2069762.0,1708003042.095
2067681.0,1708003042.135
2064949.0,1708003042.177
2062442.0,1708003042.216
2060313.0,1708003042.256
2059007.0,1708003042.297
2058174.0,1708003042.336
2057989.0,1708003042.377
2057340.0,1708003042.417
2056677.0,1708003042.456
2055932.0,1708003042.496
2055381.0,1708003042.537
2055182.0,1708003042.577
2055400.0,1708003042.617
2055900.0,1708003042.658
2056599.0,1708003042.697
2057201.0,1708003042.737
2057767.0,1708003042.779
2058338.0,1708003042.817
2059065.0,1708003042.857
2059603.0,1708003042.898
2060293.0,1708003042.937
2061055.0,1708003042.978
2061863.0,1708003043.019
2062768.0,1708003043.058
2063752.0,1708003043.098
2064163.0,1708003043.139
2062674.0,1708003043.179
2060184.0,1708003043.218
2058068.0,1708003043.259
2056474.0,1708003043.298
2055742.0,1708003043.338
2055615.0,1708003043.38
2055965.0,1708003043.418
2055931.0,1708003043.458
2055557.0,1708003043.499
2055381.0,1708003043.539
2055264.0,1708003043.579
2055413.0,1708003043.62
2056252.0,1708003043.659
2056916.0,1708003043.699
2057906.0,1708003043.74
2058845.0,1708003043.78
2059894.0,1708003043.819
2060715.0,1708003043.86
2061895.0,1708003043.899
2063022.0,1708003043.939
2064000.0,1708003043.981
2065056.0,1708003044.019
2066212.0,1708003044.059
2067478.0,1708003044.1
2068447.0,1708003044.14
2067489.0,1708003044.18
2065197.0,1708003044.221
2063166.0,1708003044.26
2061873.0,1708003044.3
2060953.0,1708003044.341
2060560.0,1708003044.381
2060767.0,1708003044.42
2060693.0,1708003044.461
2060538.0,1708003044.5
2060195.0,1708003044.54
2060012.0,1708003044.582
2060329.0,1708003044.62
2060811.0,1708003044.661
2061438.0,1708003044.702
2062129.0,1708003044.741
2063115.0,1708003044.781
2064033.0,1708003044.822
2065017.0,1708003044.861
2065790.0,1708003044.901
2066796.0,1708003044.942
2067638.0,1708003044.982
2068596.0,1708003045.021
2069489.0,1708003045.062
2070716.0,1708003045.101
2071795.0,1708003045.141
2072323.0,1708003045.183
2070925.0,1708003045.222
2068201.0,1708003045.262
2065567.0,1708003045.303
2063709.0,1708003045.342
2062282.0,1708003045.383
2061358.0,1708003045.423
2060853.0,1708003045.462
2060201.0,1708003045.502
2059352.0,1708003045.543
2058341.0,1708003045.583
2057688.0,1708003045.622
2057222.0,1708003045.663
2057227.0,1708003045.703
2057550.0,1708003045.743
2057994.0,1708003045.784
2058525.0,1708003045.823
2058916.0,1708003045.863
2059505.0,1708003045.904
2060058.0,1708003045.943
2060656.0,1708003045.984
2061221.0,1708003046.024
2061670.0,1708003046.063
2062349.0,1708003046.103
2063111.0,1708003046.145
2063933.0,1708003046.185
2064759.0,1708003046.223
2064832.0,1708003046.263
2062291.0,1708003046.302
2058321.0,1708003046.342
2054664.0,1708003046.383
2052041.0,1708003046.422
2049987.0,1708003046.462
2048440.0,1708003046.504
2047504.0,1708003046.543
2046231.0,1708003046.584
2044815.0,1708003046.625
2043298.0,1708003046.67
2042237.0,1708003046.71
2041404.0,1708003046.751
2041092.0,1708003046.791
2040900.0,1708003046.831
2041123.0,1708003046.872
2041426.0,1708003046.911
2041737.0,1708003046.951
2041988.0,1708003046.992
2042333.0,1708003047.031
2042555.0,1708003047.071
2043020.0,1708003047.112
2043326.0,1708003047.151
2043769.0,1708003047.192
2044464.0,1708003047.232
2045147.0,1708003047.271
2044646.0,1708003047.311
2041353.0,1708003047.353
2036993.0,1708003047.393
2032975.0,1708003047.426
2030335.0,1708003047.465
2028755.0,1708003047.502
2027949.0,1708003047.542
2027368.0,1708003047.584
2026247.0,1708003047.623
2024798.0,1708003047.663
2023352.0,1708003047.704
2022660.0,1708003047.743
2022434.0,1708003047.784
2022652.0,1708003047.825
2023207.0,1708003047.862
2023592.0,1708003047.902
2024391.0,1708003047.943
2024977.0,1708003047.983
2025453.0,1708003048.022
2026177.0,1708003048.063
2026670.0,1708003048.102
2027296.0,1708003048.142
2028135.0,1708003048.184
2029135.0,1708003048.222
2029112.0,1708003048.262
2025857.0,1708003048.304
2020728.0,1708003048.343
2016756.0,1708003048.383
2013776.0,1708003048.424
2011917.0,1708003048.463
2011445.0,1708003048.503
2010960.0,1708003048.544
2010511.0,1708003048.584
2009368.0,1708003048.624
2008374.0,1708003048.663
2007813.0,1708003048.702
2007993.0,1708003048.743
2008367.0,1708003048.785
2009135.0,1708003048.823
2010226.0,1708003048.863
2011094.0,1708003048.905
2012216.0,1708003048.943
2013045.0,1708003048.981
2014145.0,1708003049.021
2014940.0,1708003049.06
2015573.0,1708003049.1
2016684.0,1708003049.14
2018128.0,1708003049.179
2018001.0,1708003049.219
2014210.0,1708003049.26
2009026.0,1708003049.299
2004764.0,1708003049.339
2001793.0,1708003049.381
1999931.0,1708003049.419
1999339.0,1708003049.459
1999073.0,1708003049.501
1998564.0,1708003049.54
1997875.0,1708003049.58
1997106.0,1708003049.621
1996663.0,1708003049.66
1996911.0,1708003049.7
1997537.0,1708003049.741
1998689.0,1708003049.781
1999861.0,1708003049.821
2001003.0,1708003049.863
2002139.0,1708003049.902
2003413.0,1708003049.942
2004508.0,1708003049.984
2005445.0,1708003050.023
2006631.0,1708003050.063
2007758.0,1708003050.105
2009217.0,1708003050.144
2010581.0,1708003050.184
2009713.0,1708003050.225
2005273.0,1708003050.265
2000553.0,1708003050.305
1997162.0,1708003050.338
1995105.0,1708003050.377
1994163.0,1708003050.417
1994113.0,1708003050.458
1994143.0,1708003050.497
1993808.0,1708003050.537
1993321.0,1708003050.579
1993005.0,1708003050.617
1993203.0,1708003050.657
1993936.0,1708003050.698
1994898.0,1708003050.738
1996232.0,1708003050.778
1997353.0,1708003050.819
1998731.0,1708003050.858
2000133.0,1708003050.898
2001366.0,1708003050.939
2002415.0,1708003050.979
2003708.0,1708003051.014
2004926.0,1708003051.05
2006361.0,1708003051.085
2007870.0,1708003051.122
2008675.0,1708003051.164
2006407.0,1708003051.202
2002629.0,1708003051.243
1999968.0,1708003051.284
1998453.0,1708003051.323
1997960.0,1708003051.364
1998694.0,1708003051.405
1999280.0,1708003051.444
1999615.0,1708003051.483
1999683.0,1708003051.522
1999976.0,1708003051.561
2000631.0,1708003051.6
2001629.0,1708003051.639
2003082.0,1708003051.678
2004766.0,1708003051.717
2006433.0,1708003051.756
2008100.0,1708003051.795
2009829.0,1708003051.834
2011643.0,1708003051.873
2013248.0,1708003051.912
2015076.0,1708003051.951
2016804.0,1708003051.99
2018442.0,1708003052.029
2020434.0,1708003052.068
2022555.0,1708003052.107
2022465.0,1708003052.146
2020064.0,1708003052.185
2017392.0,1708003052.224
2015907.0,1708003052.263
2014951.0,1708003052.302
2014694.0,1708003052.341
2015140.0,1708003052.38
2015667.0,1708003052.419
2016156.0,1708003052.458
2016407.0,1708003052.497
2016897.0,1708003052.536
2017775.0,1708003052.575
2018921.0,1708003052.614
2020337.0,1708003052.653
2021967.0,1708003052.692
2023700.0,1708003052.731
2023700.0,1708003052.77
2025501.0,1708003052.809
2028795.0,1708003052.887
2030418.0,1708003052.926
2026941.0,1708003052.848
2032350.0,1708003052.965
2034044.0,1708003053.004
2035885.0,1708003053.043
2037923.0,1708003053.082
2039735.0,1708003053.121
2041895.0,1708003053.16
2043353.0,1708003053.199
2042995.0,1708003053.238
2041104.0,1708003053.277
2039612.0,1708003053.316
2038864.0,1708003053.355
2038517.0,1708003053.394
2038489.0,1708003053.433
2039022.0,1708003053.472
2039651.0,1708003053.511
2039999.0,1708003053.55
2040200.0,1708003053.589
2040784.0,1708003053.628
2041419.0,1708003053.667
2042467.0,1708003053.706
2043741.0,1708003053.745
2045064.0,1708003053.784
2046412.0,1708003053.823
2047731.0,1708003053.862
2049290.0,1708003053.901
2050674.0,1708003053.94
2051922.0,1708003053.979
2053439.0,1708003054.018
2054896.0,1708003054.057
2056225.0,1708003054.096
2057758.0,1708003054.135
2059266.0,1708003054.174
2060902.0,1708003054.213
2062225.0,1708003054.252
2061887.0,1708003054.291
2060228.0,1708003054.33
2058936.0,1708003054.369
2057995.0,1708003054.408
2057615.0,1708003054.447
2057768.0,1708003054.486
2058162.0,1708003054.525
2058416.0,1708003054.564
2058334.0,1708003054.603
2058351.0,1708003054.642
2058510.0,1708003054.681
2058940.0,1708003054.72
2059519.0,1708003054.76
2060443.0,1708003054.8
2061418.0,1708003054.84
2062525.0,1708003054.88
2063655.0,1708003054.92
2064802.0,1708003054.96
2065727.0,1708003055.0
2066939.0,1708003055.04
2067978.0,1708003055.08
2069183.0,1708003055.12
2070368.0,1708003055.16
2071721.0,1708003055.2
2072934.0,1708003055.24
2073970.0,1708003055.28
2073156.0,1708003055.32
2070930.0,1708003055.36
2068663.0,1708003055.4
2066743.0,1708003055.44
2065509.0,1708003055.48
2064476.0,1708003055.52
2064152.0,1708003055.56
2063784.0,1708003055.6
2063133.0,1708003055.64
2062583.0,1708003055.68
2061983.0,1708003055.72
2061684.0,1708003055.76
2061753.0,1708003055.8
2062182.0,1708003055.84
2062692.0,1708003055.88
2063134.0,1708003055.92
2063895.0,1708003055.96
2064583.0,1708003056.0
2065271.0,1708003056.04
2066142.0,1708003056.08
2066859.0,1708003056.12
2067669.0,1708003056.16
2068418.0,1708003056.2
2069366.0,1708003056.24
2070520.0,1708003056.28
2071479.0,1708003056.32
2070900.0,1708003056.36
2067997.0,1708003056.4
2064542.0,1708003056.44
2062088.0,1708003056.48
2059976.0,1708003056.52
2058654.0,1708003056.56
2058006.0,1708003056.6
2057504.0,1708003056.64
2056676.0,1708003056.68
2055817.0,1708003056.72
2055168.0,1708003056.76
2054474.0,1708003056.8
2054660.0,1708003056.84
2055488.0,1708003056.92
2056040.0,1708003056.96
2054983.0,1708003056.88
2056825.0,1708003057.0
2057530.0,1708003057.04
2058496.0,1708003057.08
2059322.0,1708003057.12
2060064.0,1708003057.16
2060924.0,1708003057.2
2061698.0,1708003057.24
2062903.0,1708003057.28
2064017.0,1708003057.32
2064978.0,1708003057.36
2064374.0,1708003057.4
2061587.0,1708003057.44
2058739.0,1708003057.48
2056721.0,1708003057.52
2055380.0,1708003057.56
2054829.0,1708003057.6
2054942.0,1708003057.64
2054827.0,1708003057.68
2054411.0,1708003057.72
2054010.0,1708003057.76
2053702.0,1708003057.8
2053494.0,1708003057.84
2054071.0,1708003057.88
2054711.0,1708003057.92
2055456.0,1708003057.96
2056332.0,1708003058.0
2057290.0,1708003058.04
2058180.0,1708003058.08
2059282.0,1708003058.12
2060299.0,1708003058.16
2061246.0,1708003058.2
2062430.0,1708003058.24
2063679.0,1708003058.28
2064937.0,1708003058.32
2065701.0,1708003058.36
2064533.0,1708003058.4
2062174.0,1708003058.44
2060614.0,1708003058.48
2059565.0,1708003058.52
2058987.0,1708003058.56
2059191.0,1708003058.6
2059401.0,1708003058.64
2059470.0,1708003058.68
2059334.0,1708003058.72
2059135.0,1708003058.76
2059486.0,1708003058.8
2059794.0,1708003058.84
2060594.0,1708003058.88
2061454.0,1708003058.92
2062470.0,1708003058.96
2062470.0,1708003059.0
2063529.0,1708003059.04
2064484.0,1708003059.08
2065516.0,1708003059.12
2066508.0,1708003059.16
2067434.0,1708003059.2
2068584.0,1708003059.24
2069619.0,1708003059.28
2070815.0,1708003059.32
2072076.0,1708003059.36
2072082.0,1708003059.4
2070453.0,1708003059.44
2068187.0,1708003059.48
2066557.0,1708003059.52
2065472.0,1708003059.56
2064573.0,1708003059.6
2064544.0,1708003059.64
2064294.0,1708003059.68
2064134.0,1708003059.72
2063561.0,1708003059.76
2063442.0,1708003059.8
2063284.0,1708003059.84
2063500.0,1708003059.88
2064005.0,1708003059.92
2064500.0,1708003059.96
2065304.0,1708003060.0
2065993.0,1708003060.04
2066907.0,1708003060.08
2067614.0,1708003060.12
2068516.0,1708003060.16
2069102.0,1708003060.2
2069960.0,1708003060.24
2070884.0,1708003060.28
2071789.0,1708003060.32
2072731.0,1708003060.36
2073753.0,1708003060.4
2073555.0,1708003060.44
2071378.0,1708003060.48
2068888.0,1708003060.52
2066953.0,1708003060.56
2065407.0,1708003060.6
2064456.0,1708003060.64
2063962.0,1708003060.68
2063611.0,1708003060.72
2063017.0,1708003060.76
2062063.0,1708003060.8
2061519.0,1708003060.84
2060902.0,1708003060.88
2060859.0,1708003060.92
2061002.0,1708003060.96
2061338.0,1708003061.0
2061854.0,1708003061.04
2062465.0,1708003061.08
2063005.0,1708003061.12
2063451.0,1708003061.16
2063970.0,1708003061.2
2064662.0,1708003061.24
2065306.0,1708003061.28
2066145.0,1708003061.32
2067143.0,1708003061.36
2068128.0,1708003061.4
2067637.0,1708003061.44
2065138.0,1708003061.48
2062553.0,1708003061.52
2060531.0,1708003061.56
2059074.0,1708003061.6
2058334.0,1708003061.64
2058105.0,1708003061.68
2057903.0,1708003061.72
2057286.0,1708003061.76
2056817.0,1708003061.8
2056216.0,1708003061.84
2056497.0,1708003061.92
2057028.0,1708003061.96
2056289.0,1708003061.88
2057848.0,1708003062.0
2058508.0,1708003062.04
2059422.0,1708003062.08
2060169.0,1708003062.12
2061087.0,1708003062.16
2061928.0,1708003062.2
2062912.0,1708003062.24
2063833.0,1708003062.28
2064813.0,1708003062.32
2065992.0,1708003062.36
2067108.0,1708003062.4
2068263.0,1708003062.44
2067060.0,1708003062.48
2064435.0,1708003062.52
2062061.0,1708003062.56
2060287.0,1708003062.6
2059073.0,1708003062.64
2058502.0,1708003062.68
2058301.0,1708003062.72
2058206.0,1708003062.76
2057864.0,1708003062.8
2057657.0,1708003062.84
2057409.0,1708003062.88
2057482.0,1708003062.92
2057935.0,1708003062.96
2058764.0,1708003063.0
2059539.0,1708003063.04
2060678.0,1708003063.08
2061681.0,1708003063.12
2062652.0,1708003063.16
2063848.0,1708003063.2
2064823.0,1708003063.24
2066044.0,1708003063.28
2067169.0,1708003063.32
2068447.0,1708003063.358
2069812.0,1708003063.398
2070980.0,1708003063.439
2072511.0,1708003063.479
2073735.0,1708003063.518
2072385.0,1708003063.598
2070560.0,1708003063.638
2074181.0,1708003063.559
2069047.0,1708003063.68
2067979.0,1708003063.718
2067772.0,1708003063.758
2067648.0,1708003063.8
2067814.0,1708003063.839
2067894.0,1708003063.879
2067627.0,1708003063.92
2067610.0,1708003063.959
2067701.0,1708003063.999
2068193.0,1708003064.04
2068896.0,1708003064.08
2069744.0,1708003064.119
2070521.0,1708003064.16
2071658.0,1708003064.199
2072552.0,1708003064.239
2073538.0,1708003064.281
2074410.0,1708003064.319
2075508.0,1708003064.359
2076591.0,1708003064.4
2077464.0,1708003064.439
2078692.0,1708003064.48
2079819.0,1708003064.521
2080893.0,1708003064.56
2082174.0,1708003064.6
2083345.0,1708003064.641
2083281.0,1708003064.681
2081612.0,1708003064.72
2080133.0,1708003064.761
2079113.0,1708003064.8
2078757.0,1708003064.84
2078606.0,1708003064.882
2078847.0,1708003064.92
2078932.0,1708003064.96
2079046.0,1708003065.002
2078944.0,1708003065.041
2079065.0,1708003065.081
2079190.0,1708003065.122
2079676.0,1708003065.161
2080488.0,1708003065.201
2081209.0,1708003065.242
2082082.0,1708003065.282
2082864.0,1708003065.321
2083878.0,1708003065.362
2084681.0,1708003065.401
2085497.0,1708003065.441
2086339.0,1708003065.483
2087301.0,1708003065.521
2088284.0,1708003065.561
2089102.0,1708003065.603
2091323.0,1708003065.682
2092174.0,1708003065.723
2090229.0,1708003065.642
2091443.0,1708003065.762
2087222.0,1708003065.843
2089260.0,1708003065.802
2085318.0,1708003065.883
2084200.0,1708003065.922
2083031.0,1708003065.963
2081988.0,1708003066.042
2081309.0,1708003066.084
2082663.0,1708003066.002
2080405.0,1708003066.122
2079227.0,1708003066.203
2079576.0,1708003066.162
2078993.0,1708003066.283
2079598.0,1708003066.363
2080122.0,1708003066.403
2079275.0,1708003066.324
2079112.0,1708003066.242
2081093.0,1708003066.484
2081406.0,1708003066.523
2080399.0,1708003066.444
2081844.0,1708003066.564
2082459.0,1708003066.603
2083124.0,1708003066.643
2083728.0,1708003066.685
2084323.0,1708003066.723
2085159.0,1708003066.763
2085589.0,1708003066.804
2084189.0,1708003066.843
2081028.0,1708003066.884
2077763.0,1708003066.925
2075299.0,1708003066.964
2073344.0,1708003067.004
2071966.0,1708003067.045
2071035.0,1708003067.084
2070056.0,1708003067.124
2068749.0,1708003067.165
2067442.0,1708003067.204
2066366.0,1708003067.244
2065859.0,1708003067.286
2065494.0,1708003067.324
2065423.0,1708003067.364
2065570.0,1708003067.405
2065659.0,1708003067.444
2065994.0,1708003067.485
2066181.0,1708003067.526
2066723.0,1708003067.565
2067054.0,1708003067.605
2067524.0,1708003067.646
2068049.0,1708003067.685
2068558.0,1708003067.725
2069496.0,1708003067.766
2070256.0,1708003067.805
2069886.0,1708003067.845
2067224.0,1708003067.887
2064421.0,1708003067.925
2061957.0,1708003067.965
2060541.0,1708003068.006
2059765.0,1708003068.045
2059508.0,1708003068.086
2059342.0,1708003068.127
2058973.0,1708003068.166
2058360.0,1708003068.206
2057897.0,1708003068.247
2057827.0,1708003068.286
2058025.0,1708003068.326
2058565.0,1708003068.367
2059236.0,1708003068.406
2060184.0,1708003068.446
2060984.0,1708003068.488
2061867.0,1708003068.526
2062651.0,1708003068.566
2063630.0,1708003068.607
2064462.0,1708003068.646
2065702.0,1708003068.687
2066683.0,1708003068.727
2067925.0,1708003068.766
2069220.0,1708003068.807
2069025.0,1708003068.848
2066914.0,1708003068.887
2064530.0,1708003068.927
2062867.0,1708003068.968
2061658.0,1708003069.007
2061094.0,1708003069.047
2061173.0,1708003069.089
2061323.0,1708003069.127
2061184.0,1708003069.167
2061038.0,1708003069.208
2061003.0,1708003069.247
2061272.0,1708003069.288
2061740.0,1708003069.329
2062434.0,1708003069.367
2063478.0,1708003069.408
2064363.0,1708003069.449
2065662.0,1708003069.488
2066659.0,1708003069.528
2067820.0,1708003069.569
2068973.0,1708003069.608
2070021.0,1708003069.648
2071297.0,1708003069.69
2072498.0,1708003069.728
2073785.0,1708003069.768
2075092.0,1708003069.809
2075304.0,1708003069.848
2073862.0,1708003069.889
2072201.0,1708003069.93
2071408.0,1708003069.969
2070932.0,1708003070.009
2071081.0,1708003070.05
2071497.0,1708003070.09
2071925.0,1708003070.129
2072005.0,1708003070.17
2072059.0,1708003070.209
2072126.0,1708003070.249
2072402.0,1708003070.291
2073012.0,1708003070.329
2073710.0,1708003070.369
2074618.0,1708003070.411
2075535.0,1708003070.45
2076623.0,1708003070.49
2077567.0,1708003070.531
2078633.0,1708003070.57
2079604.0,1708003070.61
2080633.0,1708003070.651
2081732.0,1708003070.691
2083077.0,1708003070.73
2084170.0,1708003070.771
2083711.0,1708003070.81
2082735.0,1708003070.85
2082065.0,1708003070.892
2081639.0,1708003070.931
2081654.0,1708003070.971
2082084.0,1708003071.012
2082613.0,1708003071.051
2083010.0,1708003071.092
2083463.0,1708003071.132
2083655.0,1708003071.171
2084036.0,1708003071.211
2084667.0,1708003071.252
2085514.0,1708003071.292
2086433.0,1708003071.332
2087396.0,1708003071.373
2088460.0,1708003071.412
2089474.0,1708003071.452
2090431.0,1708003071.494
2091514.0,1708003071.532
2092588.0,1708003071.572
2093606.0,1708003071.613
2094642.0,1708003071.652
2095897.0,1708003071.693
2096632.0,1708003071.733
2095865.0,1708003071.773
2094416.0,1708003071.813
2093287.0,1708003071.854
2092340.0,1708003071.894
2091899.0,1708003071.933
2091702.0,1708003071.974
2091713.0,1708003072.013
2091718.0,1708003072.053
2091406.0,1708003072.095
2091052.0,1708003072.215
2091203.0,1708003072.254
2091578.0,1708003072.294
2092258.0,1708003072.335
2090911.0,1708003072.173
2091051.0,1708003072.133
2092756.0,1708003072.374
2093454.0,1708003072.414
2094814.0,1708003072.495
2095499.0,1708003072.534
2094087.0,1708003072.455
2096234.0,1708003072.575
2097096.0,1708003072.614
2097630.0,1708003072.654
2099335.0,1708003072.735
2098654.0,1708003072.696
2100029.0,1708003072.775
2097170.0,1708003072.855
2094904.0,1708003072.896
2093226.0,1708003072.936
2099133.0,1708003072.816
2091944.0,1708003072.975
2090494.0,1708003073.056
2091062.0,1708003073.015
2088880.0,1708003073.136
2087973.0,1708003073.177
2087109.0,1708003073.216
2089787.0,1708003073.096
2086156.0,1708003073.298
2086504.0,1708003073.256
2086121.0,1708003073.376
2086454.0,1708003073.417
2086097.0,1708003073.336
2086614.0,1708003073.456
2086884.0,1708003073.497
2087011.0,1708003073.538
2087475.0,1708003073.577
2087688.0,1708003073.617
2088183.0,1708003073.658
2088577.0,1708003073.698
2089113.0,1708003073.737
2089748.0,1708003073.778
2090524.0,1708003073.817
2091095.0,1708003073.857
2090765.0,1708003073.899
2088518.0,1708003073.937
2086091.0,1708003073.978
2084081.0,1708003074.019
2082619.0,1708003074.058
2081463.0,1708003074.139
2081796.0,1708003074.099
2080472.0,1708003074.218
2080952.0,1708003074.178
2078990.0,1708003074.299
2079590.0,1708003074.259
2078740.0,1708003074.338
2078832.0,1708003074.379
2079098.0,1708003074.418
2079495.0,1708003074.458
2080119.0,1708003074.5
2080726.0,1708003074.539
2081359.0,1708003074.579
2082033.0,1708003074.62
2082710.0,1708003074.659
2083413.0,1708003074.7
2084043.0,1708003074.74
2085071.0,1708003074.779
2085781.0,1708003074.819
2086935.0,1708003074.86
2087975.0,1708003074.9
2088858.0,1708003074.939
2089718.0,1708003074.98
2089885.0,1708003075.019
2087816.0,1708003075.059
2085449.0,1708003075.101
2083317.0,1708003075.14
2081915.0,1708003075.18
2080844.0,1708003075.221
2080359.0,1708003075.26
2080222.0,1708003075.301
2079745.0,1708003075.341
2079083.0,1708003075.38
2078584.0,1708003075.42
2078273.0,1708003075.461
2078414.0,1708003075.501
2078469.0,1708003075.54
2079012.0,1708003075.581
2079603.0,1708003075.62
2080328.0,1708003075.661
2081187.0,1708003075.702
2081811.0,1708003075.741
2082593.0,1708003075.781
2083347.0,1708003075.822
2084248.0,1708003075.861
2085046.0,1708003075.902
2086126.0,1708003075.942
2087014.0,1708003075.981
2088000.0,1708003076.021
2089234.0,1708003076.062
2090234.0,1708003076.102
2091166.0,1708003076.141
2090682.0,1708003076.182
2088461.0,1708003076.221
2086124.0,1708003076.261
2084478.0,1708003076.303
2083275.0,1708003076.341
2082467.0,1708003076.382
2082256.0,1708003076.423
2081923.0,1708003076.462
2081458.0,1708003076.502
2080805.0,1708003076.543
2080252.0,1708003076.582
2079862.0,1708003076.622
2079762.0,1708003076.663
2080141.0,1708003076.703
2080505.0,1708003076.742
2080948.0,1708003076.783
2081471.0,1708003076.822
2082060.0,1708003076.862
2082844.0,1708003076.904
2083457.0,1708003076.943
2083927.0,1708003076.983
2084470.0,1708003077.024
2085023.0,1708003077.063
2085577.0,1708003077.103
2086580.0,1708003077.144
2087342.0,1708003077.183
2087900.0,1708003077.223
2086833.0,1708003077.264
2084614.0,1708003077.304
2082222.0,1708003077.343
2080776.0,1708003077.384
2079787.0,1708003077.423
2079492.0,1708003077.463
2079623.0,1708003077.505
2079450.0,1708003077.544
2078937.0,1708003077.584
2078367.0,1708003077.625
2078063.0,1708003077.664
2077964.0,1708003077.705
2078295.0,1708003077.745
2078751.0,1708003077.784
2079202.0,1708003077.824
2080067.0,1708003077.865
2080797.0,1708003077.905
2081480.0,1708003077.944
2082993.0,1708003078.024
2083830.0,1708003078.064
2082263.0,1708003077.985
2084558.0,1708003078.106
2085609.0,1708003078.144
2086469.0,1708003078.185
2087300.0,1708003078.226
2086446.0,1708003078.265
2084272.0,1708003078.305
2082249.0,1708003078.346
2080666.0,1708003078.385
2079605.0,1708003078.425
2079017.0,1708003078.466
2078906.0,1708003078.506
2078677.0,1708003078.545
2078360.0,1708003078.586
2077780.0,1708003078.625
2077342.0,1708003078.665
2077156.0,1708003078.707
2077503.0,1708003078.746
2077570.0,1708003078.786
2078250.0,1708003078.827
2078939.0,1708003078.866
2079534.0,1708003078.906
2080236.0,1708003078.947
2080873.0,1708003078.986
2081599.0,1708003079.026
2082269.0,1708003079.067
2083012.0,1708003079.107
2083753.0,1708003079.146
2084892.0,1708003079.187
2085687.0,1708003079.226
2084766.0,1708003079.266
2082378.0,1708003079.308
2080271.0,1708003079.347
2078448.0,1708003079.387
2077256.0,1708003079.428
2076224.0,1708003079.467
2075764.0,1708003079.508
2075475.0,1708003079.548
2074751.0,1708003079.587
2074202.0,1708003079.627
2073680.0,1708003079.668
2073354.0,1708003079.708
2073466.0,1708003079.747
2073915.0,1708003079.788
2074155.0,1708003079.827
2074858.0,1708003079.868
2075386.0,1708003079.909
2076051.0,1708003079.948
2076798.0,1708003079.988
2077437.0,1708003080.029
2078118.0,1708003080.068
2078939.0,1708003080.109
2079725.0,1708003080.149
2080556.0,1708003080.188
2081430.0,1708003080.228
2081985.0,1708003080.269
2080774.0,1708003080.309
2078474.0,1708003080.348
2076381.0,1708003080.39
2075001.0,1708003080.429
2073830.0,1708003080.469
2073430.0,1708003080.51
2073253.0,1708003080.549
2072893.0,1708003080.589
2072379.0,1708003080.63
2071854.0,1708003080.669
2071543.0,1708003080.71
2071492.0,1708003080.75
2071765.0,1708003080.789
2072124.0,1708003080.829
2072745.0,1708003080.87
2073253.0,1708003080.91
2073916.0,1708003080.95
2074431.0,1708003080.991
2075171.0,1708003081.03
2075809.0,1708003081.07
2076681.0,1708003081.112
2077326.0,1708003081.15
2078021.0,1708003081.19
2078740.0,1708003081.231
2079839.0,1708003081.27
2080077.0,1708003081.311
2078758.0,1708003081.351
2076899.0,1708003081.39
2075424.0,1708003081.43
2074375.0,1708003081.471
2074018.0,1708003081.511
2073870.0,1708003081.55
2073991.0,1708003081.592
2073805.0,1708003081.631
2073386.0,1708003081.671
2073290.0,1708003081.712
2073209.0,1708003081.751
2073539.0,1708003081.791
2073928.0,1708003081.832
2074517.0,1708003081.871
2075269.0,1708003081.912
2076085.0,1708003081.952
2076879.0,1708003081.991
2077649.0,1708003082.031
2078445.0,1708003082.072
2079144.0,1708003082.112
2080041.0,1708003082.151
2080953.0,1708003082.192
2081820.0,1708003082.232
2082809.0,1708003082.272
2083769.0,1708003082.313
2083557.0,1708003082.352
2081525.0,1708003082.392
2079510.0,1708003082.433
2077849.0,1708003082.472
2076482.0,1708003082.513
2075526.0,1708003082.553
2075300.0,1708003082.592
2074925.0,1708003082.632
2074120.0,1708003082.673
2073555.0,1708003082.713
2072948.0,1708003082.753
2072509.0,1708003082.794
2072589.0,1708003082.833
2072999.0,1708003082.915
2072759.0,1708003082.873
2073535.0,1708003082.953
2073953.0,1708003082.993
2074633.0,1708003083.034
2074938.0,1708003083.073
2075684.0,1708003083.114
2076246.0,1708003083.154
2077029.0,1708003083.193
2077755.0,1708003083.234
2078497.0,1708003083.275
2079373.0,1708003083.314
2080307.0,1708003083.354
2081252.0,1708003083.395
2082075.0,1708003083.434
2080862.0,1708003083.474
2078494.0,1708003083.516
2075798.0,1708003083.554
2073839.0,1708003083.594
2072272.0,1708003083.635
2071162.0,1708003083.674
2070496.0,1708003083.715
2069984.0,1708003083.756
2069190.0,1708003083.795
2068402.0,1708003083.835
2067728.0,1708003083.876
2067355.0,1708003083.916
2067342.0,1708003083.955
2067433.0,1708003083.996
2067982.0,1708003084.035
2068583.0,1708003084.075
2069182.0,1708003084.117
2069670.0,1708003084.155
2070408.0,1708003084.196
2070995.0,1708003084.237
2071516.0,1708003084.276
2072306.0,1708003084.316
2073156.0,1708003084.357
2074053.0,1708003084.396
2074907.0,1708003084.436
2075855.0,1708003084.477
2077149.0,1708003084.517
2078006.0,1708003084.556
2078009.0,1708003084.597
2076127.0,1708003084.636
2073343.0,1708003084.676
2071244.0,1708003084.718
2069630.0,1708003084.756
2068652.0,1708003084.797
2068166.0,1708003084.838
2067862.0,1708003084.877
2067532.0,1708003084.918
2066806.0,1708003084.958
2066198.0,1708003084.997
2065762.0,1708003085.037
2065747.0,1708003085.078
2065962.0,1708003085.118
2066456.0,1708003085.157
2067230.0,1708003085.198
2067722.0,1708003085.237
2068458.0,1708003085.277
2069225.0,1708003085.319
2069862.0,1708003085.358
2070461.0,1708003085.398
2071265.0,1708003085.439
2072049.0,1708003085.478
2072998.0,1708003085.519
2073756.0,1708003085.559
2074708.0,1708003085.598
2075880.0,1708003085.638
2076470.0,1708003085.679
2075305.0,1708003085.719
2073058.0,1708003085.758
2070797.0,1708003085.799
2069460.0,1708003085.838
2068419.0,1708003085.878
2068237.0,1708003085.92
2068129.0,1708003085.959
2068126.0,1708003085.999
2067703.0,1708003086.04
2067170.0,1708003086.079
2066933.0,1708003086.119
2066971.0,1708003086.16
2067312.0,1708003086.199
2067871.0,1708003086.239
2068516.0,1708003086.28
2069237.0,1708003086.32
2070221.0,1708003086.359
2070939.0,1708003086.4
2071702.0,1708003086.439
2072597.0,1708003086.479
2073152.0,1708003086.521
2074200.0,1708003086.56
2075033.0,1708003086.6
2075961.0,1708003086.641
2076999.0,1708003086.68
2078076.0,1708003086.721
2078100.0,1708003086.761
2076149.0,1708003086.8
2073265.0,1708003086.84
2070867.0,1708003086.881
2069268.0,1708003086.921
2068029.0,1708003086.961
2067380.0,1708003087.002
2066831.0,1708003087.041
2066363.0,1708003087.081
2065481.0,1708003087.123
2064775.0,1708003087.161
2064105.0,1708003087.201
2063762.0,1708003087.242
2064035.0,1708003087.281
2064209.0,1708003087.322
2064767.0,1708003087.362
2065264.0,1708003087.404
2065742.0,1708003087.444
2066345.0,1708003087.486
2066896.0,1708003087.525
2067521.0,1708003087.565
2068360.0,1708003087.606
2068879.0,1708003087.645
2069733.0,1708003087.685
2070448.0,1708003087.727
2071394.0,1708003087.765
2072161.0,1708003087.805
2072403.0,1708003087.846
2069994.0,1708003087.885
2066702.0,1708003087.926
2063967.0,1708003087.966
2061935.0,1708003088.005
2060534.0,1708003088.046
2059641.0,1708003088.087
2059066.0,1708003088.126
2058180.0,1708003088.166
2057215.0,1708003088.207
2056322.0,1708003088.246
2055464.0,1708003088.286
2055151.0,1708003088.328
2055040.0,1708003088.366
2055326.0,1708003088.406
2055826.0,1708003088.447
2056561.0,1708003088.527
2057244.0,1708003088.567
2056210.0,1708003088.486
2058195.0,1708003088.646
2057647.0,1708003088.606
2059278.0,1708003088.727
2060047.0,1708003088.767
2060851.0,1708003088.808
2061693.0,1708003088.847
2058708.0,1708003088.687
2058978.0,1708003088.928
2061324.0,1708003088.887
2056366.0,1708003088.967
2054447.0,1708003089.007
2053056.0,1708003089.048
2052407.0,1708003089.087
2052374.0,1708003089.128
2052309.0,1708003089.168
2051860.0,1708003089.207
2051509.0,1708003089.247
2051143.0,1708003089.288
2051188.0,1708003089.328
2051611.0,1708003089.367
2052260.0,1708003089.409
2052809.0,1708003089.448
2053845.0,1708003089.488
2054727.0,1708003089.529
2055498.0,1708003089.568
2056487.0,1708003089.608
2057368.0,1708003089.649
2058432.0,1708003089.688
2059385.0,1708003089.729
2060372.0,1708003089.769
2061600.0,1708003089.808
2062713.0,1708003089.852
2063971.0,1708003089.888
2063854.0,1708003089.928
2061930.0,1708003089.967
2056957.0,1708003090.087
2056349.0,1708003090.168
2056304.0,1708003090.208
2059880.0,1708003090.009
2056254.0,1708003090.129
2058223.0,1708003090.047
2056138.0,1708003090.249
2055817.0,1708003090.289
2055588.0,1708003090.331
2055661.0,1708003090.371
2056147.0,1708003090.41
2056661.0,1708003090.45
2057400.0,1708003090.491
2058286.0,1708003090.531
2059036.0,1708003090.57
2060060.0,1708003090.611
2060790.0,1708003090.651
2062021.0,1708003090.691
2062943.0,1708003090.732
2064124.0,1708003090.771
2065305.0,1708003090.811
2066321.0,1708003090.852
2067872.0,1708003090.891
2069037.0,1708003090.932
2070498.0,1708003090.972
2071804.0,1708003091.011
2071681.0,1708003091.05
2070168.0,1708003091.089
2068560.0,1708003091.128
2067690.0,1708003091.168
2066746.0,1708003091.209
2066438.0,1708003091.248
2066640.0,1708003091.288
2066803.0,1708003091.33
2066614.0,1708003091.368
2066524.0,1708003091.409
2066366.0,1708003091.45
2066497.0,1708003091.489
2067155.0,1708003091.53
2067530.0,1708003091.564
2068416.0,1708003091.603
2069214.0,1708003091.643
2069953.0,1708003091.684
2070847.0,1708003091.724
2071678.0,1708003091.763
2072536.0,1708003091.804
2073315.0,1708003091.843
2074369.0,1708003091.883
2075235.0,1708003091.925
2076239.0,1708003091.963
2077259.0,1708003092.004
2078322.0,1708003092.045
2079525.0,1708003092.084
2080110.0,1708003092.124
2079297.0,1708003092.165
2077746.0,1708003092.204
2076807.0,1708003092.244
2075862.0,1708003092.286
2075523.0,1708003092.326
2075640.0,1708003092.366
2075886.0,1708003092.408
2075724.0,1708003092.447
2075584.0,1708003092.487
2075685.0,1708003092.529
2075702.0,1708003092.567
2076247.0,1708003092.608
2076671.0,1708003092.65
2077438.0,1708003092.688
2078162.0,1708003092.729
2079009.0,1708003092.77
2079843.0,1708003092.806
2080933.0,1708003092.846
2081600.0,1708003092.888
2082577.0,1708003092.927
2083625.0,1708003092.967
2084535.0,1708003093.008
2085616.0,1708003093.047
2086741.0,1708003093.087
2087787.0,1708003093.129
2088806.0,1708003093.167
2089551.0,1708003093.207
2088574.0,1708003093.248
2086830.0,1708003093.287
2085009.0,1708003093.328
2083541.0,1708003093.368
2082472.0,1708003093.407
2081949.0,1708003093.447
2081550.0,1708003093.489
2081175.0,1708003093.529
2080430.0,1708003093.568
2079844.0,1708003093.609
2079304.0,1708003093.649
2079013.0,1708003093.689
2079013.0,1708003093.731
2079312.0,1708003093.769
2079779.0,1708003093.81
2080305.0,1708003093.851
2080846.0,1708003093.89
2081348.0,1708003093.929
2082030.0,1708003093.97
2082625.0,1708003094.009
2083144.0,1708003094.043
2083935.0,1708003094.084
2084682.0,1708003094.124
2085503.0,1708003094.163
2086162.0,1708003094.204
2087278.0,1708003094.244
2088192.0,1708003094.284
2089204.0,1708003094.325
2088777.0,1708003094.364
2086336.0,1708003094.404
2084060.0,1708003094.445
2082125.0,1708003094.484
2080676.0,1708003094.525
2079541.0,1708003094.565
2078941.0,1708003094.604
2078546.0,1708003094.645
2077752.0,1708003094.686
2076960.0,1708003094.725
2076200.0,1708003094.762
2075763.0,1708003094.797
2075752.0,1708003094.831
2075830.0,1708003094.869
2076253.0,1708003094.912
2076597.0,1708003094.954
2077253.0,1708003094.988
2077835.0,1708003095.03
2078235.0,1708003095.069
2078924.0,1708003095.11
2079503.0,1708003095.151
2080045.0,1708003095.19
2080847.0,1708003095.229
2081729.0,1708003095.265
2082542.0,1708003095.304
2083390.0,1708003095.344
2084326.0,1708003095.385
2085265.0,1708003095.424
2085485.0,1708003095.464
2084093.0,1708003095.506
2081930.0,1708003095.544
2080171.0,1708003095.584
2078671.0,1708003095.626
2078131.0,1708003095.665
2077764.0,1708003095.705
2077569.0,1708003095.746
2077524.0,1708003095.785
2077129.0,1708003095.825
2076600.0,1708003095.866
2076414.0,1708003095.906
2076437.0,1708003095.939
2076788.0,1708003095.972
2077368.0,1708003096.009
2078113.0,1708003096.049
2078783.0,1708003096.091
2079497.0,1708003096.13
2080436.0,1708003096.17
2081155.0,1708003096.211
2082202.0,1708003096.25
2083160.0,1708003096.291
2083974.0,1708003096.33
2084895.0,1708003096.369
2085925.0,1708003096.409
2087175.0,1708003096.45
2087677.0,1708003096.486
2086740.0,1708003096.525
2084822.0,1708003096.566
2083461.0,1708003096.605
2082479.0,1708003096.646
2081751.0,1708003096.687
2081729.0,1708003096.726
2081869.0,1708003096.766
2081802.0,1708003096.807
2081502.0,1708003096.846
2081124.0,1708003096.887
2080991.0,1708003096.927
2081398.0,1708003096.966
2081775.0,1708003097.006
2082251.0,1708003097.048
2082914.0,1708003097.087
2083748.0,1708003097.127
2084545.0,1708003097.168
2085450.0,1708003097.208
2086074.0,1708003097.248
2086972.0,1708003097.291
2087491.0,1708003097.329
2088539.0,1708003097.37
2089278.0,1708003097.41
2090367.0,1708003097.449
2091342.0,1708003097.49
2091409.0,1708003097.531
2089551.0,1708003097.57
2087419.0,1708003097.61
2085535.0,1708003097.651
2084088.0,1708003097.691
2083084.0,1708003097.722
2082561.0,1708003097.763
2082211.0,1708003097.802
2081850.0,1708003097.842
2081043.0,1708003097.884
2080525.0,1708003097.923
2079944.0,1708003097.963
2079917.0,1708003098.004
2080347.0,1708003098.084
2079897.0,1708003098.043
2080796.0,1708003098.124
2081262.0,1708003098.163
2081839.0,1708003098.203
2082196.0,1708003098.244
2082845.0,1708003098.284
2083315.0,1708003098.323
2083946.0,1708003098.364
2084405.0,1708003098.405
2085229.0,1708003098.441
2086026.0,1708003098.475
2086543.0,1708003098.514
2085161.0,1708003098.552
2082559.0,1708003098.592
2080373.0,1708003098.631
2078664.0,1708003098.672
2077201.0,1708003098.712
2076465.0,1708003098.752
2075932.0,1708003098.792
2075279.0,1708003098.833
2074524.0,1708003098.873
2073831.0,1708003098.91
2073222.0,1708003098.952
2072713.0,1708003098.991
2072865.0,1708003099.031
2073141.0,1708003099.073
2073367.0,1708003099.112
2073792.0,1708003099.152
2074252.0,1708003099.193
2074730.0,1708003099.232
2075145.0,1708003099.273
2075679.0,1708003099.313
2076055.0,1708003099.35
2076700.0,1708003099.39
2077481.0,1708003099.431
2077900.0,1708003099.471
2078384.0,1708003099.51
2077022.0,1708003099.551
2072861.0,1708003099.631
2074831.0,1708003099.59
2071500.0,1708003099.672
2070679.0,1708003099.711
2070601.0,1708003099.751
2070382.0,1708003099.792
2070174.0,1708003099.83
2069775.0,1708003099.871
2069398.0,1708003099.91
2069297.0,1708003099.949
2069439.0,1708003099.989
2069858.0,1708003100.031
2070379.0,1708003100.071
2072066.0,1708003100.149
2071103.0,1708003100.107
2072717.0,1708003100.18
2073596.0,1708003100.22
2077192.0,1708003100.381
2074286.0,1708003100.262
2075053.0,1708003100.3
2076125.0,1708003100.34
2078163.0,1708003100.42
2078774.0,1708003100.461
2077643.0,1708003100.502
2076075.0,1708003100.541
2074534.0,1708003100.581
2073370.0,1708003100.622
2072841.0,1708003100.662
2072756.0,1708003100.701
2072637.0,1708003100.742
2072576.0,1708003100.781
2072311.0,1708003100.821
2072279.0,1708003100.891
2072401.0,1708003100.928
2073016.0,1708003100.97
2073549.0,1708003101.009
2072124.0,1708003100.858
2074223.0,1708003101.05
2076556.0,1708003101.17
2077562.0,1708003101.211
2078414.0,1708003101.251
2079288.0,1708003101.288
2075078.0,1708003101.09
2076014.0,1708003101.13
2081201.0,1708003101.369
2083422.0,1708003101.451
2083682.0,1708003101.49
2082404.0,1708003101.53
2080716.0,1708003101.571
2079373.0,1708003101.61
2078168.0,1708003101.651
2077426.0,1708003101.691
2077263.0,1708003101.73
2077137.0,1708003101.77
2080200.0,1708003101.33
2076644.0,1708003101.811
2076295.0,1708003101.851
2082344.0,1708003101.41
2075906.0,1708003101.89
2075946.0,1708003101.931
2076034.0,1708003101.97
2076717.0,1708003102.052
2076244.0,1708003102.011
2077500.0,1708003102.091
2078526.0,1708003102.17
2077942.0,1708003102.129
2079738.0,1708003102.25
2079174.0,1708003102.209
2080582.0,1708003102.291
2081362.0,1708003102.329
2083082.0,1708003102.411
2082197.0,1708003102.369
2083818.0,1708003102.451
2084774.0,1708003102.489
2085838.0,1708003102.53
2086821.0,1708003102.57
2087069.0,1708003102.61
2085417.0,1708003102.65
2083728.0,1708003102.688
2083728.0,1708003102.724
2082010.0,1708003102.765
2080929.0,1708003102.804
2079988.0,1708003102.845
2079806.0,1708003102.885
2079633.0,1708003102.924
