bvp,time
77.74,1577875456.125
70.76,1577875456.140625
65.22,1577875456.15625
61.66,1577875456.171875
59.96,1577875456.1875
59.42,1577875456.203125
58.99,1577875456.21875
57.5,1577875456.234375
54.04,1577875456.25
48.02,1577875456.265625
39.49,1577875456.28125
29.06,1577875456.296875
17.79,1577875456.3125
6.82,1577875456.328125
-3.1,1577875456.34375
-11.87,1577875456.359375
-20.15,1577875456.375
-28.92,1577875456.390625
-39.01,1577875456.40625
-50.65,1577875456.421875
-63.37,1577875456.4375
-76.27,1577875456.453125
-88.4,1577875456.46875
-99.17,1577875456.484375
-108.41,1577875456.5
-116.3,1577875456.515625
-123.16,1577875456.53125
-129.31,1577875456.546875
-134.96,1577875456.5625
-140.27,1577875456.578125
-145.05,1577875456.59375
-148.7,1577875456.609375
-150.06,1577875456.625
-147.7,1577875456.640625
-140.44,1577875456.65625
-127.97,1577875456.671875
-111.25,1577875456.6875
-92.38,1577875456.703125
-74.0,1577875456.71875
-58.47,1577875456.734375
-47.2,1577875456.75
-40.47,1577875456.765625
-37.7,1577875456.78125
-37.93,1577875456.796875
-40.27,1577875456.8125
-44.15,1577875456.828125
-49.16,1577875456.84375
-54.81,1577875456.859375
-60.31,1577875456.875
-64.52,1577875456.890625
-66.35,1577875456.90625
-65.11,1577875456.921875
-60.97,1577875456.9375
-55.1,1577875456.953125
-49.27,1577875456.96875
-45.19,1577875456.984375
-43.62,1577875457.0
-43.92,1577875457.015625
-44.24,1577875457.03125
-42.3,1577875457.046875
-36.52,1577875457.0625
-26.84,1577875457.078125
-14.72,1577875457.09375
-2.52,1577875457.109375
7.69,1577875457.125
15.1,1577875457.140625
20.61,1577875457.15625
26.59,1577875457.171875
36.11,1577875457.1875
52.03,1577875457.203125
76.27,1577875457.21875
109.47,1577875457.234375
150.95,1577875457.25
198.94,1577875457.265625
251.05,1577875457.28125
304.58,1577875457.296875
356.64,1577875457.3125
404.04,1577875457.328125
442.93,1577875457.34375
468.65,1577875457.359375
476.35,1577875457.375
461.87,1577875457.390625
422.93,1577875457.40625
360.13,1577875457.421875
277.4,1577875457.4375
181.77,1577875457.453125
82.7,1577875457.46875
-9.35,1577875457.484375
-84.78,1577875457.5
-136.87,1577875457.515625
-163.49,1577875457.53125
-167.52,1577875457.546875
-155.86,1577875457.5625
-136.97,1577875457.578125
-118.13,1577875457.59375
-103.47,1577875457.609375
-93.62,1577875457.625
-86.94,1577875457.640625
-81.32,1577875457.65625
-75.57,1577875457.671875
-69.61,1577875457.6875
-63.89,1577875457.703125
-58.48,1577875457.71875
-52.83,1577875457.734375
-46.14,1577875457.75
-38.11,1577875457.765625
-29.44,1577875457.78125
-21.77,1577875457.796875
-17.01,1577875457.8125
-16.39,1577875457.828125
-19.87,1577875457.84375
-26.04,1577875457.859375
-32.74,1577875457.875
-37.95,1577875457.890625
-40.65,1577875457.90625
-41.18,1577875457.921875
-41.04,1577875457.9375
-42.13,1577875457.953125
-46.0,1577875457.96875
-53.18,1577875457.984375
-63.08,1577875458.0
-74.13,1577875458.015625
-84.24,1577875458.03125
-91.2,1577875458.046875
-93.24,1577875458.0625
-89.27,1577875458.078125
-79.09,1577875458.09375
-63.5,1577875458.109375
-44.07,1577875458.125
-22.82,1577875458.140625
-1.8,1577875458.15625
17.38,1577875458.171875
33.69,1577875458.1875
46.69,1577875458.203125
56.32,1577875458.21875
62.64,1577875458.234375
65.74,1577875458.25
65.82,1577875458.265625
63.33,1577875458.28125
59.08,1577875458.296875
54.14,1577875458.3125
49.62,1577875458.328125
46.37,1577875458.34375
44.67,1577875458.359375
44.31,1577875458.375
44.7,1577875458.390625
45.24,1577875458.40625
45.49,1577875458.421875
45.36,1577875458.4375
44.89,1577875458.453125
44.05,1577875458.46875
42.62,1577875458.484375
40.13,1577875458.5
36.16,1577875458.515625
30.46,1577875458.53125
23.26,1577875458.546875
15.11,1577875458.5625
6.76,1577875458.578125
-1.09,1577875458.59375
-8.13,1577875458.609375
-14.42,1577875458.625
-20.43,1577875458.640625
-26.87,1577875458.65625
-34.48,1577875458.671875
-43.76,1577875458.6875
-54.53,1577875458.703125
-65.71,1577875458.71875
-75.21,1577875458.734375
-80.41,1577875458.75
-78.99,1577875458.765625
-69.81,1577875458.78125
-53.56,1577875458.796875
-32.63,1577875458.8125
-10.41,1577875458.828125
9.86,1577875458.84375
26.07,1577875458.859375
37.6,1577875458.875
45.01,1577875458.890625
49.4,1577875458.90625
51.69,1577875458.921875
52.36,1577875458.9375
51.48,1577875458.953125
49.14,1577875458.96875
45.77,1577875458.984375
42.08,1577875459.0
38.89,1577875459.015625
36.8,1577875459.03125
35.88,1577875459.046875
35.72,1577875459.0625
35.63,1577875459.078125
35.0,1577875459.09375
33.55,1577875459.109375
31.48,1577875459.125
29.16,1577875459.140625
26.88,1577875459.15625
24.58,1577875459.171875
21.72,1577875459.1875
17.6,1577875459.203125
11.73,1577875459.21875
4.22,1577875459.234375
-4.18,1577875459.25
-12.28,1577875459.265625
-18.97,1577875459.28125
-23.75,1577875459.296875
-27.04,1577875459.3125
-30.06,1577875459.328125
-34.33,1577875459.34375
-41.16,1577875459.359375
-50.89,1577875459.375
-62.68,1577875459.390625
-74.47,1577875459.40625
-83.45,1577875459.421875
-86.69,1577875459.4375
-82.05,1577875459.453125
-68.89,1577875459.46875
-48.39,1577875459.484375
-23.42,1577875459.5
2.26,1577875459.515625
25.07,1577875459.53125
42.59,1577875459.546875
54.04,1577875459.5625
60.1,1577875459.578125
62.23,1577875459.59375
61.94,1577875459.609375
60.25,1577875459.625
57.58,1577875459.640625
54.05,1577875459.65625
49.81,1577875459.671875
45.25,1577875459.6875
40.94,1577875459.703125
37.5,1577875459.71875
35.29,1577875459.734375
34.35,1577875459.75
34.36,1577875459.765625
34.84,1577875459.78125
35.2,1577875459.796875
34.89,1577875459.8125
33.43,1577875459.828125
30.45,1577875459.84375
25.82,1577875459.859375
19.67,1577875459.875
12.44,1577875459.890625
4.86,1577875459.90625
-2.37,1577875459.921875
-8.72,1577875459.9375
-14.22,1577875459.953125
-19.37,1577875459.96875
-25.09,1577875459.984375
-32.29,1577875460.0
-41.61,1577875460.015625
-53.03,1577875460.03125
-65.67,1577875460.046875
-77.78,1577875460.0625
-87.02,1577875460.078125
-90.88,1577875460.09375
-87.39,1577875460.109375
-75.96,1577875460.125
-57.63,1577875460.140625
-35.09,1577875460.15625
-11.79,1577875460.171875
9.05,1577875460.1875
25.49,1577875460.203125
37.18,1577875460.21875
44.99,1577875460.234375
50.23,1577875460.25
53.87,1577875460.265625
56.11,1577875460.28125
56.64,1577875460.296875
55.12,1577875460.3125
51.64,1577875460.328125
46.86,1577875460.34375
41.84,1577875460.359375
37.64,1577875460.375
34.95,1577875460.390625
33.92,1577875460.40625
34.27,1577875460.421875
35.33,1577875460.4375
36.31,1577875460.453125
36.37,1577875460.46875
34.81,1577875460.484375
31.26,1577875460.5
25.8,1577875460.515625
18.89,1577875460.53125
11.37,1577875460.546875
4.04,1577875460.5625
-2.58,1577875460.578125
-8.42,1577875460.59375
-13.83,1577875460.609375
-19.48,1577875460.625
-26.06,1577875460.640625
-34.08,1577875460.65625
-43.69,1577875460.671875
-54.4,1577875460.6875
-64.94,1577875460.703125
-73.3,1577875460.71875
-77.12,1577875460.734375
-74.39,1577875460.75
-64.23,1577875460.765625
-47.36,1577875460.78125
-26.11,1577875460.796875
-3.75,1577875460.8125
16.58,1577875460.828125
32.72,1577875460.84375
43.95,1577875460.859375
50.82,1577875460.875
54.51,1577875460.890625
56.21,1577875460.90625
56.61,1577875460.921875
55.93,1577875460.9375
54.1,1577875460.953125
51.2,1577875460.96875
47.61,1577875460.984375
43.98,1577875461.0
40.97,1577875461.015625
38.96,1577875461.03125
37.87,1577875461.046875
37.29,1577875461.0625
36.69,1577875461.078125
35.65,1577875461.09375
34.05,1577875461.109375
31.84,1577875461.125
29.0,1577875461.140625
25.23,1577875461.15625
20.12,1577875461.171875
13.35,1577875461.1875
5.01,1577875461.203125
-4.28,1577875461.21875
-13.53,1577875461.234375
-21.78,1577875461.25
-28.55,1577875461.265625
-34.1,1577875461.28125
-39.38,1577875461.296875
-45.74,1577875461.3125
-54.28,1577875461.328125
-65.32,1577875461.34375
-77.98,1577875461.359375
-90.14,1577875461.375
-98.94,1577875461.390625
-101.51,1577875461.40625
-95.99,1577875461.421875
-82.15,1577875461.4375
-61.65,1577875461.453125
-37.5,1577875461.46875
-13.15,1577875461.484375
8.63,1577875461.5
26.42,1577875461.515625
40.26,1577875461.53125
51.12,1577875461.546875
60.08,1577875461.5625
67.63,1577875461.578125
73.47,1577875461.59375
76.88,1577875461.609375
77.3,1577875461.625
74.92,1577875461.640625
70.84,1577875461.65625
66.67,1577875461.671875
63.87,1577875461.6875
63.11,1577875461.703125
64.02,1577875461.71875
65.54,1577875461.734375
66.43,1577875461.75
65.88,1577875461.765625
63.72,1577875461.78125
60.38,1577875461.796875
56.45,1577875461.8125
52.39,1577875461.828125
48.25,1577875461.84375
43.68,1577875461.859375
38.14,1577875461.875
31.14,1577875461.890625
22.61,1577875461.90625
12.98,1577875461.921875
3.21,1577875461.9375
-5.62,1577875461.953125
-12.66,1577875461.96875
-17.78,1577875461.984375
-21.6,1577875462.0
-25.3,1577875462.015625
-30.18,1577875462.03125
-37.22,1577875462.046875
-46.76,1577875462.0625
-58.47,1577875462.078125
-71.33,1577875462.09375
-83.68,1577875462.109375
-93.38,1577875462.125
-98.1,1577875462.140625
-95.91,1577875462.15625
-85.99,1577875462.171875
-69.03,1577875462.1875
-47.3,1577875462.203125
-23.95,1577875462.21875
-2.05,1577875462.234375
16.33,1577875462.25
30.57,1577875462.265625
41.28,1577875462.28125
49.6,1577875462.296875
56.48,1577875462.3125
62.23,1577875462.328125
66.5,1577875462.34375
68.71,1577875462.359375
68.5,1577875462.375
66.09,1577875462.390625
62.28,1577875462.40625
58.13,1577875462.421875
54.58,1577875462.4375
52.11,1577875462.453125
50.72,1577875462.46875
50.1,1577875462.484375
49.89,1577875462.5
49.85,1577875462.515625
49.87,1577875462.53125
49.77,1577875462.546875
49.16,1577875462.5625
47.45,1577875462.578125
44.04,1577875462.59375
38.62,1577875462.609375
31.49,1577875462.625
23.53,1577875462.640625
15.94,1577875462.65625
9.68,1577875462.671875
5.13,1577875462.6875
1.8,1577875462.703125
-1.39,1577875462.71875
-5.6,1577875462.734375
-11.54,1577875462.75
-19.09,1577875462.765625
-27.4,1577875462.78125
-35.25,1577875462.796875
-41.73,1577875462.8125
-46.55,1577875462.828125
-50.25,1577875462.84375
-53.91,1577875462.859375
-58.8,1577875462.875
-65.89,1577875462.890625
-75.45,1577875462.90625
-86.75,1577875462.921875
-98.01,1577875462.9375
-106.64,1577875462.953125
-109.8,1577875462.96875
-105.31,1577875462.984375
-92.43,1577875463.0
-72.26,1577875463.015625
-47.61,1577875463.03125
-22.1,1577875463.046875
0.93,1577875463.0625
19.36,1577875463.078125
32.73,1577875463.09375
41.97,1577875463.109375
48.62,1577875463.125
54.02,1577875463.140625
58.73,1577875463.15625
62.54,1577875463.171875
64.78,1577875463.1875
64.93,1577875463.203125
63.02,1577875463.21875
59.73,1577875463.234375
56.15,1577875463.25
53.27,1577875463.265625
51.57,1577875463.28125
50.94,1577875463.296875
50.76,1577875463.3125
50.33,1577875463.328125
49.17,1577875463.34375
47.18,1577875463.359375
44.52,1577875463.375
41.42,1577875463.390625
37.95,1577875463.40625
33.99,1577875463.421875
29.36,1577875463.4375
23.92,1577875463.453125
17.75,1577875463.46875
11.06,1577875463.484375
4.16,1577875463.5
-2.7,1577875463.515625
-9.36,1577875463.53125
-15.72,1577875463.546875
-21.7,1577875463.5625
-27.11,1577875463.578125
-31.84,1577875463.59375
-35.84,1577875463.609375
-39.38,1577875463.625
-42.98,1577875463.640625
-47.46,1577875463.65625
-53.55,1577875463.671875
-61.62,1577875463.6875
-71.18,1577875463.703125
-80.72,1577875463.71875
-87.84,1577875463.734375
-89.9,1577875463.75
-84.94,1577875463.765625
-72.48,1577875463.78125
-53.89,1577875463.796875
-31.98,1577875463.8125
-10.09,1577875463.828125
8.97,1577875463.84375
23.78,1577875463.859375
34.37,1577875463.875
41.78,1577875463.890625
47.23,1577875463.90625
51.55,1577875463.921875
54.83,1577875463.9375
56.7,1577875463.953125
56.74,1577875463.96875
54.92,1577875463.984375
51.79,1577875464.0
48.36,1577875464.015625
45.66,1577875464.03125
44.48,1577875464.046875
44.96,1577875464.0625
46.71,1577875464.078125
48.95,1577875464.09375
50.87,1577875464.109375
51.89,1577875464.125
51.77,1577875464.140625
50.61,1577875464.15625
48.64,1577875464.171875
46.15,1577875464.1875
43.33,1577875464.203125
40.28,1577875464.21875
37.08,1577875464.234375
33.75,1577875464.25
30.37,1577875464.265625
27.1,1577875464.28125
24.12,1577875464.296875
21.65,1577875464.3125
19.94,1577875464.328125
19.03,1577875464.34375
18.87,1577875464.359375
19.14,1577875464.375
19.48,1577875464.390625
19.5,1577875464.40625
19.02,1577875464.421875
17.98,1577875464.4375
16.36,1577875464.453125
14.2,1577875464.46875
11.85,1577875464.484375
10.2,1577875464.5
10.91,1577875464.515625
16.0,1577875464.53125
27.04,1577875464.546875
44.23,1577875464.5625
65.92,1577875464.578125
89.0,1577875464.59375
109.94,1577875464.609375
125.87,1577875464.625
135.08,1577875464.640625
136.84,1577875464.65625
130.68,1577875464.671875
116.04,1577875464.6875
92.5,1577875464.703125
60.5,1577875464.71875
21.99,1577875464.734375
-19.55,1577875464.75
-59.86,1577875464.765625
-95.05,1577875464.78125
-122.55,1577875464.796875
-141.48,1577875464.8125
-152.32,1577875464.828125
-156.49,1577875464.84375
-155.65,1577875464.859375
-151.45,1577875464.875
-145.29,1577875464.890625
-138.29,1577875464.90625
-131.27,1577875464.921875
-124.7,1577875464.9375
-118.84,1577875464.953125
-113.65,1577875464.96875
-108.87,1577875464.984375
-104.08,1577875465.0
-98.85,1577875465.015625
-93.0,1577875465.03125
-86.72,1577875465.046875
-80.67,1577875465.0625
-75.6,1577875465.078125
-72.04,1577875465.09375
-70.0,1577875465.109375
-68.85,1577875465.125
-67.75,1577875465.140625
-65.96,1577875465.15625
-63.35,1577875465.171875
-60.44,1577875465.1875
-58.33,1577875465.203125
-58.21,1577875465.21875
-61.07,1577875465.234375
-67.18,1577875465.25
-75.77,1577875465.265625
-84.95,1577875465.28125
-91.93,1577875465.296875
-93.72,1577875465.3125
-87.98,1577875465.328125
-73.96,1577875465.34375
-52.89,1577875465.359375
-27.71,1577875465.375
-2.21,1577875465.390625
20.25,1577875465.40625
37.58,1577875465.421875
49.54,1577875465.4375
57.22,1577875465.453125
62.33,1577875465.46875
66.3,1577875465.484375
69.81,1577875465.5
72.72,1577875465.515625
74.41,1577875465.53125
74.38,1577875465.546875
72.56,1577875465.5625
69.46,1577875465.578125
65.9,1577875465.59375
62.72,1577875465.609375
60.41,1577875465.625
58.98,1577875465.640625
58.06,1577875465.65625
57.09,1577875465.671875
55.63,1577875465.6875
53.43,1577875465.703125
50.48,1577875465.71875
46.87,1577875465.734375
42.67,1577875465.75
37.88,1577875465.765625
32.45,1577875465.78125
26.35,1577875465.796875
19.64,1577875465.8125
12.49,1577875465.828125
5.16,1577875465.84375
-2.11,1577875465.859375
-9.03,1577875465.875
-15.43,1577875465.890625
-21.18,1577875465.90625
-26.29,1577875465.921875
-30.87,1577875465.9375
-35.17,1577875465.953125
-39.6,1577875465.96875
-44.67,1577875465.984375
-50.87,1577875466.0
-58.53,1577875466.015625
-67.46,1577875466.03125
-76.78,1577875466.046875
-84.8,1577875466.0625
-89.28,1577875466.078125
-88.12,1577875466.09375
-80.05,1577875466.109375
-65.26,1577875466.125
-45.54,1577875466.140625
-23.75,1577875466.15625
-2.95,1577875466.171875
14.57,1577875466.1875
27.82,1577875466.203125
37.13,1577875466.21875
43.58,1577875466.234375
48.32,1577875466.25
52.0,1577875466.265625
54.68,1577875466.28125
56.01,1577875466.296875
55.67,1577875466.3125
53.72,1577875466.328125
50.69,1577875466.34375
47.35,1577875466.359375
44.51,1577875466.375
42.69,1577875466.390625
42.03,1577875466.40625
42.33,1577875466.421875
43.1,1577875466.4375
43.79,1577875466.453125
43.87,1577875466.46875
42.92,1577875466.484375
40.77,1577875466.5
37.44,1577875466.515625
33.11,1577875466.53125
28.07,1577875466.546875
22.58,1577875466.5625
16.73,1577875466.578125
10.56,1577875466.59375
4.0,1577875466.609375
-2.84,1577875466.625
-9.71,1577875466.640625
-16.24,1577875466.65625
-22.11,1577875466.671875
-27.19,1577875466.6875
-31.65,1577875466.703125
-35.87,1577875466.71875
-40.3,1577875466.734375
-45.34,1577875466.75
-51.33,1577875466.765625
-58.51,1577875466.78125
-66.93,1577875466.796875
-76.15,1577875466.8125
-85.0,1577875466.828125
-91.44,1577875466.84375
-93.02,1577875466.859375
-87.68,1577875466.875
-74.76,1577875466.890625
-55.51,1577875466.90625
-32.85,1577875466.921875
-10.41,1577875466.9375
8.73,1577875466.953125
23.1,1577875466.96875
32.91,1577875466.984375
39.53,1577875467.0
44.44,1577875467.015625
48.48,1577875467.03125
51.62,1577875467.046875
53.31,1577875467.0625
53.04,1577875467.078125
50.87,1577875467.09375
47.47,1577875467.109375
43.88,1577875467.125
41.07,1577875467.140625
39.62,1577875467.15625
39.57,1577875467.171875
40.46,1577875467.1875
41.6,1577875467.203125
42.34,1577875467.21875
42.17,1577875467.234375
40.87,1577875467.25
38.43,1577875467.265625
35.03,1577875467.28125
30.87,1577875467.296875
26.18,1577875467.3125
21.13,1577875467.328125
15.85,1577875467.34375
10.35,1577875467.359375
4.64,1577875467.375
-1.29,1577875467.390625
-7.42,1577875467.40625
-13.64,1577875467.421875
-19.75,1577875467.4375
-25.51,1577875467.453125
-30.68,1577875467.46875
-35.13,1577875467.484375
-38.94,1577875467.5
-42.42,1577875467.515625
-46.16,1577875467.53125
-50.92,1577875467.546875
-57.36,1577875467.5625
-65.64,1577875467.578125
-74.99,1577875467.59375
-83.59,1577875467.609375
-88.89,1577875467.625
-88.33,1577875467.640625
-80.41,1577875467.65625
-65.37,1577875467.671875
-45.27,1577875467.6875
-23.23,1577875467.703125
-2.45,1577875467.71875
14.88,1577875467.734375
27.99,1577875467.75
37.28,1577875467.765625
43.67,1577875467.78125
47.94,1577875467.796875
50.44,1577875467.8125
51.18,1577875467.828125
50.16,1577875467.84375
47.65,1577875467.859375
44.24,1577875467.875
40.71,1577875467.890625
37.8,1577875467.90625
35.99,1577875467.921875
35.42,1577875467.9375
35.89,1577875467.953125
36.98,1577875467.96875
38.08,1577875467.984375
38.61,1577875468.0
38.12,1577875468.015625
36.46,1577875468.03125
33.77,1577875468.046875
30.39,1577875468.0625
26.62,1577875468.078125
22.54,1577875468.09375
17.96,1577875468.109375
12.5,1577875468.125
5.88,1577875468.140625
-1.81,1577875468.15625
-10.07,1577875468.171875
-18.09,1577875468.1875
-25.12,1577875468.203125
-30.78,1577875468.21875
-35.22,1577875468.234375
-39.04,1577875468.25
-42.96,1577875468.265625
-47.63,1577875468.28125
-53.42,1577875468.296875
-60.47,1577875468.3125
-68.69,1577875468.328125
-77.54,1577875468.34375
-85.83,1577875468.359375
-91.72,1577875468.375
-93.02,1577875468.390625
-87.88,1577875468.40625
-75.69,1577875468.421875
-57.47,1577875468.4375
-35.77,1577875468.453125
-13.81,1577875468.46875
5.59,1577875468.484375
20.89,1577875468.5
31.99,1577875468.515625
39.84,1577875468.53125
45.65,1577875468.546875
50.23,1577875468.5625
53.76,1577875468.578125
55.91,1577875468.59375
56.29,1577875468.609375
54.91,1577875468.625
52.27,1577875468.640625
49.29,1577875468.65625
46.88,1577875468.671875
45.62,1577875468.6875
45.44,1577875468.703125
45.75,1577875468.71875
45.71,1577875468.734375
44.66,1577875468.75
42.38,1577875468.765625
39.11,1577875468.78125
35.37,1577875468.796875
31.57,1577875468.8125
27.82,1577875468.828125
23.85,1577875468.84375
19.2,1577875468.859375
13.53,1577875468.875
6.79,1577875468.890625
-0.66,1577875468.90625
-8.25,1577875468.921875
-15.33,1577875468.9375
-21.5,1577875468.953125
-26.66,1577875468.96875
-31.04,1577875468.984375
-35.04,1577875469.0
-39.11,1577875469.015625
-43.7,1577875469.03125
-49.24,1577875469.046875
-56.14,1577875469.0625
-64.58,1577875469.078125
-74.16,1577875469.09375
-83.63,1577875469.109375
-90.86,1577875469.125
-93.33,1577875469.140625
-89.0,1577875469.15625
-77.23,1577875469.171875
-59.19,1577875469.1875
-37.58,1577875469.203125
-15.7,1577875469.21875
3.68,1577875469.234375
19.06,1577875469.25
30.42,1577875469.265625
38.64,1577875469.28125
44.81,1577875469.296875
49.58,1577875469.3125
53.05,1577875469.328125
54.91,1577875469.34375
54.86,1577875469.359375
52.99,1577875469.375
49.81,1577875469.390625
46.15,1577875469.40625
42.89,1577875469.421875
40.63,1577875469.4375
39.52,1577875469.453125
39.29,1577875469.46875
39.33,1577875469.484375
39.04,1577875469.5
38.05,1577875469.515625
36.31,1577875469.53125
34.06,1577875469.546875
31.54,1577875469.5625
28.82,1577875469.578125
25.66,1577875469.59375
21.64,1577875469.609375
16.35,1577875469.625
9.72,1577875469.640625
2.12,1577875469.65625
-5.68,1577875469.671875
-12.75,1577875469.6875
-18.45,1577875469.703125
-22.56,1577875469.71875
-25.55,1577875469.734375
-28.3,1577875469.75
-31.85,1577875469.765625
-37.08,1577875469.78125
-44.39,1577875469.796875
-53.61,1577875469.8125
-63.86,1577875469.828125
-73.65,1577875469.84375
-80.95,1577875469.859375
-83.69,1577875469.875
-80.29,1577875469.890625
-70.22,1577875469.90625
-54.41,1577875469.921875
-35.01,1577875469.9375
-14.87,1577875469.953125
3.43,1577875469.96875
18.27,1577875469.984375
29.25,1577875470.0
36.94,1577875470.015625
42.3,1577875470.03125
46.09,1577875470.046875
48.58,1577875470.0625
49.64,1577875470.078125
49.08,1577875470.09375
47.01,1577875470.109375
43.98,1577875470.125
40.85,1577875470.140625
38.42,1577875470.15625
37.13,1577875470.171875
36.85,1577875470.1875
36.97,1577875470.203125
36.79,1577875470.21875
35.81,1577875470.234375
34.0,1577875470.25
31.71,1577875470.265625
29.31,1577875470.28125
26.91,1577875470.296875
24.12,1577875470.3125
20.21,1577875470.328125
14.51,1577875470.34375
6.83,1577875470.359375
-2.34,1577875470.375
-11.87,1577875470.390625
-20.5,1577875470.40625
-27.3,1577875470.421875
-32.09,1577875470.4375
-35.46,1577875470.453125
-38.58,1577875470.46875
-42.72,1577875470.484375
-48.84,1577875470.5
-57.29,1577875470.515625
-67.46,1577875470.53125
-77.9,1577875470.546875
-86.41,1577875470.5625
-90.57,1577875470.578125
-88.47,1577875470.59375
-79.29,1577875470.609375
-63.77,1577875470.625
-44.0,1577875470.640625
-22.88,1577875470.65625
-3.14,1577875470.671875
13.4,1577875470.6875
26.17,1577875470.703125
35.68,1577875470.71875
42.85,1577875470.734375
48.49,1577875470.75
52.83,1577875470.765625
55.64,1577875470.78125
56.53,1577875470.796875
55.42,1577875470.8125
52.78,1577875470.828125
49.48,1577875470.84375
46.45,1577875470.859375
44.31,1577875470.875
43.1,1577875470.890625
42.3,1577875470.90625
41.18,1577875470.921875
39.2,1577875470.9375
36.27,1577875470.953125
32.75,1577875470.96875
29.2,1577875470.984375
25.96,1577875471.0
22.95,1577875471.015625
19.61,1577875471.03125
15.13,1577875471.046875
8.95,1577875471.0625
1.01,1577875471.078125
-8.07,1577875471.09375
-17.21,1577875471.109375
-25.34,1577875471.125
-31.79,1577875471.140625
-36.64,1577875471.15625
-40.55,1577875471.171875
-44.56,1577875471.1875
-49.68,1577875471.203125
-56.53,1577875471.21875
-65.23,1577875471.234375
-75.18,1577875471.25
-85.11,1577875471.265625
-93.11,1577875471.28125
-96.99,1577875471.296875
-94.83,1577875471.3125
-85.64,1577875471.328125
-69.92,1577875471.34375
-49.65,1577875471.359375
-27.76,1577875471.375
-7.18,1577875471.390625
10.05,1577875471.40625
23.28,1577875471.421875
33.1,1577875471.4375
40.69,1577875471.453125
47.07,1577875471.46875
52.58,1577875471.484375
56.9,1577875471.5
59.36,1577875471.515625
59.59,1577875471.53125
57.81,1577875471.546875
54.88,1577875471.5625
51.96,1577875471.578125
49.95,1577875471.59375
49.17,1577875471.609375
49.24,1577875471.625
49.34,1577875471.640625
48.73,1577875471.65625
47.03,1577875471.671875
44.39,1577875471.6875
41.25,1577875471.703125
38.02,1577875471.71875
34.88,1577875471.734375
31.64,1577875471.75
27.89,1577875471.765625
23.22,1577875471.78125
17.36,1577875471.796875
10.3,1577875471.8125
2.32,1577875471.828125
-6.12,1577875471.84375
-14.45,1577875471.859375
-22.18,1577875471.875
-28.97,1577875471.890625
-34.78,1577875471.90625
-39.89,1577875471.921875
-44.8,1577875471.9375
-50.16,1577875471.953125
-56.55,1577875471.96875
-64.39,1577875471.984375
-73.69,1577875472.0
-83.78,1577875472.015625
-93.14,1577875472.03125
-99.55,1577875472.046875
-100.65,1577875472.0625
-94.67,1577875472.078125
-81.35,1577875472.09375
-62.13,1577875472.109375
-39.83,1577875472.125
-17.77,1577875472.140625
1.44,1577875472.15625
16.49,1577875472.171875
27.52,1577875472.1875
35.53,1577875472.203125
41.67,1577875472.21875
46.59,1577875472.234375
50.36,1577875472.25
52.72,1577875472.265625
53.45,1577875472.28125
52.73,1577875472.296875
51.15,1577875472.3125
49.47,1577875472.328125
48.29,1577875472.34375
47.85,1577875472.359375
47.92,1577875472.375
48.02,1577875472.390625
47.66,1577875472.40625
46.59,1577875472.421875
44.9,1577875472.4375
42.93,1577875472.453125
41.04,1577875472.46875
39.38,1577875472.484375
37.67,1577875472.5
35.27,1577875472.515625
31.4,1577875472.53125
25.53,1577875472.546875
17.6,1577875472.5625
8.26,1577875472.578125
-1.38,1577875472.59375
-10.13,1577875472.609375
-17.17,1577875472.625
-22.4,1577875472.640625
-26.37,1577875472.65625
-30.08,1577875472.671875
-34.53,1577875472.6875
-40.44,1577875472.703125
-48.11,1577875472.71875
-57.39,1577875472.734375
-67.63,1577875472.75
-77.59,1577875472.765625
-85.41,1577875472.78125
-88.89,1577875472.796875
-86.18,1577875472.8125
-76.46,1577875472.828125
-60.5,1577875472.84375
-40.59,1577875472.859375
-19.76,1577875472.875
-0.83,1577875472.890625
14.51,1577875472.90625
25.96,1577875472.921875
34.23,1577875472.9375
40.33,1577875472.953125
44.95,1577875472.96875
48.16,1577875472.984375
49.65,1577875473.0
49.16,1577875473.015625
46.94,1577875473.03125
43.74,1577875473.046875
40.69,1577875473.0625
38.76,1577875473.078125
38.4,1577875473.09375
39.34,1577875473.109375
40.75,1577875473.125
41.66,1577875473.140625
41.41,1577875473.15625
39.96,1577875473.171875
37.72,1577875473.1875
35.3,1577875473.203125
33.03,1577875473.21875
30.75,1577875473.234375
27.8,1577875473.25
23.44,1577875473.265625
17.19,1577875473.28125
9.16,1577875473.296875
0.12,1577875473.3125
-8.89,1577875473.328125
-16.83,1577875473.34375
-23.18,1577875473.359375
-27.97,1577875473.375
-31.82,1577875473.390625
-35.65,1577875473.40625
-40.37,1577875473.421875
-46.71,1577875473.4375
-54.97,1577875473.453125
-64.87,1577875473.46875
-75.42,1577875473.484375
-84.9,1577875473.5
-91.08,1577875473.515625
-91.79,1577875473.53125
-85.63,1577875473.546875
-72.56,1577875473.5625
-54.06,1577875473.578125
-32.68,1577875473.59375
-11.32,1577875473.609375
7.74,1577875473.625
23.26,1577875473.640625
35.12,1577875473.65625
43.9,1577875473.671875
50.3,1577875473.6875
54.74,1577875473.703125
57.3,1577875473.71875
57.88,1577875473.734375
56.56,1577875473.75
53.77,1577875473.765625
50.27,1577875473.78125
46.97,1577875473.796875
44.65,1577875473.8125
43.73,1577875473.828125
44.18,1577875473.84375
45.57,1577875473.859375
47.26,1577875473.875
48.57,1577875473.890625
48.9,1577875473.90625
47.85,1577875473.921875
45.25,1577875473.9375
41.2,1577875473.953125
36.01,1577875473.96875
30.15,1577875473.984375
24.03,1577875474.0
17.91,1577875474.015625
11.82,1577875474.03125
5.56,1577875474.046875
-1.09,1577875474.0625
-8.26,1577875474.078125
-15.8,1577875474.09375
-23.37,1577875474.109375
-30.51,1577875474.125
-36.87,1577875474.140625
-42.35,1577875474.15625
-47.17,1577875474.171875
-51.83,1577875474.1875
-56.95,1577875474.203125
-63.13,1577875474.21875
-70.8,1577875474.234375
-79.95,1577875474.25
-89.84,1577875474.265625
-98.87,1577875474.28125
-104.71,1577875474.296875
-104.88,1577875474.3125
-97.6,1577875474.328125
-82.67,1577875474.34375
-61.75,1577875474.359375
-37.99,1577875474.375
-14.96,1577875474.390625
4.58,1577875474.40625
19.5,1577875474.421875
30.23,1577875474.4375
38.2,1577875474.453125
44.8,1577875474.46875
50.7,1577875474.484375
55.74,1577875474.5
59.31,1577875474.515625
60.84,1577875474.53125
60.33,1577875474.546875
58.31,1577875474.5625
55.7,1577875474.578125
53.36,1577875474.59375
51.82,1577875474.609375
51.14,1577875474.625
50.99,1577875474.640625
50.87,1577875474.65625
50.3,1577875474.671875
48.98,1577875474.6875
46.82,1577875474.703125
43.92,1577875474.71875
40.36,1577875474.734375
36.25,1577875474.75
31.56,1577875474.765625
26.25,1577875474.78125
20.27,1577875474.796875
13.66,1577875474.8125
6.55,1577875474.828125
-0.83,1577875474.84375
-8.17,1577875474.859375
-15.14,1577875474.875
-21.47,1577875474.890625
-26.97,1577875474.90625
-31.69,1577875474.921875
-35.85,1577875474.9375
-39.93,1577875474.953125
-44.56,1577875474.96875
-50.43,1577875474.984375
-58.05,1577875475.0
-67.44,1577875475.015625
-77.8,1577875475.03125
-87.4,1577875475.046875
-93.85,1577875475.0625
-94.8,1577875475.078125
-88.74,1577875475.09375
-75.66,1577875475.109375
-57.23,1577875475.125
-36.18,1577875475.140625
-15.41,1577875475.15625
2.89,1577875475.171875
17.75,1577875475.1875
29.28,1577875475.203125
38.2,1577875475.21875
45.14,1577875475.234375
50.45,1577875475.25
54.06,1577875475.265625
55.85,1577875475.28125
55.84,1577875475.296875
54.36,1577875475.3125
52.03,1577875475.328125
49.57,1577875475.34375
47.61,1577875475.359375
46.49,1577875475.375
46.21,1577875475.390625
46.43,1577875475.40625
46.64,1577875475.421875
46.3,1577875475.4375
45.09,1577875475.453125
42.96,1577875475.46875
40.14,1577875475.484375
36.95,1577875475.5
33.57,1577875475.515625
29.91,1577875475.53125
25.57,1577875475.546875
20.07,1577875475.5625
13.12,1577875475.578125
4.85,1577875475.59375
-4.17,1577875475.609375
-13.11,1577875475.625
-21.19,1577875475.640625
-27.98,1577875475.65625
-33.48,1577875475.671875
-38.1,1577875475.6875
-42.39,1577875475.703125
-46.95,1577875475.71875
-52.3,1577875475.734375
-58.81,1577875475.75
-66.63,1577875475.765625
-75.4,1577875475.78125
-84.09,1577875475.796875
-90.85,1577875475.8125
-93.4,1577875475.828125
-89.73,1577875475.84375
-78.87,1577875475.859375
-61.5,1577875475.875
-39.89,1577875475.890625
-17.23,1577875475.90625
3.41,1577875475.921875
20.02,1577875475.9375
32.06,1577875475.953125
40.2,1577875475.96875
45.7,1577875475.984375
49.61,1577875476.0
52.39,1577875476.015625
53.9,1577875476.03125
53.89,1577875476.046875
52.33,1577875476.0625
49.65,1577875476.078125
46.64,1577875476.09375
44.11,1577875476.109375
42.59,1577875476.125
42.12,1577875476.140625
42.33,1577875476.15625
42.65,1577875476.171875
42.53,1577875476.1875
41.62,1577875476.203125
39.83,1577875476.21875
37.3,1577875476.234375
34.25,1577875476.25
30.98,1577875476.265625
27.65,1577875476.28125
24.2,1577875476.296875
20.4,1577875476.3125
15.83,1577875476.328125
10.15,1577875476.34375
3.32,1577875476.359375
-4.31,1577875476.375
-12.0,1577875476.390625
-19.01,1577875476.40625
-24.79,1577875476.421875
-29.34,1577875476.4375
-33.11,1577875476.453125
-36.84,1577875476.46875
-41.31,1577875476.484375
-47.04,1577875476.5
-54.21,1577875476.515625
-62.56,1577875476.53125
-71.32,1577875476.546875
-79.13,1577875476.5625
-84.22,1577875476.578125
-84.67,1577875476.59375
-79.02,1577875476.609375
-66.9,1577875476.625
-49.3,1577875476.640625
-28.47,1577875476.65625
-7.24,1577875476.671875
11.85,1577875476.6875
27.2,1577875476.703125
38.41,1577875476.71875
45.98,1577875476.734375
50.77,1577875476.75
53.46,1577875476.765625
54.35,1577875476.78125
53.49,1577875476.796875
50.99,1577875476.8125
47.3,1577875476.828125
43.24,1577875476.84375
39.75,1577875476.859375
37.47,1577875476.875
36.51,1577875476.890625
36.4,1577875476.90625
36.35,1577875476.921875
35.63,1577875476.9375
33.94,1577875476.953125
31.44,1577875476.96875
28.63,1577875476.984375
25.91,1577875477.0
23.39,1577875477.015625
20.7,1577875477.03125
17.19,1577875477.046875
12.22,1577875477.0625
5.53,1577875477.078125
-2.59,1577875477.09375
-11.29,1577875477.109375
-19.55,1577875477.125
-26.48,1577875477.140625
-31.8,1577875477.15625
-35.85,1577875477.171875
-39.53,1577875477.1875
-43.86,1577875477.203125
-49.65,1577875477.21875
-57.26,1577875477.234375
-66.39,1577875477.25
-76.11,1577875477.265625
-84.78,1577875477.28125
-90.31,1577875477.296875
-90.63,1577875477.3125
-84.27,1577875477.328125
-71.05,1577875477.34375
-52.31,1577875477.359375
-30.74,1577875477.375
-9.42,1577875477.390625
9.09,1577875477.40625
23.51,1577875477.421875
33.94,1577875477.4375
41.38,1577875477.453125
46.91,1577875477.46875
51.14,1577875477.484375
54.02,1577875477.5
55.15,1577875477.515625
54.33,1577875477.53125
51.85,1577875477.546875
48.49,1577875477.5625
45.25,1577875477.578125
42.83,1577875477.59375
41.39,1577875477.609375
40.54,1577875477.625
39.65,1577875477.640625
38.21,1577875477.65625
36.14,1577875477.671875
33.69,1577875477.6875
31.24,1577875477.703125
29.06,1577875477.71875
27.04,1577875477.734375
24.71,1577875477.75
21.46,1577875477.765625
16.74,1577875477.78125
10.32,1577875477.796875
2.44,1577875477.8125
-6.28,1577875477.828125
-14.99,1577875477.84375
-22.87,1577875477.859375
-29.43,1577875477.875
-34.64,1577875477.890625
-38.94,1577875477.90625
-43.13,1577875477.921875
-48.12,1577875477.9375
-54.72,1577875477.953125
-63.29,1577875477.96875
-73.56,1577875477.984375
-84.35,1577875478.0
-93.71,1577875478.015625
-99.16,1577875478.03125
-98.45,1577875478.046875
-90.32,1577875478.0625
-75.0,1577875478.078125
-54.37,1577875478.09375
-31.32,1577875478.109375
-8.84,1577875478.125
10.82,1577875478.140625
26.64,1577875478.15625
38.65,1577875478.171875
47.53,1577875478.1875
53.91,1577875478.203125
58.14,1577875478.21875
60.29,1577875478.234375
60.42,1577875478.25
58.82,1577875478.265625
56.1,1577875478.28125
53.06,1577875478.296875
50.39,1577875478.3125
48.49,1577875478.328125
47.3,1577875478.34375
46.46,1577875478.359375
45.45,1577875478.375
43.87,1577875478.390625
41.61,1577875478.40625
38.88,1577875478.421875
36.04,1577875478.4375
33.43,1577875478.453125
31.08,1577875478.46875
28.62,1577875478.484375
25.37,1577875478.5
20.62,1577875478.515625
13.98,1577875478.53125
5.58,1577875478.546875
-3.85,1577875478.5625
-13.23,1577875478.578125
-21.52,1577875478.59375
-28.09,1577875478.609375
-32.95,1577875478.625
-36.71,1577875478.640625
-40.32,1577875478.65625
-44.75,1577875478.671875
-50.73,1577875478.6875
-58.45,1577875478.703125
-67.51,1577875478.71875
-76.76,1577875478.734375
-84.42,1577875478.75
-88.28,1577875478.765625
-86.41,1577875478.78125
-77.67,1577875478.796875
-62.35,1577875478.8125
-42.25,1577875478.828125
-20.16,1577875478.84375
0.94,1577875478.859375
18.74,1577875478.875
32.14,1577875478.890625
41.27,1577875478.90625
46.98,1577875478.921875
50.23,1577875478.9375
51.74,1577875478.953125
51.83,1577875478.96875
50.69,1577875478.984375
48.52,1577875479.0
45.72,1577875479.015625
42.73,1577875479.03125
39.92,1577875479.046875
37.44,1577875479.0625
35.24,1577875479.078125
33.16,1577875479.09375
31.1,1577875479.109375
29.08,1577875479.125
27.26,1577875479.140625
25.78,1577875479.15625
24.63,1577875479.171875
23.51,1577875479.1875
21.87,1577875479.203125
19.04,1577875479.21875
14.58,1577875479.234375
8.4,1577875479.25
0.94,1577875479.265625
-6.98,1577875479.28125
-14.47,1577875479.296875
-20.9,1577875479.3125
-26.13,1577875479.328125
-30.61,1577875479.34375
-35.2,1577875479.359375
-40.89,1577875479.375
-48.36,1577875479.390625
-57.71,1577875479.40625
-68.11,1577875479.421875
-77.83,1577875479.4375
-84.55,1577875479.453125
-85.91,1577875479.46875
-80.34,1577875479.484375
-67.62,1577875479.5
-49.17,1577875479.515625
-27.58,1577875479.53125
-5.87,1577875479.546875
13.4,1577875479.5625
28.77,1577875479.578125
39.9,1577875479.59375
47.27,1577875479.609375
51.61,1577875479.625
53.49,1577875479.640625
53.25,1577875479.65625
51.19,1577875479.671875
47.68,1577875479.6875
43.34,1577875479.703125
38.92,1577875479.71875
35.05,1577875479.734375
32.09,1577875479.75
30.03,1577875479.765625
28.62,1577875479.78125
27.49,1577875479.796875
26.39,1577875479.8125
25.29,1577875479.828125
24.24,1577875479.84375
23.22,1577875479.859375
21.97,1577875479.875
19.91,1577875479.890625
16.38,1577875479.90625
10.91,1577875479.921875
3.54,1577875479.9375
-5.07,1577875479.953125
-13.87,1577875479.96875
-21.77,1577875479.984375
-28.14,1577875480.0
-33.09,1577875480.015625
-37.39,1577875480.03125
-42.18,1577875480.046875
-48.45,1577875480.0625
-56.68,1577875480.078125
-66.38,1577875480.09375
-76.06,1577875480.109375
-83.49,1577875480.125
-86.18,1577875480.140625
-82.27,1577875480.15625
-71.13,1577875480.171875
-53.74,1577875480.1875
-32.47,1577875480.203125
-10.32,1577875480.21875
9.95,1577875480.234375
26.57,1577875480.25
38.95,1577875480.265625
47.45,1577875480.28125
52.77,1577875480.296875
55.53,1577875480.3125
56.12,1577875480.328125
54.81,1577875480.34375
52.02,1577875480.359375
48.42,1577875480.375
44.76,1577875480.390625
41.63,1577875480.40625
39.23,1577875480.421875
37.32,1577875480.4375
35.46,1577875480.453125
33.26,1577875480.46875
30.67,1577875480.484375
27.97,1577875480.5
25.51,1577875480.515625
23.45,1577875480.53125
21.57,1577875480.546875
19.27,1577875480.5625
15.83,1577875480.578125
10.71,1577875480.59375
3.87,1577875480.609375
-4.27,1577875480.625
-12.89,1577875480.640625
-21.11,1577875480.65625
-28.3,1577875480.671875
-34.26,1577875480.6875
-39.3,1577875480.703125
-44.17,1577875480.71875
-49.83,1577875480.734375
-57.13,1577875480.75
-66.4,1577875480.765625
-77.01,1577875480.78125
-87.3,1577875480.796875
-94.78,1577875480.8125
-96.83,1577875480.828125
-91.64,1577875480.84375
-78.9,1577875480.859375
-60.09,1577875480.875
-38.03,1577875480.890625
-15.85,1577875480.90625
3.91,1577875480.921875
19.98,1577875480.9375
32.3,1577875480.953125
41.52,1577875480.96875
48.35,1577875480.984375
53.17,1577875481.0
55.98,1577875481.015625
56.72,1577875481.03125
55.57,1577875481.046875
53.07,1577875481.0625
49.96,1577875481.078125
46.92,1577875481.09375
44.26,1577875481.109375
41.95,1577875481.125
39.67,1577875481.140625
37.13,1577875481.15625
34.28,1577875481.171875
31.36,1577875481.1875
28.78,1577875481.203125
26.81,1577875481.21875
25.37,1577875481.234375
23.95,1577875481.25
21.72,1577875481.265625
17.91,1577875481.28125
12.1,1577875481.296875
4.48,1577875481.3125
-4.19,1577875481.328125
-12.91,1577875481.34375
-20.76,1577875481.359375
-27.32,1577875481.375
-32.83,1577875481.390625
-38.03,1577875481.40625
-43.89,1577875481.421875
-51.23,1577875481.4375
-60.41,1577875481.453125
-70.99,1577875481.46875
-81.69,1577875481.484375
-90.5,1577875481.5
-95.03,1577875481.515625
-93.29,1577875481.53125
-84.27,1577875481.546875
-68.48,1577875481.5625
-47.87,1577875481.578125
-25.34,1577875481.59375
-3.73,1577875481.609375
14.86,1577875481.625
29.55,1577875481.640625
40.54,1577875481.65625
48.56,1577875481.671875
54.34,1577875481.6875
58.27,1577875481.703125
60.42,1577875481.71875
60.75,1577875481.734375
59.45,1577875481.75
56.96,1577875481.765625
53.96,1577875481.78125
51.1,1577875481.796875
48.73,1577875481.8125
46.88,1577875481.828125
45.28,1577875481.84375
43.56,1577875481.859375
41.5,1577875481.875
39.12,1577875481.890625
36.62,1577875481.90625
34.22,1577875481.921875
32.03,1577875481.9375
29.83,1577875481.953125
27.17,1577875481.96875
23.47,1577875481.984375
18.21,1577875482.0
11.21,1577875482.015625
2.72,1577875482.03125
-6.56,1577875482.046875
-15.68,1577875482.0625
-23.75,1577875482.078125
-30.36,1577875482.09375
-35.67,1577875482.109375
-40.39,1577875482.125
-45.52,1577875482.140625
-52.02,1577875482.15625
-60.41,1577875482.171875
-70.51,1577875482.1875
-81.34,1577875482.203125
-91.15,1577875482.21875
-97.68,1577875482.234375
-98.79,1577875482.25
-93.04,1577875482.265625
-80.24,1577875482.28125
-61.69,1577875482.296875
-39.76,1577875482.3125
-17.27,1577875482.328125
3.31,1577875482.34375
20.46,1577875482.359375
33.7,1577875482.375
43.36,1577875482.390625
50.08,1577875482.40625
54.45,1577875482.421875
56.84,1577875482.4375
57.47,1577875482.453125
56.57,1577875482.46875
54.54,1577875482.484375
51.93,1577875482.5
49.36,1577875482.515625
47.25,1577875482.53125
45.74,1577875482.546875
44.66,1577875482.5625
43.66,1577875482.578125
42.42,1577875482.59375
40.8,1577875482.609375
38.92,1577875482.625
36.99,1577875482.640625
35.23,1577875482.65625
33.59,1577875482.671875
31.79,1577875482.6875
29.32,1577875482.703125
25.58,1577875482.71875
20.19,1577875482.734375
13.08,1577875482.75
4.62,1577875482.765625
-4.45,1577875482.78125
-13.25,1577875482.796875
-21.09,1577875482.8125
-27.67,1577875482.828125
-33.19,1577875482.84375
-38.28,1577875482.859375
-43.73,1577875482.875
-50.36,1577875482.890625
-58.63,1577875482.90625
-68.51,1577875482.921875
-79.3,1577875482.9375
-89.53,1577875482.953125
-97.1,1577875482.96875
-99.76,1577875482.984375
-95.71,1577875483.0
-84.31,1577875483.015625
-66.45,1577875483.03125
-44.38,1577875483.046875
-21.13,1577875483.0625
0.47,1577875483.078125
18.5,1577875483.09375
32.35,1577875483.109375
42.39,1577875483.125
49.5,1577875483.140625
54.36,1577875483.15625
57.26,1577875483.171875
58.19,1577875483.1875
57.16,1577875483.203125
54.57,1577875483.21875
51.21,1577875483.234375
48.03,1577875483.25
45.75,1577875483.265625
44.55,1577875483.28125
44.03,1577875483.296875
43.52,1577875483.3125
42.39,1577875483.328125
40.4,1577875483.34375
37.78,1577875483.359375
34.97,1577875483.375
32.39,1577875483.390625
30.07,1577875483.40625
27.64,1577875483.421875
24.37,1577875483.4375
19.62,1577875483.453125
13.1,1577875483.46875
5.14,1577875483.484375
-3.41,1577875483.5
-11.57,1577875483.515625
-18.49,1577875483.53125
-23.99,1577875483.546875
-28.4,1577875483.5625
-32.5,1577875483.578125
-37.09,1577875483.59375
-42.83,1577875483.609375
-50.04,1577875483.625
-58.61,1577875483.640625
-67.98,1577875483.65625
-76.93,1577875483.671875
-83.63,1577875483.6875
-85.89,1577875483.703125
-81.83,1577875483.71875
-70.59,1577875483.734375
-52.91,1577875483.75
-31.11,1577875483.765625
-8.3,1577875483.78125
12.52,1577875483.796875
29.47,1577875483.8125
42.04,1577875483.828125
50.78,1577875483.84375
56.64,1577875483.859375
60.27,1577875483.875
61.9,1577875483.890625
61.43,1577875483.90625
58.93,1577875483.921875
54.91,1577875483.9375
50.38,1577875483.953125
46.47,1577875483.96875
44.04,1577875483.984375
43.28,1577875484.0
43.74,1577875484.015625
44.58,1577875484.03125
45.02,1577875484.046875
44.7,1577875484.0625
43.75,1577875484.078125
42.67,1577875484.09375
41.95,1577875484.109375
41.76,1577875484.125
41.79,1577875484.140625
41.42,1577875484.15625
39.99,1577875484.171875
37.13,1577875484.1875
33.01,1577875484.203125
28.24,1577875484.21875
23.63,1577875484.234375
19.95,1577875484.25
17.58,1577875484.265625
16.49,1577875484.28125
16.28,1577875484.296875
16.43,1577875484.3125
16.55,1577875484.328125
16.52,1577875484.34375
16.52,1577875484.359375
16.97,1577875484.375
18.51,1577875484.390625
21.77,1577875484.40625
27.25,1577875484.421875
35.17,1577875484.4375
45.13,1577875484.453125
55.96,1577875484.46875
65.71,1577875484.484375
71.87,1577875484.5
72.07,1577875484.515625
64.78,1577875484.53125
49.88,1577875484.546875
28.76,1577875484.5625
3.86,1577875484.578125
-22.08,1577875484.59375
-46.75,1577875484.609375
-68.65,1577875484.625
-87.05,1577875484.640625
-101.63,1577875484.65625
-112.21,1577875484.671875
-118.65,1577875484.6875
-121.05,1577875484.703125
-119.95,1577875484.71875
-116.4,1577875484.734375
-111.67,1577875484.75
-106.82,1577875484.765625
-102.42,1577875484.78125
-98.41,1577875484.796875
-94.35,1577875484.8125
-89.77,1577875484.828125
-84.52,1577875484.84375
-78.95,1577875484.859375
-73.79,1577875484.875
-69.82,1577875484.890625
-67.49,1577875484.90625
-66.7,1577875484.921875
-66.77,1577875484.9375
-66.74,1577875484.953125
-65.83,1577875484.96875
-63.8,1577875484.984375
-61.21,1577875485.0
-59.18,1577875485.015625
-58.99,1577875485.03125
-61.56,1577875485.046875
-66.92,1577875485.0625
-73.96,1577875485.078125
-80.53,1577875485.09375
-83.91,1577875485.109375
-81.59,1577875485.125
-72.05,1577875485.140625
-55.35,1577875485.15625
-33.19,1577875485.171875
-8.42,1577875485.1875
15.86,1577875485.203125
37.14,1577875485.21875
54.14,1577875485.234375
66.7,1577875485.25
75.41,1577875485.265625
80.99,1577875485.28125
83.94,1577875485.296875
84.5,1577875485.3125
82.84,1577875485.328125
79.37,1577875485.34375
74.79,1577875485.359375
69.97,1577875485.375
65.69,1577875485.390625
62.27,1577875485.40625
59.6,1577875485.421875
57.2,1577875485.4375
54.53,1577875485.453125
51.28,1577875485.46875
47.54,1577875485.484375
43.68,1577875485.5
40.19,1577875485.515625
37.32,1577875485.53125
34.91,1577875485.546875
32.36,1577875485.5625
28.85,1577875485.578125
23.68,1577875485.59375
16.64,1577875485.609375
8.14,1577875485.625
-0.95,1577875485.640625
-9.55,1577875485.65625
-16.86,1577875485.671875
-22.7,1577875485.6875
-27.57,1577875485.703125
-32.46,1577875485.71875
-38.5,1577875485.734375
-46.52,1577875485.75
-56.67,1577875485.765625
-68.22,1577875485.78125
-79.54,1577875485.796875
-88.32,1577875485.8125
-92.08,1577875485.828125
-88.89,1577875485.84375
-78.0,1577875485.859375
-60.34,1577875485.875
-38.24,1577875485.890625
-14.87,1577875485.90625
6.84,1577875485.921875
24.89,1577875485.9375
38.56,1577875485.953125
48.19,1577875485.96875
54.56,1577875485.984375
58.4,1577875486.0
60.06,1577875486.015625
59.76,1577875486.03125
57.69,1577875486.046875
54.36,1577875486.0625
50.45,1577875486.078125
46.67,1577875486.09375
43.45,1577875486.109375
40.88,1577875486.125
38.66,1577875486.140625
36.37,1577875486.15625
33.74,1577875486.171875
30.77,1577875486.1875
27.82,1577875486.203125
25.4,1577875486.21875
23.85,1577875486.234375
23.05,1577875486.25
22.27,1577875486.265625
20.41,1577875486.28125
16.4,1577875486.296875
9.77,1577875486.3125
0.93,1577875486.328125
-8.94,1577875486.34375
-18.24,1577875486.359375
-25.76,1577875486.375
-31.06,1577875486.390625
-34.71,1577875486.40625
-37.93,1577875486.421875
-42.21,1577875486.4375
-48.62,1577875486.453125
-57.46,1577875486.46875
-68.02,1577875486.484375
-78.68,1577875486.5
-87.17,1577875486.515625
-91.04,1577875486.53125
-88.35,1577875486.546875
-78.22,1577875486.5625
-61.26,1577875486.578125
-39.49,1577875486.59375
-15.88,1577875486.609375
6.58,1577875486.625
25.56,1577875486.640625
39.95,1577875486.65625
49.79,1577875486.671875
55.79,1577875486.6875
58.87,1577875486.703125
59.72,1577875486.71875
58.75,1577875486.734375
56.28,1577875486.75
52.68,1577875486.765625
48.55,1577875486.78125
44.53,1577875486.796875
41.13,1577875486.8125
38.5,1577875486.828125
36.49,1577875486.84375
34.73,1577875486.859375
32.9,1577875486.875
30.94,1577875486.890625
29.03,1577875486.90625
27.43,1577875486.921875
26.22,1577875486.9375
25.13,1577875486.953125
23.45,1577875486.96875
20.4,1577875486.984375
15.39,1577875487.0
8.4,1577875487.015625
-0.01,1577875487.03125
-8.86,1577875487.046875
-17.13,1577875487.0625
-24.16,1577875487.078125
-29.91,1577875487.09375
-34.97,1577875487.109375
-40.32,1577875487.125
-47.04,1577875487.140625
-55.74,1577875487.15625
-66.29,1577875487.171875
-77.47,1577875487.1875
-87.13,1577875487.203125
-92.61,1577875487.21875
-91.54,1577875487.234375
-82.64,1577875487.25
-66.31,1577875487.265625
-44.61,1577875487.28125
-20.71,1577875487.296875
2.11,1577875487.3125
21.27,1577875487.328125
35.51,1577875487.34375
44.74,1577875487.359375
49.73,1577875487.375
51.51,1577875487.390625
50.99,1577875487.40625
48.86,1577875487.421875
45.68,1577875487.4375
41.97,1577875487.453125
38.29,1577875487.46875
35.1,1577875487.484375
32.67,1577875487.5
31.02,1577875487.515625
29.99,1577875487.53125
29.31,1577875487.546875
28.76,1577875487.5625
28.2,1577875487.578125
27.52,1577875487.59375
26.53,1577875487.609375
24.94,1577875487.625
22.33,1577875487.640625
18.32,1577875487.65625
12.65,1577875487.671875
5.4,1577875487.6875
-3.0,1577875487.703125
-11.81,1577875487.71875
-20.2,1577875487.734375
-27.58,1577875487.75
-33.8,1577875487.765625
-39.29,1577875487.78125
-45.02,1577875487.796875
-52.05,1577875487.8125
-61.13,1577875487.828125
-72.07,1577875487.84375
-83.49,1577875487.859375
-92.91,1577875487.875
-97.44,1577875487.890625
-94.74,1577875487.90625
-83.96,1577875487.921875
-66.18,1577875487.9375
-44.09,1577875487.953125
-21.09,1577875487.96875
-0.12,1577875487.984375
17.05,1577875488.0
30.15,1577875488.015625
39.78,1577875488.03125
46.88,1577875488.046875
52.0,1577875488.0625
55.26,1577875488.078125
56.52,1577875488.09375
55.78,1577875488.109375
53.38,1577875488.125
49.96,1577875488.140625
46.29,1577875488.15625
42.87,1577875488.171875
39.9,1577875488.1875
37.3,1577875488.203125
34.87,1577875488.21875
32.53,1577875488.234375
30.38,1577875488.25
28.59,1577875488.265625
27.27,1577875488.28125
26.23,1577875488.296875
24.89,1577875488.3125
22.48,1577875488.328125
18.31,1577875488.34375
12.12,1577875488.359375
4.33,1577875488.375
-4.22,1577875488.390625
-12.46,1577875488.40625
-19.64,1577875488.421875
-25.55,1577875488.4375
-30.57,1577875488.453125
-35.45,1577875488.46875
-41.02,1577875488.484375
-48.03,1577875488.5
-56.93,1577875488.515625
-67.68,1577875488.53125
-79.56,1577875488.546875
-90.96,1577875488.5625
-99.54,1577875488.578125
-102.74,1577875488.59375
-98.63,1577875488.609375
-86.71,1577875488.625
-68.23,1577875488.640625
-45.86,1577875488.65625
-22.72,1577875488.671875
-1.46,1577875488.6875
16.49,1577875488.703125
30.88,1577875488.71875
42.27,1577875488.734375
51.33,1577875488.75
58.47,1577875488.765625
63.72,1577875488.78125
66.95,1577875488.796875
68.1,1577875488.8125
67.4,1577875488.828125
65.34,1577875488.84375
62.61,1577875488.859375
59.82,1577875488.875
57.4,1577875488.890625
55.38,1577875488.90625
53.52,1577875488.921875
51.39,1577875488.9375
48.67,1577875488.953125
45.39,1577875488.96875
41.84,1577875488.984375
38.51,1577875489.0
35.74,1577875489.015625
33.45,1577875489.03125
31.07,1577875489.046875
27.78,1577875489.0625
22.8,1577875489.078125
15.81,1577875489.09375
7.12,1577875489.109375
-2.51,1577875489.125
-12.02,1577875489.140625
-20.61,1577875489.15625
-27.87,1577875489.171875
-33.91,1577875489.1875
-39.29,1577875489.203125
-44.77,1577875489.21875
-51.12,1577875489.234375
-58.98,1577875489.25
-68.65,1577875489.265625
-79.87,1577875489.28125
-91.63,1577875489.296875
-102.01,1577875489.3125
-108.54,1577875489.328125
-108.7,1577875489.34375
-100.91,1577875489.359375
-85.17,1577875489.375
-63.25,1577875489.390625
-38.27,1577875489.40625
-13.65,1577875489.421875
7.9,1577875489.4375
25.12,1577875489.453125
38.16,1577875489.46875
47.98,1577875489.484375
55.56,1577875489.5
61.35,1577875489.515625
65.19,1577875489.53125
66.67,1577875489.546875
65.73,1577875489.5625
62.87,1577875489.578125
59.14,1577875489.59375
55.7,1577875489.609375
53.31,1577875489.625
52.0,1577875489.640625
51.15,1577875489.65625
49.95,1577875489.671875
47.79,1577875489.6875
44.71,1577875489.703125
41.27,1577875489.71875
38.17,1577875489.734375
35.87,1577875489.75
34.16,1577875489.765625
32.28,1577875489.78125
29.2,1577875489.796875
24.14,1577875489.8125
16.99,1577875489.828125
8.34,1577875489.84375
-0.71,1577875489.859375
-9.08,1577875489.875
-16.08,1577875489.890625
-21.64,1577875489.90625
-26.24,1577875489.921875
-30.69,1577875489.9375
-35.84,1577875489.953125
-42.34,1577875489.96875
-50.51,1577875489.984375
-60.2,1577875490.0
-70.69,1577875490.015625
-80.51,1577875490.03125
-87.61,1577875490.046875
-89.79,1577875490.0625
-85.4,1577875490.078125
-74.01,1577875490.09375
-56.76,1577875490.109375
-36.03,1577875490.125
-14.76,1577875490.140625
4.54,1577875490.15625
20.41,1577875490.171875
32.58,1577875490.1875
41.64,1577875490.203125
48.37,1577875490.21875
53.24,1577875490.234375
56.27,1577875490.25
57.23,1577875490.265625
56.06,1577875490.28125
53.19,1577875490.296875
49.56,1577875490.3125
46.28,1577875490.328125
44.22,1577875490.34375
43.55,1577875490.359375
43.75,1577875490.375
43.92,1577875490.390625
43.21,1577875490.40625
41.29,1577875490.421875
38.48,1577875490.4375
35.49,1577875490.453125
32.93,1577875490.46875
30.96,1577875490.484375
29.1,1577875490.5
26.45,1577875490.515625
22.13,1577875490.53125
15.69,1577875490.546875
7.4,1577875490.5625
-1.86,1577875490.578125
-10.9,1577875490.59375
-18.69,1577875490.609375
-24.77,1577875490.625
-29.32,1577875490.640625
-33.12,1577875490.65625
-37.22,1577875490.671875
-42.63,1577875490.6875
-50.06,1577875490.703125
-59.65,1577875490.71875
-70.8,1577875490.734375
-82.06,1577875490.75
-91.24,1577875490.765625
-95.85,1577875490.78125
-93.78,1577875490.796875
-84.16,1577875490.8125
-67.74,1577875490.828125
-46.8,1577875490.84375
-24.43,1577875490.859375
-3.52,1577875490.875
14.11,1577875490.890625
27.99,1577875490.90625
38.65,1577875490.921875
46.98,1577875490.9375
53.59,1577875490.953125
58.61,1577875490.96875
61.83,1577875490.984375
63.03,1577875491.0
62.32,1577875491.015625
60.18,1577875491.03125
57.38,1577875491.046875
54.67,1577875491.0625
52.58,1577875491.078125
51.25,1577875491.09375
50.48,1577875491.109375
49.86,1577875491.125
48.93,1577875491.140625
47.4,1577875491.15625
45.15,1577875491.171875
42.35,1577875491.1875
39.19,1577875491.203125
35.86,1577875491.21875
32.37,1577875491.234375
28.5,1577875491.25
23.9,1577875491.265625
18.23,1577875491.28125
11.39,1577875491.296875
3.63,1577875491.3125
-4.47,1577875491.328125
-12.23,1577875491.34375
-19.11,1577875491.359375
-24.94,1577875491.375
-29.99,1577875491.390625
-34.85,1577875491.40625
-40.21,1577875491.421875
-46.7,1577875491.4375
-54.68,1577875491.453125
-64.19,1577875491.46875
-74.72,1577875491.484375
-85.18,1577875491.5
-93.8,1577875491.515625
-98.47,1577875491.53125
-97.23,1577875491.546875
-89.0,1577875491.5625
-74.13,1577875491.578125
-54.44,1577875491.59375
-32.68,1577875491.609375
-11.69,1577875491.625
6.43,1577875491.640625
20.83,1577875491.65625
31.7,1577875491.671875
39.85,1577875491.6875
46.11,1577875491.703125
50.9,1577875491.71875
54.29,1577875491.734375
56.09,1577875491.75
56.19,1577875491.765625
54.7,1577875491.78125
52.08,1577875491.796875
48.94,1577875491.8125
45.91,1577875491.828125
43.42,1577875491.84375
41.59,1577875491.859375
40.23,1577875491.875
38.98,1577875491.890625
37.49,1577875491.90625
35.56,1577875491.921875
33.22,1577875491.9375
30.62,1577875491.953125
27.81,1577875491.96875
24.68,1577875491.984375
20.95,1577875492.0
16.31,1577875492.015625
10.61,1577875492.03125
4.0,1577875492.046875
-3.11,1577875492.0625
-10.27,1577875492.078125
-17.06,1577875492.09375
-23.28,1577875492.109375
-28.9,1577875492.125
-34.03,1577875492.140625
-38.83,1577875492.15625
-43.53,1577875492.171875
-48.48,1577875492.1875
-54.18,1577875492.203125
-61.16,1577875492.21875
-69.63,1577875492.234375
-79.12,1577875492.25
-88.17,1577875492.265625
-94.5,1577875492.28125
-95.67,1577875492.296875
-89.91,1577875492.3125
-76.97,1577875492.328125
-58.37,1577875492.34375
-36.85,1577875492.359375
-15.49,1577875492.375
3.38,1577875492.390625
18.71,1577875492.40625
30.66,1577875492.421875
40.04,1577875492.4375
47.61,1577875492.453125
53.69,1577875492.46875
58.18,1577875492.484375
60.88,1577875492.5
61.79,1577875492.515625
61.21,1577875492.53125
59.65,1577875492.546875
57.6,1577875492.5625
55.43,1577875492.578125
53.26,1577875492.59375
51.2,1577875492.609375
49.29,1577875492.625
47.64,1577875492.640625
46.21,1577875492.65625
44.9,1577875492.671875
43.38,1577875492.6875
41.31,1577875492.703125
38.44,1577875492.71875
34.75,1577875492.734375
30.47,1577875492.75
25.81,1577875492.765625
20.92,1577875492.78125
15.67,1577875492.796875
9.84,1577875492.8125
3.32,1577875492.828125
-3.77,1577875492.84375
-10.94,1577875492.859375
-17.63,1577875492.875
-23.38,1577875492.890625
-28.13,1577875492.90625
-32.21,1577875492.921875
-36.2,1577875492.9375
-40.74,1577875492.953125
-46.37,1577875492.96875
-53.37,1577875492.984375
-61.69,1577875493.0
-70.77,1577875493.015625
-79.38,1577875493.03125
-85.72,1577875493.046875
-87.69,1577875493.0625
-83.66,1577875493.078125
-72.99,1577875493.09375
-56.56,1577875493.109375
-36.54,1577875493.125
-15.75,1577875493.140625
3.21,1577875493.15625
18.76,1577875493.171875
30.48,1577875493.1875
38.95,1577875493.203125
45.06,1577875493.21875
49.51,1577875493.234375
52.51,1577875493.25
53.85,1577875493.265625
53.38,1577875493.28125
51.21,1577875493.296875
47.96,1577875493.3125
44.56,1577875493.328125
41.8,1577875493.34375
40.1,1577875493.359375
39.31,1577875493.375
38.88,1577875493.390625
38.15,1577875493.40625
36.69,1577875493.421875
34.44,1577875493.4375
31.71,1577875493.453125
28.98,1577875493.46875
26.55,1577875493.484375
24.44,1577875493.5
22.23,1577875493.515625
19.23,1577875493.53125
14.82,1577875493.546875
8.66,1577875493.5625
1.0,1577875493.578125
-7.42,1577875493.59375
-15.59,1577875493.609375
-22.66,1577875493.625
-28.26,1577875493.640625
-32.62,1577875493.65625
-36.41,1577875493.671875
-40.4,1577875493.6875
-45.29,1577875493.703125
-51.56,1577875493.71875
-59.36,1577875493.734375
-68.41,1577875493.75
-77.8,1577875493.765625
-85.84,1577875493.78125
-90.33,1577875493.796875
-89.12,1577875493.8125
-80.93,1577875493.828125
-66.0,1577875493.84375
-46.17,1577875493.859375
-24.36,1577875493.875
-3.54,1577875493.890625
14.18,1577875493.90625
28.02,1577875493.921875
38.37,1577875493.9375
46.14,1577875493.953125
52.17,1577875493.96875
56.76,1577875493.984375
59.73,1577875494.0
60.82,1577875494.015625
59.95,1577875494.03125
57.47,1577875494.046875
54.04,1577875494.0625
50.43,1577875494.078125
47.21,1577875494.09375
44.69,1577875494.109375
42.91,1577875494.125
41.68,1577875494.140625
40.73,1577875494.15625
39.72,1577875494.171875
38.31,1577875494.1875
36.25,1577875494.203125
33.4,1577875494.21875
29.81,1577875494.234375
25.64,1577875494.25
21.09,1577875494.265625
16.2,1577875494.28125
10.86,1577875494.296875
4.88,1577875494.3125
-1.82,1577875494.328125
-9.04,1577875494.34375
-16.35,1577875494.359375
-23.26,1577875494.375
-29.39,1577875494.390625
-34.7,1577875494.40625
-39.47,1577875494.421875
-44.17,1577875494.4375
-49.38,1577875494.453125
-55.61,1577875494.46875
-63.24,1577875494.484375
-72.29,1577875494.5
-82.22,1577875494.515625
-91.75,1577875494.53125
-98.9,1577875494.546875
-101.52,1577875494.5625
-97.84,1577875494.578125
-87.29,1577875494.59375
-70.73,1577875494.609375
-50.25,1577875494.625
-28.53,1577875494.640625
-7.95,1577875494.65625
9.89,1577875494.671875
24.42,1577875494.6875
35.75,1577875494.703125
44.39,1577875494.71875
50.84,1577875494.734375
55.46,1577875494.75
58.51,1577875494.765625
60.15,1577875494.78125
60.54,1577875494.796875
59.9,1577875494.8125
58.51,1577875494.828125
56.7,1577875494.84375
54.85,1577875494.859375
53.32,1577875494.875
52.26,1577875494.890625
51.65,1577875494.90625
51.25,1577875494.921875
50.71,1577875494.9375
49.74,1577875494.953125
48.15,1577875494.96875
45.88,1577875494.984375
42.88,1577875495.0
39.15,1577875495.015625
34.6,1577875495.03125
29.33,1577875495.046875
23.54,1577875495.0625
17.63,1577875495.078125
11.96,1577875495.09375
6.66,1577875495.109375
1.49,1577875495.125
-4.05,1577875495.140625
-10.49,1577875495.15625
-18.05,1577875495.171875
-26.36,1577875495.1875
-34.61,1577875495.203125
-41.83,1577875495.21875
-47.44,1577875495.234375
-51.52,1577875495.25
-54.89,1577875495.265625
-58.83,1577875495.28125
-64.54,1577875495.296875
-72.67,1577875495.3125
-82.84,1577875495.328125
-93.55,1577875495.34375
-102.39,1577875495.359375
-106.63,1577875495.375
-104.04,1577875495.390625
-93.63,1577875495.40625
-76.08,1577875495.421875
-53.62,1577875495.4375
-29.32,1577875495.453125
-6.21,1577875495.46875
13.51,1577875495.484375
28.86,1577875495.5
40.02,1577875495.515625
47.77,1577875495.53125
53.04,1577875495.546875
56.45,1577875495.5625
58.3,1577875495.578125
58.65,1577875495.59375
57.64,1577875495.609375
55.56,1577875495.625
52.86,1577875495.640625
50.08,1577875495.65625
47.7,1577875495.671875
46.0,1577875495.6875
45.1,1577875495.703125
44.89,1577875495.71875
45.13,1577875495.734375
45.44,1577875495.75
45.43,1577875495.765625
44.69,1577875495.78125
42.89,1577875495.796875
39.93,1577875495.8125
35.89,1577875495.828125
30.99,1577875495.84375
25.55,1577875495.859375
19.8,1577875495.875
13.87,1577875495.890625
7.77,1577875495.90625
1.42,1577875495.921875
-5.25,1577875495.9375
-12.23,1577875495.953125
-19.34,1577875495.96875
-26.26,1577875495.984375
-32.6,1577875496.0
-38.05,1577875496.015625
-42.59,1577875496.03125
-46.53,1577875496.046875
-50.51,1577875496.0625
-55.33,1577875496.078125
-61.67,1577875496.09375
-69.73,1577875496.109375
-78.87,1577875496.125
-87.43,1577875496.140625
-93.06,1577875496.15625
-93.29,1577875496.171875
-86.4,1577875496.1875
-72.12,1577875496.203125
-51.86,1577875496.21875
-28.28,1577875496.234375
-4.45,1577875496.25
17.06,1577875496.265625
34.81,1577875496.28125
48.48,1577875496.296875
58.53,1577875496.3125
65.62,1577875496.328125
70.27,1577875496.34375
72.79,1577875496.359375
73.45,1577875496.375
72.68,1577875496.390625
71.16,1577875496.40625
69.74,1577875496.421875
69.13,1577875496.4375
69.74,1577875496.453125
71.59,1577875496.46875
74.34,1577875496.484375
77.59,1577875496.5
80.94,1577875496.515625
84.19,1577875496.53125
87.25,1577875496.546875
90.03,1577875496.5625
92.54,1577875496.578125
94.92,1577875496.59375
97.55,1577875496.609375
100.89,1577875496.625
105.16,1577875496.640625
109.92,1577875496.65625
113.9,1577875496.671875
115.29,1577875496.6875
112.46,1577875496.703125
104.67,1577875496.71875
92.24,1577875496.734375
76.23,1577875496.75
57.5,1577875496.765625
36.27,1577875496.78125
11.87,1577875496.796875
-16.52,1577875496.8125
-49.12,1577875496.828125
-85.05,1577875496.84375
-122.53,1577875496.859375
-159.49,1577875496.875
-194.06,1577875496.890625
-224.62,1577875496.90625
-249.39,1577875496.921875
-266.08,1577875496.9375
-272.14,1577875496.953125
-265.67,1577875496.96875
-246.59,1577875496.984375
-217.24,1577875497.0
-182.03,1577875497.015625
-146.06,1577875497.03125
-113.56,1577875497.046875
-86.75,1577875497.0625
-65.79,1577875497.078125
-49.54,1577875497.09375
-36.54,1577875497.109375
-25.93,1577875497.125
-17.43,1577875497.140625
-11.08,1577875497.15625
-6.65,1577875497.171875
-3.49,1577875497.1875
-0.61,1577875497.203125
3.01,1577875497.21875
7.95,1577875497.234375
14.22,1577875497.25
21.23,1577875497.265625
28.08,1577875497.28125
33.88,1577875497.296875
38.01,1577875497.3125
40.35,1577875497.328125
41.15,1577875497.34375
40.92,1577875497.359375
40.13,1577875497.375
38.96,1577875497.390625
37.25,1577875497.40625
34.63,1577875497.421875
30.68,1577875497.4375
25.26,1577875497.453125
18.6,1577875497.46875
11.11,1577875497.484375
3.38,1577875497.5
-4.15,1577875497.515625
-11.19,1577875497.53125
-17.65,1577875497.546875
-23.54,1577875497.5625
-28.99,1577875497.578125
-34.38,1577875497.59375
-40.28,1577875497.609375
-47.44,1577875497.625
-56.4,1577875497.640625
-67.05,1577875497.65625
-78.23,1577875497.671875
-87.69,1577875497.6875
-92.65,1577875497.703125
-90.61,1577875497.71875
-80.35,1577875497.734375
-62.4,1577875497.75
-39.0,1577875497.765625
-13.42,1577875497.78125
11.07,1577875497.796875
32.0,1577875497.8125
48.17,1577875497.828125
59.56,1577875497.84375
66.93,1577875497.859375
71.26,1577875497.875
73.37,1577875497.890625
73.77,1577875497.90625
72.75,1577875497.921875
70.49,1577875497.9375
67.25,1577875497.953125
63.47,1577875497.96875
59.7,1577875497.984375
56.51,1577875498.0
54.26,1577875498.015625
53.04,1577875498.03125
52.63,1577875498.046875
52.59,1577875498.0625
52.38,1577875498.078125
51.56,1577875498.09375
49.86,1577875498.109375
47.2,1577875498.125
43.6,1577875498.140625
39.16,1577875498.15625
33.88,1577875498.171875
27.84,1577875498.1875
21.16,1577875498.203125
14.06,1577875498.21875
6.83,1577875498.234375
-0.3,1577875498.25
-7.22,1577875498.265625
-13.97,1577875498.28125
-20.67,1577875498.296875
-27.35,1577875498.3125
-33.96,1577875498.328125
-40.31,1577875498.34375
-46.3,1577875498.359375
-52.08,1577875498.375
-58.19,1577875498.390625
-65.43,1577875498.40625
-74.5,1577875498.421875
-85.49,1577875498.4375
-97.38,1577875498.453125
-107.9,1577875498.46875
-114.03,1577875498.484375
-112.86,1577875498.5
-102.72,1577875498.515625
-83.88,1577875498.53125
-58.67,1577875498.546875
-30.68,1577875498.5625
-3.64,1577875498.578125
19.65,1577875498.59375
37.86,1577875498.609375
51.0,1577875498.625
59.93,1577875498.640625
65.58,1577875498.65625
68.71,1577875498.671875
69.78,1577875498.6875
69.19,1577875498.703125
67.38,1577875498.71875
64.93,1577875498.734375
62.41,1577875498.75
60.24,1577875498.765625
58.57,1577875498.78125
57.3,1577875498.796875
56.24,1577875498.8125
55.21,1577875498.828125
54.17,1577875498.84375
53.13,1577875498.859375
52.11,1577875498.875
50.99,1577875498.890625
49.43,1577875498.90625
47.0,1577875498.921875
43.29,1577875498.9375
38.2,1577875498.953125
31.96,1577875498.96875
25.08,1577875498.984375
18.12,1577875499.0
11.44,1577875499.015625
5.04,1577875499.03125
-1.41,1577875499.046875
-8.35,1577875499.0625
-16.06,1577875499.078125
-24.4,1577875499.09375
-32.87,1577875499.109375
-40.76,1577875499.125
-47.49,1577875499.140625
-52.91,1577875499.15625
-57.36,1577875499.171875
-61.67,1577875499.1875
-66.91,1577875499.203125
-74.05,1577875499.21875
-83.54,1577875499.234375
-94.94,1577875499.25
-106.69,1577875499.265625
-116.17,1577875499.28125
-120.3,1577875499.296875
-116.42,1577875499.3125
-103.3,1577875499.328125
-81.72,1577875499.34375
-54.42,1577875499.359375
-25.3,1577875499.375
1.77,1577875499.390625
24.04,1577875499.40625
40.42,1577875499.421875
51.23,1577875499.4375
57.65,1577875499.453125
61.01,1577875499.46875
62.35,1577875499.484375
62.32,1577875499.5
61.3,1577875499.515625
59.63,1577875499.53125
57.58,1577875499.546875
55.46,1577875499.5625
53.52,1577875499.578125
51.98,1577875499.59375
50.96,1577875499.609375
50.52,1577875499.625
50.62,1577875499.640625
50.97,1577875499.65625
51.22,1577875499.671875
50.9,1577875499.6875
49.72,1577875499.703125
47.54,1577875499.71875
44.5,1577875499.734375
40.75,1577875499.75
36.43,1577875499.765625
31.52,1577875499.78125
25.91,1577875499.796875
19.49,1577875499.8125
12.28,1577875499.828125
4.48,1577875499.84375
-3.56,1577875499.859375
-11.43,1577875499.875
-18.82,1577875499.890625
-25.57,1577875499.90625
-31.73,1577875499.921875
-37.52,1577875499.9375
-43.34,1577875499.953125
-49.62,1577875499.96875
-56.81,1577875499.984375
-65.31,1577875500.0
-75.31,1577875500.015625
-86.5,1577875500.03125
-97.79,1577875500.046875
-107.12,1577875500.0625
-111.78,1577875500.078125
-109.16,1577875500.09375
-97.78,1577875500.109375
-78.14,1577875500.125
-52.79,1577875500.140625
-25.57,1577875500.15625
-0.35,1577875500.171875
20.2,1577875500.1875
35.28,1577875500.203125
45.62,1577875500.21875
52.64,1577875500.234375
57.51,1577875500.25
60.68,1577875500.265625
62.06,1577875500.28125
61.47,1577875500.296875
59.11,1577875500.3125
55.73,1577875500.328125
52.25,1577875500.34375
49.44,1577875500.359375
47.65,1577875500.375
46.76,1577875500.390625
46.4,1577875500.40625
46.26,1577875500.421875
46.08,1577875500.4375
45.7,1577875500.453125
44.91,1577875500.46875
43.39,1577875500.484375
40.86,1577875500.5
37.13,1577875500.515625
32.25,1577875500.53125
26.45,1577875500.546875
20.0,1577875500.5625
13.04,1577875500.578125
5.56,1577875500.59375
-2.49,1577875500.609375
-11.0,1577875500.625
-19.6,1577875500.640625
-27.77,1577875500.65625
-35.01,1577875500.671875
-41.17,1577875500.6875
-46.53,1577875500.703125
-51.73,1577875500.71875
-57.6,1577875500.734375
-64.85,1577875500.75
-73.93,1577875500.765625
-84.82,1577875500.78125
-96.93,1577875500.796875
-108.99,1577875500.8125
-118.99,1577875500.828125
-124.49,1577875500.84375
-123.2,1577875500.859375
-113.76,1577875500.875
-96.35,1577875500.890625
-72.83,1577875500.90625
-46.19,1577875500.921875
-19.75,1577875500.9375
3.94,1577875500.953125
23.56,1577875500.96875
39.07,1577875500.984375
51.2,1577875501.0
60.85,1577875501.015625
68.57,1577875501.03125
74.4,1577875501.046875
78.09,1577875501.0625
79.45,1577875501.078125
78.65,1577875501.09375
76.26,1577875501.109375
73.21,1577875501.125
70.32,1577875501.140625
68.11,1577875501.15625
66.69,1577875501.171875
65.91,1577875501.1875
65.57,1577875501.203125
65.58,1577875501.21875
65.85,1577875501.234375
66.16,1577875501.25
65.94,1577875501.265625
64.3,1577875501.28125
60.43,1577875501.296875
53.95,1577875501.3125
45.23,1577875501.328125
35.32,1577875501.34375
25.56,1577875501.359375
17.03,1577875501.375
10.08,1577875501.390625
4.26,1577875501.40625
-1.47,1577875501.421875
-8.17,1577875501.4375
-16.44,1577875501.453125
-26.13,1577875501.46875
-36.38,1577875501.484375
-46.06,1577875501.5
-54.23,1577875501.515625
-60.66,1577875501.53125
-65.85,1577875501.546875
-70.99,1577875501.5625
-77.45,1577875501.578125
-86.38,1577875501.59375
-98.15,1577875501.609375
-112.0,1577875501.625
-125.87,1577875501.640625
-136.73,1577875501.65625
-141.23,1577875501.671875
-136.73,1577875501.6875
-122.23,1577875501.703125
-98.82,1577875501.71875
-69.5,1577875501.734375
-38.29,1577875501.75
-8.98,1577875501.765625
15.75,1577875501.78125
34.87,1577875501.796875
48.73,1577875501.8125
58.45,1577875501.828125
65.27,1577875501.84375
70.03,1577875501.859375
73.07,1577875501.875
74.42,1577875501.890625
74.12,1577875501.90625
72.43,1577875501.921875
69.92,1577875501.9375
67.36,1577875501.953125
65.41,1577875501.96875
64.38,1577875501.984375
64.2,1577875502.0
64.47,1577875502.015625
64.69,1577875502.03125
64.48,1577875502.046875
63.59,1577875502.0625
61.9,1577875502.078125
59.32,1577875502.09375
55.75,1577875502.109375
51.07,1577875502.125
45.22,1577875502.140625
38.27,1577875502.15625
30.42,1577875502.171875
21.91,1577875502.1875
13.03,1577875502.203125
4.03,1577875502.21875
-4.91,1577875502.234375
-13.64,1577875502.25
-21.99,1577875502.265625
-29.8,1577875502.28125
-37.01,1577875502.296875
-43.66,1577875502.3125
-50.07,1577875502.328125
-56.74,1577875502.34375
-64.39,1577875502.359375
-73.69,1577875502.375
-84.89,1577875502.390625
-97.49,1577875502.40625
-109.91,1577875502.421875
-119.65,1577875502.4375
-123.75,1577875502.453125
-119.76,1577875502.46875
-106.62,1577875502.484375
-85.18,1577875502.5
-58.12,1577875502.515625
-29.15,1577875502.53125
-1.91,1577875502.546875
21.02,1577875502.5625
38.6,1577875502.578125
51.14,1577875502.59375
59.7,1577875502.609375
65.38,1577875502.625
68.88,1577875502.640625
70.43,1577875502.65625
70.04,1577875502.671875
67.84,1577875502.6875
64.4,1577875502.703125
60.64,1577875502.71875
57.62,1577875502.734375
56.07,1577875502.75
56.13,1577875502.765625
57.24,1577875502.78125
58.44,1577875502.796875
58.76,1577875502.8125
57.67,1577875502.828125
55.23,1577875502.84375
51.92,1577875502.859375
48.3,1577875502.875
44.69,1577875502.890625
40.89,1577875502.90625
36.32,1577875502.921875
30.33,1577875502.9375
22.55,1577875502.953125
13.15,1577875502.96875
2.84,1577875502.984375
-7.32,1577875503.0
-16.42,1577875503.015625
-23.95,1577875503.03125
-29.99,1577875503.046875
-35.13,1577875503.0625
-40.23,1577875503.078125
-46.16,1577875503.09375
-53.63,1577875503.109375
-63.06,1577875503.125
-74.42,1577875503.140625
-86.95,1577875503.15625
-99.01,1577875503.171875
-108.14,1577875503.1875
-111.56,1577875503.203125
-106.99,1577875503.21875
-93.58,1577875503.234375
-72.36,1577875503.25
-46.05,1577875503.265625
-18.34,1577875503.28125
7.3,1577875503.296875
28.51,1577875503.3125
44.42,1577875503.328125
55.44,1577875503.34375
62.64,1577875503.359375
67.13,1577875503.375
69.62,1577875503.390625
70.49,1577875503.40625
69.95,1577875503.421875
68.29,1577875503.4375
66.0,1577875503.453125
63.66,1577875503.46875
61.77,1577875503.484375
60.58,1577875503.5
59.98,1577875503.515625
59.73,1577875503.53125
59.56,1577875503.546875
59.26,1577875503.5625
58.69,1577875503.578125
57.65,1577875503.59375
55.84,1577875503.609375
52.9,1577875503.625
48.61,1577875503.640625
42.99,1577875503.65625
36.37,1577875503.671875
29.29,1577875503.6875
22.21,1577875503.703125
15.33,1577875503.71875
8.55,1577875503.734375
1.53,1577875503.75
-6.04,1577875503.765625
-14.26,1577875503.78125
-22.87,1577875503.796875
-31.37,1577875503.8125
-39.21,1577875503.828125
-46.07,1577875503.84375
-52.0,1577875503.859375
-57.44,1577875503.875
-63.17,1577875503.890625
-70.07,1577875503.90625
-78.87,1577875503.921875
-89.87,1577875503.9375
-102.58,1577875503.953125
-115.48,1577875503.96875
-126.09,1577875503.984375
-131.39,1577875504.0
-128.81,1577875504.015625
-117.11,1577875504.03125
-97.01,1577875504.046875
-71.17,1577875504.0625
-43.29,1577875504.078125
-16.94,1577875504.09375
5.57,1577875504.109375
23.63,1577875504.125
37.95,1577875504.140625
49.74,1577875504.15625
59.84,1577875504.171875
68.38,1577875504.1875
74.9,1577875504.203125
78.9,1577875504.21875
80.3,1577875504.234375
79.58,1577875504.25
77.57,1577875504.265625
75.13,1577875504.28125
72.76,1577875504.296875
70.67,1577875504.3125
68.89,1577875504.328125
67.43,1577875504.34375
66.41,1577875504.359375
65.86,1577875504.375
65.62,1577875504.390625
65.18,1577875504.40625
63.81,1577875504.421875
60.84,1577875504.4375
55.93,1577875504.453125
49.23,1577875504.46875
41.35,1577875504.484375
33.12,1577875504.5
25.19,1577875504.515625
17.77,1577875504.53125
10.62,1577875504.546875
3.17,1577875504.5625
-5.06,1577875504.578125
-14.15,1577875504.59375
-23.71,1577875504.609375
-33.03,1577875504.625
-41.41,1577875504.640625
-48.53,1577875504.65625
-54.58,1577875504.671875
-60.21,1577875504.6875
-66.34,1577875504.703125
-73.97,1577875504.71875
-83.81,1577875504.734375
-96.05,1577875504.75
-109.89,1577875504.765625
-123.33,1577875504.78125
-133.38,1577875504.796875
-136.68,1577875504.8125
-130.72,1577875504.828125
-114.87,1577875504.84375
-90.81,1577875504.859375
-62.09,1577875504.875
-32.94,1577875504.890625
-6.83,1577875504.90625
14.42,1577875504.921875
30.75,1577875504.9375
43.23,1577875504.953125
53.12,1577875504.96875
61.21,1577875504.984375
67.64,1577875505.0
72.15,1577875505.015625
74.56,1577875505.03125
75.01,1577875505.046875
74.03,1577875505.0625
72.27,1577875505.078125
70.28,1577875505.09375
68.41,1577875505.109375
66.78,1577875505.125
65.41,1577875505.140625
64.36,1577875505.15625
63.73,1577875505.171875
63.54,1577875505.1875
63.62,1577875505.203125
63.46,1577875505.21875
62.3,1577875505.234375
59.4,1577875505.25
54.3,1577875505.265625
47.09,1577875505.28125
38.42,1577875505.296875
29.33,1577875505.3125
20.79,1577875505.328125
13.39,1577875505.34375
7.06,1577875505.359375
1.16,1577875505.375
-5.17,1577875505.390625
-12.55,1577875505.40625
-21.07,1577875505.421875
-30.25,1577875505.4375
-39.27,1577875505.453125
-47.39,1577875505.46875
-54.23,1577875505.484375
-59.96,1577875505.5
-65.29,1577875505.515625
-71.23,1577875505.53125
-78.86,1577875505.546875
-88.77,1577875505.5625
-100.69,1577875505.578125
-113.06,1577875505.59375
-123.12,1577875505.609375
-127.52,1577875505.625
-123.42,1577875505.640625
-109.56,1577875505.65625
-86.94,1577875505.671875
-58.63,1577875505.6875
-28.75,1577875505.703125
-1.14,1577875505.71875
21.73,1577875505.734375
39.18,1577875505.75
51.89,1577875505.765625
61.08,1577875505.78125
67.78,1577875505.796875
72.47,1577875505.8125
75.16,1577875505.828125
75.88,1577875505.84375
74.9,1577875505.859375
72.82,1577875505.875
70.49,1577875505.890625
68.59,1577875505.90625
67.48,1577875505.921875
67.1,1577875505.9375
67.14,1577875505.953125
67.24,1577875505.96875
67.17,1577875505.984375
66.8,1577875506.0
66.04,1577875506.015625
64.7,1577875506.03125
62.41,1577875506.046875
58.81,1577875506.0625
53.63,1577875506.078125
46.96,1577875506.09375
39.21,1577875506.109375
30.99,1577875506.125
22.91,1577875506.140625
15.23,1577875506.15625
7.87,1577875506.171875
0.48,1577875506.1875
-7.34,1577875506.203125
-15.68,1577875506.21875
-24.34,1577875506.234375
-32.77,1577875506.25
-40.42,1577875506.265625
-46.98,1577875506.28125
-52.57,1577875506.296875
-57.79,1577875506.3125
-63.56,1577875506.328125
-70.9,1577875506.34375
-80.46,1577875506.359375
-92.25,1577875506.375
-105.16,1577875506.390625
-116.93,1577875506.40625
-124.51,1577875506.421875
-124.8,1577875506.4375
-115.79,1577875506.453125
-97.35,1577875506.46875
-71.55,1577875506.484375
-42.02,1577875506.5
-12.92,1577875506.515625
12.46,1577875506.53125
32.34,1577875506.546875
46.64,1577875506.5625
56.35,1577875506.578125
62.75,1577875506.59375
66.85,1577875506.609375
69.15,1577875506.625
69.91,1577875506.640625
69.38,1577875506.65625
67.95,1577875506.671875
66.16,1577875506.6875
64.42,1577875506.703125
62.91,1577875506.71875
61.54,1577875506.734375
60.11,1577875506.75
58.5,1577875506.765625
56.76,1577875506.78125
55.12,1577875506.796875
53.75,1577875506.8125
52.59,1577875506.828125
51.24,1577875506.84375
49.07,1577875506.859375
45.39,1577875506.875
39.89,1577875506.890625
32.74,1577875506.90625
24.62,1577875506.921875
16.38,1577875506.9375
8.66,1577875506.953125
1.62,1577875506.96875
-5.05,1577875506.984375
-11.94,1577875507.0
-19.44,1577875507.015625
-27.56,1577875507.03125
-35.91,1577875507.046875
-43.85,1577875507.0625
-50.83,1577875507.078125
-56.69,1577875507.09375
-61.67,1577875507.109375
-66.4,1577875507.125
-71.79,1577875507.140625
-78.86,1577875507.15625
-88.38,1577875507.171875
-100.39,1577875507.1875
-113.72,1577875507.203125
-125.87,1577875507.21875
-133.42,1577875507.234375
-133.07,1577875507.25
-122.76,1577875507.265625
-102.7,1577875507.28125
-75.32,1577875507.296875
-44.65,1577875507.3125
-14.88,1577875507.328125
10.82,1577875507.34375
31.04,1577875507.359375
46.0,1577875507.375
56.9,1577875507.390625
65.01,1577875507.40625
71.07,1577875507.421875
75.24,1577875507.4375
77.36,1577875507.453125
77.42,1577875507.46875
75.81,1577875507.484375
73.31,1577875507.5
70.79,1577875507.515625
68.77,1577875507.53125
67.35,1577875507.546875
66.17,1577875507.5625
64.81,1577875507.578125
63.1,1577875507.59375
61.25,1577875507.609375
59.66,1577875507.625
58.63,1577875507.640625
58.02,1577875507.65625
57.21,1577875507.671875
55.28,1577875507.6875
51.42,1577875507.703125
45.37,1577875507.71875
37.52,1577875507.734375
28.83,1577875507.75
20.44,1577875507.765625
13.25,1577875507.78125
7.58,1577875507.796875
3.14,1577875507.8125
-0.86,1577875507.828125
-5.33,1577875507.84375
-11.01,1577875507.859375
-18.18,1577875507.875
-26.55,1577875507.890625
-35.39,1577875507.90625
-43.82,1577875507.921875
-51.11,1577875507.9375
-57.0,1577875507.953125
-61.76,1577875507.96875
-66.17,1577875507.984375
-71.26,1577875508.0
-78.03,1577875508.015625
-87.17,1577875508.03125
-98.67,1577875508.046875
-111.57,1577875508.0625
-123.88,1577875508.078125
-132.79,1577875508.09375
-135.28,1577875508.109375
-129.03,1577875508.125
-113.3,1577875508.140625
-89.39,1577875508.15625
-60.34,1577875508.171875
-30.13,1577875508.1875
-2.42,1577875508.203125
20.37,1577875508.21875
37.42,1577875508.234375
49.21,1577875508.25
56.9,1577875508.265625
61.67,1577875508.28125
64.33,1577875508.296875
65.37,1577875508.3125
65.11,1577875508.328125
63.88,1577875508.34375
62.08,1577875508.359375
60.15,1577875508.375
58.44,1577875508.390625
57.12,1577875508.40625
56.17,1577875508.421875
55.44,1577875508.4375
54.79,1577875508.453125
54.11,1577875508.46875
53.36,1577875508.484375
52.54,1577875508.5
51.5,1577875508.515625
49.92,1577875508.53125
47.28,1577875508.546875
43.16,1577875508.5625
37.38,1577875508.578125
30.25,1577875508.59375
22.46,1577875508.609375
14.85,1577875508.625
7.97,1577875508.640625
1.81,1577875508.65625
-4.09,1577875508.671875
-10.43,1577875508.6875
-17.61,1577875508.703125
-25.51,1577875508.71875
-33.56,1577875508.734375
-40.97,1577875508.75
-47.24,1577875508.765625
-52.32,1577875508.78125
-56.71,1577875508.796875
-61.25,1577875508.8125
-66.94,1577875508.828125
-74.53,1577875508.84375
-84.28,1577875508.859375
-95.52,1577875508.875
-106.48,1577875508.890625
-114.4,1577875508.90625
-116.18,1577875508.921875
-109.43,1577875508.9375
-93.39,1577875508.953125
-69.53,1577875508.96875
-41.06,1577875508.984375
-12.06,1577875509.0
13.9,1577875509.015625
34.62,1577875509.03125
49.54,1577875509.046875
59.35,1577875509.0625
65.25,1577875509.078125
68.35,1577875509.09375
69.35,1577875509.109375
68.63,1577875509.125
66.45,1577875509.140625
63.15,1577875509.15625
59.21,1577875509.171875
55.24,1577875509.1875
51.81,1577875509.203125
49.33,1577875509.21875
47.93,1577875509.234375
47.48,1577875509.25
47.61,1577875509.265625
47.81,1577875509.28125
47.56,1577875509.296875
46.46,1577875509.3125
44.22,1577875509.328125
40.72,1577875509.34375
35.94,1577875509.359375
29.98,1577875509.375
23.08,1577875509.390625
15.58,1577875509.40625
7.84,1577875509.421875
0.2,1577875509.4375
-7.1,1577875509.453125
-14.03,1577875509.46875
-20.73,1577875509.484375
-27.42,1577875509.5
-34.26,1577875509.515625
-41.21,1577875509.53125
-48.02,1577875509.546875
-54.31,1577875509.5625
-59.87,1577875509.578125
-64.88,1577875509.59375
-70.02,1577875509.609375
-76.28,1577875509.625
-84.48,1577875509.640625
-94.69,1577875509.65625
-105.77,1577875509.671875
-115.34,1577875509.6875
-120.33,1577875509.703125
-117.95,1577875509.71875
-106.62,1577875509.734375
-86.73,1577875509.75
-60.57,1577875509.765625
-31.65,1577875509.78125
-3.67,1577875509.796875
20.51,1577875509.8125
39.46,1577875509.828125
53.06,1577875509.84375
62.17,1577875509.859375
67.85,1577875509.875
71.03,1577875509.890625
72.32,1577875509.90625
72.06,1577875509.921875
70.55,1577875509.9375
68.15,1577875509.953125
65.26,1577875509.96875
62.29,1577875509.984375
59.6,1577875510.0
57.45,1577875510.015625
55.94,1577875510.03125
55.08,1577875510.046875
54.7,1577875510.0625
54.56,1577875510.078125
54.25,1577875510.09375
53.34,1577875510.109375
51.35,1577875510.125
47.94,1577875510.140625
42.94,1577875510.15625
36.49,1577875510.171875
29.01,1577875510.1875
21.07,1577875510.203125
13.25,1577875510.21875
5.85,1577875510.234375
-1.09,1577875510.25
-7.85,1577875510.265625
-14.74,1577875510.28125
-21.92,1577875510.296875
-29.31,1577875510.3125
-36.59,1577875510.328125
-43.36,1577875510.34375
-49.38,1577875510.359375
-54.67,1577875510.375
-59.6,1577875510.390625
-64.84,1577875510.40625
-71.28,1577875510.421875
-79.69,1577875510.4375
-90.37,1577875510.453125
-102.63,1577875510.46875
-114.5,1577875510.484375
-123.0,1577875510.5
-124.86,1577875510.515625
-117.65,1577875510.53125
-100.8,1577875510.546875
-75.97,1577875510.5625
-46.58,1577875510.578125
-16.74,1577875510.59375
10.01,1577875510.609375
31.58,1577875510.625
47.49,1577875510.640625
58.39,1577875510.65625
65.45,1577875510.671875
69.7,1577875510.6875
71.86,1577875510.703125
72.36,1577875510.71875
71.51,1577875510.734375
69.68,1577875510.75
67.27,1577875510.765625
64.71,1577875510.78125
62.33,1577875510.796875
60.35,1577875510.8125
58.79,1577875510.828125
57.58,1577875510.84375
56.58,1577875510.859375
55.69,1577875510.875
54.78,1577875510.890625
53.74,1577875510.90625
52.29,1577875510.921875
50.07,1577875510.9375
46.68,1577875510.953125
41.82,1577875510.96875
35.56,1577875510.984375
28.25,1577875511.0
20.5,1577875511.015625
12.89,1577875511.03125
5.76,1577875511.046875
-0.97,1577875511.0625
-7.74,1577875511.078125
-15.0,1577875511.09375
-22.99,1577875511.109375
-31.54,1577875511.125
-40.04,1577875511.140625
-47.69,1577875511.15625
-53.88,1577875511.171875
-58.49,1577875511.1875
-62.07,1577875511.203125
-65.76,1577875511.21875
-70.94,1577875511.234375
-78.75,1577875511.25
-89.4,1577875511.265625
-101.71,1577875511.28125
-113.06,1577875511.296875
-119.86,1577875511.3125
-118.65,1577875511.328125
-107.3,1577875511.34375
-85.99,1577875511.359375
-57.27,1577875511.375
-25.19,1577875511.390625
6.02,1577875511.40625
33.35,1577875511.421875
55.61,1577875511.4375
73.25,1577875511.453125
87.45,1577875511.46875
99.21,1577875511.484375
108.87,1577875511.5
116.17,1577875511.515625
120.84,1577875511.53125
123.08,1577875511.546875
123.73,1577875511.5625
124.03,1577875511.578125
125.28,1577875511.59375
128.45,1577875511.609375
133.96,1577875511.625
141.68,1577875511.640625
150.84,1577875511.65625
159.94,1577875511.671875
166.91,1577875511.6875
169.49,1577875511.703125
165.9,1577875511.71875
155.54,1577875511.734375
139.28,1577875511.75
119.15,1577875511.765625
97.4,1577875511.78125
75.36,1577875511.796875
52.96,1577875511.8125
28.84,1577875511.828125
1.47,1577875511.84375
-29.79,1577875511.859375
-63.89,1577875511.875
-98.47,1577875511.890625
-130.83,1577875511.90625
-159.08,1577875511.921875
-182.7,1577875511.9375
-202.35,1577875511.953125
-219.13,1577875511.96875
-233.75,1577875511.984375
-246.34,1577875512.0
-256.67,1577875512.015625
-264.63,1577875512.03125
-270.37,1577875512.046875
-273.81,1577875512.0625
-274.08,1577875512.078125
-269.19,1577875512.09375
-256.48,1577875512.109375
-233.84,1577875512.125
-200.98,1577875512.140625
-160.1,1577875512.15625
-115.44,1577875512.171875
-72.0,1577875512.1875
-33.97,1577875512.203125
-3.59,1577875512.21875
19.0,1577875512.234375
35.18,1577875512.25
46.81,1577875512.265625
55.41,1577875512.28125
61.77,1577875512.296875
66.13,1577875512.3125
68.55,1577875512.328125
69.34,1577875512.34375
69.12,1577875512.359375
68.66,1577875512.375
68.73,1577875512.390625
69.71,1577875512.40625
71.53,1577875512.421875
73.82,1577875512.4375
75.99,1577875512.453125
77.52,1577875512.46875
78.01,1577875512.484375
77.28,1577875512.5
75.26,1577875512.515625
71.95,1577875512.53125
67.35,1577875512.546875
61.45,1577875512.5625
54.27,1577875512.578125
45.86,1577875512.59375
36.39,1577875512.609375
26.12,1577875512.625
15.46,1577875512.640625
4.9,1577875512.65625
-5.06,1577875512.671875
-14.12,1577875512.6875
-22.23,1577875512.703125
-29.57,1577875512.71875
-36.63,1577875512.734375
-43.95,1577875512.75
-52.22,1577875512.765625
-62.03,1577875512.78125
-73.72,1577875512.796875
-86.99,1577875512.8125
-100.55,1577875512.828125
-112.03,1577875512.84375
-118.32,1577875512.859375
-116.54,1577875512.875
-105.03,1577875512.890625
-84.27,1577875512.90625
-56.85,1577875512.921875
-26.79,1577875512.9375
1.79,1577875512.953125
25.9,1577875512.96875
44.29,1577875512.984375
57.33,1577875513.0
66.23,1577875513.015625
72.3,1577875513.03125
76.33,1577875513.046875
78.58,1577875513.0625
79.05,1577875513.078125
77.85,1577875513.09375
75.39,1577875513.109375
72.38,1577875513.125
69.52,1577875513.140625
67.35,1577875513.15625
65.99,1577875513.171875
65.2,1577875513.1875
64.57,1577875513.203125
63.64,1577875513.21875
62.09,1577875513.234375
59.84,1577875513.25
56.93,1577875513.265625
53.52,1577875513.28125
49.75,1577875513.296875
45.64,1577875513.3125
41.0,1577875513.328125
35.46,1577875513.34375
28.66,1577875513.359375
20.39,1577875513.375
10.84,1577875513.390625
0.66,1577875513.40625
-9.31,1577875513.421875
-18.26,1577875513.4375
-25.8,1577875513.453125
-32.06,1577875513.46875
-37.68,1577875513.484375
-43.48,1577875513.5
-50.32,1577875513.515625
-58.86,1577875513.53125
-69.46,1577875513.546875
-82.07,1577875513.5625
-95.94,1577875513.578125
-109.34,1577875513.59375
-119.63,1577875513.609375
-123.77,1577875513.625
-119.25,1577875513.640625
-105.14,1577875513.65625
-82.61,1577875513.671875
-54.76,1577875513.6875
-25.69,1577875513.703125
0.78,1577875513.71875
22.18,1577875513.734375
37.83,1577875513.75
48.5,1577875513.765625
55.64,1577875513.78125
60.59,1577875513.796875
64.14,1577875513.8125
66.47,1577875513.828125
67.48,1577875513.84375
67.15,1577875513.859375
65.78,1577875513.875
63.87,1577875513.890625
62.01,1577875513.90625
60.57,1577875513.921875
59.62,1577875513.9375
58.97,1577875513.953125
58.39,1577875513.96875
57.7,1577875513.984375
56.92,1577875514.0
55.99,1577875514.015625
54.75,1577875514.03125
52.8,1577875514.046875
49.62,1577875514.0625
44.8,1577875514.078125
38.33,1577875514.09375
30.66,1577875514.109375
22.56,1577875514.125
14.82,1577875514.140625
7.86,1577875514.15625
1.55,1577875514.171875
-4.61,1577875514.1875
-11.18,1577875514.203125
-18.47,1577875514.21875
-26.31,1577875514.234375
-34.18,1577875514.25
-41.48,1577875514.265625
-47.83,1577875514.28125
-53.3,1577875514.296875
-58.36,1577875514.3125
-63.79,1577875514.328125
-70.4,1577875514.34375
-78.86,1577875514.359375
-89.18,1577875514.375
-100.55,1577875514.390625
-111.01,1577875514.40625
-117.82,1577875514.421875
-118.06,1577875514.4375
-109.75,1577875514.453125
-92.59,1577875514.46875
-68.37,1577875514.484375
-40.38,1577875514.5
-12.37,1577875514.515625
12.57,1577875514.53125
32.76,1577875514.546875
47.94,1577875514.5625
58.8,1577875514.578125
66.3,1577875514.59375
71.16,1577875514.609375
73.79,1577875514.625
74.38,1577875514.640625
73.22,1577875514.65625
70.82,1577875514.671875
67.91,1577875514.6875
65.3,1577875514.703125
63.61,1577875514.71875
63.19,1577875514.734375
63.89,1577875514.75
65.28,1577875514.765625
66.7,1577875514.78125
67.46,1577875514.796875
67.08,1577875514.8125
65.28,1577875514.828125
62.01,1577875514.84375
57.28,1577875514.859375
51.23,1577875514.875
44.01,1577875514.890625
35.93,1577875514.90625
27.37,1577875514.921875
18.77,1577875514.9375
10.43,1577875514.953125
2.4,1577875514.96875
-5.51,1577875514.984375
-13.62,1577875515.0
-22.15,1577875515.015625
-30.95,1577875515.03125
-39.6,1577875515.046875
-47.52,1577875515.0625
-54.32,1577875515.078125
-60.08,1577875515.09375
-65.46,1577875515.109375
-71.51,1577875515.125
-79.34,1577875515.140625
-89.61,1577875515.15625
-102.01,1577875515.171875
-114.95,1577875515.1875
-125.68,1577875515.203125
-130.92,1577875515.21875
-127.8,1577875515.234375
-114.98,1577875515.25
-93.21,1577875515.265625
-65.14,1577875515.28125
-34.56,1577875515.296875
-5.17,1577875515.3125
20.37,1577875515.328125
40.87,1577875515.34375
56.38,1577875515.359375
67.65,1577875515.375
75.52,1577875515.390625
80.64,1577875515.40625
83.46,1577875515.421875
84.29,1577875515.4375
83.53,1577875515.453125
81.69,1577875515.46875
79.4,1577875515.484375
77.3,1577875515.5
75.89,1577875515.515625
75.39,1577875515.53125
75.71,1577875515.546875
76.47,1577875515.5625
77.21,1577875515.578125
77.55,1577875515.59375
77.28,1577875515.609375
76.28,1577875515.625
74.44,1577875515.640625
71.59,1577875515.65625
67.58,1577875515.671875
62.41,1577875515.6875
56.43,1577875515.703125
50.15,1577875515.71875
44.13,1577875515.734375
38.71,1577875515.75
33.79,1577875515.765625
29.0,1577875515.78125
23.87,1577875515.796875
18.16,1577875515.8125
12.04,1577875515.828125
6.07,1577875515.84375
0.94,1577875515.859375
-2.83,1577875515.875
-5.08,1577875515.890625
-6.18,1577875515.90625
-6.88,1577875515.921875
-8.21,1577875515.9375
-11.07,1577875515.953125
-15.82,1577875515.96875
-21.81,1577875515.984375
-27.14,1577875516.0
-29.03,1577875516.015625
-24.59,1577875516.03125
-11.94,1577875516.046875
8.86,1577875516.0625
35.68,1577875516.078125
64.8,1577875516.09375
92.04,1577875516.109375
113.76,1577875516.125
127.52,1577875516.140625
132.13,1577875516.15625
127.44,1577875516.171875
114.03,1577875516.1875
93.04,1577875516.203125
66.18,1577875516.21875
35.54,1577875516.234375
3.33,1577875516.25
-28.37,1577875516.265625
-57.93,1577875516.28125
-84.14,1577875516.296875
-106.1,1577875516.3125
-123.14,1577875516.328125
-134.9,1577875516.34375
-141.39,1577875516.359375
-143.01,1577875516.375
-140.47,1577875516.390625
-134.58,1577875516.40625
-126.11,1577875516.421875
-115.76,1577875516.4375
-104.33,1577875516.453125
-92.78,1577875516.46875
-82.21,1577875516.484375
-73.63,1577875516.5
-67.61,1577875516.515625
-64.11,1577875516.53125
-62.34,1577875516.546875
-61.15,1577875516.5625
-59.36,1577875516.578125
-56.33,1577875516.59375
-52.09,1577875516.609375
-47.41,1577875516.625
-43.39,1577875516.640625
-41.04,1577875516.65625
-40.85,1577875516.671875
-42.62,1577875516.6875
-45.57,1577875516.703125
-48.69,1577875516.71875
-51.19,1577875516.734375
-52.75,1577875516.75
-53.63,1577875516.765625
-54.55,1577875516.78125
-56.46,1577875516.796875
-60.37,1577875516.8125
-67.03,1577875516.828125
-76.62,1577875516.84375
-88.29,1577875516.859375
-99.91,1577875516.875
-108.27,1577875516.890625
-109.85,1577875516.90625
-102.07,1577875516.921875
-84.27,1577875516.9375
-58.28,1577875516.953125
-27.81,1577875516.96875
2.7,1577875516.984375
29.6,1577875517.0
50.9,1577875517.015625
66.45,1577875517.03125
77.29,1577875517.046875
84.77,1577875517.0625
89.82,1577875517.078125
92.8,1577875517.09375
93.7,1577875517.109375
92.56,1577875517.125
89.76,1577875517.140625
86.06,1577875517.15625
82.33,1577875517.171875
79.32,1577875517.1875
77.4,1577875517.203125
76.54,1577875517.21875
76.47,1577875517.234375
76.85,1577875517.25
77.4,1577875517.265625
77.85,1577875517.28125
77.86,1577875517.296875
76.92,1577875517.3125
74.4,1577875517.328125
69.81,1577875517.34375
63.06,1577875517.359375
54.6,1577875517.375
45.26,1577875517.390625
36.02,1577875517.40625
27.51,1577875517.421875
19.9,1577875517.4375
12.83,1577875517.453125
5.69,1577875517.46875
-2.06,1577875517.484375
-10.62,1577875517.5
-19.74,1577875517.515625
-28.82,1577875517.53125
-37.16,1577875517.546875
-44.24,1577875517.5625
-49.96,1577875517.578125
-54.74,1577875517.59375
-59.54,1577875517.609375
-65.56,1577875517.625
-73.86,1577875517.640625
-84.72,1577875517.65625
-97.21,1577875517.671875
-109.06,1577875517.6875
-117.03,1577875517.703125
-117.93,1577875517.71875
-109.68,1577875517.734375
-92.18,1577875517.75
-67.54,1577875517.765625
-39.36,1577875517.78125
-11.58,1577875517.796875
12.71,1577875517.8125
32.0,1577875517.828125
46.34,1577875517.84375
56.67,1577875517.859375
64.07,1577875517.875
69.21,1577875517.890625
72.26,1577875517.90625
73.24,1577875517.921875
72.34,1577875517.9375
70.13,1577875517.953125
67.4,1577875517.96875
64.87,1577875517.984375
62.95,1577875518.0
61.66,1577875518.015625
60.75,1577875518.03125
60.0,1577875518.046875
59.36,1577875518.0625
58.95,1577875518.078125
58.87,1577875518.09375
58.96,1577875518.109375
58.73,1577875518.125
57.36,1577875518.140625
54.07,1577875518.15625
48.45,1577875518.171875
40.71,1577875518.1875
31.66,1577875518.203125
22.43,1577875518.21875
13.97,1577875518.234375
6.76,1577875518.25
0.56,1577875518.265625
-5.32,1577875518.28125
-11.67,1577875518.296875
-18.92,1577875518.3125
-27.0,1577875518.328125
-35.33,1577875518.34375
-43.24,1577875518.359375
-50.19,1577875518.375
-56.08,1577875518.390625
-61.17,1577875518.40625
-66.12,1577875518.421875
-71.77,1577875518.4375
-79.08,1577875518.453125
-88.8,1577875518.46875
-101.02,1577875518.484375
-114.73,1577875518.5
-127.48,1577875518.515625
-135.81,1577875518.53125
-136.14,1577875518.546875
-126.18,1577875518.5625
-105.92,1577875518.578125
-77.89,1577875518.59375
-46.39,1577875518.609375
-15.94,1577875518.625
10.16,1577875518.640625
30.59,1577875518.65625
45.88,1577875518.671875
57.49,1577875518.6875
66.76,1577875518.703125
74.29,1577875518.71875
79.88,1577875518.734375
83.14,1577875518.75
83.96,1577875518.765625
82.87,1577875518.78125
80.87,1577875518.796875
79.0,1577875518.8125
77.87,1577875518.828125
77.49,1577875518.84375
77.35,1577875518.859375
76.84,1577875518.875
75.59,1577875518.890625
73.67,1577875518.90625
71.49,1577875518.921875
69.43,1577875518.9375
67.54,1577875518.953125
65.45,1577875518.96875
62.4,1577875518.984375
57.64,1577875519.0
50.78,1577875519.015625
42.01,1577875519.03125
32.1,1577875519.046875
22.14,1577875519.0625
13.13,1577875519.078125
5.64,1577875519.09375
-0.39,1577875519.109375
-5.59,1577875519.125
-10.88,1577875519.140625
-17.09,1577875519.15625
-24.55,1577875519.171875
-33.02,1577875519.1875
-41.75,1577875519.203125
-49.81,1577875519.21875
-56.53,1577875519.234375
-61.8,1577875519.25
-66.21,1577875519.265625
-70.86,1577875519.28125
-77.04,1577875519.296875
-85.68,1577875519.3125
-97.01,1577875519.328125
-110.09,1577875519.34375
-122.9,1577875519.359375
-132.55,1577875519.375
-135.98,1577875519.390625
-130.85,1577875519.40625
-116.27,1577875519.421875
-93.32,1577875519.4375
-64.76,1577875519.453125
-34.31,1577875519.46875
-5.54,1577875519.484375
19.05,1577875519.5
38.38,1577875519.515625
52.68,1577875519.53125
62.89,1577875519.546875
70.05,1577875519.5625
74.93,1577875519.578125
78.02,1577875519.59375
79.61,1577875519.609375
80.04,1577875519.625
79.67,1577875519.640625
78.86,1577875519.65625
77.92,1577875519.671875
77.13,1577875519.6875
76.69,1577875519.703125
76.79,1577875519.71875
77.55,1577875519.734375
79.0,1577875519.75
80.96,1577875519.765625
83.06,1577875519.78125
84.74,1577875519.796875
85.4,1577875519.8125
84.53,1577875519.828125
81.91,1577875519.84375
77.82,1577875519.859375
72.93,1577875519.875
68.17,1577875519.890625
64.26,1577875519.90625
61.44,1577875519.921875
59.34,1577875519.9375
57.21,1577875519.953125
54.39,1577875519.96875
50.77,1577875519.984375
46.92,1577875520.0
43.81,1577875520.015625
42.45,1577875520.03125
43.43,1577875520.046875
46.76,1577875520.0625
51.84,1577875520.078125
57.49,1577875520.09375
61.91,1577875520.109375
62.94,1577875520.125
58.74,1577875520.140625
48.79,1577875520.15625
34.6,1577875520.171875
19.7,1577875520.1875
8.45,1577875520.203125
4.01,1577875520.21875
6.67,1577875520.234375
13.3,1577875520.25
18.55,1577875520.265625
17.13,1577875520.28125
6.03,1577875520.296875
-14.39,1577875520.3125
-40.96,1577875520.328125
-69.43,1577875520.34375
-96.17,1577875520.359375
-119.17,1577875520.375
-137.99,1577875520.390625
-152.84,1577875520.40625
-163.82,1577875520.421875
-170.48,1577875520.4375
-172.1,1577875520.453125
-168.31,1577875520.46875
-159.59,1577875520.484375
-147.36,1577875520.5
-133.54,1577875520.515625
-119.82,1577875520.53125
-107.04,1577875520.546875
-95.05,1577875520.5625
-83.09,1577875520.578125
-70.5,1577875520.59375
-57.36,1577875520.609375
-44.64,1577875520.625
-33.89,1577875520.640625
-26.4,1577875520.65625
-22.69,1577875520.671875
-22.14,1577875520.6875
-23.32,1577875520.703125
-24.6,1577875520.71875
-24.93,1577875520.734375
-24.08,1577875520.75
-22.72,1577875520.765625
-21.96,1577875520.78125
-22.79,1577875520.796875
-25.7,1577875520.8125
-30.38,1577875520.828125
-35.96,1577875520.84375
-41.34,1577875520.859375
-45.69,1577875520.875
-48.77,1577875520.890625
-51.06,1577875520.90625
-53.63,1577875520.921875
-57.76,1577875520.9375
-64.51,1577875520.953125
-74.28,1577875520.96875
-86.41,1577875520.984375
-99.02,1577875521.0
-109.24,1577875521.015625
-113.75,1577875521.03125
-109.79,1577875521.046875
-96.15,1577875521.0625
-73.68,1577875521.078125
-45.19,1577875521.09375
-14.65,1577875521.109375
14.06,1577875521.125
38.21,1577875521.140625
56.71,1577875521.15625
69.93,1577875521.171875
79.05,1577875521.1875
85.3,1577875521.203125
89.48,1577875521.21875
91.88,1577875521.234375
92.54,1577875521.25
91.61,1577875521.265625
89.52,1577875521.28125
86.9,1577875521.296875
84.37,1577875521.3125
82.3,1577875521.328125
80.78,1577875521.34375
79.66,1577875521.359375
78.78,1577875521.375
78.02,1577875521.390625
77.43,1577875521.40625
76.95,1577875521.421875
76.33,1577875521.4375
75.06,1577875521.453125
72.49,1577875521.46875
68.17,1577875521.484375
62.06,1577875521.5
54.67,1577875521.515625
46.81,1577875521.53125
39.31,1577875521.546875
32.6,1577875521.5625
26.59,1577875521.578125
20.78,1577875521.59375
14.48,1577875521.609375
7.3,1577875521.625
-0.65,1577875521.640625
-8.71,1577875521.65625
-15.93,1577875521.671875
-21.53,1577875521.6875
-25.29,1577875521.703125
-27.74,1577875521.71875
-30.04,1577875521.734375
-33.63,1577875521.75
-39.67,1577875521.765625
-48.48,1577875521.78125
-59.22,1577875521.796875
-69.74,1577875521.8125
-77.09,1577875521.828125
-78.17,1577875521.84375
-70.7,1577875521.859375
-53.98,1577875521.875
-29.19,1577875521.890625
1.05,1577875521.90625
33.45,1577875521.921875
65.08,1577875521.9375
94.06,1577875521.953125
119.76,1577875521.96875
142.41,1577875521.984375
162.4,1577875522.0
179.62,1577875522.015625
193.25,1577875522.03125
201.96,1577875522.046875
204.72,1577875522.0625
201.37,1577875522.078125
193.08,1577875522.09375
181.82,1577875522.109375
169.54,1577875522.125
157.07,1577875522.140625
143.65,1577875522.15625
127.32,1577875522.171875
105.96,1577875522.1875
78.65,1577875522.203125
46.4,1577875522.21875
11.84,1577875522.234375
-21.9,1577875522.25
-52.5,1577875522.265625
-79.23,1577875522.28125
-102.81,1577875522.296875
-124.4,1577875522.3125
-144.59,1577875522.328125
-162.78,1577875522.34375
-177.47,1577875522.359375
-187.15,1577875522.375
-191.23,1577875522.390625
-190.48,1577875522.40625
-186.79,1577875522.421875
-182.28,1577875522.4375
-178.48,1577875522.453125
-175.71,1577875522.46875
-173.31,1577875522.484375
-170.2,1577875522.5
-165.68,1577875522.515625
-159.86,1577875522.53125
-153.74,1577875522.546875
-148.77,1577875522.5625
-146.37,1577875522.578125
-147.37,1577875522.59375
-151.75,1577875522.609375
-158.42,1577875522.625
-165.22,1577875522.640625
-169.18,1577875522.65625
-167.04,1577875522.671875
-156.17,1577875522.6875
-135.53,1577875522.703125
-106.18,1577875522.71875
-71.15,1577875522.734375
-34.63,1577875522.75
-0.62,1577875522.765625
28.14,1577875522.78125
50.61,1577875522.796875
67.2,1577875522.8125
78.98,1577875522.828125
87.03,1577875522.84375
92.03,1577875522.859375
94.34,1577875522.875
94.37,1577875522.890625
92.68,1577875522.90625
90.08,1577875522.921875
87.36,1577875522.9375
85.17,1577875522.953125
83.79,1577875522.96875
83.25,1577875522.984375
83.32,1577875523.0
83.69,1577875523.015625
84.09,1577875523.03125
84.2,1577875523.046875
83.75,1577875523.0625
82.43,1577875523.078125
79.96,1577875523.09375
76.04,1577875523.109375
70.57,1577875523.125
63.64,1577875523.140625
55.59,1577875523.15625
46.95,1577875523.171875
38.21,1577875523.1875
29.69,1577875523.203125
21.4,1577875523.21875
13.16,1577875523.234375
4.75,1577875523.25
-3.84,1577875523.265625
-12.35,1577875523.28125
-20.34,1577875523.296875
-27.4,1577875523.3125
-33.45,1577875523.328125
-38.87,1577875523.34375
-44.49,1577875523.359375
-51.35,1577875523.375
-60.31,1577875523.390625
-71.59,1577875523.40625
-84.31,1577875523.421875
-96.4,1577875523.4375
-104.85,1577875523.453125
-106.54,1577875523.46875
-99.25,1577875523.484375
-82.62,1577875523.5
-58.43,1577875523.515625
-30.14,1577875523.53125
-1.84,1577875523.546875
23.03,1577875523.5625
42.49,1577875523.578125
56.24,1577875523.59375
65.19,1577875523.609375
70.7,1577875523.625
73.93,1577875523.640625
75.51,1577875523.65625
75.64,1577875523.671875
74.33,1577875523.6875
71.76,1577875523.703125
68.33,1577875523.71875
64.69,1577875523.734375
61.49,1577875523.75
59.2,1577875523.765625
57.96,1577875523.78125
57.56,1577875523.796875
57.58,1577875523.8125
57.5,1577875523.828125
56.89,1577875523.84375
55.37,1577875523.859375
52.73,1577875523.875
48.86,1577875523.890625
43.81,1577875523.90625
37.82,1577875523.921875
31.27,1577875523.9375
24.53,1577875523.953125
17.83,1577875523.96875
11.08,1577875523.984375
4.03,1577875524.0
-3.65,1577875524.015625
-11.98,1577875524.03125
-20.68,1577875524.046875
-29.17,1577875524.0625
-36.89,1577875524.078125
-43.53,1577875524.09375
-49.26,1577875524.109375
-54.64,1577875524.125
-60.54,1577875524.140625
-67.89,1577875524.15625
-77.38,1577875524.171875
-89.13,1577875524.1875
-102.26,1577875524.203125
-114.73,1577875524.21875
-123.61,1577875524.234375
-125.81,1577875524.25
-119.14,1577875524.265625
-103.18,1577875524.28125
-79.58,1577875524.296875
-51.54,1577875524.3125
-22.82,1577875524.328125
3.42,1577875524.34375
25.25,1577875524.359375
42.12,1577875524.375
54.44,1577875524.390625
63.04,1577875524.40625
68.81,1577875524.421875
72.47,1577875524.4375
74.55,1577875524.453125
75.45,1577875524.46875
75.42,1577875524.484375
74.62,1577875524.5
73.13,1577875524.515625
71.14,1577875524.53125
68.85,1577875524.546875
66.57,1577875524.5625
64.56,1577875524.578125
63.02,1577875524.59375
61.95,1577875524.609375
61.23,1577875524.625
60.6,1577875524.640625
59.64,1577875524.65625
57.91,1577875524.671875
54.92,1577875524.6875
50.37,1577875524.703125
44.24,1577875524.71875
36.86,1577875524.734375
28.89,1577875524.75
21.08,1577875524.765625
14.0,1577875524.78125
7.8,1577875524.796875
2.14,1577875524.8125
-3.64,1577875524.828125
-10.17,1577875524.84375
-17.69,1577875524.859375
-25.92,1577875524.875
-34.14,1577875524.890625
-41.55,1577875524.90625
-47.72,1577875524.921875
-52.84,1577875524.9375
-57.72,1577875524.953125
-63.56,1577875524.96875
-71.52,1577875524.984375
-82.17,1577875525.0
-95.05,1577875525.015625
-108.41,1577875525.03125
-119.44,1577875525.046875
-124.88,1577875525.0625
-122.0,1577875525.078125
-109.61,1577875525.09375
-88.61,1577875525.109375
-61.84,1577875525.125
-33.18,1577875525.140625
-6.32,1577875525.15625
16.19,1577875525.171875
33.42,1577875525.1875
45.81,1577875525.203125
54.46,1577875525.21875
60.47,1577875525.234375
64.55,1577875525.25
66.94,1577875525.265625
67.72,1577875525.28125
66.99,1577875525.296875
65.09,1577875525.3125
62.51,1577875525.328125
59.85,1577875525.34375
57.58,1577875525.359375
55.94,1577875525.375
54.92,1577875525.390625
54.3,1577875525.40625
53.77,1577875525.421875
53.06,1577875525.4375
51.97,1577875525.453125
50.37,1577875525.46875
48.16,1577875525.484375
45.25,1577875525.5
41.51,1577875525.515625
36.82,1577875525.53125
31.1,1577875525.546875
24.29,1577875525.5625
16.4,1577875525.578125
7.6,1577875525.59375
-1.76,1577875525.609375
-11.2,1577875525.625
-20.13,1577875525.640625
-28.08,1577875525.65625
-34.85,1577875525.671875
-40.59,1577875525.6875
-45.78,1577875525.703125
-51.1,1577875525.71875
-57.28,1577875525.734375
-65.0,1577875525.75
-74.58,1577875525.765625
-85.78,1577875525.78125
-97.46,1577875525.796875
-107.51,1577875525.8125
-113.28,1577875525.828125
-112.2,1577875525.84375
-102.8,1577875525.859375
-85.32,1577875525.875
-61.85,1577875525.890625
-35.73,1577875525.90625
-10.45,1577875525.921875
11.25,1577875525.9375
28.11,1577875525.953125
40.19,1577875525.96875
48.4,1577875525.984375
53.79,1577875526.0
57.07,1577875526.015625
58.52,1577875526.03125
58.23,1577875526.046875
56.39,1577875526.0625
53.47,1577875526.078125
50.22,1577875526.09375
47.32,1577875526.109375
45.16,1577875526.125
43.65,1577875526.140625
42.42,1577875526.15625
40.98,1577875526.171875
39.17,1577875526.1875
37.19,1577875526.203125
35.45,1577875526.21875
34.26,1577875526.234375
33.45,1577875526.25
32.33,1577875526.265625
29.83,1577875526.28125
25.08,1577875526.296875
17.81,1577875526.3125
8.56,1577875526.328125
-1.44,1577875526.34375
-10.86,1577875526.359375
-18.73,1577875526.375
-24.91,1577875526.390625
-30.06,1577875526.40625
-35.3,1577875526.421875
-41.81,1577875526.4375
-50.3,1577875526.453125
-60.85,1577875526.46875
-72.67,1577875526.484375
-84.25,1577875526.5
-93.45,1577875526.515625
-97.95,1577875526.53125
-95.75,1577875526.546875
-85.87,1577875526.5625
-68.77,1577875526.578125
-46.34,1577875526.59375
-21.46,1577875526.609375
2.89,1577875526.625
24.39,1577875526.640625
41.78,1577875526.65625
54.77,1577875526.671875
63.62,1577875526.6875
68.7,1577875526.703125
70.27,1577875526.71875
68.66,1577875526.734375
64.41,1577875526.75
58.51,1577875526.765625
52.25,1577875526.78125
46.92,1577875526.796875
43.42,1577875526.8125
41.96,1577875526.828125
42.06,1577875526.84375
42.83,1577875526.859375
43.37,1577875526.875
43.12,1577875526.890625
41.99,1577875526.90625
40.22,1577875526.921875
38.08,1577875526.9375
35.58,1577875526.953125
32.32,1577875526.96875
27.72,1577875526.984375
21.28,1577875527.0
12.99,1577875527.015625
3.36,1577875527.03125
-6.67,1577875527.046875
-16.07,1577875527.0625
-24.19,1577875527.078125
-30.92,1577875527.09375
-36.8,1577875527.109375
-42.76,1577875527.125
-49.88,1577875527.140625
-59.0,1577875527.15625
-70.37,1577875527.171875
-83.39,1577875527.1875
-96.4,1577875527.203125
-106.86,1577875527.21875
-111.84,1577875527.234375
-108.92,1577875527.25
-96.99,1577875527.265625
-76.79,1577875527.28125
-50.84,1577875527.296875
-22.66,1577875527.3125
4.29,1577875527.328125
27.57,1577875527.34375
46.16,1577875527.359375
60.3,1577875527.375
70.89,1577875527.390625
78.85,1577875527.40625
84.76,1577875527.421875
88.82,1577875527.4375
91.08,1577875527.453125
91.65,1577875527.46875
90.92,1577875527.484375
89.51,1577875527.5
88.16,1577875527.515625
87.6,1577875527.53125
88.3,1577875527.546875
90.42,1577875527.5625
93.75,1577875527.578125
97.78,1577875527.59375
101.92,1577875527.609375
105.55,1577875527.625
108.26,1577875527.640625
109.83,1577875527.65625
110.32,1577875527.671875
109.96,1577875527.6875
109.1,1577875527.703125
108.12,1577875527.71875
107.39,1577875527.734375
107.2,1577875527.75
107.72,1577875527.765625
108.95,1577875527.78125
110.59,1577875527.796875
112.05,1577875527.8125
112.44,1577875527.828125
110.73,1577875527.84375
106.0,1577875527.859375
97.74,1577875527.875
85.81,1577875527.890625
70.29,1577875527.90625
50.97,1577875527.921875
27.26,1577875527.9375
-1.63,1577875527.953125
-35.87,1577875527.96875
-74.25,1577875527.984375
-113.84,1577875528.0
-150.48,1577875528.015625
-180.09,1577875528.03125
-200.07,1577875528.046875
-210.12,1577875528.0625
-212.19,1577875528.078125
-209.33,1577875528.09375
-204.4,1577875528.109375
-199.03,1577875528.125
-193.43,1577875528.140625
-186.96,1577875528.15625
-178.93,1577875528.171875
-169.29,1577875528.1875
-158.64,1577875528.203125
-147.95,1577875528.21875
-137.94,1577875528.234375
-128.7,1577875528.25
-119.62,1577875528.265625
-109.7,1577875528.28125
-98.15,1577875528.296875
-84.7,1577875528.3125
-69.85,1577875528.328125
-54.6,1577875528.34375
-40.07,1577875528.359375
-27.08,1577875528.375
-16.05,1577875528.390625
-7.08,1577875528.40625
-0.1,1577875528.421875
4.98,1577875528.4375
8.24,1577875528.453125
9.87,1577875528.46875
10.18,1577875528.484375
9.56,1577875528.5
8.33,1577875528.515625
6.66,1577875528.53125
4.47,1577875528.546875
1.58,1577875528.5625
-2.16,1577875528.578125
-6.66,1577875528.59375
-11.58,1577875528.609375
-16.42,1577875528.625
-20.72,1577875528.640625
-24.38,1577875528.65625
-27.71,1577875528.671875
-31.49,1577875528.6875
-36.69,1577875528.703125
-44.21,1577875528.71875
-54.36,1577875528.734375
-66.44,1577875528.75
-78.54,1577875528.765625
-87.71,1577875528.78125
-90.73,1577875528.796875
-85.08,1577875528.8125
-70.01,1577875528.828125
-46.95,1577875528.84375
-19.21,1577875528.859375
9.04,1577875528.875
34.13,1577875528.890625
53.84,1577875528.90625
67.72,1577875528.921875
76.69,1577875528.9375
82.1,1577875528.953125
85.1,1577875528.96875
86.16,1577875528.984375
85.38,1577875529.0
82.74,1577875529.015625
78.58,1577875529.03125
73.68,1577875529.046875
69.0,1577875529.0625
65.42,1577875529.078125
63.34,1577875529.09375
62.59,1577875529.109375
62.59,1577875529.125
62.54,1577875529.140625
61.82,1577875529.15625
60.16,1577875529.171875
57.69,1577875529.1875
54.72,1577875529.203125
51.57,1577875529.21875
48.32,1577875529.234375
44.71,1577875529.25
40.31,1577875529.265625
34.64,1577875529.28125
27.5,1577875529.296875
19.06,1577875529.3125
9.88,1577875529.328125
0.73,1577875529.34375
-7.71,1577875529.359375
-15.03,1577875529.375
-21.27,1577875529.390625
-26.81,1577875529.40625
-32.21,1577875529.421875
-38.06,1577875529.4375
-44.88,1577875529.453125
-53.06,1577875529.46875
-62.87,1577875529.484375
-74.13,1577875529.5
-86.03,1577875529.515625
-96.81,1577875529.53125
-103.96,1577875529.546875
-104.78,1577875529.5625
-97.4,1577875529.578125
-81.61,1577875529.59375
-59.15,1577875529.609375
-33.28,1577875529.625
-7.72,1577875529.640625
14.53,1577875529.65625
31.94,1577875529.671875
44.5,1577875529.6875
53.03,1577875529.703125
58.56,1577875529.71875
61.72,1577875529.734375
62.68,1577875529.75
61.49,1577875529.765625
58.43,1577875529.78125
54.18,1577875529.796875
49.71,1577875529.8125
45.98,1577875529.828125
43.57,1577875529.84375
42.54,1577875529.859375
42.46,1577875529.875
42.65,1577875529.890625
42.49,1577875529.90625
41.63,1577875529.921875
40.09,1577875529.9375
38.17,1577875529.953125
36.14,1577875529.96875
34.02,1577875529.984375
31.44,1577875530.0
27.75,1577875530.015625
22.3,1577875530.03125
14.8,1577875530.046875
5.57,1577875530.0625
-4.51,1577875530.078125
-14.25,1577875530.09375
-22.65,1577875530.109375
-29.22,1577875530.125
-34.21,1577875530.140625
-38.46,1577875530.15625
-43.16,1577875530.171875
-49.43,1577875530.1875
-57.95,1577875530.203125
-68.74,1577875530.21875
-80.91,1577875530.234375
-92.65,1577875530.25
-101.51,1577875530.265625
-104.91,1577875530.28125
-100.92,1577875530.296875
-88.93,1577875530.3125
-69.97,1577875530.328125
-46.45,1577875530.34375
-21.52,1577875530.359375
1.9,1577875530.375
21.8,1577875530.390625
37.39,1577875530.40625
48.93,1577875530.421875
57.24,1577875530.4375
63.18,1577875530.453125
67.29,1577875530.46875
69.78,1577875530.484375
70.63,1577875530.5
69.89,1577875530.515625
67.85,1577875530.53125
65.06,1577875530.546875
62.21,1577875530.5625
59.87,1577875530.578125
58.31,1577875530.59375
57.43,1577875530.609375
56.88,1577875530.625
56.16,1577875530.640625
54.93,1577875530.65625
52.98,1577875530.671875
50.29,1577875530.6875
46.94,1577875530.703125
42.99,1577875530.71875
38.36,1577875530.734375
32.86,1577875530.75
26.22,1577875530.765625
18.22,1577875530.78125
8.93,1577875530.796875
-1.31,1577875530.8125
-11.75,1577875530.828125
-21.58,1577875530.84375
-30.12,1577875530.859375
-37.09,1577875530.875
-42.79,1577875530.890625
-47.81,1577875530.90625
-52.97,1577875530.921875
-58.96,1577875530.9375
-66.34,1577875530.953125
-75.47,1577875530.96875
-86.34,1577875530.984375
-98.38,1577875531.0
-110.08,1577875531.015625
-119.12,1577875531.03125
-122.68,1577875531.046875
-118.39,1577875531.0625
-105.19,1577875531.078125
-83.95,1577875531.09375
-57.37,1577875531.109375
-29.06,1577875531.125
-2.5,1577875531.140625
19.99,1577875531.15625
37.56,1577875531.171875
50.64,1577875531.1875
60.24,1577875531.203125
67.33,1577875531.21875
72.54,1577875531.234375
76.04,1577875531.25
77.83,1577875531.265625
77.92,1577875531.28125
76.44,1577875531.296875
73.8,1577875531.3125
70.5,1577875531.328125
67.19,1577875531.34375
64.45,1577875531.359375
62.68,1577875531.375
61.93,1577875531.390625
61.88,1577875531.40625
61.88,1577875531.421875
61.23,1577875531.4375
59.37,1577875531.453125
56.08,1577875531.46875
51.44,1577875531.484375
45.71,1577875531.5
39.2,1577875531.515625
32.12,1577875531.53125
24.55,1577875531.546875
16.49,1577875531.5625
7.92,1577875531.578125
-1.16,1577875531.59375
-10.71,1577875531.609375
-20.5,1577875531.625
-30.22,1577875531.640625
-39.43,1577875531.65625
-47.73,1577875531.671875
-54.91,1577875531.6875
-61.09,1577875531.703125
-66.8,1577875531.71875
-72.9,1577875531.734375
-80.35,1577875531.75
-89.82,1577875531.765625
-101.32,1577875531.78125
-113.73,1577875531.796875
-124.72,1577875531.8125
-131.17,1577875531.828125
-130.05,1577875531.84375
-119.49,1577875531.859375
-99.59,1577875531.875
-72.63,1577875531.890625
-42.37,1577875531.90625
-12.84,1577875531.921875
12.81,1577875531.9375
33.07,1577875531.953125
48.04,1577875531.96875
58.8,1577875531.984375
66.6,1577875532.0
72.34,1577875532.015625
76.36,1577875532.03125
78.63,1577875532.046875
79.12,1577875532.0625
77.98,1577875532.078125
75.72,1577875532.09375
72.89,1577875532.109375
70.06,1577875532.125
67.58,1577875532.140625
65.56,1577875532.15625
63.94,1577875532.171875
62.65,1577875532.1875
61.61,1577875532.203125
60.72,1577875532.21875
59.72,1577875532.234375
58.24,1577875532.25
55.7,1577875532.265625
51.63,1577875532.28125
45.8,1577875532.296875
38.42,1577875532.3125
30.13,1577875532.328125
21.77,1577875532.34375
14.0,1577875532.359375
7.07,1577875532.375
0.67,1577875532.390625
-5.82,1577875532.40625
-13.06,1577875532.421875
-21.34,1577875532.4375
-30.4,1577875532.453125
-39.49,1577875532.46875
-47.7,1577875532.484375
-54.33,1577875532.5
-59.35,1577875532.515625
-63.4,1577875532.53125
-67.69,1577875532.546875
-73.59,1577875532.5625
-82.02,1577875532.578125
-92.94,1577875532.59375
-105.07,1577875532.609375
-115.97,1577875532.625
-122.58,1577875532.640625
-122.08,1577875532.65625
-112.8,1577875532.671875
-94.85,1577875532.6875
-70.17,1577875532.703125
-42.02,1577875532.71875
-14.02,1577875532.734375
10.8,1577875532.75
30.67,1577875532.765625
45.17,1577875532.78125
54.91,1577875532.796875
61.01,1577875532.8125
64.52,1577875532.828125
66.2,1577875532.84375
66.49,1577875532.859375
65.63,1577875532.875
63.86,1577875532.890625
61.46,1577875532.90625
58.88,1577875532.921875
56.61,1577875532.9375
55.12,1577875532.953125
54.73,1577875532.96875
55.48,1577875532.984375
57.02,1577875533.0
