bvp,time
-58.0,1590567062.09375
-60.77,1590567062.109375
-64.93,1590567062.125
-68.01,1590567062.140625
-68.45,1590567062.15625
-66.46,1590567062.171875
-64.01,1590567062.1875
-63.78,1590567062.203125
-67.91,1590567062.21875
-77.33,1590567062.234375
-91.79,1590567062.25
-110.35,1590567062.265625
-131.87,1590567062.28125
-155.19,1590567062.296875
-179.13,1590567062.3125
-202.34,1590567062.328125
-223.51,1590567062.34375
-241.56,1590567062.359375
-255.83,1590567062.375
-265.98,1590567062.390625
-271.89,1590567062.40625
-273.46,1590567062.421875
-270.93,1590567062.4375
-265.17,1590567062.453125
-257.94,1590567062.46875
-251.45,1590567062.484375
-247.56,1590567062.5
-247.05,1590567062.515625
-249.28,1590567062.53125
-252.58,1590567062.546875
-255.13,1590567062.5625
-255.62,1590567062.578125
-253.25,1590567062.59375
-247.31,1590567062.609375
-236.61,1590567062.625
-219.46,1590567062.640625
-194.46,1590567062.65625
-161.48,1590567062.671875
-122.43,1590567062.6875
-81.01,1590567062.703125
-41.51,1590567062.71875
-7.37,1590567062.734375
19.77,1590567062.75
40.13,1590567062.765625
54.96,1590567062.78125
65.55,1590567062.796875
72.67,1590567062.8125
76.61,1590567062.828125
77.7,1590567062.84375
76.74,1590567062.859375
74.91,1590567062.875
73.36,1590567062.890625
72.68,1590567062.90625
72.69,1590567062.921875
72.64,1590567062.9375
71.73,1590567062.953125
69.45,1590567062.96875
65.8,1590567062.984375
61.12,1590567063.0
55.8,1590567063.015625
50.19,1590567063.03125
44.65,1590567063.046875
39.77,1590567063.0625
36.3,1590567063.078125
34.98,1590567063.09375
36.05,1590567063.109375
39.01,1590567063.125
42.58,1590567063.140625
45.33,1590567063.15625
46.22,1590567063.171875
45.19,1590567063.1875
43.09,1590567063.203125
41.21,1590567063.21875
40.55,1590567063.234375
41.2,1590567063.25
42.32,1590567063.265625
42.51,1590567063.28125
40.69,1590567063.296875
36.64,1590567063.3125
31.23,1590567063.328125
25.99,1590567063.34375
22.42,1590567063.359375
21.19,1590567063.375
21.85,1590567063.390625
23.12,1590567063.40625
23.51,1590567063.421875
22.0,1590567063.4375
18.26,1590567063.453125
12.24,1590567063.46875
3.67,1590567063.484375
-8.03,1590567063.5
-23.31,1590567063.515625
-41.59,1590567063.53125
-60.67,1590567063.546875
-77.37,1590567063.5625
-88.58,1590567063.578125
-92.84,1590567063.59375
-91.0,1590567063.609375
-85.54,1590567063.625
-78.96,1590567063.640625
-72.07,1590567063.65625
-63.6,1590567063.671875
-51.32,1590567063.6875
-33.93,1590567063.703125
-12.44,1590567063.71875
9.91,1590567063.734375
29.24,1590567063.75
43.0,1590567063.765625
51.03,1590567063.78125
55.3,1590567063.796875
58.4,1590567063.8125
61.99,1590567063.828125
66.16,1590567063.84375
69.77,1590567063.859375
71.6,1590567063.875
71.3,1590567063.890625
69.66,1590567063.90625
68.05,1590567063.921875
67.61,1590567063.9375
68.59,1590567063.953125
70.41,1590567063.96875
72.07,1590567063.984375
72.76,1590567064.0
72.17,1590567064.015625
70.66,1590567064.03125
69.11,1590567064.046875
68.42,1590567064.0625
69.15,1590567064.078125
71.33,1590567064.09375
74.37,1590567064.109375
77.41,1590567064.125
79.67,1590567064.140625
80.83,1590567064.15625
81.12,1590567064.171875
81.26,1590567064.1875
81.97,1590567064.203125
83.71,1590567064.21875
86.44,1590567064.234375
89.68,1590567064.25
92.89,1590567064.265625
95.71,1590567064.28125
98.17,1590567064.296875
100.51,1590567064.3125
102.99,1590567064.328125
105.45,1590567064.34375
107.35,1590567064.359375
108.06,1590567064.375
107.26,1590567064.390625
105.26,1590567064.40625
102.89,1590567064.421875
101.05,1590567064.4375
100.31,1590567064.453125
100.69,1590567064.46875
101.88,1590567064.484375
103.56,1590567064.5
105.48,1590567064.515625
107.1,1590567064.53125
107.13,1590567064.546875
103.36,1590567064.5625
93.14,1590567064.578125
74.53,1590567064.59375
47.5,1590567064.609375
14.29,1590567064.625
-21.08,1590567064.640625
-54.2,1590567064.65625
-81.59,1590567064.671875
-101.35,1590567064.6875
-112.95,1590567064.703125
-116.66,1590567064.71875
-113.1,1590567064.734375
-103.3,1590567064.75
-89.22,1590567064.765625
-73.84,1590567064.78125
-60.79,1590567064.796875
-53.32,1590567064.8125
-53.15,1590567064.828125
-59.96,1590567064.84375
-71.62,1590567064.859375
-85.22,1590567064.875
-98.3,1590567064.890625
-109.48,1590567064.90625
-118.38,1590567064.921875
-125.02,1590567064.9375
-129.15,1590567064.953125
-130.13,1590567064.96875
-127.35,1590567064.984375
-120.89,1590567065.0
-111.79,1590567065.015625
-101.95,1590567065.03125
-93.46,1590567065.046875
-87.9,1590567065.0625
-86.15,1590567065.078125
-88.37,1590567065.09375
-94.26,1590567065.109375
-103.06,1590567065.125
-113.41,1590567065.140625
-123.28,1590567065.15625
-130.27,1590567065.171875
-132.39,1590567065.1875
-128.84,1590567065.203125
-120.58,1590567065.21875
-109.93,1590567065.234375
-99.64,1590567065.25
-91.71,1590567065.265625
-86.74,1590567065.28125
-83.74,1590567065.296875
-80.78,1590567065.3125
-75.77,1590567065.328125
-67.17,1590567065.34375
-54.36,1590567065.359375
-37.72,1590567065.375
-18.6,1590567065.390625
0.92,1590567065.40625
18.43,1590567065.421875
31.75,1590567065.4375
39.58,1590567065.453125
41.88,1590567065.46875
39.82,1590567065.484375
35.28,1590567065.5
30.22,1590567065.515625
26.13,1590567065.53125
23.81,1590567065.546875
23.59,1590567065.5625
25.67,1590567065.578125
30.31,1590567065.59375
37.84,1590567065.609375
48.44,1590567065.625
61.82,1590567065.640625
77.17,1590567065.65625
93.12,1590567065.671875
107.93,1590567065.6875
119.54,1590567065.703125
125.85,1590567065.71875
124.85,1590567065.734375
115.11,1590567065.75
96.24,1590567065.765625
68.95,1590567065.78125
34.9,1590567065.796875
-3.93,1590567065.8125
-45.8,1590567065.828125
-89.22,1590567065.84375
-132.36,1590567065.859375
-172.18,1590567065.875
-204.14,1590567065.890625
-223.13,1590567065.90625
-225.37,1590567065.921875
-210.41,1590567065.9375
-181.95,1590567065.953125
-146.77,1590567065.96875
-112.18,1590567065.984375
-83.34,1590567066.0
-61.8,1590567066.015625
-45.91,1590567066.03125
-32.84,1590567066.046875
-20.58,1590567066.0625
-9.0,1590567066.078125
0.64,1590567066.09375
6.85,1590567066.109375
9.03,1590567066.125
7.73,1590567066.140625
4.12,1590567066.15625
-0.75,1590567066.171875
-6.24,1590567066.1875
-11.96,1590567066.203125
-17.34,1590567066.21875
-21.49,1590567066.234375
-23.38,1590567066.25
-22.33,1590567066.265625
-18.43,1590567066.28125
-12.62,1590567066.296875
-6.27,1590567066.3125
-0.7,1590567066.328125
3.34,1590567066.34375
5.83,1590567066.359375
7.24,1590567066.375
8.24,1590567066.390625
9.17,1590567066.40625
9.92,1590567066.421875
9.96,1590567066.4375
8.88,1590567066.453125
6.87,1590567066.46875
5.02,1590567066.484375
5.03,1590567066.5
8.45,1590567066.515625
15.8,1590567066.53125
26.06,1590567066.546875
36.9,1590567066.5625
45.57,1590567066.578125
50.01,1590567066.59375
49.56,1590567066.609375
45.06,1590567066.625
38.24,1590567066.640625
30.88,1590567066.65625
24.26,1590567066.671875
19.01,1590567066.6875
15.28,1590567066.703125
13.01,1590567066.71875
12.09,1590567066.734375
12.35,1590567066.75
13.47,1590567066.765625
15.02,1590567066.78125
16.52,1590567066.796875
17.5,1590567066.8125
17.55,1590567066.828125
16.32,1590567066.84375
13.59,1590567066.859375
9.31,1590567066.875
3.57,1590567066.890625
-3.43,1590567066.90625
-11.44,1590567066.921875
-20.12,1590567066.9375
-28.85,1590567066.953125
-36.6,1590567066.96875
-42.01,1590567066.984375
-43.77,1590567067.0
-41.13,1590567067.015625
-34.33,1590567067.03125
-24.56,1590567067.046875
-13.57,1590567067.0625
-3.02,1590567067.078125
5.98,1590567067.09375
13.0,1590567067.109375
18.17,1590567067.125
21.8,1590567067.140625
24.19,1590567067.15625
25.61,1590567067.171875
26.24,1590567067.1875
26.21,1590567067.203125
25.54,1590567067.21875
24.07,1590567067.234375
21.5,1590567067.25
17.57,1590567067.265625
12.21,1590567067.28125
5.73,1590567067.296875
-1.24,1590567067.3125
-7.73,1590567067.328125
-12.6,1590567067.34375
-14.84,1590567067.359375
-13.84,1590567067.375
-9.75,1590567067.390625
-3.6,1590567067.40625
2.89,1590567067.421875
7.91,1590567067.4375
10.29,1590567067.453125
9.97,1590567067.46875
7.95,1590567067.484375
5.68,1590567067.5
4.26,1590567067.515625
3.76,1590567067.53125
3.26,1590567067.546875
1.38,1590567067.5625
-2.95,1590567067.578125
-10.01,1590567067.59375
-19.18,1590567067.609375
-29.33,1590567067.625
-39.23,1590567067.640625
-47.85,1590567067.65625
-54.45,1590567067.671875
-58.41,1590567067.6875
-59.24,1590567067.703125
-56.61,1590567067.71875
-50.52,1590567067.734375
-41.42,1590567067.75
-30.23,1590567067.765625
-18.17,1590567067.78125
-6.42,1590567067.796875
4.12,1590567067.8125
13.03,1590567067.828125
20.42,1590567067.84375
26.72,1590567067.859375
32.44,1590567067.875
37.85,1590567067.890625
42.85,1590567067.90625
46.95,1590567067.921875
49.6,1590567067.9375
50.44,1590567067.953125
49.56,1590567067.96875
47.53,1590567067.984375
45.16,1590567068.0
43.28,1590567068.015625
42.43,1590567068.03125
42.71,1590567068.046875
43.8,1590567068.0625
45.04,1590567068.078125
45.73,1590567068.09375
45.36,1590567068.109375
43.75,1590567068.125
41.07,1590567068.140625
37.73,1590567068.15625
34.14,1590567068.171875
30.52,1590567068.1875
26.85,1590567068.203125
22.89,1590567068.21875
18.4,1590567068.234375
13.25,1590567068.25
7.53,1590567068.265625
1.44,1590567068.28125
-4.76,1590567068.296875
-10.87,1590567068.3125
-16.83,1590567068.328125
-22.67,1590567068.34375
-28.53,1590567068.359375
-34.66,1590567068.375
-41.43,1590567068.390625
-49.14,1590567068.40625
-57.85,1590567068.421875
-67.05,1590567068.4375
-75.47,1590567068.453125
-81.31,1590567068.46875
-82.69,1590567068.484375
-78.35,1590567068.5
-68.24,1590567068.515625
-53.62,1590567068.53125
-36.68,1590567068.546875
-19.79,1590567068.5625
-4.73,1590567068.578125
7.68,1590567068.59375
17.57,1590567068.609375
25.62,1590567068.625
32.56,1590567068.640625
38.87,1590567068.65625
44.68,1590567068.671875
49.87,1590567068.6875
54.17,1590567068.703125
57.3,1590567068.71875
59.01,1590567068.734375
59.18,1590567068.75
57.89,1590567068.765625
55.52,1590567068.78125
52.69,1590567068.796875
50.11,1590567068.8125
48.33,1590567068.828125
47.61,1590567068.84375
47.77,1590567068.859375
48.4,1590567068.875
48.98,1590567068.890625
49.08,1590567068.90625
48.42,1590567068.921875
46.84,1590567068.9375
44.25,1590567068.953125
40.52,1590567068.96875
35.64,1590567068.984375
29.76,1590567069.0
23.26,1590567069.015625
16.7,1590567069.03125
10.7,1590567069.046875
5.72,1590567069.0625
1.82,1590567069.078125
-1.34,1590567069.09375
-4.43,1590567069.109375
-8.18,1590567069.125
-13.17,1590567069.140625
-19.61,1590567069.15625
-27.33,1590567069.171875
-35.76,1590567069.1875
-43.99,1590567069.203125
-50.86,1590567069.21875
-55.04,1590567069.234375
-55.37,1590567069.25
-51.1,1590567069.265625
-42.28,1590567069.28125
-29.86,1590567069.296875
-15.52,1590567069.3125
-1.19,1590567069.328125
11.58,1590567069.34375
22.0,1590567069.359375
30.13,1590567069.375
36.58,1590567069.390625
42.09,1590567069.40625
47.07,1590567069.421875
51.51,1590567069.4375
55.14,1590567069.453125
57.58,1590567069.46875
58.72,1590567069.484375
58.75,1590567069.5
58.06,1590567069.515625
57.08,1590567069.53125
56.11,1590567069.546875
55.26,1590567069.5625
54.47,1590567069.578125
53.69,1590567069.59375
52.95,1590567069.609375
52.37,1590567069.625
52.03,1590567069.640625
51.89,1590567069.65625
51.7,1590567069.671875
50.99,1590567069.6875
49.38,1590567069.703125
46.62,1590567069.71875
42.84,1590567069.734375
38.42,1590567069.75
33.92,1590567069.765625
29.79,1590567069.78125
26.26,1590567069.796875
23.26,1590567069.8125
20.5,1590567069.828125
17.66,1590567069.84375
14.44,1590567069.859375
10.72,1590567069.875
6.55,1590567069.890625
2.14,1590567069.90625
-2.21,1590567069.921875
-6.19,1590567069.9375
-9.63,1590567069.953125
-12.6,1590567069.96875
-15.36,1590567069.984375
-18.42,1590567070.0
-22.3,1590567070.015625
-27.39,1590567070.03125
-33.69,1590567070.046875
-40.62,1590567070.0625
-46.99,1590567070.078125
-51.25,1590567070.09375
-51.89,1590567070.109375
-47.98,1590567070.125
-39.58,1590567070.140625
-27.74,1590567070.15625
-14.24,1590567070.171875
-0.95,1590567070.1875
10.76,1590567070.203125
20.27,1590567070.21875
27.69,1590567070.234375
33.49,1590567070.25
38.11,1590567070.265625
41.71,1590567070.28125
44.27,1590567070.296875
45.75,1590567070.3125
46.25,1590567070.328125
46.04,1590567070.34375
45.44,1590567070.359375
44.75,1590567070.375
44.1,1590567070.390625
43.52,1590567070.40625
43.03,1590567070.421875
42.68,1590567070.4375
42.62,1590567070.453125
42.95,1590567070.46875
43.7,1590567070.484375
44.67,1590567070.5
45.55,1590567070.515625
45.88,1590567070.53125
45.3,1590567070.546875
43.63,1590567070.5625
40.95,1590567070.578125
37.52,1590567070.59375
33.77,1590567070.609375
30.08,1590567070.625
26.65,1590567070.640625
23.47,1590567070.65625
20.36,1590567070.671875
17.1,1590567070.6875
13.55,1590567070.703125
9.79,1590567070.71875
6.0,1590567070.734375
2.37,1590567070.75
-0.98,1590567070.765625
-4.14,1590567070.78125
-7.32,1590567070.796875
-10.81,1590567070.8125
-14.86,1590567070.828125
-19.66,1590567070.84375
-25.24,1590567070.859375
-31.43,1590567070.875
-37.69,1590567070.890625
-43.07,1590567070.90625
-46.39,1590567070.921875
-46.59,1590567070.9375
-43.12,1590567070.953125
-36.28,1590567070.96875
-27.17,1590567070.984375
-17.3,1590567071.0
-8.07,1590567071.015625
-0.33,1590567071.03125
5.72,1590567071.046875
10.44,1590567071.0625
14.3,1590567071.078125
17.63,1590567071.09375
20.46,1590567071.109375
22.63,1590567071.125
23.93,1590567071.140625
24.27,1590567071.15625
23.79,1590567071.171875
22.76,1590567071.1875
21.54,1590567071.203125
20.44,1590567071.21875
19.58,1590567071.234375
18.99,1590567071.25
18.55,1590567071.265625
18.2,1590567071.28125
17.95,1590567071.296875
17.83,1590567071.3125
17.9,1590567071.328125
18.1,1590567071.34375
18.27,1590567071.359375
18.18,1590567071.375
17.59,1590567071.390625
16.41,1590567071.40625
14.66,1590567071.421875
12.49,1590567071.4375
10.12,1590567071.453125
7.76,1590567071.46875
5.54,1590567071.484375
3.52,1590567071.5
1.67,1590567071.515625
-0.08,1590567071.53125
-1.83,1590567071.546875
-3.71,1590567071.5625
-5.82,1590567071.578125
-8.28,1590567071.59375
-11.09,1590567071.609375
-14.16,1590567071.625
-17.28,1590567071.640625
-20.16,1590567071.65625
-22.62,1590567071.671875
-24.62,1590567071.6875
-26.43,1590567071.703125
-28.46,1590567071.71875
-31.22,1590567071.734375
-34.96,1590567071.75
-39.61,1590567071.765625
-44.62,1590567071.78125
-49.06,1590567071.796875
-51.82,1590567071.8125
-51.94,1590567071.828125
-48.85,1590567071.84375
-42.59,1590567071.859375
-33.84,1590567071.875
-23.71,1590567071.890625
-13.47,1590567071.90625
-4.21,1590567071.921875
3.41,1590567071.9375
9.23,1590567071.953125
13.51,1590567071.96875
16.72,1590567071.984375
19.37,1590567072.0
21.8,1590567072.015625
24.2,1590567072.03125
26.5,1590567072.046875
28.48,1590567072.0625
29.86,1590567072.078125
30.45,1590567072.09375
30.26,1590567072.109375
29.6,1590567072.125
28.98,1590567072.140625
28.89,1590567072.15625
29.63,1590567072.171875
31.12,1590567072.1875
32.98,1590567072.203125
34.67,1590567072.21875
35.71,1590567072.234375
35.87,1590567072.25
35.12,1590567072.265625
33.59,1590567072.28125
31.42,1590567072.296875
28.73,1590567072.3125
25.65,1590567072.328125
22.41,1590567072.34375
19.26,1590567072.359375
16.46,1590567072.375
14.13,1590567072.390625
12.14,1590567072.40625
10.2,1590567072.421875
8.04,1590567072.4375
5.54,1590567072.453125
2.85,1590567072.46875
0.27,1590567072.484375
-1.93,1590567072.5
-3.65,1590567072.515625
-5.07,1590567072.53125
-6.53,1590567072.546875
-8.34,1590567072.5625
-10.61,1590567072.578125
-13.24,1590567072.59375
-15.99,1590567072.609375
-18.64,1590567072.625
-21.17,1590567072.640625
-23.74,1590567072.65625
-26.67,1590567072.671875
-30.28,1590567072.6875
-34.69,1590567072.703125
-39.72,1590567072.71875
-44.75,1590567072.734375
-48.81,1590567072.75
-50.79,1590567072.765625
-49.82,1590567072.78125
-45.58,1590567072.796875
-38.54,1590567072.8125
-29.8,1590567072.828125
-20.76,1590567072.84375
-12.59,1590567072.859375
-5.97,1590567072.875
-0.95,1590567072.890625
2.85,1590567072.90625
5.9,1590567072.921875
8.53,1590567072.9375
10.86,1590567072.953125
12.87,1590567072.96875
14.5,1590567072.984375
15.74,1590567073.0
16.61,1590567073.015625
17.12,1590567073.03125
17.27,1590567073.046875
17.03,1590567073.0625
16.46,1590567073.078125
15.76,1590567073.09375
15.12,1590567073.109375
14.74,1590567073.125
14.69,1590567073.140625
14.8,1590567073.15625
14.81,1590567073.171875
14.4,1590567073.1875
13.43,1590567073.203125
11.89,1590567073.21875
9.99,1590567073.234375
8.0,1590567073.25
6.16,1590567073.265625
4.58,1590567073.28125
3.28,1590567073.296875
2.16,1590567073.3125
1.11,1590567073.328125
0.03,1590567073.34375
-1.09,1590567073.359375
-2.16,1590567073.375
-3.05,1590567073.390625
-3.73,1590567073.40625
-4.25,1590567073.421875
-4.82,1590567073.4375
-5.68,1590567073.453125
-6.96,1590567073.46875
-8.63,1590567073.484375
-10.51,1590567073.5
-12.38,1590567073.515625
-14.14,1590567073.53125
-15.8,1590567073.546875
-17.49,1590567073.5625
-19.29,1590567073.578125
-21.2,1590567073.59375
-23.2,1590567073.609375
-25.31,1590567073.625
-27.65,1590567073.640625
-30.37,1590567073.65625
-33.32,1590567073.671875
-35.95,1590567073.6875
-37.31,1590567073.703125
-36.36,1590567073.71875
-32.41,1590567073.734375
-25.56,1590567073.75
-16.7,1590567073.765625
-7.19,1590567073.78125
1.58,1590567073.796875
8.72,1590567073.8125
14.0,1590567073.828125
17.77,1590567073.84375
20.59,1590567073.859375
22.96,1590567073.875
25.09,1590567073.890625
26.91,1590567073.90625
28.24,1590567073.921875
28.93,1590567073.9375
28.96,1590567073.953125
28.44,1590567073.96875
27.59,1590567073.984375
26.65,1590567074.0
25.78,1590567074.015625
25.11,1590567074.03125
24.64,1590567074.046875
24.36,1590567074.0625
24.19,1590567074.078125
24.04,1590567074.09375
23.78,1590567074.109375
23.24,1590567074.125
22.28,1590567074.140625
20.81,1590567074.15625
18.92,1590567074.171875
16.82,1590567074.1875
14.79,1590567074.203125
13.02,1590567074.21875
11.48,1590567074.234375
9.92,1590567074.25
7.98,1590567074.265625
5.42,1590567074.28125
2.23,1590567074.296875
-1.32,1590567074.3125
-4.84,1590567074.328125
-7.96,1590567074.34375
-10.56,1590567074.359375
-12.74,1590567074.375
-14.8,1590567074.390625
-17.01,1590567074.40625
-19.51,1590567074.421875
-22.25,1590567074.4375
-25.05,1590567074.453125
-27.73,1590567074.46875
-30.18,1590567074.484375
-32.41,1590567074.5
-34.52,1590567074.515625
-36.65,1590567074.53125
-38.97,1590567074.546875
-41.67,1590567074.5625
-44.86,1590567074.578125
-48.38,1590567074.59375
-51.82,1590567074.609375
-54.39,1590567074.625
-55.22,1590567074.640625
-53.65,1590567074.65625
-49.57,1590567074.671875
-43.53,1590567074.6875
-36.59,1590567074.703125
-29.86,1590567074.71875
-24.17,1590567074.734375
-19.8,1590567074.75
-16.64,1590567074.765625
-14.38,1590567074.78125
-12.79,1590567074.796875
-11.82,1590567074.8125
-11.47,1590567074.828125
-11.73,1590567074.84375
-12.42,1590567074.859375
-13.29,1590567074.875
-14.08,1590567074.890625
-14.62,1590567074.90625
-14.81,1590567074.921875
-14.62,1590567074.9375
-14.05,1590567074.953125
-13.1,1590567074.96875
-11.78,1590567074.984375
-10.18,1590567075.0
-8.37,1590567075.015625
-6.44,1590567075.03125
-4.39,1590567075.046875
-2.24,1590567075.0625
-0.01,1590567075.078125
2.17,1590567075.09375
4.17,1590567075.109375
5.79,1590567075.125
6.98,1590567075.140625
7.74,1590567075.15625
8.27,1590567075.171875
8.81,1590567075.1875
9.6,1590567075.203125
10.72,1590567075.21875
12.13,1590567075.234375
13.56,1590567075.25
14.64,1590567075.265625
15.01,1590567075.28125
14.47,1590567075.296875
13.09,1590567075.3125
11.17,1590567075.328125
9.14,1590567075.34375
7.35,1590567075.359375
5.87,1590567075.375
4.52,1590567075.390625
2.9,1590567075.40625
0.62,1590567075.421875
-2.6,1590567075.4375
-6.8,1590567075.453125
-11.77,1590567075.46875
-17.07,1590567075.484375
-22.03,1590567075.5
-25.88,1590567075.515625
-27.79,1590567075.53125
-27.2,1590567075.546875
-23.95,1590567075.5625
-18.48,1590567075.578125
-11.7,1590567075.59375
-4.74,1590567075.609375
1.4,1590567075.625
6.14,1590567075.640625
9.36,1590567075.65625
11.34,1590567075.671875
12.49,1590567075.6875
13.18,1590567075.703125
13.62,1590567075.71875
13.89,1590567075.734375
13.99,1590567075.75
13.93,1590567075.765625
13.75,1590567075.78125
13.53,1590567075.796875
13.4,1590567075.8125
13.43,1590567075.828125
13.66,1590567075.84375
14.07,1590567075.859375
14.54,1590567075.875
14.88,1590567075.890625
14.96,1590567075.90625
14.74,1590567075.921875
14.3,1590567075.9375
13.78,1590567075.953125
13.24,1590567075.96875
12.6,1590567075.984375
11.63,1590567076.0
10.05,1590567076.015625
7.78,1590567076.03125
5.0,1590567076.046875
2.13,1590567076.0625
-0.31,1590567076.078125
-2.02,1590567076.09375
-3.03,1590567076.109375
-3.71,1590567076.125
-4.56,1590567076.140625
-5.92,1590567076.15625
-7.84,1590567076.171875
-10.02,1590567076.1875
-12.02,1590567076.203125
-13.53,1590567076.21875
-14.46,1590567076.234375
-15.05,1590567076.25
-15.66,1590567076.265625
-16.61,1590567076.28125
-18.1,1590567076.296875
-20.08,1590567076.3125
-22.43,1590567076.328125
-24.94,1590567076.34375
-27.37,1590567076.359375
-29.41,1590567076.375
-30.61,1590567076.390625
-30.44,1590567076.40625
-28.47,1590567076.421875
-24.52,1590567076.4375
-18.85,1590567076.453125
-12.13,1590567076.46875
-5.21,1590567076.484375
1.08,1590567076.5
6.21,1590567076.515625
10.0,1590567076.53125
12.59,1590567076.546875
14.3,1590567076.5625
15.47,1590567076.578125
16.33,1590567076.59375
17.03,1590567076.609375
17.58,1590567076.625
18.0,1590567076.640625
18.34,1590567076.65625
18.67,1590567076.671875
19.1,1590567076.6875
19.68,1590567076.703125
20.39,1590567076.71875
21.09,1590567076.734375
21.61,1590567076.75
21.85,1590567076.765625
21.84,1590567076.78125
21.7,1590567076.796875
21.63,1590567076.8125
21.74,1590567076.828125
21.92,1590567076.84375
21.86,1590567076.859375
21.07,1590567076.875
19.07,1590567076.890625
15.64,1590567076.90625
10.94,1590567076.921875
5.55,1590567076.9375
0.29,1590567076.953125
-4.07,1590567076.96875
-7.14,1590567076.984375
-9.02,1590567077.0
-10.21,1590567077.015625
-11.28,1590567077.03125
-12.61,1590567077.046875
-14.16,1590567077.0625
-15.58,1590567077.078125
-16.49,1590567077.09375
-16.75,1590567077.109375
-16.56,1590567077.125
-16.33,1590567077.140625
-16.48,1590567077.15625
-17.21,1590567077.171875
-18.54,1590567077.1875
-20.31,1590567077.203125
-22.35,1590567077.21875
-24.46,1590567077.234375
-26.35,1590567077.25
-27.57,1590567077.265625
-27.53,1590567077.28125
-25.72,1590567077.296875
-21.97,1590567077.3125
-16.61,1590567077.328125
-10.35,1590567077.34375
-4.08,1590567077.359375
1.53,1590567077.375
6.14,1590567077.390625
9.74,1590567077.40625
12.5,1590567077.421875
14.54,1590567077.4375
15.9,1590567077.453125
16.56,1590567077.46875
16.57,1590567077.484375
16.08,1590567077.5
15.31,1590567077.515625
14.48,1590567077.53125
13.68,1590567077.546875
12.96,1590567077.5625
12.31,1590567077.578125
11.77,1590567077.59375
11.35,1590567077.609375
11.06,1590567077.625
10.89,1590567077.640625
10.77,1590567077.65625
10.67,1590567077.671875
10.57,1590567077.6875
10.45,1590567077.703125
10.26,1590567077.71875
9.88,1590567077.734375
9.15,1590567077.75
7.93,1590567077.765625
6.24,1590567077.78125
4.24,1590567077.796875
2.19,1590567077.8125
0.33,1590567077.828125
-1.23,1590567077.84375
-2.58,1590567077.859375
-3.87,1590567077.875
-5.31,1590567077.890625
-6.99,1590567077.90625
-8.89,1590567077.921875
-10.9,1590567077.9375
-12.88,1590567077.953125
-14.72,1590567077.96875
-16.36,1590567077.984375
-17.75,1590567078.0
-18.9,1590567078.015625
-19.87,1590567078.03125
-20.79,1590567078.046875
-21.89,1590567078.0625
-23.41,1590567078.078125
-25.52,1590567078.09375
-28.17,1590567078.109375
-31.03,1590567078.125
-33.47,1590567078.140625
-34.73,1590567078.15625
-34.11,1590567078.171875
-31.24,1590567078.1875
-26.26,1590567078.203125
-19.79,1590567078.21875
-12.78,1590567078.234375
-6.15,1590567078.25
-0.57,1590567078.265625
3.74,1590567078.28125
6.9,1590567078.296875
9.22,1590567078.3125
10.93,1590567078.328125
12.13,1590567078.34375
12.83,1590567078.359375
13.02,1590567078.375
12.8,1590567078.390625
12.35,1590567078.40625
11.87,1590567078.421875
11.52,1590567078.4375
11.34,1590567078.453125
11.3,1590567078.46875
11.35,1590567078.484375
11.42,1590567078.5
11.5,1590567078.515625
11.6,1590567078.53125
11.72,1590567078.546875
11.81,1590567078.5625
11.81,1590567078.578125
11.65,1590567078.59375
11.25,1590567078.609375
10.56,1590567078.625
9.58,1590567078.640625
8.31,1590567078.65625
6.84,1590567078.671875
5.23,1590567078.6875
3.64,1590567078.703125
2.17,1590567078.71875
0.93,1590567078.734375
-0.03,1590567078.75
-0.76,1590567078.765625
-1.41,1590567078.78125
-2.15,1590567078.796875
-3.13,1590567078.8125
-4.45,1590567078.828125
-6.08,1590567078.84375
-7.97,1590567078.859375
-9.99,1590567078.875
-12.0,1590567078.890625
-13.84,1590567078.90625
-15.4,1590567078.921875
-16.63,1590567078.9375
-17.61,1590567078.953125
-18.61,1590567078.96875
-20.05,1590567078.984375
-22.25,1590567079.0
-25.3,1590567079.015625
-28.83,1590567079.03125
-32.04,1590567079.046875
-33.9,1590567079.0625
-33.53,1590567079.078125
-30.53,1590567079.09375
-25.19,1590567079.109375
-18.37,1590567079.125
-11.16,1590567079.140625
-4.55,1590567079.15625
0.9,1590567079.171875
5.07,1590567079.1875
8.14,1590567079.203125
10.36,1590567079.21875
11.91,1590567079.234375
12.83,1590567079.25
13.15,1590567079.265625
12.94,1590567079.28125
12.4,1590567079.296875
11.79,1590567079.3125
11.34,1590567079.328125
11.2,1590567079.34375
11.32,1590567079.359375
11.58,1590567079.375
11.79,1590567079.390625
11.85,1590567079.40625
11.74,1590567079.421875
11.52,1590567079.4375
11.25,1590567079.453125
10.95,1590567079.46875
10.58,1590567079.484375
10.09,1590567079.5
9.45,1590567079.515625
8.69,1590567079.53125
7.87,1590567079.546875
7.04,1590567079.5625
6.17,1590567079.578125
5.17,1590567079.59375
3.98,1590567079.609375
2.64,1590567079.625
1.26,1590567079.640625
0.03,1590567079.65625
-0.97,1590567079.671875
-1.81,1590567079.6875
-2.69,1590567079.703125
-3.86,1590567079.71875
-5.43,1590567079.734375
-7.33,1590567079.75
-9.32,1590567079.765625
-11.08,1590567079.78125
-12.41,1590567079.796875
-13.28,1590567079.8125
-13.87,1590567079.828125
-14.43,1590567079.84375
-15.28,1590567079.859375
-16.65,1590567079.875
-18.68,1590567079.890625
-21.35,1590567079.90625
-24.34,1590567079.921875
-27.07,1590567079.9375
-28.76,1590567079.953125
-28.66,1590567079.96875
-26.37,1590567079.984375
-21.97,1590567080.0
-16.12,1590567080.015625
-9.8,1590567080.03125
-3.99,1590567080.046875
0.69,1590567080.0625
4.02,1590567080.078125
6.22,1590567080.09375
7.63,1590567080.109375
8.59,1590567080.125
9.27,1590567080.140625
9.72,1590567080.15625
9.92,1590567080.171875
9.86,1590567080.1875
9.63,1590567080.203125
9.34,1590567080.21875
9.12,1590567080.234375
9.09,1590567080.25
9.3,1590567080.265625
9.76,1590567080.28125
10.37,1590567080.296875
11.01,1590567080.3125
11.51,1590567080.328125
11.73,1590567080.34375
11.63,1590567080.359375
11.27,1590567080.375
10.78,1590567080.390625
10.3,1590567080.40625
9.93,1590567080.421875
9.67,1590567080.4375
9.44,1590567080.453125
9.09,1590567080.46875
8.56,1590567080.484375
7.8,1590567080.5
6.85,1590567080.515625
5.76,1590567080.53125
4.61,1590567080.546875
3.43,1590567080.5625
2.26,1590567080.578125
1.12,1590567080.59375
0.02,1590567080.609375
-1.0,1590567080.625
-1.97,1590567080.640625
-2.9,1590567080.65625
-3.86,1590567080.671875
-4.92,1590567080.6875
-6.18,1590567080.703125
-7.71,1590567080.71875
-9.51,1590567080.734375
-11.53,1590567080.75
-13.68,1590567080.765625
-15.93,1590567080.78125
-18.31,1590567080.796875
-20.96,1590567080.8125
-23.91,1590567080.828125
-26.97,1590567080.84375
-29.64,1590567080.859375
-31.19,1590567080.875
-30.96,1590567080.890625
-28.63,1590567080.90625
-24.45,1590567080.921875
-19.13,1590567080.9375
-13.61,1590567080.953125
-8.67,1590567080.96875
-4.65,1590567080.984375
-1.51,1590567081.0
1.06,1590567081.015625
3.37,1590567081.03125
5.59,1590567081.046875
7.65,1590567081.0625
9.41,1590567081.078125
10.71,1590567081.09375
11.51,1590567081.109375
11.89,1590567081.125
12.0,1590567081.140625
12.03,1590567081.15625
12.11,1590567081.171875
12.25,1590567081.1875
12.39,1590567081.203125
12.44,1590567081.21875
12.3,1590567081.234375
12.02,1590567081.25
11.67,1590567081.265625
11.38,1590567081.28125
11.21,1590567081.296875
11.1,1590567081.3125
10.91,1590567081.328125
10.47,1590567081.34375
9.73,1590567081.359375
8.75,1590567081.375
7.72,1590567081.390625
6.8,1590567081.40625
6.07,1590567081.421875
5.5,1590567081.4375
4.96,1590567081.453125
4.31,1590567081.46875
3.48,1590567081.484375
2.42,1590567081.5
1.15,1590567081.515625
-0.34,1590567081.53125
-1.99,1590567081.546875
-3.72,1590567081.5625
-5.4,1590567081.578125
-6.89,1590567081.59375
-8.11,1590567081.609375
-9.1,1590567081.625
-10.01,1590567081.640625
-11.07,1590567081.65625
-12.5,1590567081.671875
-14.47,1590567081.6875
-17.0,1590567081.703125
-19.96,1590567081.71875
-23.11,1590567081.734375
-26.05,1590567081.75
-28.25,1590567081.765625
-29.19,1590567081.78125
-28.4,1590567081.796875
-25.72,1590567081.8125
-21.36,1590567081.828125
-15.86,1590567081.84375
-10.01,1590567081.859375
-4.54,1590567081.875
0.07,1590567081.890625
3.66,1590567081.90625
6.38,1590567081.921875
8.46,1590567081.9375
10.05,1590567081.953125
11.2,1590567081.96875
11.91,1590567081.984375
12.2,1590567082.0
12.22,1590567082.015625
12.18,1590567082.03125
12.26,1590567082.046875
12.49,1590567082.0625
12.79,1590567082.078125
13.07,1590567082.09375
13.29,1590567082.109375
13.51,1590567082.125
13.85,1590567082.140625
14.4,1590567082.15625
15.13,1590567082.171875
15.9,1590567082.1875
16.56,1590567082.203125
16.96,1590567082.21875
17.04,1590567082.234375
16.75,1590567082.25
16.07,1590567082.265625
14.96,1590567082.28125
13.47,1590567082.296875
11.7,1590567082.3125
9.9,1590567082.328125
8.35,1590567082.34375
7.21,1590567082.359375
6.48,1590567082.375
5.94,1590567082.390625
5.23,1590567082.40625
4.05,1590567082.421875
2.25,1590567082.4375
-0.07,1590567082.453125
-2.62,1590567082.46875
-5.04,1590567082.484375
-7.0,1590567082.5
-8.34,1590567082.515625
-9.09,1590567082.53125
-9.49,1590567082.546875
-9.88,1590567082.5625
-10.67,1590567082.578125
-12.14,1590567082.59375
-14.31,1590567082.609375
-16.82,1590567082.625
-18.99,1590567082.640625
-19.97,1590567082.65625
-19.15,1590567082.671875
-16.31,1590567082.6875
-11.78,1590567082.703125
-6.3,1590567082.71875
-0.76,1590567082.734375
4.09,1590567082.75
7.83,1590567082.765625
10.33,1590567082.78125
11.74,1590567082.796875
12.27,1590567082.8125
12.15,1590567082.828125
11.61,1590567082.84375
10.9,1590567082.859375
10.21,1590567082.875
9.7,1590567082.890625
9.39,1590567082.90625
9.24,1590567082.921875
9.16,1590567082.9375
9.08,1590567082.953125
9.01,1590567082.96875
9.03,1590567082.984375
9.17,1590567083.0
9.45,1590567083.015625
9.82,1590567083.03125
10.18,1590567083.046875
10.41,1590567083.0625
10.37,1590567083.078125
9.99,1590567083.09375
9.22,1590567083.109375
8.1,1590567083.125
6.76,1590567083.140625
5.34,1590567083.15625
3.95,1590567083.171875
2.59,1590567083.1875
1.14,1590567083.203125
-0.5,1590567083.21875
-2.35,1590567083.234375
-4.33,1590567083.25
-6.24,1590567083.265625
-7.94,1590567083.28125
-9.42,1590567083.296875
-10.81,1590567083.3125
-12.33,1590567083.328125
-14.15,1590567083.34375
-16.4,1590567083.359375
-19.08,1590567083.375
-22.12,1590567083.390625
-25.3,1590567083.40625
-28.27,1590567083.421875
-30.48,1590567083.4375
-31.28,1590567083.453125
-30.16,1590567083.46875
-26.93,1590567083.484375
-21.92,1590567083.5
-15.93,1590567083.515625
-9.93,1590567083.53125
-4.76,1590567083.546875
-0.84,1590567083.5625
1.87,1590567083.578125
3.7,1590567083.59375
5.05,1590567083.609375
6.18,1590567083.625
7.1,1590567083.640625
7.72,1590567083.65625
7.93,1590567083.671875
7.72,1590567083.6875
7.2,1590567083.703125
6.59,1590567083.71875
6.09,1590567083.734375
5.88,1590567083.75
5.98,1590567083.765625
6.34,1590567083.78125
6.83,1590567083.796875
7.32,1590567083.8125
7.73,1590567083.828125
8.06,1590567083.84375
8.3,1590567083.859375
8.43,1590567083.875
8.34,1590567083.890625
7.87,1590567083.90625
6.86,1590567083.921875
5.26,1590567083.9375
3.21,1590567083.953125
0.99,1590567083.96875
-1.05,1590567083.984375
-2.65,1590567084.0
-3.76,1590567084.015625
-4.6,1590567084.03125
-5.55,1590567084.046875
-6.94,1590567084.0625
-8.93,1590567084.078125
-11.39,1590567084.09375
-13.98,1590567084.109375
-16.28,1590567084.125
-17.98,1590567084.140625
-19.0,1590567084.15625
-19.54,1590567084.171875
-19.94,1590567084.1875
-20.63,1590567084.203125
-21.93,1590567084.21875
-23.99,1590567084.234375
-26.67,1590567084.25
-29.58,1590567084.265625
-32.09,1590567084.28125
-33.49,1590567084.296875
-33.21,1590567084.3125
-30.99,1590567084.328125
-27.0,1590567084.34375
-21.76,1590567084.359375
-15.99,1590567084.375
-10.34,1590567084.390625
-5.26,1590567084.40625
-0.92,1590567084.421875
2.71,1590567084.4375
5.74,1590567084.453125
8.34,1590567084.46875
10.62,1590567084.484375
12.67,1590567084.5
14.55,1590567084.515625
16.3,1590567084.53125
17.93,1590567084.546875
19.38,1590567084.5625
20.58,1590567084.578125
21.49,1590567084.59375
22.11,1590567084.609375
22.51,1590567084.625
22.75,1590567084.640625
22.91,1590567084.65625
23.0,1590567084.671875
22.99,1590567084.6875
22.88,1590567084.703125
22.68,1590567084.71875
22.4,1590567084.734375
22.06,1590567084.75
21.59,1590567084.765625
20.89,1590567084.78125
19.81,1590567084.796875
18.33,1590567084.8125
16.51,1590567084.828125
14.57,1590567084.84375
12.76,1590567084.859375
11.25,1590567084.875
10.04,1590567084.890625
8.94,1590567084.90625
7.65,1590567084.921875
5.94,1590567084.9375
3.72,1590567084.953125
1.16,1590567084.96875
-1.43,1590567084.984375
-3.72,1590567085.0
-5.51,1590567085.015625
-6.83,1590567085.03125
-7.89,1590567085.046875
-9.0,1590567085.0625
-10.43,1590567085.078125
-12.3,1590567085.09375
-14.62,1590567085.109375
-17.33,1590567085.125
-20.32,1590567085.140625
-23.47,1590567085.15625
-26.47,1590567085.171875
-28.88,1590567085.1875
-30.08,1590567085.203125
-29.52,1590567085.21875
-26.96,1590567085.234375
-22.69,1590567085.25
-17.45,1590567085.265625
-12.19,1590567085.28125
-7.69,1590567085.296875
-4.23,1590567085.3125
-1.6,1590567085.328125
0.74,1590567085.34375
3.25,1590567085.359375
6.06,1590567085.375
8.99,1590567085.390625
11.58,1590567085.40625
13.46,1590567085.421875
14.47,1590567085.4375
14.73,1590567085.453125
14.53,1590567085.46875
14.2,1590567085.484375
14.02,1590567085.5
14.16,1590567085.515625
14.66,1590567085.53125
15.51,1590567085.546875
16.56,1590567085.5625
17.67,1590567085.578125
18.62,1590567085.59375
19.24,1590567085.609375
19.41,1590567085.625
19.04,1590567085.640625
18.15,1590567085.65625
16.84,1590567085.671875
15.3,1590567085.6875
13.78,1590567085.703125
12.46,1590567085.71875
11.43,1590567085.734375
10.61,1590567085.75
9.79,1590567085.765625
8.75,1590567085.78125
7.44,1590567085.796875
5.9,1590567085.8125
4.25,1590567085.828125
2.55,1590567085.84375
0.76,1590567085.859375
-1.18,1590567085.875
-3.24,1590567085.890625
-5.23,1590567085.90625
-6.88,1590567085.921875
-7.98,1590567085.9375
-8.59,1590567085.953125
-9.02,1590567085.96875
-9.7,1590567085.984375
-10.98,1590567086.0
-12.96,1590567086.015625
-15.54,1590567086.03125
-18.49,1590567086.046875
-21.58,1590567086.0625
-24.52,1590567086.078125
-26.9,1590567086.09375
-28.17,1590567086.109375
-27.76,1590567086.125
-25.34,1590567086.140625
-21.04,1590567086.15625
-15.49,1590567086.171875
-9.6,1590567086.1875
-4.23,1590567086.203125
0.12,1590567086.21875
3.44,1590567086.234375
6.04,1590567086.25
8.27,1590567086.265625
10.36,1590567086.28125
12.3,1590567086.296875
13.93,1590567086.3125
15.05,1590567086.328125
15.58,1590567086.34375
15.62,1590567086.359375
15.31,1590567086.375
14.91,1590567086.390625
14.64,1590567086.40625
14.62,1590567086.421875
14.9,1590567086.4375
15.42,1590567086.453125
16.02,1590567086.46875
16.57,1590567086.484375
16.94,1590567086.5
17.08,1590567086.515625
16.97,1590567086.53125
16.61,1590567086.546875
15.97,1590567086.5625
14.99,1590567086.578125
13.64,1590567086.59375
11.95,1590567086.609375
10.04,1590567086.625
8.07,1590567086.640625
6.21,1590567086.65625
4.52,1590567086.671875
2.99,1590567086.6875
1.55,1590567086.703125
0.1,1590567086.71875
-1.41,1590567086.734375
-3.01,1590567086.75
-4.71,1590567086.765625
-6.53,1590567086.78125
-8.45,1590567086.796875
-10.41,1590567086.8125
-12.27,1590567086.828125
-13.91,1590567086.84375
-15.25,1590567086.859375
-16.34,1590567086.875
-17.33,1590567086.890625
-18.46,1590567086.90625
-19.94,1590567086.921875
-21.98,1590567086.9375
-24.6,1590567086.953125
-27.69,1590567086.96875
-30.88,1590567086.984375
-33.55,1590567087.0
-34.93,1590567087.015625
-34.31,1590567087.03125
-31.41,1590567087.046875
-26.51,1590567087.0625
-20.44,1590567087.078125
-14.28,1590567087.09375
-8.91,1590567087.109375
-4.78,1590567087.125
-1.79,1590567087.140625
0.51,1590567087.15625
2.6,1590567087.171875
4.76,1590567087.1875
7.0,1590567087.203125
9.16,1590567087.21875
11.05,1590567087.234375
12.54,1590567087.25
13.62,1590567087.265625
14.29,1590567087.28125
14.65,1590567087.296875
14.82,1590567087.3125
14.91,1590567087.328125
15.06,1590567087.34375
15.39,1590567087.359375
15.93,1590567087.375
16.65,1590567087.390625
17.47,1590567087.40625
18.23,1590567087.421875
18.83,1590567087.4375
19.14,1590567087.453125
19.07,1590567087.46875
18.6,1590567087.484375
17.73,1590567087.5
16.51,1590567087.515625
15.04,1590567087.53125
13.44,1590567087.546875
11.82,1590567087.5625
10.23,1590567087.578125
8.64,1590567087.59375
7.0,1590567087.609375
5.28,1590567087.625
3.48,1590567087.640625
1.66,1590567087.65625
-0.09,1590567087.671875
-1.73,1590567087.6875
-3.29,1590567087.703125
-4.87,1590567087.71875
-6.56,1590567087.734375
-8.38,1590567087.75
-10.26,1590567087.765625
-12.09,1590567087.78125
-13.81,1590567087.796875
-15.43,1590567087.8125
-17.04,1590567087.828125
-18.75,1590567087.84375
-20.67,1590567087.859375
-22.9,1590567087.875
-25.52,1590567087.890625
-28.5,1590567087.90625
-31.59,1590567087.921875
-34.24,1590567087.9375
-35.73,1590567087.953125
-35.34,1590567087.96875
-32.67,1590567087.984375
-27.93,1590567088.0
-21.85,1590567088.015625
-15.43,1590567088.03125
-9.55,1590567088.046875
-4.77,1590567088.0625
-1.14,1590567088.078125
1.58,1590567088.09375
3.74,1590567088.109375
5.66,1590567088.125
7.52,1590567088.140625
9.37,1590567088.15625
11.17,1590567088.171875
12.87,1590567088.1875
14.36,1590567088.203125
15.56,1590567088.21875
16.45,1590567088.234375
17.11,1590567088.25
17.65,1590567088.265625
18.2,1590567088.28125
18.79,1590567088.296875
19.38,1590567088.3125
19.88,1590567088.328125
20.21,1590567088.34375
20.33,1590567088.359375
20.22,1590567088.375
19.84,1590567088.390625
19.13,1590567088.40625
18.02,1590567088.421875
16.53,1590567088.4375
14.79,1590567088.453125
13.01,1590567088.46875
11.44,1590567088.484375
10.22,1590567088.5
9.33,1590567088.515625
8.63,1590567088.53125
7.9,1590567088.546875
7.03,1590567088.5625
5.99,1590567088.578125
4.87,1590567088.59375
3.73,1590567088.609375
2.59,1590567088.625
1.36,1590567088.640625
-0.07,1590567088.65625
-1.74,1590567088.671875
-3.57,1590567088.6875
-5.41,1590567088.703125
-7.16,1590567088.71875
-8.73,1590567088.734375
-10.19,1590567088.75
-11.65,1590567088.765625
-13.21,1590567088.78125
-14.99,1590567088.796875
-17.11,1590567088.8125
-19.67,1590567088.828125
-22.69,1590567088.84375
-25.94,1590567088.859375
-28.89,1590567088.875
-30.74,1590567088.890625
-30.72,1590567088.90625
-28.44,1590567088.921875
-24.07,1590567088.9375
-18.33,1590567088.953125
-12.24,1590567088.96875
-6.68,1590567088.984375
-2.18,1590567089.0
1.21,1590567089.015625
3.7,1590567089.03125
5.63,1590567089.046875
7.24,1590567089.0625
8.64,1590567089.078125
9.86,1590567089.09375
10.87,1590567089.109375
11.68,1590567089.125
12.22,1590567089.140625
12.48,1590567089.15625
12.51,1590567089.171875
12.41,1590567089.1875
12.37,1590567089.203125
12.5,1590567089.21875
12.84,1590567089.234375
13.34,1590567089.25
13.89,1590567089.265625
14.45,1590567089.28125
15.03,1590567089.296875
15.64,1590567089.3125
16.19,1590567089.328125
16.45,1590567089.34375
16.15,1590567089.359375
15.09,1590567089.375
13.31,1590567089.390625
11.1,1590567089.40625
8.91,1590567089.421875
7.12,1590567089.4375
5.89,1590567089.453125
5.11,1590567089.46875
4.46,1590567089.484375
3.58,1590567089.5
2.26,1590567089.515625
0.48,1590567089.53125
-1.56,1590567089.546875
-3.58,1590567089.5625
-5.32,1590567089.578125
-6.66,1590567089.59375
-7.68,1590567089.609375
-8.6,1590567089.625
-9.71,1590567089.640625
-11.28,1590567089.65625
-13.47,1590567089.671875
-16.31,1590567089.6875
-19.66,1590567089.703125
-23.15,1590567089.71875
-26.26,1590567089.734375
-28.36,1590567089.75
-28.87,1590567089.765625
-27.43,1590567089.78125
-24.07,1590567089.796875
-19.24,1590567089.8125
-13.68,1590567089.828125
-8.21,1590567089.84375
-3.43,1590567089.859375
0.37,1590567089.875
3.26,1590567089.890625
5.47,1590567089.90625
7.24,1590567089.921875
8.68,1590567089.9375
9.72,1590567089.953125
10.26,1590567089.96875
10.3,1590567089.984375
9.96,1590567090.0
9.48,1590567090.015625
9.12,1590567090.03125
9.01,1590567090.046875
9.16,1590567090.0625
9.43,1590567090.078125
9.66,1590567090.09375
9.8,1590567090.109375
9.84,1590567090.125
9.84,1590567090.140625
9.83,1590567090.15625
9.74,1590567090.171875
9.49,1590567090.1875
8.94,1590567090.203125
8.06,1590567090.21875
6.89,1590567090.234375
5.57,1590567090.25
4.26,1590567090.265625
3.08,1590567090.28125
2.04,1590567090.296875
1.07,1590567090.3125
0.03,1590567090.328125
-1.24,1590567090.34375
-2.87,1590567090.359375
-4.88,1590567090.375
-7.16,1590567090.390625
-9.53,1590567090.40625
-11.8,1590567090.421875
-13.83,1590567090.4375
-15.57,1590567090.453125
-17.11,1590567090.46875
-18.6,1590567090.484375
-20.29,1590567090.5
-22.4,1590567090.515625
-25.04,1590567090.53125
-28.13,1590567090.546875
-31.23,1590567090.5625
-33.66,1590567090.578125
-34.64,1590567090.59375
-33.57,1590567090.609375
-30.3,1590567090.625
-25.25,1590567090.640625
-19.26,1590567090.65625
-13.31,1590567090.671875
-8.12,1590567090.6875
-4.03,1590567090.703125
-0.88,1590567090.71875
1.69,1590567090.734375
4.04,1590567090.75
6.31,1590567090.765625
8.48,1590567090.78125
10.42,1590567090.796875
12.04,1590567090.8125
13.38,1590567090.828125
14.56,1590567090.84375
15.7,1590567090.859375
16.85,1590567090.875
17.97,1590567090.890625
18.92,1590567090.90625
19.6,1590567090.921875
19.91,1590567090.9375
19.87,1590567090.953125
19.57,1590567090.96875
19.11,1590567090.984375
18.59,1590567091.0
18.06,1590567091.015625
17.47,1590567091.03125
16.75,1590567091.046875
15.78,1590567091.0625
14.48,1590567091.078125
12.85,1590567091.09375
11.01,1590567091.109375
9.15,1590567091.125
7.5,1590567091.140625
6.18,1590567091.15625
5.15,1590567091.171875
4.2,1590567091.1875
3.02,1590567091.203125
1.38,1590567091.21875
-0.78,1590567091.234375
-3.3,1590567091.25
-5.92,1590567091.265625
-8.32,1590567091.28125
-10.36,1590567091.296875
-12.04,1590567091.3125
-13.57,1590567091.328125
-15.21,1590567091.34375
-17.23,1590567091.359375
-19.81,1590567091.375
-22.99,1590567091.390625
-26.62,1590567091.40625
-30.3,1590567091.421875
-33.47,1590567091.4375
-35.4,1590567091.453125
-35.4,1590567091.46875
-33.09,1590567091.484375
-28.5,1590567091.5
-22.18,1590567091.515625
-15.0,1590567091.53125
-7.91,1590567091.546875
-1.65,1590567091.5625
3.43,1590567091.578125
7.35,1590567091.59375
10.41,1590567091.609375
12.91,1590567091.625
15.12,1590567091.640625
17.1,1590567091.65625
18.85,1590567091.671875
20.27,1590567091.6875
21.27,1590567091.703125
21.85,1590567091.71875
22.01,1590567091.734375
21.88,1590567091.75
21.57,1590567091.765625
21.22,1590567091.78125
20.89,1590567091.796875
20.58,1590567091.8125
20.26,1590567091.828125
19.89,1590567091.84375
19.49,1590567091.859375
19.1,1590567091.875
18.75,1590567091.890625
18.42,1590567091.90625
18.04,1590567091.921875
17.47,1590567091.9375
16.6,1590567091.953125
15.36,1590567091.96875
13.8,1590567091.984375
12.02,1590567092.0
10.15,1590567092.015625
8.3,1590567092.03125
6.52,1590567092.046875
4.79,1590567092.0625
3.09,1590567092.078125
1.33,1590567092.09375
-0.53,1590567092.109375
-2.52,1590567092.125
-4.61,1590567092.140625
-6.77,1590567092.15625
-8.93,1590567092.171875
-11.04,1590567092.1875
-13.06,1590567092.203125
-14.99,1590567092.21875
-16.85,1590567092.234375
-18.67,1590567092.25
-20.58,1590567092.265625
-22.76,1590567092.28125
-25.42,1590567092.296875
-28.66,1590567092.3125
-32.32,1590567092.328125
-35.87,1590567092.34375
-38.46,1590567092.359375
-39.23,1590567092.375
-37.6,1590567092.390625
-33.59,1590567092.40625
-27.8,1590567092.421875
-21.19,1590567092.4375
-14.7,1590567092.453125
-8.99,1590567092.46875
-4.23,1590567092.484375
-0.29,1590567092.5
3.07,1590567092.515625
6.03,1590567092.53125
8.65,1590567092.546875
10.91,1590567092.5625
12.77,1590567092.578125
14.23,1590567092.59375
15.33,1590567092.609375
16.13,1590567092.625
16.71,1590567092.640625
17.14,1590567092.65625
17.51,1590567092.671875
17.89,1590567092.6875
18.3,1590567092.703125
18.72,1590567092.71875
19.1,1590567092.734375
19.42,1590567092.75
19.71,1590567092.765625
19.98,1590567092.78125
20.24,1590567092.796875
20.41,1590567092.8125
20.35,1590567092.828125
19.94,1590567092.84375
19.16,1590567092.859375
18.09,1590567092.875
16.84,1590567092.890625
15.52,1590567092.90625
14.14,1590567092.921875
12.64,1590567092.9375
10.98,1590567092.953125
9.17,1590567092.96875
7.31,1590567092.984375
5.53,1590567093.0
3.92,1590567093.015625
2.46,1590567093.03125
1.06,1590567093.046875
-0.42,1590567093.0625
-2.04,1590567093.078125
-3.79,1590567093.09375
-5.6,1590567093.109375
-7.35,1590567093.125
-8.9,1590567093.140625
-10.15,1590567093.15625
-11.07,1590567093.171875
-11.76,1590567093.1875
-12.44,1590567093.203125
-13.46,1590567093.21875
-15.18,1590567093.234375
-17.82,1590567093.25
-21.28,1590567093.265625
-25.08,1590567093.28125
-28.49,1590567093.296875
-30.64,1590567093.3125
-30.83,1590567093.328125
-28.79,1590567093.34375
-24.69,1590567093.359375
-19.13,1590567093.375
-12.96,1590567093.390625
-7.05,1590567093.40625
-2.03,1590567093.421875
1.72,1590567093.4375
4.21,1590567093.453125
5.62,1590567093.46875
6.27,1590567093.484375
6.47,1590567093.5
6.46,1590567093.515625
6.39,1590567093.53125
6.34,1590567093.546875
6.37,1590567093.5625
6.51,1590567093.578125
6.8,1590567093.59375
7.24,1590567093.609375
7.82,1590567093.625
8.5,1590567093.640625
9.22,1590567093.65625
9.95,1590567093.671875
10.61,1590567093.6875
11.09,1590567093.703125
11.25,1590567093.71875
10.94,1590567093.734375
10.08,1590567093.75
8.74,1590567093.765625
7.17,1590567093.78125
5.64,1590567093.796875
4.35,1590567093.8125
3.32,1590567093.828125
2.4,1590567093.84375
1.38,1590567093.859375
0.14,1590567093.875
-1.28,1590567093.890625
-2.7,1590567093.90625
-3.87,1590567093.921875
-4.73,1590567093.9375
-5.31,1590567093.953125
-5.82,1590567093.96875
-6.48,1590567093.984375
-7.48,1590567094.0
-8.98,1590567094.015625
-11.05,1590567094.03125
-13.69,1590567094.046875
-16.74,1590567094.0625
-19.79,1590567094.078125
-22.21,1590567094.09375
-23.25,1590567094.109375
-22.36,1590567094.125
-19.4,1590567094.140625
-14.77,1590567094.15625
-9.27,1590567094.171875
-3.83,1590567094.1875
0.88,1590567094.203125
4.6,1590567094.21875
7.45,1590567094.234375
9.72,1590567094.25
11.54,1590567094.265625
12.85,1590567094.28125
13.45,1590567094.296875
13.19,1590567094.3125
12.17,1590567094.328125
10.74,1590567094.34375
9.32,1590567094.359375
8.25,1590567094.375
7.64,1590567094.390625
7.38,1590567094.40625
7.27,1590567094.421875
7.14,1590567094.4375
6.9,1590567094.453125
6.54,1590567094.46875
6.07,1590567094.484375
5.46,1590567094.5
4.71,1590567094.515625
3.79,1590567094.53125
2.65,1590567094.546875
1.25,1590567094.5625
-0.42,1590567094.578125
-2.37,1590567094.59375
-4.55,1590567094.609375
-6.8,1590567094.625
-8.93,1590567094.640625
-10.74,1590567094.65625
-12.2,1590567094.671875
-13.44,1590567094.6875
-14.73,1590567094.703125
-16.39,1590567094.71875
-18.68,1590567094.734375
-21.68,1590567094.75
-25.27,1590567094.765625
-29.14,1590567094.78125
-32.81,1590567094.796875
-35.67,1590567094.8125
-37.05,1590567094.828125
-36.37,1590567094.84375
-33.28,1590567094.859375
-27.85,1590567094.875
-20.57,1590567094.890625
-12.25,1590567094.90625
-3.83,1590567094.921875
3.88,1590567094.9375
10.37,1590567094.953125
15.43,1590567094.96875
19.09,1590567094.984375
21.45,1590567095.0
22.68,1590567095.015625
22.97,1590567095.03125
22.53,1590567095.046875
21.67,1590567095.0625
20.66,1590567095.078125
19.72,1590567095.09375
18.94,1590567095.109375
18.29,1590567095.125
17.65,1590567095.140625
16.95,1590567095.15625
16.14,1590567095.171875
15.3,1590567095.1875
14.59,1590567095.203125
14.15,1590567095.21875
14.08,1590567095.234375
14.35,1590567095.25
14.84,1590567095.265625
15.32,1590567095.28125
15.61,1590567095.296875
15.64,1590567095.3125
15.49,1590567095.328125
15.36,1590567095.34375
15.38,1590567095.359375
15.57,1590567095.375
15.73,1590567095.390625
15.58,1590567095.40625
14.82,1590567095.421875
13.32,1590567095.4375
11.13,1590567095.453125
8.43,1590567095.46875
5.44,1590567095.484375
2.32,1590567095.5
-0.85,1590567095.515625
-4.01,1590567095.53125
-7.16,1590567095.546875
-10.32,1590567095.5625
-13.51,1590567095.578125
-16.71,1590567095.59375
-19.77,1590567095.609375
-22.29,1590567095.625
-23.71,1590567095.640625
-23.41,1590567095.65625
-21.04,1590567095.671875
-16.71,1590567095.6875
-11.02,1590567095.703125
-4.88,1590567095.71875
0.84,1590567095.734375
5.64,1590567095.75
9.48,1590567095.765625
12.64,1590567095.78125
15.51,1590567095.796875
18.3,1590567095.8125
20.99,1590567095.828125
23.45,1590567095.84375
25.56,1590567095.859375
27.33,1590567095.875
28.86,1590567095.890625
30.23,1590567095.90625
31.44,1590567095.921875
32.33,1590567095.9375
32.67,1590567095.953125
32.32,1590567095.96875
31.29,1590567095.984375
29.76,1590567096.0
28.04,1590567096.015625
26.44,1590567096.03125
25.13,1590567096.046875
24.09,1590567096.0625
23.15,1590567096.078125
22.06,1590567096.09375
20.64,1590567096.109375
18.79,1590567096.125
16.57,1590567096.140625
14.11,1590567096.15625
11.56,1590567096.171875
8.98,1590567096.1875
6.36,1590567096.203125
3.67,1590567096.21875
0.91,1590567096.234375
-1.8,1590567096.25
-4.3,1590567096.265625
-6.42,1590567096.28125
-8.07,1590567096.296875
-9.29,1590567096.3125
-10.23,1590567096.328125
-11.1,1590567096.34375
-12.08,1590567096.359375
-13.28,1590567096.375
-14.73,1590567096.390625
-16.36,1590567096.40625
-18.02,1590567096.421875
-19.55,1590567096.4375
-20.84,1590567096.453125
-21.92,1590567096.46875
-22.95,1590567096.484375
-24.29,1590567096.5
-26.31,1590567096.515625
-29.24,1590567096.53125
-32.93,1590567096.546875
-36.79,1590567096.5625
-39.89,1590567096.578125
-41.18,1590567096.59375
-39.87,1590567096.609375
-35.74,1590567096.625
-29.22,1590567096.640625
-21.31,1590567096.65625
-13.23,1590567096.671875
-6.09,1590567096.6875
-0.54,1590567096.703125
3.31,1590567096.71875
5.82,1590567096.734375
7.58,1590567096.75
9.19,1590567096.765625
11.07,1590567096.78125
13.31,1590567096.796875
15.72,1590567096.8125
17.95,1590567096.828125
19.56,1590567096.84375
20.2,1590567096.859375
19.72,1590567096.875
18.21,1590567096.890625
16.07,1590567096.90625
13.91,1590567096.921875
12.43,1590567096.9375
12.13,1590567096.953125
13.13,1590567096.96875
15.13,1590567096.984375
17.43,1590567097.0
19.29,1590567097.015625
20.14,1590567097.03125
19.81,1590567097.046875
18.5,1590567097.0625
16.56,1590567097.078125
14.34,1590567097.09375
12.02,1590567097.109375
9.68,1590567097.125
7.39,1590567097.140625
5.3,1590567097.15625
3.62,1590567097.171875
2.46,1590567097.1875
1.7,1590567097.203125
1.09,1590567097.21875
0.28,1590567097.234375
-0.97,1590567097.25
-2.71,1590567097.265625
-4.81,1590567097.28125
-7.03,1590567097.296875
-9.11,1590567097.3125
-10.87,1590567097.328125
-12.18,1590567097.34375
-13.01,1590567097.359375
-13.44,1590567097.375
-13.71,1590567097.390625
-14.19,1590567097.40625
-15.31,1590567097.421875
-17.36,1590567097.4375
-20.38,1590567097.453125
-24.02,1590567097.46875
-27.6,1590567097.484375
-30.27,1590567097.5
-31.3,1590567097.515625
-30.23,1590567097.53125
-27.08,1590567097.546875
-22.26,1590567097.5625
-16.48,1590567097.578125
-10.5,1590567097.59375
-5.01,1590567097.609375
-0.44,1590567097.625
3.06,1590567097.640625
5.52,1590567097.65625
7.13,1590567097.671875
8.12,1590567097.6875
8.73,1590567097.703125
9.15,1590567097.71875
9.42,1590567097.734375
9.45,1590567097.75
9.06,1590567097.765625
8.08,1590567097.78125
6.54,1590567097.796875
4.75,1590567097.8125
3.23,1590567097.828125
2.55,1590567097.84375
3.03,1590567097.859375
4.67,1590567097.875
7.13,1590567097.890625
9.91,1590567097.90625
12.56,1590567097.921875
14.79,1590567097.9375
16.49,1590567097.953125
17.57,1590567097.96875
17.93,1590567097.984375
17.42,1590567098.0
15.93,1590567098.015625
13.6,1590567098.03125
10.73,1590567098.046875
7.79,1590567098.0625
5.25,1590567098.078125
3.33,1590567098.09375
2.02,1590567098.109375
1.07,1590567098.125
0.16,1590567098.140625
-1.02,1590567098.15625
-2.56,1590567098.171875
-4.44,1590567098.1875
-6.51,1590567098.203125
-8.65,1590567098.21875
-10.75,1590567098.234375
-12.79,1590567098.25
-14.75,1590567098.265625
-16.61,1590567098.28125
-18.35,1590567098.296875
-20.01,1590567098.3125
-21.7,1590567098.328125
-23.59,1590567098.34375
-25.84,1590567098.359375
-28.45,1590567098.375
-31.2,1590567098.390625
-33.62,1590567098.40625
-35.05,1590567098.421875
-34.88,1590567098.4375
-32.73,1590567098.453125
-28.68,1590567098.46875
-23.26,1590567098.484375
-17.3,1590567098.5
-11.69,1590567098.515625
-7.03,1590567098.53125
-3.51,1590567098.546875
-0.91,1590567098.5625
1.15,1590567098.578125
3.03,1590567098.59375
4.85,1590567098.609375
6.52,1590567098.625
7.92,1590567098.640625
8.96,1590567098.65625
9.69,1590567098.671875
10.3,1590567098.6875
10.93,1590567098.703125
11.6,1590567098.71875
12.25,1590567098.734375
12.77,1590567098.75
13.15,1590567098.765625
13.5,1590567098.78125
13.99,1590567098.796875
14.75,1590567098.8125
15.7,1590567098.828125
16.63,1590567098.84375
17.19,1590567098.859375
17.13,1590567098.875
16.38,1590567098.890625
15.02,1590567098.90625
13.26,1590567098.921875
11.33,1590567098.9375
9.34,1590567098.953125
7.38,1590567098.96875
5.48,1590567098.984375
3.71,1590567099.0
2.17,1590567099.015625
0.92,1590567099.03125
0.01,1590567099.046875
-0.65,1590567099.0625
-1.16,1590567099.078125
-1.67,1590567099.09375
-2.34,1590567099.109375
-3.27,1590567099.125
-4.55,1590567099.140625
-6.19,1590567099.15625
-8.15,1590567099.171875
-10.29,1590567099.1875
-12.39,1590567099.203125
-14.2,1590567099.21875
-15.56,1590567099.234375
-16.48,1590567099.25
-17.2,1590567099.265625
-18.1,1590567099.28125
-19.5,1590567099.296875
-21.39,1590567099.3125
-23.39,1590567099.328125
-24.77,1590567099.34375
-24.73,1590567099.359375
-22.78,1590567099.375
-18.92,1590567099.390625
-13.73,1590567099.40625
-8.12,1590567099.421875
-2.98,1590567099.4375
1.12,1590567099.453125
4.05,1590567099.46875
6.04,1590567099.484375
7.46,1590567099.5
8.56,1590567099.515625
9.42,1590567099.53125
9.97,1590567099.546875
10.12,1590567099.5625
9.87,1590567099.578125
9.35,1590567099.59375
8.72,1590567099.609375
8.14,1590567099.625
7.67,1590567099.640625
7.32,1590567099.65625
7.08,1590567099.671875
7.01,1590567099.6875
7.18,1590567099.703125
7.67,1590567099.71875
8.45,1590567099.734375
9.37,1590567099.75
10.21,1590567099.765625
10.75,1590567099.78125
10.89,1590567099.796875
10.59,1590567099.8125
9.91,1590567099.828125
8.92,1590567099.84375
7.64,1590567099.859375
6.15,1590567099.875
4.5,1590567099.890625
2.86,1590567099.90625
1.37,1590567099.921875
0.17,1590567099.9375
-0.72,1590567099.953125
-1.41,1590567099.96875
-2.07,1590567099.984375
-2.88,1590567100.0
-3.91,1590567100.015625
-5.11,1590567100.03125
-6.33,1590567100.046875
-7.39,1590567100.0625
-8.14,1590567100.078125
-8.52,1590567100.09375
-8.57,1590567100.109375
-8.42,1590567100.125
-8.25,1590567100.140625
-8.25,1590567100.15625
-8.65,1590567100.171875
-9.63,1590567100.1875
-11.31,1590567100.203125
-13.62,1590567100.21875
-16.17,1590567100.234375
-18.3,1590567100.25
-19.18,1590567100.265625
-18.14,1590567100.28125
-14.92,1590567100.296875
-9.8,1590567100.3125
-3.53,1590567100.328125
2.97,1590567100.34375
8.94,1590567100.359375
13.94,1590567100.375
17.89,1590567100.390625
20.87,1590567100.40625
22.94,1590567100.421875
24.03,1590567100.4375
24.0,1590567100.453125
22.79,1590567100.46875
20.51,1590567100.484375
17.51,1590567100.5
14.24,1590567100.515625
11.13,1590567100.53125
8.48,1590567100.546875
6.41,1590567100.5625
4.89,1590567100.578125
3.77,1590567100.59375
2.94,1590567100.609375
2.34,1590567100.625
2.0,1590567100.640625
2.0,1590567100.65625
2.38,1590567100.671875
3.04,1590567100.6875
3.82,1590567100.703125
4.47,1590567100.71875
4.79,1590567100.734375
4.74,1590567100.75
4.42,1590567100.765625
4.02,1590567100.78125
3.71,1590567100.796875
3.62,1590567100.8125
3.72,1590567100.828125
3.92,1590567100.84375
4.05,1590567100.859375
3.97,1590567100.875
3.62,1590567100.890625
3.09,1590567100.90625
2.52,1590567100.921875
2.05,1590567100.9375
1.75,1590567100.953125
1.52,1590567100.96875
1.14,1590567100.984375
0.38,1590567101.0
-0.88,1590567101.015625
-2.62,1590567101.03125
-4.72,1590567101.046875
-7.08,1590567101.0625
-9.66,1590567101.078125
-12.48,1590567101.09375
-15.45,1590567101.109375
-18.24,1590567101.125
-20.23,1590567101.140625
-20.67,1590567101.15625
-19.0,1590567101.171875
-15.17,1590567101.1875
-9.67,1590567101.203125
-3.46,1590567101.21875
2.41,1590567101.234375
7.15,1590567101.25
10.44,1590567101.265625
12.54,1590567101.28125
13.93,1590567101.296875
15.17,1590567101.3125
16.59,1590567101.328125
18.25,1590567101.34375
19.96,1590567101.359375
21.4,1590567101.375
22.13,1590567101.390625
21.8,1590567101.40625
20.13,1590567101.421875
17.06,1590567101.4375
12.74,1590567101.453125
7.46,1590567101.46875
1.55,1590567101.484375
-4.68,1590567101.5
-10.91,1590567101.515625
-16.74,1590567101.53125
-21.62,1590567101.546875
-25.01,1590567101.5625
-26.48,1590567101.578125
-25.96,1590567101.59375
-23.86,1590567101.609375
-20.91,1590567101.625
-17.93,1590567101.640625
-15.48,1590567101.65625
-13.72,1590567101.671875
-12.45,1590567101.6875
-11.34,1590567101.703125
-10.15,1590567101.71875
-8.85,1590567101.734375
-7.66,1590567101.75
-6.86,1590567101.765625
-6.76,1590567101.78125
-7.55,1590567101.796875
-9.27,1590567101.8125
-11.71,1590567101.828125
-14.43,1590567101.84375
-16.73,1590567101.859375
-17.89,1590567101.875
-17.33,1590567101.890625
-14.87,1590567101.90625
-10.83,1590567101.921875
-5.95,1590567101.9375
-1.11,1590567101.953125
2.98,1590567101.96875
5.95,1590567101.984375
7.81,1590567102.0
8.77,1590567102.015625
9.06,1590567102.03125
8.83,1590567102.046875
8.11,1590567102.0625
6.96,1590567102.078125
5.52,1590567102.09375
3.99,1590567102.109375
2.61,1590567102.125
1.57,1590567102.140625
0.9,1590567102.15625
0.55,1590567102.171875
0.38,1590567102.1875
0.27,1590567102.203125
0.21,1590567102.21875
0.26,1590567102.234375
0.49,1590567102.25
0.96,1590567102.265625
1.54,1590567102.28125
1.97,1590567102.296875
1.94,1590567102.3125
1.21,1590567102.328125
-0.25,1590567102.34375
-2.28,1590567102.359375
-4.53,1590567102.375
-6.69,1590567102.390625
-8.55,1590567102.40625
-10.07,1590567102.421875
-11.36,1590567102.4375
-12.55,1590567102.453125
-13.77,1590567102.46875
-15.1,1590567102.484375
-16.65,1590567102.5
-18.5,1590567102.515625
-20.71,1590567102.53125
-23.19,1590567102.546875
-25.64,1590567102.5625
-27.5,1590567102.578125
-28.1,1590567102.59375
-26.85,1590567102.609375
-23.49,1590567102.625
-18.23,1590567102.640625
-11.66,1590567102.65625
-4.63,1590567102.671875
2.06,1590567102.6875
7.83,1590567102.703125
12.41,1590567102.71875
15.79,1590567102.734375
18.17,1590567102.75
19.87,1590567102.765625
21.25,1590567102.78125
22.68,1590567102.796875
24.36,1590567102.8125
26.18,1590567102.828125
27.65,1590567102.84375
28.0,1590567102.859375
26.48,1590567102.875
22.82,1590567102.890625
17.51,1590567102.90625
11.72,1590567102.921875
6.91,1590567102.9375
4.18,1590567102.953125
3.76,1590567102.96875
4.89,1590567102.984375
6.24,1590567103.0
6.55,1590567103.015625
5.15,1590567103.03125
2.13,1590567103.046875
-2.01,1590567103.0625
-6.93,1590567103.078125
-12.89,1590567103.09375
-20.73,1590567103.109375
-31.47,1590567103.125
-45.85,1590567103.140625
-64.05,1590567103.15625
-85.67,1590567103.171875
-109.64,1590567103.1875
-134.08,1590567103.203125
-156.01,1590567103.21875
-171.2,1590567103.234375
-174.79,1590567103.25
-162.69,1590567103.265625
-133.43,1590567103.28125
-89.44,1590567103.296875
-36.94,1590567103.3125
15.72,1590567103.328125
60.65,1590567103.34375
92.75,1590567103.359375
110.63,1590567103.375
116.06,1590567103.390625
112.43,1590567103.40625
103.18,1590567103.421875
91.01,1590567103.4375
77.92,1590567103.453125
65.53,1590567103.46875
55.42,1590567103.484375
48.84,1590567103.5
46.29,1590567103.515625
47.23,1590567103.53125
50.17,1590567103.546875
53.15,1590567103.5625
54.52,1590567103.578125
53.49,1590567103.59375
50.2,1590567103.609375
45.56,1590567103.625
40.83,1590567103.640625
37.07,1590567103.65625
34.77,1590567103.671875
33.7,1590567103.6875
33.1,1590567103.703125
32.03,1590567103.71875
29.82,1590567103.734375
26.34,1590567103.75
22.01,1590567103.765625
17.56,1590567103.78125
13.6,1590567103.796875
10.37,1590567103.8125
7.64,1590567103.828125
4.85,1590567103.84375
1.44,1590567103.859375
-2.83,1590567103.875
-7.88,1590567103.890625
-13.25,1590567103.90625
-18.35,1590567103.921875
-22.7,1590567103.9375
-26.01,1590567103.953125
-28.3,1590567103.96875
-29.8,1590567103.984375
-30.84,1590567104.0
-31.86,1590567104.015625
-33.27,1590567104.03125
-35.38,1590567104.046875
-38.3,1590567104.0625
-41.76,1590567104.078125
-45.12,1590567104.09375
-47.47,1590567104.109375
-47.89,1590567104.125
-45.89,1590567104.140625
-41.57,1590567104.15625
-35.66,1590567104.171875
-29.24,1590567104.1875
-23.3,1590567104.203125
-18.36,1590567104.21875
-14.46,1590567104.234375
-11.25,1590567104.25
-8.36,1590567104.265625
-5.62,1590567104.28125
-3.1,1590567104.296875
-0.97,1590567104.3125
0.67,1590567104.328125
1.94,1590567104.34375
3.06,1590567104.359375
4.27,1590567104.375
5.65,1590567104.390625
7.08,1590567104.40625
8.37,1590567104.421875
9.38,1590567104.4375
10.08,1590567104.453125
10.59,1590567104.46875
11.1,1590567104.484375
11.74,1590567104.5
12.5,1590567104.515625
13.23,1590567104.53125
13.68,1590567104.546875
13.62,1590567104.5625
12.94,1590567104.578125
11.64,1590567104.59375
9.84,1590567104.609375
7.75,1590567104.625
5.59,1590567104.640625
3.56,1590567104.65625
1.75,1590567104.671875
0.15,1590567104.6875
-1.28,1590567104.703125
-2.61,1590567104.71875
-3.93,1590567104.734375
-5.26,1590567104.75
-6.65,1590567104.765625
-8.16,1590567104.78125
-9.87,1590567104.796875
-11.83,1590567104.8125
-14.04,1590567104.828125
-16.46,1590567104.84375
-18.99,1590567104.859375
-21.51,1590567104.875
-23.85,1590567104.890625
-25.73,1590567104.90625
-26.74,1590567104.921875
-26.42,1590567104.9375
-24.41,1590567104.953125
-20.67,1590567104.96875
-15.58,1590567104.984375
-9.86,1590567105.0
-4.3,1590567105.015625
0.55,1590567105.03125
4.52,1590567105.046875
7.82,1590567105.0625
10.76,1590567105.078125
13.5,1590567105.09375
15.95,1590567105.109375
17.83,1590567105.125
18.91,1590567105.140625
19.14,1590567105.15625
18.74,1590567105.171875
18.1,1590567105.1875
17.57,1590567105.203125
17.38,1590567105.21875
17.54,1590567105.234375
17.98,1590567105.25
18.57,1590567105.265625
19.21,1590567105.28125
19.87,1590567105.296875
20.55,1590567105.3125
21.22,1590567105.328125
21.83,1590567105.34375
22.21,1590567105.359375
22.15,1590567105.375
21.47,1590567105.390625
20.1,1590567105.40625
18.15,1590567105.421875
15.92,1590567105.4375
13.79,1590567105.453125
12.03,1590567105.46875
10.72,1590567105.484375
9.67,1590567105.5
8.49,1590567105.515625
6.86,1590567105.53125
4.63,1590567105.546875
1.93,1590567105.5625
-0.91,1590567105.578125
-3.52,1590567105.59375
-5.66,1590567105.609375
-7.3,1590567105.625
-8.63,1590567105.640625
-9.9,1590567105.65625
-11.4,1590567105.671875
-13.31,1590567105.6875
-15.76,1590567105.703125
-18.72,1590567105.71875
-22.03,1590567105.734375
-25.32,1590567105.75
-28.06,1590567105.765625
-29.59,1590567105.78125
-29.36,1590567105.796875
-27.11,1590567105.8125
-22.94,1590567105.828125
-17.39,1590567105.84375
-11.22,1590567105.859375
-5.2,1590567105.875
0.11,1590567105.890625
4.52,1590567105.90625
8.13,1590567105.921875
11.26,1590567105.9375
14.19,1590567105.953125
16.97,1590567105.96875
19.4,1590567105.984375
21.09,1590567106.0
21.68,1590567106.015625
21.09,1590567106.03125
19.56,1590567106.046875
17.65,1590567106.0625
15.92,1590567106.078125
14.74,1590567106.09375
14.15,1590567106.109375
14.0,1590567106.125
14.03,1590567106.140625
14.17,1590567106.15625
14.51,1590567106.171875
15.19,1590567106.1875
16.24,1590567106.203125
17.45,1590567106.21875
18.41,1590567106.234375
18.69,1590567106.25
18.05,1590567106.265625
16.56,1590567106.28125
14.59,1590567106.296875
12.61,1590567106.3125
11.05,1590567106.328125
10.07,1590567106.34375
9.57,1590567106.359375
9.22,1590567106.375
8.63,1590567106.390625
7.48,1590567106.40625
5.62,1590567106.421875
3.09,1590567106.4375
0.06,1590567106.453125
-3.21,1590567106.46875
-6.48,1590567106.484375
-9.52,1590567106.5
-12.19,1590567106.515625
-14.42,1590567106.53125
-16.2,1590567106.546875
-17.63,1590567106.5625
-18.95,1590567106.578125
-20.48,1590567106.59375
-22.56,1590567106.609375
-25.32,1590567106.625
-28.46,1590567106.640625
-31.32,1590567106.65625
-32.94,1590567106.671875
-32.49,1590567106.6875
-29.58,1590567106.703125
-24.45,1590567106.71875
-17.93,1590567106.734375
-11.11,1590567106.75
-4.9,1590567106.765625
0.2,1590567106.78125
4.19,1590567106.796875
7.38,1590567106.8125
10.12,1590567106.828125
12.61,1590567106.84375
14.81,1590567106.859375
16.58,1590567106.875
17.78,1590567106.890625
18.42,1590567106.90625
18.65,1590567106.921875
18.69,1590567106.9375
18.74,1590567106.953125
18.91,1590567106.96875
19.22,1590567106.984375
19.62,1590567107.0
20.07,1590567107.015625
20.53,1590567107.03125
21.02,1590567107.046875
21.54,1590567107.0625
22.01,1590567107.078125
22.33,1590567107.09375
22.31,1590567107.109375
21.8,1590567107.125
20.74,1590567107.140625
19.23,1590567107.15625
17.45,1590567107.171875
15.63,1590567107.1875
13.95,1590567107.203125
12.44,1590567107.21875
11.03,1590567107.234375
9.56,1590567107.25
7.94,1590567107.265625
6.22,1590567107.28125
4.53,1590567107.296875
3.03,1590567107.3125
1.83,1590567107.328125
0.9,1590567107.34375
0.09,1590567107.359375
-0.73,1590567107.375
-1.66,1590567107.390625
-2.73,1590567107.40625
-3.97,1590567107.421875
-5.42,1590567107.4375
-7.17,1590567107.453125
-9.32,1590567107.46875
-11.93,1590567107.484375
-15.01,1590567107.5
-18.51,1590567107.515625
-22.28,1590567107.53125
-26.03,1590567107.546875
-29.28,1590567107.5625
-31.44,1590567107.578125
-31.92,1590567107.59375
-30.4,1590567107.609375
-26.94,1590567107.625
-22.1,1590567107.640625
-16.6,1590567107.65625
-11.17,1590567107.671875
-6.28,1590567107.6875
-2.06,1590567107.703125
1.53,1590567107.71875
4.6,1590567107.734375
7.14,1590567107.75
9.09,1590567107.765625
10.28,1590567107.78125
10.69,1590567107.796875
10.43,1590567107.8125
9.76,1590567107.828125
9.04,1590567107.84375
8.6,1590567107.859375
8.64,1590567107.875
9.19,1590567107.890625
10.07,1590567107.90625
10.97,1590567107.921875
11.58,1590567107.9375
11.69,1590567107.953125
11.31,1590567107.96875
10.63,1590567107.984375
9.87,1590567108.0
9.21,1590567108.015625
8.67,1590567108.03125
8.18,1590567108.046875
7.63,1590567108.0625
6.97,1590567108.078125
6.24,1590567108.09375
5.49,1590567108.109375
4.79,1590567108.125
4.03,1590567108.140625
3.03,1590567108.15625
1.6,1590567108.171875
-0.34,1590567108.1875
-2.61,1590567108.203125
-4.91,1590567108.21875
-6.95,1590567108.234375
-8.63,1590567108.25
-10.12,1590567108.265625
-11.77,1590567108.28125
-13.92,1590567108.296875
-16.68,1590567108.3125
-19.78,1590567108.328125
-22.67,1590567108.34375
-24.6,1590567108.359375
-24.96,1590567108.375
-23.37,1590567108.390625
-19.84,1590567108.40625
-14.67,1590567108.421875
-8.46,1590567108.4375
-1.95,1590567108.453125
4.11,1590567108.46875
9.13,1590567108.484375
12.74,1590567108.5
14.83,1590567108.515625
15.52,1590567108.53125
15.09,1590567108.546875
13.89,1590567108.5625
12.28,1590567108.578125
10.68,1590567108.59375
9.42,1590567108.609375
8.77,1590567108.625
8.81,1590567108.640625
9.48,1590567108.65625
10.5,1590567108.671875
11.57,1590567108.6875
12.45,1590567108.703125
13.02,1590567108.71875
13.31,1590567108.734375
13.4,1590567108.75
13.33,1590567108.765625
13.09,1590567108.78125
12.58,1590567108.796875
11.67,1590567108.8125
10.26,1590567108.828125
8.32,1590567108.84375
6.0,1590567108.859375
3.54,1590567108.875
1.28,1590567108.890625
-0.51,1590567108.90625
-1.7,1590567108.921875
-2.38,1590567108.9375
-2.86,1590567108.953125
-3.52,1590567108.96875
-4.7,1590567108.984375
-6.59,1590567109.0
-9.14,1590567109.015625
-12.14,1590567109.03125
-15.16,1590567109.046875
-17.73,1590567109.0625
-19.35,1590567109.078125
-19.61,1590567109.09375
-18.26,1590567109.109375
-15.35,1590567109.125
-11.18,1590567109.140625
-6.28,1590567109.15625
-1.25,1590567109.171875
3.39,1590567109.1875
7.26,1590567109.203125
10.16,1590567109.21875
12.02,1590567109.234375
12.9,1590567109.25
12.95,1590567109.265625
12.42,1590567109.28125
11.6,1590567109.296875
10.85,1590567109.3125
10.46,1590567109.328125
10.58,1590567109.34375
11.21,1590567109.359375
12.14,1590567109.375
13.05,1590567109.390625
13.59,1590567109.40625
13.5,1590567109.421875
12.76,1590567109.4375
11.53,1590567109.453125
10.07,1590567109.46875
8.62,1590567109.484375
7.28,1590567109.5
5.95,1590567109.515625
4.43,1590567109.53125
2.53,1590567109.546875
0.2,1590567109.5625
-2.45,1590567109.578125
-5.17,1590567109.59375
-7.71,1590567109.609375
-9.87,1590567109.625
-11.64,1590567109.640625
-13.15,1590567109.65625
-14.63,1590567109.671875
-16.39,1590567109.6875
-18.66,1590567109.703125
-21.54,1590567109.71875
-24.9,1590567109.734375
-28.31,1590567109.75
-31.12,1590567109.765625
-32.59,1590567109.78125
-32.14,1590567109.796875
-29.57,1590567109.8125
-25.14,1590567109.828125
-19.48,1590567109.84375
-13.46,1590567109.859375
-7.91,1590567109.875
-3.39,1590567109.890625
-0.1,1590567109.90625
2.14,1590567109.921875
3.69,1590567109.9375
4.98,1590567109.953125
6.31,1590567109.96875
7.79,1590567109.984375
9.29,1590567110.0
10.63,1590567110.015625
11.57,1590567110.03125
11.96,1590567110.046875
11.78,1590567110.0625
11.17,1590567110.078125
10.35,1590567110.09375
9.56,1590567110.109375
9.01,1590567110.125
8.76,1590567110.140625
8.78,1590567110.15625
8.84,1590567110.171875
8.65,1590567110.1875
7.95,1590567110.203125
6.58,1590567110.21875
4.6,1590567110.234375
2.17,1590567110.25
-0.4,1590567110.265625
-2.89,1590567110.28125
-5.14,1590567110.296875
-7.13,1590567110.3125
-8.96,1590567110.328125
-10.76,1590567110.34375
-12.73,1590567110.359375
-15.04,1590567110.375
-17.8,1590567110.390625
-20.93,1590567110.40625
-24.12,1590567110.421875
-26.78,1590567110.4375
-28.21,1590567110.453125
-27.8,1590567110.46875
-25.31,1590567110.484375
-21.01,1590567110.5
-15.58,1590567110.515625
-9.85,1590567110.53125
-4.53,1590567110.546875
0.02,1590567110.5625
3.75,1590567110.578125
6.82,1590567110.59375
9.4,1590567110.609375
11.58,1590567110.625
13.39,1590567110.640625
14.94,1590567110.65625
16.4,1590567110.671875
17.91,1590567110.6875
19.46,1590567110.703125
20.8,1590567110.71875
21.54,1590567110.734375
21.35,1590567110.75
20.25,1590567110.765625
18.62,1590567110.78125
17.17,1590567110.796875
16.55,1590567110.8125
17.09,1590567110.828125
18.58,1590567110.84375
20.38,1590567110.859375
21.67,1590567110.875
21.8,1590567110.890625
20.57,1590567110.90625
18.36,1590567110.921875
15.98,1590567110.9375
14.41,1590567110.953125
14.41,1590567110.96875
16.23,1590567110.984375
19.59,1590567111.0
23.76,1590567111.015625
27.85,1590567111.03125
31.12,1590567111.046875
33.15,1590567111.0625
34.01,1590567111.078125
34.2,1590567111.09375
34.47,1590567111.109375
35.67,1590567111.125
38.35,1590567111.140625
42.51,1590567111.15625
47.38,1590567111.171875
51.57,1590567111.1875
53.51,1590567111.203125
52.11,1590567111.21875
47.35,1590567111.234375
40.3,1590567111.25
32.66,1590567111.265625
26.04,1590567111.28125
21.36,1590567111.296875
18.64,1590567111.3125
17.25,1590567111.328125
16.45,1590567111.34375
15.95,1590567111.359375
15.95,1590567111.375
17.08,1590567111.390625
20.01,1590567111.40625
25.17,1590567111.421875
32.64,1590567111.4375
42.25,1590567111.453125
53.64,1590567111.46875
66.33,1590567111.484375
79.65,1590567111.5
92.74,1590567111.515625
104.61,1590567111.53125
114.27,1590567111.546875
120.9,1590567111.5625
124.09,1590567111.578125
123.91,1590567111.59375
120.91,1590567111.609375
116.05,1590567111.625
110.49,1590567111.640625
105.36,1590567111.65625
101.35,1590567111.671875
98.44,1590567111.6875
95.52,1590567111.703125
90.54,1590567111.71875
81.02,1590567111.734375
65.06,1590567111.75
42.31,1590567111.765625
14.43,1590567111.78125
-15.19,1590567111.796875
-42.39,1590567111.8125
-63.71,1590567111.828125
-77.37,1590567111.84375
-83.71,1590567111.859375
-84.81,1590567111.875
-83.57,1590567111.890625
-82.72,1590567111.90625
-84.01,1590567111.921875
-87.94,1590567111.9375
-93.76,1590567111.953125
-100.01,1590567111.96875
-105.05,1590567111.984375
-107.74,1590567112.0
-107.75,1590567112.015625
-105.5,1590567112.03125
-101.85,1590567112.046875
-97.61,1590567112.0625
-93.21,1590567112.078125
-88.75,1590567112.09375
-84.21,1590567112.109375
-79.76,1590567112.125
-75.82,1590567112.140625
-72.9,1590567112.15625
-71.19,1590567112.171875
-70.44,1590567112.1875
-69.96,1590567112.203125
-68.98,1590567112.21875
-67.01,1590567112.234375
-64.05,1590567112.25
-60.59,1590567112.265625
-57.31,1590567112.28125
-54.8,1590567112.296875
-53.32,1590567112.3125
-52.75,1590567112.328125
-52.63,1590567112.34375
-52.45,1590567112.359375
-51.75,1590567112.375
-50.3,1590567112.390625
-48.19,1590567112.40625
-45.69,1590567112.421875
-43.19,1590567112.4375
-41.06,1590567112.453125
-39.58,1590567112.46875
-38.95,1590567112.484375
-39.27,1590567112.5
-40.6,1590567112.515625
-42.81,1590567112.53125
-45.45,1590567112.546875
-47.71,1590567112.5625
-48.64,1590567112.578125
-47.38,1590567112.59375
-43.61,1590567112.609375
-37.63,1590567112.625
-30.35,1590567112.640625
-22.88,1590567112.65625
-16.09,1590567112.671875
-10.43,1590567112.6875
-5.77,1590567112.703125
-1.73,1590567112.71875
2.06,1590567112.734375
5.75,1590567112.75
9.19,1590567112.765625
12.14,1590567112.78125
14.45,1590567112.796875
16.12,1590567112.8125
17.3,1590567112.828125
18.12,1590567112.84375
18.58,1590567112.859375
18.53,1590567112.875
17.81,1590567112.890625
16.31,1590567112.90625
14.17,1590567112.921875
11.71,1590567112.9375
9.3,1590567112.953125
7.24,1590567112.96875
5.72,1590567112.984375
4.74,1590567113.0
4.22,1590567113.015625
4.01,1590567113.03125
3.95,1590567113.046875
3.84,1590567113.0625
3.53,1590567113.078125
2.9,1590567113.09375
1.97,1590567113.109375
0.88,1590567113.125
-0.14,1590567113.140625
-0.93,1590567113.15625
-1.45,1590567113.171875
-1.85,1590567113.1875
-2.36,1590567113.203125
-3.21,1590567113.21875
-4.58,1590567113.234375
-6.49,1590567113.25
-8.89,1590567113.265625
-11.65,1590567113.28125
-14.58,1590567113.296875
-17.31,1590567113.3125
-19.32,1590567113.328125
-20.03,1590567113.34375
-19.0,1590567113.359375
-16.14,1590567113.375
-11.8,1590567113.390625
-6.7,1590567113.40625
-1.59,1590567113.421875
2.94,1590567113.4375
6.68,1590567113.453125
9.68,1590567113.46875
12.11,1590567113.484375
14.06,1590567113.5
15.48,1590567113.515625
16.26,1590567113.53125
16.4,1590567113.546875
16.06,1590567113.5625
15.53,1590567113.578125
15.09,1590567113.59375
14.85,1590567113.609375
14.75,1590567113.625
14.57,1590567113.640625
14.13,1590567113.65625
13.35,1590567113.671875
12.34,1590567113.6875
11.31,1590567113.703125
10.53,1590567113.71875
10.12,1590567113.734375
10.04,1590567113.75
10.09,1590567113.765625
9.98,1590567113.78125
9.46,1590567113.796875
8.42,1590567113.8125
6.88,1590567113.828125
4.99,1590567113.84375
2.94,1590567113.859375
0.9,1590567113.875
-0.94,1590567113.890625
-2.51,1590567113.90625
-3.75,1590567113.921875
-4.68,1590567113.9375
-5.38,1590567113.953125
-6.03,1590567113.96875
-6.83,1590567113.984375
-8.03,1590567114.0
-9.83,1590567114.015625
-12.28,1590567114.03125
-15.23,1590567114.046875
-18.32,1590567114.0625
-20.95,1590567114.078125
-22.47,1590567114.09375
-22.3,1590567114.109375
-20.16,1590567114.125
-16.16,1590567114.140625
-10.76,1590567114.15625
-4.71,1590567114.171875
1.22,1590567114.1875
6.39,1590567114.203125
10.4,1590567114.21875
13.13,1590567114.234375
14.75,1590567114.25
15.51,1590567114.265625
15.7,1590567114.28125
15.55,1590567114.296875
15.16,1590567114.3125
14.55,1590567114.328125
13.7,1590567114.34375
12.64,1590567114.359375
11.46,1590567114.375
10.28,1590567114.390625
9.26,1590567114.40625
8.52,1590567114.421875
8.13,1590567114.4375
8.07,1590567114.453125
8.25,1590567114.46875
8.5,1590567114.484375
8.62,1590567114.5
8.42,1590567114.515625
7.81,1590567114.53125
6.83,1590567114.546875
5.63,1590567114.5625
4.4,1590567114.578125
3.27,1590567114.59375
2.28,1590567114.609375
1.33,1590567114.625
0.29,1590567114.640625
-0.97,1590567114.65625
-2.48,1590567114.671875
-4.17,1590567114.6875
-5.94,1590567114.703125
-7.69,1590567114.71875
-9.39,1590567114.734375
-11.09,1590567114.75
-12.85,1590567114.765625
-14.76,1590567114.78125
-16.84,1590567114.796875
-19.03,1590567114.8125
-21.16,1590567114.828125
-22.93,1590567114.84375
-23.9,1590567114.859375
-23.69,1590567114.875
-22.01,1590567114.890625
-18.85,1590567114.90625
-14.51,1590567114.921875
-9.54,1590567114.9375
-4.58,1590567114.953125
-0.17,1590567114.96875
3.34,1590567114.984375
5.82,1590567115.0
7.33,1590567115.015625
8.03,1590567115.03125
8.11,1590567115.046875
7.77,1590567115.0625
7.21,1590567115.078125
6.56,1590567115.09375
5.96,1590567115.109375
5.46,1590567115.125
5.12,1590567115.140625
4.98,1590567115.15625
5.03,1590567115.171875
5.24,1590567115.1875
5.55,1590567115.203125
5.86,1590567115.21875
6.11,1590567115.234375
6.26,1590567115.25
6.32,1590567115.265625
6.33,1590567115.28125
6.3,1590567115.296875
6.23,1590567115.3125
6.09,1590567115.328125
5.83,1590567115.34375
5.38,1590567115.359375
4.73,1590567115.375
3.91,1590567115.390625
2.98,1590567115.40625
2.05,1590567115.421875
1.21,1590567115.4375
0.48,1590567115.453125
-0.14,1590567115.46875
-0.73,1590567115.484375
-1.4,1590567115.5
-2.25,1590567115.515625
-3.44,1590567115.53125
-5.08,1590567115.546875
-7.23,1590567115.5625
-9.8,1590567115.578125
-12.49,1590567115.59375
-14.77,1590567115.609375
-15.97,1590567115.625
-15.54,1590567115.640625
-13.21,1590567115.65625
-9.2,1590567115.671875
-4.1,1590567115.6875
1.23,1590567115.703125
6.01,1590567115.71875
9.77,1590567115.734375
12.39,1590567115.75
14.07,1590567115.765625
15.11,1590567115.78125
15.69,1590567115.796875
15.85,1590567115.8125
15.49,1590567115.828125
14.51,1590567115.84375
12.99,1590567115.859375
11.23,1590567115.875
9.66,1590567115.890625
8.68,1590567115.90625
8.47,1590567115.921875
8.93,1590567115.9375
9.77,1590567115.953125
10.66,1590567115.96875
11.38,1590567115.984375
11.89,1590567116.0
12.24,1590567116.015625
12.46,1590567116.03125
12.42,1590567116.046875
11.93,1590567116.0625
10.79,1590567116.078125
8.96,1590567116.09375
6.6,1590567116.109375
4.01,1590567116.125
1.53,1590567116.140625
-0.6,1590567116.15625
-2.24,1590567116.171875
-3.38,1590567116.1875
-4.02,1590567116.203125
-4.22,1590567116.21875
-4.06,1590567116.234375
-3.67,1590567116.25
-3.32,1590567116.265625
-3.35,1590567116.28125
-4.13,1590567116.296875
-5.89,1590567116.3125
-8.58,1590567116.328125
-11.83,1590567116.34375
-14.97,1590567116.359375
-17.2,1590567116.375
-17.87,1590567116.390625
-16.71,1590567116.40625
-13.92,1590567116.421875
-10.11,1590567116.4375
-6.07,1590567116.453125
-2.5,1590567116.46875
0.23,1590567116.484375
2.07,1590567116.5
3.2,1590567116.515625
3.9,1590567116.53125
4.29,1590567116.546875
4.39,1590567116.5625
4.12,1590567116.578125
3.44,1590567116.59375
2.47,1590567116.609375
1.48,1590567116.625
0.77,1590567116.640625
0.53,1590567116.65625
0.74,1590567116.671875
1.19,1590567116.6875
1.63,1590567116.703125
1.9,1590567116.71875
1.99,1590567116.734375
2.02,1590567116.75
2.07,1590567116.765625
2.12,1590567116.78125
2.06,1590567116.796875
1.76,1590567116.8125
1.15,1590567116.828125
0.3,1590567116.84375
-0.67,1590567116.859375
-1.63,1590567116.875
-2.52,1590567116.890625
-3.34,1590567116.90625
-4.13,1590567116.921875
-4.91,1590567116.9375
-5.66,1590567116.953125
-6.4,1590567116.96875
-7.18,1590567116.984375
-8.12,1590567117.0
-9.39,1590567117.015625
-11.18,1590567117.03125
-13.57,1590567117.046875
-16.46,1590567117.0625
-19.59,1590567117.078125
-22.49,1590567117.09375
-24.61,1590567117.109375
-25.43,1590567117.125
-24.57,1590567117.140625
-21.95,1590567117.15625
-17.77,1590567117.171875
-12.5,1590567117.1875
-6.81,1590567117.203125
-1.32,1590567117.21875
3.46,1590567117.234375
7.25,1590567117.25
10.0,1590567117.265625
11.82,1590567117.28125
12.89,1590567117.296875
13.39,1590567117.3125
13.44,1590567117.328125
13.14,1590567117.34375
12.57,1590567117.359375
11.86,1590567117.375
11.13,1590567117.390625
10.51,1590567117.40625
10.09,1590567117.421875
9.92,1590567117.4375
9.98,1590567117.453125
10.22,1590567117.46875
10.52,1590567117.484375
10.77,1590567117.5
10.88,1590567117.515625
10.81,1590567117.53125
10.56,1590567117.546875
10.09,1590567117.5625
9.36,1590567117.578125
8.27,1590567117.59375
6.78,1590567117.609375
4.93,1590567117.625
2.84,1590567117.640625
0.75,1590567117.65625
-1.14,1590567117.671875
-2.65,1590567117.6875
-3.77,1590567117.703125
-4.57,1590567117.71875
-5.19,1590567117.734375
-5.77,1590567117.75
-6.49,1590567117.765625
-7.46,1590567117.78125
-8.77,1590567117.796875
-10.41,1590567117.8125
-12.23,1590567117.828125
-13.93,1590567117.84375
-15.08,1590567117.859375
-15.18,1590567117.875
-13.92,1590567117.890625
-11.22,1590567117.90625
-7.37,1590567117.921875
-2.94,1590567117.9375
1.4,1590567117.953125
5.06,1590567117.96875
7.75,1590567117.984375
9.48,1590567118.0
10.48,1590567118.015625
11.04,1590567118.03125
11.31,1590567118.046875
11.3,1590567118.0625
10.93,1590567118.078125
10.15,1590567118.09375
9.04,1590567118.109375
7.77,1590567118.125
6.62,1590567118.140625
5.77,1590567118.15625
5.3,1590567118.171875
5.17,1590567118.1875
5.26,1590567118.203125
5.46,1590567118.21875
5.65,1590567118.234375
5.77,1590567118.25
5.74,1590567118.265625
5.5,1590567118.28125
4.99,1590567118.296875
4.21,1590567118.3125
3.22,1590567118.328125
2.09,1590567118.34375
0.88,1590567118.359375
-0.35,1590567118.375
-1.59,1590567118.390625
-2.78,1590567118.40625
-3.79,1590567118.421875
-4.53,1590567118.4375
-4.98,1590567118.453125
-5.28,1590567118.46875
-5.69,1590567118.484375
-6.53,1590567118.5
-8.04,1590567118.515625
-10.27,1590567118.53125
-13.09,1590567118.546875
-16.18,1590567118.5625
-19.1,1590567118.578125
-21.36,1590567118.59375
-22.46,1590567118.609375
-22.02,1590567118.625
-19.88,1590567118.640625
-16.25,1590567118.65625
-11.67,1590567118.671875
-6.91,1590567118.6875
-2.7,1590567118.703125
0.44,1590567118.71875
2.4,1590567118.734375
3.34,1590567118.75
3.57,1590567118.765625
3.39,1590567118.78125
2.98,1590567118.796875
2.45,1590567118.8125
1.89,1590567118.828125
1.39,1590567118.84375
1.02,1590567118.859375
0.74,1590567118.875
0.48,1590567118.890625
0.06,1590567118.90625
-0.6,1590567118.921875
-1.44,1590567118.9375
-2.29,1590567118.953125
-2.91,1590567118.96875
-3.19,1590567118.984375
-3.14,1590567119.0
-2.94,1590567119.015625
-2.78,1590567119.03125
-2.79,1590567119.046875
-2.94,1590567119.0625
-3.13,1590567119.078125
-3.28,1590567119.09375
-3.4,1590567119.109375
-3.61,1590567119.125
-4.05,1590567119.140625
-4.75,1590567119.15625
-5.68,1590567119.171875
-6.78,1590567119.1875
-8.05,1590567119.203125
-9.61,1590567119.21875
-11.55,1590567119.234375
-13.77,1590567119.25
-15.89,1590567119.265625
-17.28,1590567119.28125
-17.3,1590567119.296875
-15.56,1590567119.3125
-12.15,1590567119.328125
-7.58,1590567119.34375
-2.63,1590567119.359375
1.99,1590567119.375
5.78,1590567119.390625
8.56,1590567119.40625
10.36,1590567119.421875
11.35,1590567119.4375
11.74,1590567119.453125
11.69,1590567119.46875
11.3,1590567119.484375
10.65,1590567119.5
9.76,1590567119.515625
8.67,1590567119.53125
7.5,1590567119.546875
6.4,1590567119.5625
5.53,1590567119.578125
4.96,1590567119.59375
4.63,1590567119.609375
4.4,1590567119.625
4.07,1590567119.640625
3.56,1590567119.65625
2.9,1590567119.671875
2.21,1590567119.6875
1.66,1590567119.703125
1.37,1590567119.71875
1.36,1590567119.734375
1.55,1590567119.75
1.76,1590567119.765625
1.74,1590567119.78125
1.24,1590567119.796875
0.11,1590567119.8125
-1.64,1590567119.828125
-3.79,1590567119.84375
-6.02,1590567119.859375
-8.01,1590567119.875
-9.61,1590567119.890625
-10.86,1590567119.90625
-11.98,1590567119.921875
-13.29,1590567119.9375
-15.06,1590567119.953125
-17.5,1590567119.96875
-20.63,1590567119.984375
-24.25,1590567120.0
-27.86,1590567120.015625
-30.74,1590567120.03125
-32.02,1590567120.046875
-31.0,1590567120.0625
-27.4,1590567120.078125
-21.57,1590567120.09375
-14.38,1590567120.109375
-6.99,1590567120.125
-0.41,1590567120.140625
4.76,1590567120.15625
8.47,1590567120.171875
11.01,1590567120.1875
12.81,1590567120.203125
14.17,1590567120.21875
15.2,1590567120.234375
15.84,1590567120.25
16.05,1590567120.265625
15.83,1590567120.28125
15.31,1590567120.296875
14.58,1590567120.3125
13.71,1590567120.328125
12.76,1590567120.34375
11.8,1590567120.359375
10.95,1590567120.375
10.37,1590567120.390625
10.12,1590567120.40625
10.08,1590567120.421875
10.0,1590567120.4375
9.61,1590567120.453125
8.77,1590567120.46875
7.57,1590567120.484375
6.22,1590567120.5
4.92,1590567120.515625
3.75,1590567120.53125
2.61,1590567120.546875
1.35,1590567120.5625
-0.11,1590567120.578125
-1.68,1590567120.59375
-3.22,1590567120.609375
-4.6,1590567120.625
-5.83,1590567120.640625
-7.06,1590567120.65625
-8.52,1590567120.671875
-10.39,1590567120.6875
-12.8,1590567120.703125
-15.71,1590567120.71875
-18.96,1590567120.734375
-22.16,1590567120.75
-24.79,1590567120.765625
-26.24,1590567120.78125
-26.04,1590567120.796875
-23.96,1590567120.8125
-20.25,1590567120.828125
-15.42,1590567120.84375
-10.21,1590567120.859375
-5.26,1590567120.875
-0.95,1590567120.890625
2.61,1590567120.90625
5.51,1590567120.921875
7.82,1590567120.9375
9.59,1590567120.953125
10.78,1590567120.96875
11.35,1590567120.984375
11.36,1590567121.0
11.01,1590567121.015625
10.6,1590567121.03125
10.38,1590567121.046875
10.53,1590567121.0625
11.07,1590567121.078125
11.87,1590567121.09375
12.67,1590567121.109375
13.22,1590567121.125
13.35,1590567121.140625
13.01,1590567121.15625
12.33,1590567121.171875
11.48,1590567121.1875
10.73,1590567121.203125
10.21,1590567121.21875
9.95,1590567121.234375
9.78,1590567121.25
9.42,1590567121.265625
8.58,1590567121.28125
7.1,1590567121.296875
4.94,1590567121.3125
2.27,1590567121.328125
-0.64,1590567121.34375
-3.52,1590567121.359375
-6.16,1590567121.375
-8.5,1590567121.390625
-10.7,1590567121.40625
-13.02,1590567121.421875
-15.77,1590567121.4375
-19.1,1590567121.453125
-22.9,1590567121.46875
-26.75,1590567121.484375
-29.96,1590567121.5
-31.83,1590567121.515625
-31.86,1590567121.53125
-29.87,1590567121.546875
-26.09,1590567121.5625
-20.99,1590567121.578125
-15.17,1590567121.59375
-9.18,1590567121.609375
-3.47,1590567121.625
1.59,1590567121.640625
5.77,1590567121.65625
8.97,1590567121.671875
11.15,1590567121.6875
12.44,1590567121.703125
13.02,1590567121.71875
13.12,1590567121.734375
12.97,1590567121.75
12.76,1590567121.765625
12.63,1590567121.78125
12.65,1590567121.796875
12.81,1590567121.8125
13.03,1590567121.828125
13.14,1590567121.84375
13.02,1590567121.859375
12.62,1590567121.875
11.97,1590567121.890625
11.18,1590567121.90625
10.37,1590567121.921875
9.58,1590567121.9375
8.76,1590567121.953125
7.82,1590567121.96875
6.65,1590567121.984375
5.24,1590567122.0
3.61,1590567122.015625
1.86,1590567122.03125
0.13,1590567122.046875
-1.45,1590567122.0625
-2.79,1590567122.078125
-3.91,1590567122.09375
-5.0,1590567122.109375
-6.38,1590567122.125
-8.43,1590567122.140625
-11.42,1590567122.15625
-15.25,1590567122.171875
-19.4,1590567122.1875
-22.94,1590567122.203125
-24.88,1590567122.21875
-24.49,1590567122.234375
-21.59,1590567122.25
-16.66,1590567122.265625
-10.59,1590567122.28125
-4.33,1590567122.296875
1.43,1590567122.3125
6.42,1590567122.328125
10.62,1590567122.34375
14.14,1590567122.359375
16.91,1590567122.375
18.77,1590567122.390625
19.54,1590567122.40625
19.21,1590567122.421875
18.05,1590567122.4375
16.55,1590567122.453125
15.24,1590567122.46875
14.47,1590567122.484375
14.3,1590567122.5
14.54,1590567122.515625
14.85,1590567122.53125
14.95,1590567122.546875
14.71,1590567122.5625
14.17,1590567122.578125
13.5,1590567122.59375
12.87,1590567122.609375
12.38,1590567122.625
11.99,1590567122.640625
11.54,1590567122.65625
10.75,1590567122.671875
9.43,1590567122.6875
7.51,1590567122.703125
5.13,1590567122.71875
2.54,1590567122.734375
0.06,1590567122.75
-2.08,1590567122.765625
-3.84,1590567122.78125
-5.34,1590567122.796875
-6.79,1590567122.8125
-8.44,1590567122.828125
-10.53,1590567122.84375
-13.22,1590567122.859375
-16.54,1590567122.875
-20.27,1590567122.890625
-23.84,1590567122.90625
-26.41,1590567122.921875
-27.08,1590567122.9375
-25.21,1590567122.953125
-20.73,1590567122.96875
-14.21,1590567122.984375
-6.67,1590567123.0
0.79,1590567123.015625
7.32,1590567123.03125
12.48,1590567123.046875
16.23,1590567123.0625
18.75,1590567123.078125
20.25,1590567123.09375
20.91,1590567123.109375
20.87,1590567123.125
20.27,1590567123.140625
19.37,1590567123.15625
18.42,1590567123.171875
17.66,1590567123.1875
17.23,1590567123.203125
17.15,1590567123.21875
17.36,1590567123.234375
17.76,1590567123.25
18.27,1590567123.265625
18.85,1590567123.28125
19.53,1590567123.296875
20.29,1590567123.3125
21.02,1590567123.328125
21.47,1590567123.34375
21.32,1590567123.359375
20.27,1590567123.375
18.18,1590567123.390625
15.19,1590567123.40625
11.66,1590567123.421875
8.06,1590567123.4375
4.8,1590567123.453125
2.09,1590567123.46875
-0.14,1590567123.484375
-2.08,1590567123.5
-4.05,1590567123.515625
-6.35,1590567123.53125
-9.23,1590567123.546875
-12.76,1590567123.5625
-16.79,1590567123.578125
-20.85,1590567123.59375
-24.17,1590567123.609375
-25.82,1590567123.625
-25.09,1590567123.640625
-21.74,1590567123.65625
-16.19,1590567123.671875
-9.42,1590567123.6875
-2.54,1590567123.703125
3.55,1590567123.71875
8.41,1590567123.734375
12.12,1590567123.75
14.92,1590567123.765625
17.02,1590567123.78125
18.43,1590567123.796875
19.05,1590567123.8125
18.84,1590567123.828125
17.98,1590567123.84375
16.84,1590567123.859375
15.81,1590567123.875
15.12,1590567123.890625
14.76,1590567123.90625
14.53,1590567123.921875
14.24,1590567123.9375
13.76,1590567123.953125
13.13,1590567123.96875
12.41,1590567123.984375
11.58,1590567124.0
10.49,1590567124.015625
8.91,1590567124.03125
6.67,1590567124.046875
3.83,1590567124.0625
0.64,1590567124.078125
-2.47,1590567124.09375
-5.16,1590567124.109375
-7.24,1590567124.125
-8.85,1590567124.140625
-10.34,1590567124.15625
-12.18,1590567124.171875
-14.8,1590567124.1875
-18.37,1590567124.203125
-22.67,1590567124.21875
-27.04,1590567124.234375
-30.54,1590567124.25
-32.16,1590567124.265625
-31.2,1590567124.28125
-27.52,1590567124.296875
-21.6,1590567124.3125
-14.43,1590567124.328125
-7.14,1590567124.34375
-0.66,1590567124.359375
4.51,1590567124.375
8.3,1590567124.390625
10.92,1590567124.40625
12.63,1590567124.421875
13.6,1590567124.4375
13.93,1590567124.453125
13.67,1590567124.46875
12.92,1590567124.484375
11.86,1590567124.5
10.73,1590567124.515625
9.74,1590567124.53125
9.03,1590567124.546875
8.64,1590567124.5625
8.49,1590567124.578125
8.48,1590567124.59375
8.44,1590567124.609375
8.27,1590567124.625
7.9,1590567124.640625
7.33,1590567124.65625
6.61,1590567124.671875
5.75,1590567124.6875
4.75,1590567124.703125
3.5,1590567124.71875
1.87,1590567124.734375
-0.16,1590567124.75
-2.52,1590567124.765625
-5.0,1590567124.78125
-7.32,1590567124.796875
-9.28,1590567124.8125
-10.85,1590567124.828125
-12.15,1590567124.84375
-13.46,1590567124.859375
-15.08,1590567124.875
-17.25,1590567124.890625
-20.13,1590567124.90625
-23.76,1590567124.921875
-27.96,1590567124.9375
-32.32,1590567124.953125
-36.11,1590567124.96875
-38.39,1590567124.984375
-38.29,1590567125.0
-35.27,1590567125.015625
-29.46,1590567125.03125
-21.67,1590567125.046875
-13.1,1590567125.0625
-4.97,1590567125.078125
1.92,1590567125.09375
7.32,1590567125.109375
11.48,1590567125.125
14.81,1590567125.140625
17.59,1590567125.15625
19.84,1590567125.171875
21.44,1590567125.1875
22.3,1590567125.203125
22.5,1590567125.21875
22.31,1590567125.234375
22.07,1590567125.25
21.94,1590567125.265625
21.94,1590567125.28125
21.86,1590567125.296875
21.5,1590567125.3125
20.76,1590567125.328125
19.73,1590567125.34375
18.62,1590567125.359375
17.65,1590567125.375
16.96,1590567125.390625
16.52,1590567125.40625
16.13,1590567125.421875
15.46,1590567125.4375
14.16,1590567125.453125
12.0,1590567125.46875
8.98,1590567125.484375
5.44,1590567125.5
1.92,1590567125.515625
-1.05,1590567125.53125
-3.16,1590567125.546875
-4.52,1590567125.5625
-5.61,1590567125.578125
-7.04,1590567125.59375
-9.26,1590567125.609375
-12.44,1590567125.625
-16.35,1590567125.640625
-20.55,1590567125.65625
-24.4,1590567125.671875
-27.27,1590567125.6875
-28.52,1590567125.703125
-27.67,1590567125.71875
-24.48,1590567125.734375
-19.13,1590567125.75
-12.23,1590567125.765625
-4.73,1590567125.78125
2.38,1590567125.796875
8.39,1590567125.8125
13.02,1590567125.828125
16.42,1590567125.84375
18.94,1590567125.859375
20.93,1590567125.875
22.54,1590567125.890625
23.75,1590567125.90625
24.4,1590567125.921875
24.4,1590567125.9375
23.8,1590567125.953125
22.82,1590567125.96875
21.74,1590567125.984375
20.83,1590567126.0
20.23,1590567126.015625
19.88,1590567126.03125
19.61,1590567126.046875
19.23,1590567126.0625
18.58,1590567126.078125
17.67,1590567126.09375
16.59,1590567126.109375
15.51,1590567126.125
14.44,1590567126.140625
13.28,1590567126.15625
11.82,1590567126.171875
9.91,1590567126.1875
7.56,1590567126.203125
5.01,1590567126.21875
2.59,1590567126.234375
0.6,1590567126.25
-0.83,1590567126.265625
-1.8,1590567126.28125
-2.61,1590567126.296875
-3.61,1590567126.3125
-5.08,1590567126.328125
-7.15,1590567126.34375
-9.85,1590567126.359375
-13.08,1590567126.375
-16.62,1590567126.390625
-20.11,1590567126.40625
-22.98,1590567126.421875
-24.58,1590567126.4375
-24.3,1590567126.453125
-21.81,1590567126.46875
-17.21,1590567126.484375
-11.09,1590567126.5
-4.31,1590567126.515625
2.22,1590567126.53125
7.87,1590567126.546875
12.39,1590567126.5625
15.9,1590567126.578125
18.66,1590567126.59375
20.92,1590567126.609375
22.71,1590567126.625
23.94,1590567126.640625
24.53,1590567126.65625
24.5,1590567126.671875
24.02,1590567126.6875
23.34,1590567126.703125
22.66,1590567126.71875
22.05,1590567126.734375
21.45,1590567126.75
20.74,1590567126.765625
19.87,1590567126.78125
18.87,1590567126.796875
17.87,1590567126.8125
16.98,1590567126.828125
16.18,1590567126.84375
15.37,1590567126.859375
14.36,1590567126.875
13.0,1590567126.890625
11.28,1590567126.90625
9.29,1590567126.921875
7.23,1590567126.9375
5.24,1590567126.953125
3.39,1590567126.96875
1.62,1590567126.984375
-0.2,1590567127.0
-2.14,1590567127.015625
-4.23,1590567127.03125
-6.38,1590567127.046875
-8.46,1590567127.0625
-10.4,1590567127.078125
-12.17,1590567127.09375
-13.86,1590567127.109375
-15.6,1590567127.125
-17.53,1590567127.140625
-19.76,1590567127.15625
-22.37,1590567127.171875
-25.24,1590567127.1875
-28.09,1590567127.203125
-30.42,1590567127.21875
-31.57,1590567127.234375
-30.96,1590567127.25
-28.24,1590567127.265625
-23.55,1590567127.28125
-17.46,1590567127.296875
-10.88,1590567127.3125
-4.73,1590567127.328125
0.29,1590567127.34375
3.97,1590567127.359375
6.51,1590567127.375
8.32,1590567127.390625
9.82,1590567127.40625
11.21,1590567127.421875
12.4,1590567127.4375
13.2,1590567127.453125
13.44,1590567127.46875
13.16,1590567127.484375
12.59,1590567127.5
12.03,1590567127.515625
11.67,1590567127.53125
11.52,1590567127.546875
11.47,1590567127.5625
11.36,1590567127.578125
11.1,1590567127.59375
10.77,1590567127.609375
10.42,1590567127.625
10.08,1590567127.640625
9.68,1590567127.65625
9.1,1590567127.671875
8.24,1590567127.6875
7.11,1590567127.703125
5.82,1590567127.71875
4.51,1590567127.734375
3.29,1590567127.75
2.19,1590567127.765625
1.16,1590567127.78125
0.12,1590567127.796875
-1.02,1590567127.8125
-2.29,1590567127.828125
-3.71,1590567127.84375
-5.22,1590567127.859375
-6.71,1590567127.875
-8.13,1590567127.890625
-9.47,1590567127.90625
-10.86,1590567127.921875
-12.5,1590567127.9375
-14.6,1590567127.953125
-17.19,1590567127.96875
-20.01,1590567127.984375
-22.5,1590567128.0
-23.9,1590567128.015625
-23.56,1590567128.03125
-21.16,1590567128.046875
-16.9,1590567128.0625
-11.42,1590567128.078125
-5.59,1590567128.09375
-0.23,1590567128.109375
4.1,1590567128.125
7.22,1590567128.140625
9.24,1590567128.15625
10.4,1590567128.171875
10.94,1590567128.1875
11.01,1590567128.203125
10.71,1590567128.21875
10.14,1590567128.234375
9.39,1590567128.25
8.57,1590567128.265625
7.79,1590567128.28125
7.1,1590567128.296875
6.48,1590567128.3125
5.91,1590567128.328125
5.33,1590567128.34375
4.68,1590567128.359375
3.95,1590567128.375
3.16,1590567128.390625
2.33,1590567128.40625
1.47,1590567128.421875
0.59,1590567128.4375
-0.35,1590567128.453125
-1.4,1590567128.46875
-2.61,1590567128.484375
-4.04,1590567128.5
-5.65,1590567128.515625
-7.38,1590567128.53125
-9.1,1590567128.546875
-10.7,1590567128.5625
-12.1,1590567128.578125
-13.29,1590567128.59375
-14.39,1590567128.609375
-15.58,1590567128.625
-17.12,1590567128.640625
-19.2,1590567128.65625
-21.93,1590567128.671875
-25.27,1590567128.6875
-28.93,1590567128.703125
-32.44,1590567128.71875
-35.18,1590567128.734375
-36.51,1590567128.75
-35.98,1590567128.765625
-33.44,1590567128.78125
-29.13,1590567128.796875
-23.59,1590567128.8125
-17.54,1590567128.828125
-11.65,1590567128.84375
-6.36,1590567128.859375
-1.82,1590567128.875
2.1,1590567128.890625
5.6,1590567128.90625
8.84,1590567128.921875
11.78,1590567128.9375
14.2,1590567128.953125
15.83,1590567128.96875
16.52,1590567128.984375
16.31,1590567129.0
15.48,1590567129.015625
14.47,1590567129.03125
13.75,1590567129.046875
13.56,1590567129.0625
14.0,1590567129.078125
14.89,1590567129.09375
15.99,1590567129.109375
17.03,1590567129.125
17.82,1590567129.140625
18.29,1590567129.15625
18.43,1590567129.171875
18.28,1590567129.1875
17.89,1590567129.203125
17.26,1590567129.21875
16.32,1590567129.234375
14.98,1590567129.25
13.14,1590567129.265625
10.81,1590567129.28125
8.1,1590567129.296875
5.24,1590567129.3125
2.44,1590567129.328125
-0.11,1590567129.34375
-2.44,1590567129.359375
-4.67,1590567129.375
-7.02,1590567129.390625
-9.68,1590567129.40625
-12.73,1590567129.421875
-16.16,1590567129.4375
-19.84,1590567129.453125
-23.48,1590567129.46875
-26.59,1590567129.484375
-28.58,1590567129.5
-28.84,1590567129.515625
-27.03,1590567129.53125
-23.26,1590567129.546875
-18.17,1590567129.5625
-12.73,1590567129.578125
-7.82,1590567129.59375
-3.95,1590567129.609375
-1.1,1590567129.625
1.11,1590567129.640625
3.13,1590567129.65625
5.17,1590567129.671875
7.11,1590567129.6875
8.61,1590567129.703125
9.42,1590567129.71875
9.51,1590567129.734375
9.14,1590567129.75
8.74,1590567129.765625
8.64,1590567129.78125
8.96,1590567129.796875
9.51,1590567129.8125
9.97,1590567129.828125
10.02,1590567129.84375
9.52,1590567129.859375
8.58,1590567129.875
7.46,1590567129.890625
6.46,1590567129.90625
5.8,1590567129.921875
5.45,1590567129.9375
5.21,1590567129.953125
4.76,1590567129.96875
3.81,1590567129.984375
2.23,1590567130.0
0.12,1590567130.015625
-2.27,1590567130.03125
-4.62,1590567130.046875
-6.64,1590567130.0625
-8.24,1590567130.078125
-9.48,1590567130.09375
-10.53,1590567130.109375
-11.61,1590567130.125
-12.91,1590567130.140625
-14.57,1590567130.15625
-16.7,1590567130.171875
-19.28,1590567130.1875
-22.07,1590567130.203125
-24.58,1590567130.21875
-26.11,1590567130.234375
-25.96,1590567130.25
-23.75,1590567130.265625
-19.63,1590567130.28125
-14.26,1590567130.296875
-8.58,1590567130.3125
-3.44,1590567130.328125
0.7,1590567130.34375
3.79,1590567130.359375
6.11,1590567130.375
7.96,1590567130.390625
9.53,1590567130.40625
10.85,1590567130.421875
11.87,1590567130.4375
12.57,1590567130.453125
13.01,1590567130.46875
13.3,1590567130.484375
13.53,1590567130.5
13.7,1590567130.515625
13.78,1590567130.53125
13.69,1590567130.546875
13.4,1590567130.5625
12.9,1590567130.578125
12.23,1590567130.59375
11.47,1590567130.609375
10.72,1590567130.625
10.12,1590567130.640625
9.74,1590567130.65625
9.53,1590567130.671875
9.28,1590567130.6875
8.7,1590567130.703125
7.53,1590567130.71875
5.72,1590567130.734375
3.41,1590567130.75
0.94,1590567130.765625
-1.34,1590567130.78125
-3.19,1590567130.796875
-4.57,1590567130.8125
-5.56,1590567130.828125
-6.35,1590567130.84375
-7.14,1590567130.859375
-8.12,1590567130.875
-9.48,1590567130.890625
-11.39,1590567130.90625
-13.92,1590567130.921875
-16.9,1590567130.9375
-19.89,1590567130.953125
-22.2,1590567130.96875
-23.11,1590567130.984375
-22.08,1590567131.0
-19.03,1590567131.015625
-14.38,1590567131.03125
-8.89,1590567131.046875
-3.42,1590567131.0625
1.33,1590567131.078125
5.08,1590567131.09375
7.86,1590567131.109375
9.9,1590567131.125
11.43,1590567131.140625
12.51,1590567131.15625
13.06,1590567131.171875
12.98,1590567131.1875
12.35,1590567131.203125
11.38,1590567131.21875
10.47,1590567131.234375
9.95,1590567131.25
9.95,1590567131.265625
10.35,1590567131.28125
10.83,1590567131.296875
11.02,1590567131.3125
10.73,1590567131.328125
9.98,1590567131.34375
9.01,1590567131.359375
8.07,1590567131.375
7.33,1590567131.390625
6.75,1590567131.40625
6.16,1590567131.421875
5.35,1590567131.4375
4.2,1590567131.453125
2.69,1590567131.46875
0.96,1590567131.484375
-0.87,1590567131.5
-2.61,1590567131.515625
-4.15,1590567131.53125
-5.44,1590567131.546875
-6.5,1590567131.5625
-7.48,1590567131.578125
-8.67,1590567131.59375
-10.36,1590567131.609375
-12.77,1590567131.625
-15.86,1590567131.640625
-19.24,1590567131.65625
-22.21,1590567131.671875
-23.99,1590567131.6875
-23.92,1590567131.703125
-21.78,1590567131.71875
-17.78,1590567131.734375
-12.58,1590567131.75
-7.03,1590567131.765625
-1.9,1590567131.78125
2.31,1590567131.796875
5.44,1590567131.8125
7.6,1590567131.828125
9.01,1590567131.84375
9.82,1590567131.859375
10.06,1590567131.875
9.69,1590567131.890625
8.73,1590567131.90625
7.33,1590567131.921875
5.82,1590567131.9375
4.55,1590567131.953125
3.8,1590567131.96875
3.65,1590567131.984375
3.95,1590567132.0
4.37,1590567132.015625
4.62,1590567132.03125
4.49,1590567132.046875
3.94,1590567132.0625
3.13,1590567132.078125
2.28,1590567132.09375
1.6,1590567132.109375
1.12,1590567132.125
0.76,1590567132.140625
0.27,1590567132.15625
-0.6,1590567132.171875
-2.0,1590567132.1875
-3.9,1590567132.203125
-6.06,1590567132.21875
-8.12,1590567132.234375
-9.75,1590567132.25
-10.76,1590567132.265625
-11.22,1590567132.28125
-11.41,1590567132.296875
-11.73,1590567132.3125
-12.59,1590567132.328125
-14.24,1590567132.34375
-16.75,1590567132.359375
-19.9,1590567132.375
-23.25,1590567132.390625
-26.2,1590567132.40625
-28.04,1590567132.421875
-28.18,1590567132.4375
-26.28,1590567132.453125
-22.4,1590567132.46875
-16.99,1590567132.484375
-10.85,1590567132.5
-4.83,1590567132.515625
0.4,1590567132.53125
4.55,1590567132.546875
7.72,1590567132.5625
10.27,1590567132.578125
12.56,1590567132.59375
14.75,1590567132.609375
16.81,1590567132.625
18.52,1590567132.640625
19.67,1590567132.65625
20.19,1590567132.671875
20.21,1590567132.6875
19.97,1590567132.703125
19.73,1590567132.71875
19.66,1590567132.734375
19.79,1590567132.75
20.1,1590567132.765625
20.53,1590567132.78125
21.04,1590567132.796875
21.62,1590567132.8125
22.23,1590567132.828125
22.86,1590567132.84375
23.48,1590567132.859375
24.01,1590567132.875
24.33,1590567132.890625
24.18,1590567132.90625
23.25,1590567132.921875
21.33,1590567132.9375
18.38,1590567132.953125
14.69,1590567132.96875
10.77,1590567132.984375
7.16,1590567133.0
4.16,1590567133.015625
1.7,1590567133.03125
-0.6,1590567133.046875
-3.19,1590567133.0625
-6.3,1590567133.078125
-9.92,1590567133.09375
-13.77,1590567133.109375
-17.52,1590567133.125
-20.84,1590567133.140625
-23.46,1590567133.15625
-25.02,1590567133.171875
-25.12,1590567133.1875
-23.39,1590567133.203125
-19.73,1590567133.21875
-14.5,1590567133.234375
-8.43,1590567133.25
-2.52,1590567133.265625
2.38,1590567133.28125
5.85,1590567133.296875
7.97,1590567133.3125
9.18,1590567133.328125
9.95,1590567133.34375
10.58,1590567133.359375
11.06,1590567133.375
11.18,1590567133.390625
10.72,1590567133.40625
9.62,1590567133.421875
8.06,1590567133.4375
6.33,1590567133.453125
4.74,1590567133.46875
3.45,1590567133.484375
2.47,1590567133.5
1.74,1590567133.515625
1.18,1590567133.53125
0.76,1590567133.546875
0.54,1590567133.5625
0.55,1590567133.578125
0.78,1590567133.59375
1.07,1590567133.609375
1.19,1590567133.625
0.92,1590567133.640625
0.14,1590567133.65625
-1.07,1590567133.671875
-2.49,1590567133.6875
-3.84,1590567133.703125
-4.92,1590567133.71875
-5.77,1590567133.734375
-6.58,1590567133.75
-7.57,1590567133.765625
-8.85,1590567133.78125
-10.31,1590567133.796875
-11.74,1590567133.8125
-12.98,1590567133.828125
-14.0,1590567133.84375
-15.01,1590567133.859375
-16.26,1590567133.875
-17.89,1590567133.890625
-19.82,1590567133.90625
-21.77,1590567133.921875
-23.44,1590567133.9375
-24.59,1590567133.953125
-25.12,1590567133.96875
-25.0,1590567133.984375
-24.17,1590567134.0
-22.57,1590567134.015625
-20.14,1590567134.03125
-16.96,1590567134.046875
-13.3,1590567134.0625
-9.46,1590567134.078125
-5.69,1590567134.09375
-2.09,1590567134.109375
1.4,1590567134.125
4.81,1590567134.140625
8.02,1590567134.15625
10.74,1590567134.171875
12.63,1590567134.1875
13.42,1590567134.203125
13.13,1590567134.21875
12.09,1590567134.234375
10.77,1590567134.25
9.64,1590567134.265625
8.96,1590567134.28125
8.78,1590567134.296875
8.99,1590567134.3125
9.36,1590567134.328125
9.71,1590567134.34375
9.94,1590567134.359375
10.02,1590567134.375
9.94,1590567134.390625
9.72,1590567134.40625
9.36,1590567134.421875
8.87,1590567134.4375
8.26,1590567134.453125
7.52,1590567134.46875
6.63,1590567134.484375
5.58,1590567134.5
4.39,1590567134.515625
3.13,1590567134.53125
1.9,1590567134.546875
0.73,1590567134.5625
-0.39,1590567134.578125
-1.52,1590567134.59375
-2.76,1590567134.609375
-4.12,1590567134.625
-5.6,1590567134.640625
-7.15,1590567134.65625
-8.8,1590567134.671875
-10.63,1590567134.6875
-12.72,1590567134.703125
-15.03,1590567134.71875
-17.26,1590567134.734375
-18.83,1590567134.75
-19.08,1590567134.765625
-17.56,1590567134.78125
-14.24,1590567134.796875
-9.57,1590567134.8125
-4.38,1590567134.828125
0.47,1590567134.84375
4.42,1590567134.859375
7.3,1590567134.875
9.29,1590567134.890625
10.7,1590567134.90625
11.73,1590567134.921875
12.34,1590567134.9375
12.38,1590567134.953125
11.76,1590567134.96875
10.55,1590567134.984375
9.09,1590567135.0
7.8,1590567135.015625
7.03,1590567135.03125
6.89,1590567135.046875
7.22,1590567135.0625
7.68,1590567135.078125
7.94,1590567135.09375
7.77,1590567135.109375
7.17,1590567135.125
6.33,1590567135.140625
5.43,1590567135.15625
4.63,1590567135.171875
3.89,1590567135.1875
3.07,1590567135.203125
2.0,1590567135.21875
0.58,1590567135.234375
-1.15,1590567135.25
-3.03,1590567135.265625
-4.89,1590567135.28125
-6.61,1590567135.296875
-8.11,1590567135.3125
-9.34,1590567135.328125
-10.24,1590567135.34375
-10.82,1590567135.359375
-11.16,1590567135.375
-11.55,1590567135.390625
-12.35,1590567135.40625
-13.93,1590567135.421875
-16.4,1590567135.4375
-19.49,1590567135.453125
-22.54,1590567135.46875
-24.67,1590567135.484375
-25.07,1590567135.5
-23.29,1590567135.515625
-19.47,1590567135.53125
-14.2,1590567135.546875
-8.4,1590567135.5625
-2.94,1590567135.578125
1.55,1590567135.59375
4.86,1590567135.609375
7.14,1590567135.625
8.71,1590567135.640625
9.86,1590567135.65625
10.73,1590567135.671875
11.32,1590567135.6875
11.5,1590567135.703125
11.26,1590567135.71875
10.68,1590567135.734375
9.97,1590567135.75
9.36,1590567135.765625
8.97,1590567135.78125
8.76,1590567135.796875
8.57,1590567135.8125
8.18,1590567135.828125
7.47,1590567135.84375
6.46,1590567135.859375
5.34,1590567135.875
4.39,1590567135.890625
3.75,1590567135.90625
3.42,1590567135.921875
3.22,1590567135.9375
2.89,1590567135.953125
2.29,1590567135.96875
1.37,1590567135.984375
0.21,1590567136.0
-1.13,1590567136.015625
-2.64,1590567136.03125
-4.37,1590567136.046875
-6.29,1590567136.0625
-8.31,1590567136.078125
-10.2,1590567136.09375
-11.81,1590567136.109375
-13.13,1590567136.125
-14.4,1590567136.140625
-15.96,1590567136.15625
-18.09,1590567136.171875
-20.84,1590567136.1875
-23.86,1590567136.203125
-26.55,1590567136.21875
-28.21,1590567136.234375
-28.22,1590567136.25
-26.33,1590567136.265625
-22.62,1590567136.28125
-17.61,1590567136.296875
-11.99,1590567136.3125
-6.46,1590567136.328125
-1.58,1590567136.34375
2.4,1590567136.359375
5.39,1590567136.375
7.43,1590567136.390625
8.57,1590567136.40625
8.82,1590567136.421875
8.32,1590567136.4375
7.33,1590567136.453125
6.22,1590567136.46875
5.36,1590567136.484375
4.96,1590567136.5
5.03,1590567136.515625
5.39,1590567136.53125
5.83,1590567136.546875
6.21,1590567136.5625
6.49,1590567136.578125
6.71,1590567136.59375
6.89,1590567136.609375
6.96,1590567136.625
6.83,1590567136.640625
6.44,1590567136.65625
5.82,1590567136.671875
5.1,1590567136.6875
4.42,1590567136.703125
3.85,1590567136.71875
3.3,1590567136.734375
2.57,1590567136.75
1.46,1590567136.765625
-0.11,1590567136.78125
-2.0,1590567136.796875
-3.97,1590567136.8125
-5.71,1590567136.828125
-7.07,1590567136.84375
-8.07,1590567136.859375
-8.91,1590567136.875
-9.87,1590567136.890625
-11.17,1590567136.90625
-12.95,1590567136.921875
-15.23,1590567136.9375
-17.85,1590567136.953125
-20.5,1590567136.96875
-22.65,1590567136.984375
-23.71,1590567137.0
-23.2,1590567137.015625
-20.9,1590567137.03125
-17.02,1590567137.046875
-12.08,1590567137.0625
-6.78,1590567137.078125
-1.74,1590567137.09375
2.69,1590567137.109375
6.35,1590567137.125
9.29,1590567137.140625
11.63,1590567137.15625
13.44,1590567137.171875
14.84,1590567137.1875
15.9,1590567137.203125
16.71,1590567137.21875
17.34,1590567137.234375
17.81,1590567137.25
18.14,1590567137.265625
18.35,1590567137.28125
18.49,1590567137.296875
18.58,1590567137.3125
18.62,1590567137.328125
18.54,1590567137.34375
18.18,1590567137.359375
17.41,1590567137.375
16.22,1590567137.390625
14.7,1590567137.40625
13.03,1590567137.421875
11.38,1590567137.4375
9.86,1590567137.453125
8.46,1590567137.46875
7.13,1590567137.484375
5.82,1590567137.5
4.51,1590567137.515625
3.2,1590567137.53125
1.87,1590567137.546875
0.49,1590567137.5625
-0.95,1590567137.578125
-2.43,1590567137.59375
-3.84,1590567137.609375
-5.12,1590567137.625
-6.22,1590567137.640625
-7.22,1590567137.65625
-8.28,1590567137.671875
-9.63,1590567137.6875
-11.43,1590567137.703125
-13.71,1590567137.71875
-16.28,1590567137.734375
-18.7,1590567137.75
-20.4,1590567137.765625
-20.73,1590567137.78125
-19.23,1590567137.796875
-15.82,1590567137.8125
-10.87,1590567137.828125
-5.14,1590567137.84375
0.47,1590567137.859375
5.15,1590567137.875
8.52,1590567137.890625
10.61,1590567137.90625
11.77,1590567137.921875
12.46,1590567137.9375
12.99,1590567137.953125
13.48,1590567137.96875
13.87,1590567137.984375
14.01,1590567138.0
13.87,1590567138.015625
13.51,1590567138.03125
13.11,1590567138.046875
12.82,1590567138.0625
12.72,1590567138.078125
12.77,1590567138.09375
12.87,1590567138.109375
12.9,1590567138.125
12.78,1590567138.140625
12.5,1590567138.15625
12.08,1590567138.171875
11.56,1590567138.1875
10.98,1590567138.203125
10.36,1590567138.21875
9.66,1590567138.234375
8.83,1590567138.25
7.79,1590567138.265625
6.51,1590567138.28125
5.02,1590567138.296875
3.47,1590567138.3125
1.99,1590567138.328125
0.68,1590567138.34375
-0.5,1590567138.359375
-1.66,1590567138.375
-2.96,1590567138.390625
-4.44,1590567138.40625
-6.06,1590567138.421875
-7.72,1590567138.4375
-9.38,1590567138.453125
-11.14,1590567138.46875
-13.19,1590567138.484375
-15.57,1590567138.5
-18.04,1590567138.515625
-19.98,1590567138.53125
-20.6,1590567138.546875
-19.28,1590567138.5625
-15.85,1590567138.578125
-10.74,1590567138.59375
-4.8,1590567138.609375
1.02,1590567138.625
6.02,1590567138.640625
9.92,1590567138.65625
12.79,1590567138.671875
14.84,1590567138.6875
16.26,1590567138.703125
17.07,1590567138.71875
17.24,1590567138.734375
16.79,1590567138.75
15.91,1590567138.765625
14.87,1590567138.78125
13.97,1590567138.796875
13.35,1590567138.8125
13.02,1590567138.828125
12.85,1590567138.84375
12.72,1590567138.859375
12.54,1590567138.875
12.27,1590567138.890625
11.9,1590567138.90625
11.41,1590567138.921875
10.8,1590567138.9375
10.05,1590567138.953125
9.21,1590567138.96875
8.39,1590567138.984375
7.66,1590567139.0
7.0,1590567139.015625
6.34,1590567139.03125
5.5,1590567139.046875
4.39,1590567139.0625
3.0,1590567139.078125
1.44,1590567139.09375
-0.11,1590567139.109375
-1.51,1590567139.125
-2.72,1590567139.140625
-3.82,1590567139.15625
-4.95,1590567139.171875
-6.25,1590567139.1875
-7.79,1590567139.203125
-9.58,1590567139.21875
-11.62,1590567139.234375
-13.89,1590567139.25
-16.32,1590567139.265625
-18.71,1590567139.28125
-20.68,1590567139.296875
-21.67,1590567139.3125
-21.15,1590567139.328125
-18.81,1590567139.34375
-14.81,1590567139.359375
-9.74,1590567139.375
-4.49,1590567139.390625
0.09,1590567139.40625
3.43,1590567139.421875
5.46,1590567139.4375
6.41,1590567139.453125
6.72,1590567139.46875
6.75,1590567139.484375
6.67,1590567139.5
6.49,1590567139.515625
6.17,1590567139.53125
5.75,1590567139.546875
5.37,1590567139.5625
5.22,1590567139.578125
5.43,1590567139.59375
5.97,1590567139.609375
6.65,1590567139.625
7.15,1590567139.640625
7.21,1590567139.65625
6.72,1590567139.671875
5.79,1590567139.6875
4.71,1590567139.703125
3.76,1590567139.71875
3.07,1590567139.734375
2.61,1590567139.75
2.12,1590567139.765625
1.29,1590567139.78125
-0.09,1590567139.796875
-2.04,1590567139.8125
-4.38,1590567139.828125
-6.83,1590567139.84375
-9.07,1590567139.859375
-10.95,1590567139.875
-12.43,1590567139.890625
-13.71,1590567139.90625
-15.05,1590567139.921875
-16.76,1590567139.9375
-19.05,1590567139.953125
-21.99,1590567139.96875
-25.35,1590567139.984375
-28.66,1590567140.0
-31.27,1590567140.015625
-32.48,1590567140.03125
-31.79,1590567140.046875
-29.06,1590567140.0625
-24.55,1590567140.078125
-18.88,1590567140.09375
-12.86,1590567140.109375
-7.23,1590567140.125
-2.51,1590567140.140625
1.07,1590567140.15625
3.56,1590567140.171875
5.16,1590567140.1875
6.09,1590567140.203125
6.53,1590567140.21875
