PPG GREEN,time
1992854.0,1590567062.091
1991381.0,1590567062.13
1990560.0,1590567062.17
1990604.0,1590567062.211
1991134.0,1590567062.251
1991797.0,1590567062.29
1992091.0,1590567062.331
1993584.0,1590567062.37
1992611.0,1590567062.41
1993965.0,1590567062.452
1996415.0,1590567062.49
1999119.0,1590567062.53
2001296.0,1590567062.571
2003350.0,1590567062.61
2005083.0,1590567062.651
2004317.0,1590567062.691
2004117.0,1590567062.73
2005538.0,1590567062.77
2006370.0,1590567062.812
2005251.0,1590567062.851
2003805.0,1590567062.891
2001273.0,1590567062.932
1997599.0,1590567062.971
1994195.0,1590567063.011
1991228.0,1590567063.053
1988668.0,1590567063.091
1986959.0,1590567063.131
1985997.0,1590567063.172
1985091.0,1590567063.211
1984172.0,1590567063.252
1983367.0,1590567063.292
1983390.0,1590567063.331
1982991.0,1590567063.371
1982438.0,1590567063.412
1983059.0,1590567063.452
1982705.0,1590567063.491
1983202.0,1590567063.532
1983585.0,1590567063.571
1983787.0,1590567063.611
1984059.0,1590567063.653
1984437.0,1590567063.691
1985067.0,1590567063.731
1985534.0,1590567063.773
1986296.0,1590567063.812
1985736.0,1590567063.853
1983658.0,1590567063.893
1981066.0,1590567063.932
1978884.0,1590567063.972
1976919.0,1590567064.013
1975416.0,1590567064.053
1974741.0,1590567064.092
1973682.0,1590567064.133
1972821.0,1590567064.172
1972073.0,1590567064.212
1971571.0,1590567064.254
1971184.0,1590567064.292
1971094.0,1590567064.332
1971394.0,1590567064.373
1971534.0,1590567064.412
1972229.0,1590567064.454
1972314.0,1590567064.494
1972800.0,1590567064.533
1973272.0,1590567064.573
1973825.0,1590567064.614
1974651.0,1590567064.654
1975693.0,1590567064.693
1977004.0,1590567064.734
1978981.0,1590567064.773
1979564.0,1590567064.813
1979814.0,1590567064.855
1980932.0,1590567064.893
1980390.0,1590567064.933
1979825.0,1590567064.974
1980531.0,1590567065.013
1980578.0,1590567065.054
1980955.0,1590567065.094
1981981.0,1590567065.133
1983658.0,1590567065.173
1986432.0,1590567065.215
1986769.0,1590567065.254
1985608.0,1590567065.294
1984926.0,1590567065.335
1983941.0,1590567065.374
1982725.0,1590567065.414
1984218.0,1590567065.456
1985299.0,1590567065.494
1986261.0,1590567065.534
1986509.0,1590567065.575
1987240.0,1590567065.614
1987022.0,1590567065.655
1985275.0,1590567065.695
1982977.0,1590567065.734
1981183.0,1590567065.774
1979109.0,1590567065.815
1978214.0,1590567065.855
1977151.0,1590567065.894
1976510.0,1590567065.935
1975774.0,1590567065.975
1974860.0,1590567066.016
1972966.0,1590567066.058
1971369.0,1590567066.097
1969660.0,1590567066.137
1967422.0,1590567066.178
1965929.0,1590567066.217
1964204.0,1590567066.258
1962411.0,1590567066.299
1961813.0,1590567066.338
1960754.0,1590567066.378
1959728.0,1590567066.42
1959040.0,1590567066.459
1958021.0,1590567066.499
1956197.0,1590567066.538
1953194.0,1590567066.577
1947893.0,1590567066.618
1941831.0,1590567066.66
1936123.0,1590567066.698
1931144.0,1590567066.738
1926936.0,1590567066.78
1923107.0,1590567066.819
1919348.0,1590567066.86
1914874.0,1590567066.9
1909873.0,1590567066.937
1905912.0,1590567066.977
1902779.0,1590567067.019
1900284.0,1590567067.059
1898243.0,1590567067.098
1896030.0,1590567067.14
1894959.0,1590567067.179
1893340.0,1590567067.219
1892362.0,1590567067.261
1891565.0,1590567067.298
1890749.0,1590567067.338
1887977.0,1590567067.379
1883416.0,1590567067.418
1878894.0,1590567067.459
1875058.0,1590567067.5
1871727.0,1590567067.539
1869493.0,1590567067.579
1867536.0,1590567067.621
1865436.0,1590567067.66
1863268.0,1590567067.7
1861179.0,1590567067.739
1859131.0,1590567067.778
1857803.0,1590567067.818
1856998.0,1590567067.861
1856108.0,1590567067.899
1855081.0,1590567067.939
1854728.0,1590567067.981
1854655.0,1590567068.02
1854298.0,1590567068.06
1851153.0,1590567068.101
1846703.0,1590567068.137
1842329.0,1590567068.177
1838668.0,1590567068.218
1835280.0,1590567068.258
1832577.0,1590567068.298
1830966.0,1590567068.34
1829009.0,1590567068.378
1826914.0,1590567068.419
1824943.0,1590567068.461
1823559.0,1590567068.499
1822539.0,1590567068.539
1821837.0,1590567068.581
1821554.0,1590567068.62
1821186.0,1590567068.661
1821009.0,1590567068.702
1820932.0,1590567068.741
1821078.0,1590567068.779
1821109.0,1590567068.82
1818205.0,1590567068.86
1813401.0,1590567068.899
1808417.0,1590567068.941
1804105.0,1590567068.98
1799840.0,1590567069.02
1796089.0,1590567069.062
1793358.0,1590567069.101
1791489.0,1590567069.139
1789792.0,1590567069.18
1788230.0,1590567069.22
1786908.0,1590567069.26
1786275.0,1590567069.301
1786049.0,1590567069.34
1785851.0,1590567069.38
1785983.0,1590567069.422
1786333.0,1590567069.461
1786846.0,1590567069.501
1787230.0,1590567069.543
1787863.0,1590567069.579
1785906.0,1590567069.62
1781704.0,1590567069.662
1777405.0,1590567069.7
1773847.0,1590567069.74
1770373.0,1590567069.782
1767394.0,1590567069.821
1765722.0,1590567069.862
1764586.0,1590567069.902
1763371.0,1590567069.941
1762410.0,1590567069.982
1761718.0,1590567070.021
1761570.0,1590567070.061
1761836.0,1590567070.1
1762111.0,1590567070.142
1762661.0,1590567070.181
1763423.0,1590567070.221
1764247.0,1590567070.263
1765129.0,1590567070.301
1766426.0,1590567070.342
1767603.0,1590567070.383
1769336.0,1590567070.42
1769868.0,1590567070.461
1767929.0,1590567070.502
1765086.0,1590567070.541
1763246.0,1590567070.581
1761982.0,1590567070.622
1761321.0,1590567070.664
1761432.0,1590567070.699
1761929.0,1590567070.74
1762354.0,1590567070.777
1762698.0,1590567070.817
1763519.0,1590567070.859
1764625.0,1590567070.897
1765883.0,1590567070.937
1767259.0,1590567070.978
1768757.0,1590567071.017
1770543.0,1590567071.058
1772734.0,1590567071.098
1774496.0,1590567071.137
1776437.0,1590567071.177
1778611.0,1590567071.218
1780673.0,1590567071.258
1781230.0,1590567071.34
1779405.0,1590567071.382
1778017.0,1590567071.421
1776534.0,1590567071.461
1775372.0,1590567071.502
1774314.0,1590567071.541
1774302.0,1590567071.581
1774525.0,1590567071.622
1774985.0,1590567071.661
1775511.0,1590567071.702
1776232.0,1590567071.742
1777464.0,1590567071.781
1778912.0,1590567071.822
1780591.0,1590567071.864
1782569.0,1590567071.904
1784621.0,1590567071.943
1786801.0,1590567071.985
1789268.0,1590567072.024
1791509.0,1590567072.064
1794094.0,1590567072.106
1796360.0,1590567072.145
1798906.0,1590567072.185
1800615.0,1590567072.226
1800002.0,1590567072.266
1798627.0,1590567072.306
1797290.0,1590567072.347
1796886.0,1590567072.386
1796349.0,1590567072.426
1796545.0,1590567072.466
1797300.0,1590567072.505
1798566.0,1590567072.545
1799525.0,1590567072.586
1800701.0,1590567072.625
1802268.0,1590567072.665
1803698.0,1590567072.708
1805396.0,1590567072.746
1807389.0,1590567072.786
1809243.0,1590567072.828
1811259.0,1590567072.866
1813398.0,1590567072.907
1815683.0,1590567072.946
1819416.0,1590567073.021
1817313.0,1590567072.981
1821215.0,1590567073.062
1824917.0,1590567073.141
1822998.0,1590567073.102
1825564.0,1590567073.182
1824350.0,1590567073.221
1823087.0,1590567073.261
1822231.0,1590567073.303
1821710.0,1590567073.342
1821470.0,1590567073.382
1821916.0,1590567073.423
1822637.0,1590567073.462
1823515.0,1590567073.502
1824547.0,1590567073.543
1825603.0,1590567073.582
1827070.0,1590567073.622
1828840.0,1590567073.664
1830796.0,1590567073.704
1832873.0,1590567073.743
1834883.0,1590567073.785
1837074.0,1590567073.824
1839211.0,1590567073.865
1841502.0,1590567073.907
1843351.0,1590567073.945
1845502.0,1590567073.985
1847554.0,1590567074.027
1849746.0,1590567074.066
1851577.0,1590567074.107
1851446.0,1590567074.148
1850601.0,1590567074.187
1850274.0,1590567074.227
1850397.0,1590567074.268
1850867.0,1590567074.308
1851477.0,1590567074.347
1852383.0,1590567074.389
1853400.0,1590567074.426
1854390.0,1590567074.466
1855661.0,1590567074.508
1856875.0,1590567074.546
1858369.0,1590567074.586
1859941.0,1590567074.628
1861917.0,1590567074.667
1863744.0,1590567074.708
1865300.0,1590567074.749
1867301.0,1590567074.788
1869007.0,1590567074.828
1870876.0,1590567074.869
1872846.0,1590567074.907
1874845.0,1590567074.946
1876878.0,1590567074.988
1878393.0,1590567075.027
1878113.0,1590567075.067
1877864.0,1590567075.109
1877834.0,1590567075.148
1878300.0,1590567075.188
1878501.0,1590567075.229
1879588.0,1590567075.268
1880716.0,1590567075.309
1881715.0,1590567075.348
1882552.0,1590567075.387
1883317.0,1590567075.427
1884733.0,1590567075.469
1885946.0,1590567075.508
1887248.0,1590567075.548
1888691.0,1590567075.589
1890292.0,1590567075.628
1892114.0,1590567075.668
1893613.0,1590567075.71
1895291.0,1590567075.749
1897145.0,1590567075.789
1899020.0,1590567075.829
1900917.0,1590567075.865
1902387.0,1590567075.906
1902791.0,1590567075.947
1902046.0,1590567075.986
1901750.0,1590567076.027
1901605.0,1590567076.068
1901875.0,1590567076.108
1902028.0,1590567076.148
1902554.0,1590567076.189
1903320.0,1590567076.228
1904012.0,1590567076.268
1904577.0,1590567076.31
1906264.0,1590567076.389
1907181.0,1590567076.43
1905368.0,1590567076.349
1908288.0,1590567076.469
1910914.0,1590567076.549
1912272.0,1590567076.588
1913350.0,1590567076.628
1914728.0,1590567076.67
1916138.0,1590567076.709
1917367.0,1590567076.749
1918629.0,1590567076.79
1918068.0,1590567076.829
1909608.0,1590567076.51
1916550.0,1590567076.869
1915158.0,1590567076.911
1914092.0,1590567076.95
1912980.0,1590567077.029
1913316.0,1590567077.068
1913378.0,1590567076.988
1913942.0,1590567077.109
1914434.0,1590567077.15
1914971.0,1590567077.189
1915889.0,1590567077.229
1916557.0,1590567077.271
1917332.0,1590567077.31
1918100.0,1590567077.35
1919855.0,1590567077.428
1919022.0,1590567077.391
1921694.0,1590567077.51
1920670.0,1590567077.468
1922615.0,1590567077.549
1923617.0,1590567077.589
1924527.0,1590567077.63
1925615.0,1590567077.669
1924869.0,1590567077.71
1923532.0,1590567077.751
1922416.0,1590567077.79
1921735.0,1590567077.83
1921310.0,1590567077.872
1921003.0,1590567077.909
1921539.0,1590567077.949
1921445.0,1590567077.99
1921535.0,1590567078.029
1921496.0,1590567078.069
1921864.0,1590567078.112
1922300.0,1590567078.15
1922759.0,1590567078.19
1923575.0,1590567078.232
1924143.0,1590567078.271
1924837.0,1590567078.311
1925795.0,1590567078.35
1926692.0,1590567078.393
1928327.0,1590567078.47
1929472.0,1590567078.509
1930321.0,1590567078.549
1929855.0,1590567078.59
1928635.0,1590567078.629
1926468.0,1590567078.712
1925938.0,1590567078.75
1925846.0,1590567078.79
1927396.0,1590567078.67
1927420.0,1590567078.428
1925810.0,1590567078.832
1925663.0,1590567078.912
1925772.0,1590567078.871
1925741.0,1590567078.952
1925779.0,1590567078.991
1926339.0,1590567079.029
1926690.0,1590567079.071
1927188.0,1590567079.11
1927852.0,1590567079.15
1928687.0,1590567079.192
1929340.0,1590567079.231
1931296.0,1590567079.313
1932525.0,1590567079.351
1930234.0,1590567079.271
1933640.0,1590567079.391
1934731.0,1590567079.433
1935258.0,1590567079.47
1932733.0,1590567079.551
1934006.0,1590567079.511
1930334.0,1590567079.712
1931760.0,1590567079.59
1930165.0,1590567079.793
1930298.0,1590567079.832
1930240.0,1590567079.872
1930242.0,1590567079.751
1930389.0,1590567079.672
1930822.0,1590567079.631
1930117.0,1590567079.912
1930561.0,1590567079.95
1930801.0,1590567079.99
1931377.0,1590567080.032
1931841.0,1590567080.071
1933222.0,1590567080.153
1932371.0,1590567080.112
1934005.0,1590567080.192
1934811.0,1590567080.232
1936780.0,1590567080.313
1935666.0,1590567080.273
1936707.0,1590567080.392
1935172.0,1590567080.431
1937297.0,1590567080.35
1932959.0,1590567080.513
1933921.0,1590567080.471
1932226.0,1590567080.551
1931726.0,1590567080.592
1931634.0,1590567080.633
1931306.0,1590567080.672
1930809.0,1590567080.713
1930227.0,1590567080.754
1929640.0,1590567080.793
1928451.0,1590567080.872
1928006.0,1590567080.912
1929156.0,1590567080.831
1927668.0,1590567080.951
1927729.0,1590567080.992
1927711.0,1590567081.031
1928060.0,1590567081.072
1928738.0,1590567081.114
1929597.0,1590567081.152
1930432.0,1590567081.192
1930910.0,1590567081.234
1930824.0,1590567081.273
1928902.0,1590567081.314
1926439.0,1590567081.352
1924379.0,1590567081.391
1922496.0,1590567081.432
1920331.0,1590567081.513
1921123.0,1590567081.473
1918255.0,1590567081.633
1919793.0,1590567081.552
1919276.0,1590567081.594
1916251.0,1590567081.715
1916966.0,1590567081.673
1915923.0,1590567081.753
1915561.0,1590567081.793
1915481.0,1590567081.833
1915285.0,1590567081.913
1915279.0,1590567081.872
1915250.0,1590567081.953
1915393.0,1590567081.992
1915979.0,1590567082.033
1916174.0,1590567082.074
1917738.0,1590567082.153
1915994.0,1590567082.272
1918109.0,1590567082.195
1917112.0,1590567082.232
1917066.0,1590567082.114
1914162.0,1590567082.352
1915070.0,1590567082.314
1913680.0,1590567082.393
1913558.0,1590567082.434
1913709.0,1590567082.473
1913656.0,1590567082.514
1913600.0,1590567082.555
1914046.0,1590567082.594
1914451.0,1590567082.634
1915050.0,1590567082.675
1915711.0,1590567082.713
1916395.0,1590567082.752
1917217.0,1590567082.794
1918149.0,1590567082.833
1919022.0,1590567082.873
1920150.0,1590567082.915
1921397.0,1590567082.953
1923594.0,1590567083.035
1922469.0,1590567082.994
1923768.0,1590567083.074
1923066.0,1590567083.115
1921649.0,1590567083.156
1920848.0,1590567083.193
1920228.0,1590567083.233
1919841.0,1590567083.274
1919826.0,1590567083.314
1919751.0,1590567083.354
1919469.0,1590567083.395
1919534.0,1590567083.434
1919655.0,1590567083.474
1920078.0,1590567083.516
1920527.0,1590567083.554
1921305.0,1590567083.594
1921993.0,1590567083.635
1922649.0,1590567083.674
1923534.0,1590567083.715
1924613.0,1590567083.755
1925458.0,1590567083.794
1926325.0,1590567083.834
1925928.0,1590567083.875
1924423.0,1590567083.915
1923369.0,1590567083.954
1922098.0,1590567083.995
1920783.0,1590567084.034
1920241.0,1590567084.075
1919754.0,1590567084.116
1919427.0,1590567084.155
1918973.0,1590567084.195
1918438.0,1590567084.236
1918170.0,1590567084.275
1918396.0,1590567084.315
1918506.0,1590567084.356
1918613.0,1590567084.395
1918767.0,1590567084.435
1919351.0,1590567084.476
1919489.0,1590567084.516
1919867.0,1590567084.555
1920484.0,1590567084.596
1920788.0,1590567084.635
1921366.0,1590567084.675
1920907.0,1590567084.717
1918958.0,1590567084.755
1916504.0,1590567084.795
1914518.0,1590567084.836
1912137.0,1590567084.875
1910133.0,1590567084.916
1908610.0,1590567084.957
1907285.0,1590567084.996
1906141.0,1590567085.036
1905060.0,1590567085.077
1904013.0,1590567085.116
1903446.0,1590567085.156
1903063.0,1590567085.197
1902621.0,1590567085.236
1902673.0,1590567085.276
1902838.0,1590567085.318
1903075.0,1590567085.356
1903290.0,1590567085.396
1903750.0,1590567085.437
1904192.0,1590567085.476
1904744.0,1590567085.517
1905509.0,1590567085.557
1905631.0,1590567085.596
1904511.0,1590567085.636
1902266.0,1590567085.677
1900353.0,1590567085.717
1898484.0,1590567085.756
1896194.0,1590567085.797
1894743.0,1590567085.836
1893511.0,1590567085.876
1892426.0,1590567085.918
1891280.0,1590567085.956
1890112.0,1590567085.996
1889391.0,1590567086.038
1888780.0,1590567086.077
1888670.0,1590567086.117
1888354.0,1590567086.158
1887978.0,1590567086.197
1888009.0,1590567086.237
1888024.0,1590567086.278
1887789.0,1590567086.318
1887700.0,1590567086.357
1888061.0,1590567086.398
1888068.0,1590567086.437
1888510.0,1590567086.478
1887941.0,1590567086.52
1886230.0,1590567086.556
1883867.0,1590567086.596
1881711.0,1590567086.638
1879896.0,1590567086.677
1878535.0,1590567086.718
1877374.0,1590567086.759
1876831.0,1590567086.798
1876286.0,1590567086.838
1875540.0,1590567086.879
1875299.0,1590567086.918
1875336.0,1590567086.958
1875808.0,1590567086.999
1876256.0,1590567087.037
1877122.0,1590567087.078
1877881.0,1590567087.12
1878556.0,1590567087.158
1879363.0,1590567087.199
1880171.0,1590567087.238
1880884.0,1590567087.277
1881921.0,1590567087.318
1882875.0,1590567087.359
1883640.0,1590567087.398
1883252.0,1590567087.438
1881552.0,1590567087.48
1879885.0,1590567087.519
1878306.0,1590567087.559
1876734.0,1590567087.598
1875413.0,1590567087.637
1874458.0,1590567087.678
1873909.0,1590567087.72
1873304.0,1590567087.758
1872857.0,1590567087.798
1872704.0,1590567087.84
1872549.0,1590567087.879
1872818.0,1590567087.92
1873177.0,1590567087.96
1873696.0,1590567087.997
1874577.0,1590567088.038
1875100.0,1590567088.079
1875902.0,1590567088.118
1876825.0,1590567088.158
1877669.0,1590567088.199
1878744.0,1590567088.237
1879821.0,1590567088.278
1880777.0,1590567088.32
1881681.0,1590567088.358
1880783.0,1590567088.398
1879304.0,1590567088.44
1877933.0,1590567088.479
1876607.0,1590567088.52
1875386.0,1590567088.561
1874566.0,1590567088.6
1874171.0,1590567088.639
1873960.0,1590567088.677
1873732.0,1590567088.717
1873564.0,1590567088.757
1873522.0,1590567088.798
1873766.0,1590567088.837
1874199.0,1590567088.878
1874748.0,1590567088.92
1875560.0,1590567088.958
1876383.0,1590567088.998
1877193.0,1590567089.04
1878162.0,1590567089.079
1879301.0,1590567089.12
1880497.0,1590567089.161
1881593.0,1590567089.2
1883190.0,1590567089.24
1884411.0,1590567089.281
1884192.0,1590567089.32
1883387.0,1590567089.36
1882631.0,1590567089.401
1881810.0,1590567089.438
1881160.0,1590567089.479
1880945.0,1590567089.521
1881220.0,1590567089.559
1881341.0,1590567089.599
1881401.0,1590567089.641
1881560.0,1590567089.68
1881795.0,1590567089.721
1882410.0,1590567089.762
1882855.0,1590567089.801
1883620.0,1590567089.839
1884542.0,1590567089.88
1885591.0,1590567089.919
1886626.0,1590567089.959
1887542.0,1590567090.0
1888676.0,1590567090.039
1889841.0,1590567090.079
1891233.0,1590567090.121
1891989.0,1590567090.159
1891316.0,1590567090.2
1890582.0,1590567090.241
1890060.0,1590567090.28
1889694.0,1590567090.321
1889414.0,1590567090.362
1889700.0,1590567090.401
1889674.0,1590567090.441
1889804.0,1590567090.481
1889893.0,1590567090.52
1890062.0,1590567090.56
1890584.0,1590567090.601
1891216.0,1590567090.64
1891709.0,1590567090.681
1892436.0,1590567090.723
1894111.0,1590567090.801
1893420.0,1590567090.761
1896070.0,1590567090.88
1895059.0,1590567090.843
1897286.0,1590567090.92
1898078.0,1590567090.961
1898488.0,1590567091.0
1897414.0,1590567091.04
1895401.0,1590567091.122
1896431.0,1590567091.082
1894282.0,1590567091.161
1892718.0,1590567091.239
1892544.0,1590567091.279
1893248.0,1590567091.201
1892232.0,1590567091.321
1892337.0,1590567091.36
1892398.0,1590567091.441
1892171.0,1590567091.4
1893775.0,1590567091.521
1892951.0,1590567091.48
1894904.0,1590567091.562
1895806.0,1590567091.601
1897140.0,1590567091.641
1898265.0,1590567091.682
1899350.0,1590567091.722
1901406.0,1590567091.803
1900366.0,1590567091.761
1902767.0,1590567091.842
1902698.0,1590567091.882
1901414.0,1590567091.924
1900074.0,1590567091.96
1899291.0,1590567092.001
1898350.0,1590567092.042
1897774.0,1590567092.072
1897941.0,1590567092.113
1898158.0,1590567092.154
1898521.0,1590567092.193
1898667.0,1590567092.233
1898943.0,1590567092.274
1899349.0,1590567092.313
1899773.0,1590567092.353
1900458.0,1590567092.394
1900970.0,1590567092.433
1901723.0,1590567092.473
1902244.0,1590567092.515
1902964.0,1590567092.553
1903587.0,1590567092.593
1904210.0,1590567092.634
1905049.0,1590567092.673
1906037.0,1590567092.714
1906531.0,1590567092.754
1905560.0,1590567092.793
1904059.0,1590567092.833
1902749.0,1590567092.874
1901611.0,1590567092.914
1900473.0,1590567092.953
1900053.0,1590567092.994
1899836.0,1590567093.033
1899425.0,1590567093.073
1899296.0,1590567093.115
1899140.0,1590567093.154
1899294.0,1590567093.194
1899708.0,1590567093.235
1900104.0,1590567093.274
1900594.0,1590567093.314
1901296.0,1590567093.355
1902108.0,1590567093.394
1902814.0,1590567093.434
1903343.0,1590567093.475
1903886.0,1590567093.515
1904290.0,1590567093.554
1904761.0,1590567093.595
1905116.0,1590567093.634
1905484.0,1590567093.674
1905397.0,1590567093.716
1904218.0,1590567093.749
1902841.0,1590567093.789
1901841.0,1590567093.831
1901174.0,1590567093.864
1901341.0,1590567093.902
1901289.0,1590567093.942
1901413.0,1590567093.981
1901717.0,1590567094.022
1901980.0,1590567094.063
1902604.0,1590567094.103
1903389.0,1590567094.143
1904516.0,1590567094.184
1905707.0,1590567094.223
1907077.0,1590567094.261
1908334.0,1590567094.304
1909543.0,1590567094.341
1911072.0,1590567094.381
1912479.0,1590567094.423
1913974.0,1590567094.462
1914477.0,1590567094.543
1914661.0,1590567094.503
1914313.0,1590567094.583
1914466.0,1590567094.623
1914383.0,1590567094.664
1914965.0,1590567094.704
1915735.0,1590567094.742
1916075.0,1590567094.783
1916399.0,1590567094.822
1916817.0,1590567094.862
1917360.0,1590567094.904
1918215.0,1590567094.943
1919003.0,1590567094.983
1920012.0,1590567095.024
1920711.0,1590567095.064
1921367.0,1590567095.105
1922009.0,1590567095.143
1922928.0,1590567095.182
1923005.0,1590567095.223
1922431.0,1590567095.264
1921144.0,1590567095.304
1919891.0,1590567095.335
1918909.0,1590567095.376
1918067.0,1590567095.415
1917719.0,1590567095.455
1917716.0,1590567095.497
1917379.0,1590567095.535
1917355.0,1590567095.575
1917167.0,1590567095.616
1916927.0,1590567095.655
1916337.0,1590567095.696
1915910.0,1590567095.736
1915737.0,1590567095.775
1915501.0,1590567095.816
1915209.0,1590567095.857
1914904.0,1590567095.897
1914707.0,1590567095.936
1914516.0,1590567095.976
1914253.0,1590567096.015
1912960.0,1590567096.055
1911246.0,1590567096.096
1909878.0,1590567096.135
1908808.0,1590567096.175
1907809.0,1590567096.216
1907433.0,1590567096.256
1907350.0,1590567096.297
1907328.0,1590567096.335
1907604.0,1590567096.375
1908391.0,1590567096.415
1909853.0,1590567096.456
1911675.0,1590567096.496
1913374.0,1590567096.535
1914937.0,1590567096.577
1916725.0,1590567096.616
1918258.0,1590567096.656
1920078.0,1590567096.697
1921936.0,1590567096.736
1923321.0,1590567096.776
1925205.0,1590567096.817
1926527.0,1590567096.857
1927842.0,1590567096.898
1928881.0,1590567096.938
1929066.0,1590567096.977
1927732.0,1590567097.015
1926457.0,1590567097.057
1925313.0,1590567097.097
1924211.0,1590567097.136
1923048.0,1590567097.178
1922339.0,1590567097.217
1922005.0,1590567097.257
1921721.0,1590567097.299
1921737.0,1590567097.338
1921752.0,1590567097.376
1921884.0,1590567097.417
1922554.0,1590567097.456
1923150.0,1590567097.497
1923593.0,1590567097.538
1924714.0,1590567097.577
1925912.0,1590567097.618
1926613.0,1590567097.657
1927978.0,1590567097.697
1928859.0,1590567097.736
1930069.0,1590567097.778
1931356.0,1590567097.817
1932553.0,1590567097.857
1933116.0,1590567097.899
1932205.0,1590567097.938
1931243.0,1590567097.978
1930315.0,1590567098.017
1929622.0,1590567098.056
1929060.0,1590567098.097
1928603.0,1590567098.138
1928928.0,1590567098.177
1928472.0,1590567098.218
1927685.0,1590567098.259
1927309.0,1590567098.299
1926532.0,1590567098.338
1925895.0,1590567098.378
1925159.0,1590567098.417
1925036.0,1590567098.457
1924906.0,1590567098.499
1925249.0,1590567098.538
1925363.0,1590567098.578
1925720.0,1590567098.619
1926053.0,1590567098.658
1926310.0,1590567098.699
1926775.0,1590567098.738
1927150.0,1590567098.777
1926915.0,1590567098.817
1925817.0,1590567098.859
1924521.0,1590567098.898
1923711.0,1590567098.938
1922925.0,1590567098.979
1922197.0,1590567099.018
1922162.0,1590567099.059
1922202.0,1590567099.101
1922034.0,1590567099.137
1921893.0,1590567099.177
1921996.0,1590567099.219
1922440.0,1590567099.258
1923202.0,1590567099.299
1923615.0,1590567099.339
1924118.0,1590567099.379
1924924.0,1590567099.419
1925797.0,1590567099.46
1926808.0,1590567099.498
1927689.0,1590567099.538
1928500.0,1590567099.579
1929471.0,1590567099.618
1930220.0,1590567099.658
1931269.0,1590567099.7
1931532.0,1590567099.739
1930721.0,1590567099.779
1930093.0,1590567099.82
1929655.0,1590567099.858
1929411.0,1590567099.899
1929423.0,1590567099.939
1929883.0,1590567099.978
1930134.0,1590567100.019
1930853.0,1590567100.06
1931488.0,1590567100.1
1932322.0,1590567100.14
1933167.0,1590567100.179
1934214.0,1590567100.218
1935504.0,1590567100.258
1937020.0,1590567100.3
1938788.0,1590567100.339
1940518.0,1590567100.379
1942558.0,1590567100.421
1944514.0,1590567100.46
1946652.0,1590567100.501
1948832.0,1590567100.539
1950866.0,1590567100.578
1953325.0,1590567100.619
1954432.0,1590567100.66
1954826.0,1590567100.7
1955171.0,1590567100.74
1955898.0,1590567100.781
1956615.0,1590567100.82
1957359.0,1590567100.86
1958418.0,1590567100.9
1959506.0,1590567100.939
1960520.0,1590567100.979
1961686.0,1590567101.02
1963066.0,1590567101.06
1964142.0,1590567101.1
1965214.0,1590567101.141
1966411.0,1590567101.18
1967932.0,1590567101.219
1968873.0,1590567101.26
1970401.0,1590567101.3
1971955.0,1590567101.339
1973500.0,1590567101.381
1974955.0,1590567101.42
1976409.0,1590567101.458
1977784.0,1590567101.501
1978558.0,1590567101.539
1978447.0,1590567101.579
1977954.0,1590567101.62
1977657.0,1590567101.659
1977235.0,1590567101.7
1977148.0,1590567101.741
1977612.0,1590567101.78
1977930.0,1590567101.82
1977498.0,1590567101.862
1977673.0,1590567101.902
1978490.0,1590567101.941
1978978.0,1590567101.98
1979934.0,1590567102.02
1981323.0,1590567102.06
1982480.0,1590567102.102
1983813.0,1590567102.141
1984988.0,1590567102.181
1986182.0,1590567102.222
1986734.0,1590567102.261
1986341.0,1590567102.302
1986337.0,1590567102.341
1986412.0,1590567102.38
1986628.0,1590567102.42
1987191.0,1590567102.461
1987370.0,1590567102.501
1987840.0,1590567102.541
1988270.0,1590567102.582
1988932.0,1590567102.621
1989325.0,1590567102.662
1989917.0,1590567102.702
1990635.0,1590567102.74
1991092.0,1590567102.78
1991765.0,1590567102.822
1992581.0,1590567102.861
1993343.0,1590567102.902
1994191.0,1590567102.942
1994286.0,1590567102.982
1993335.0,1590567103.022
1992636.0,1590567103.061
1991776.0,1590567103.101
1991187.0,1590567103.141
1990659.0,1590567103.182
1990621.0,1590567103.221
1991242.0,1590567103.262
1995154.0,1590567103.304
1998381.0,1590567103.342
2000474.0,1590567103.382
2002759.0,1590567103.421
2005224.0,1590567103.461
2007183.0,1590567103.502
2009079.0,1590567103.542
2011514.0,1590567103.581
2014428.0,1590567103.622
2015690.0,1590567103.663
2015864.0,1590567103.703
2014280.0,1590567103.742
2012620.0,1590567103.782
2012082.0,1590567103.821
2011825.0,1590567103.861
2009531.0,1590567103.903
2010383.0,1590567103.942
2012301.0,1590567103.984
2013857.0,1590567104.021
2014640.0,1590567104.061
2019755.0,1590567104.181
2021011.0,1590567104.222
2016279.0,1590567104.102
2024694.0,1590567104.263
2028739.0,1590567104.303
2033237.0,1590567104.342
2017480.0,1590567104.142
2037591.0,1590567104.384
2041540.0,1590567104.423
2046339.0,1590567104.461
2050462.0,1590567104.503
2053553.0,1590567104.542
2056930.0,1590567104.623
2055289.0,1590567104.582
2057902.0,1590567104.663
2056336.0,1590567104.744
2055070.0,1590567104.783
2057317.0,1590567104.704
2055650.0,1590567104.822
2059483.0,1590567104.863
2064291.0,1590567104.903
2070470.0,1590567104.942
2077050.0,1590567104.984
2088781.0,1590567105.063
2083549.0,1590567105.023
2092656.0,1590567105.105
2090314.0,1590567105.182
2092594.0,1590567105.144
2087814.0,1590567105.223
2082944.0,1590567105.344
2086105.0,1590567105.262
2081015.0,1590567105.383
2079394.0,1590567105.423
2084724.0,1590567105.303
2079710.0,1590567105.465
2080407.0,1590567105.503
2082325.0,1590567105.584
2081114.0,1590567105.542
2087644.0,1590567105.663
2085041.0,1590567105.623
2089925.0,1590567105.705
2091789.0,1590567105.744
2094352.0,1590567105.784
2097026.0,1590567105.825
2098833.0,1590567105.862
2100373.0,1590567105.944
2099522.0,1590567105.903
2101475.0,1590567105.983
2105403.0,1590567106.023
2109450.0,1590567106.065
2113193.0,1590567106.105
2116330.0,1590567106.144
2118090.0,1590567106.184
2119735.0,1590567106.223
2121239.0,1590567106.263
2122800.0,1590567106.305
2124719.0,1590567106.384
2123954.0,1590567106.344
2125549.0,1590567106.425
2126505.0,1590567106.464
2127690.0,1590567106.505
2129662.0,1590567106.544
2131141.0,1590567106.583
2132794.0,1590567106.623
2134428.0,1590567106.664
2136218.0,1590567106.704
2136757.0,1590567106.785
2136125.0,1590567106.824
2135643.0,1590567106.865
2135673.0,1590567106.907
2136784.0,1590567106.744
2136682.0,1590567106.945
2137062.0,1590567106.983
2138055.0,1590567107.024
2138819.0,1590567107.064
2139577.0,1590567107.105
2139995.0,1590567107.145
2140382.0,1590567107.185
2140834.0,1590567107.225
2141105.0,1590567107.266
2141422.0,1590567107.304
2141244.0,1590567107.353
2141717.0,1590567107.395
2141902.0,1590567107.434
2142290.0,1590567107.474
2142773.0,1590567107.515
2142787.0,1590567107.554
2147734.0,1590567107.635
2143935.0,1590567107.594
2149598.0,1590567107.674
2152833.0,1590567107.715
2154790.0,1590567107.755
2145170.0,1590567107.834
2151105.0,1590567107.794
2142780.0,1590567107.955
2141946.0,1590567107.876
2148466.0,1590567108.036
2151952.0,1590567108.076
2141626.0,1590567107.915
2158450.0,1590567108.154
2145298.0,1590567107.996
2155461.0,1590567108.118
2161748.0,1590567108.194
2164584.0,1590567108.236
2167621.0,1590567108.275
2170288.0,1590567108.316
2172209.0,1590567108.356
2174352.0,1590567108.396
2175811.0,1590567108.436
2179087.0,1590567108.515
2177345.0,1590567108.477
2181181.0,1590567108.555
2182692.0,1590567108.596
2183543.0,1590567108.635
2184276.0,1590567108.675
2185291.0,1590567108.717
2186246.0,1590567108.756
2187299.0,1590567108.796
2188245.0,1590567108.837
2188707.0,1590567108.877
2189401.0,1590567108.915
2190092.0,1590567108.956
2191073.0,1590567108.995
2192314.0,1590567109.035
2192863.0,1590567109.077
2193492.0,1590567109.117
2194158.0,1590567109.154
2194900.0,1590567109.195
2196028.0,1590567109.234
2196991.0,1590567109.274
2198002.0,1590567109.317
2199126.0,1590567109.355
2200201.0,1590567109.395
2200896.0,1590567109.436
2201663.0,1590567109.475
2202563.0,1590567109.516
2203852.0,1590567109.557
2204686.0,1590567109.637
2204507.0,1590567109.596
2205006.0,1590567109.678
2206063.0,1590567109.755
2205465.0,1590567109.718
2206586.0,1590567109.797
2207412.0,1590567109.836
2208100.0,1590567109.876
2209062.0,1590567109.918
2209366.0,1590567109.957
2210094.0,1590567109.997
2210967.0,1590567110.038
2211561.0,1590567110.077
2212199.0,1590567110.118
2213194.0,1590567110.196
2213651.0,1590567110.236
2212883.0,1590567110.157
2214154.0,1590567110.317
2213753.0,1590567110.277
2214334.0,1590567110.357
2214433.0,1590567110.398
2214546.0,1590567110.437
2214928.0,1590567110.478
2215359.0,1590567110.518
2216081.0,1590567110.556
2216355.0,1590567110.596
2216755.0,1590567110.638
2217082.0,1590567110.677
2217488.0,1590567110.718
2218143.0,1590567110.759
2218292.0,1590567110.798
2218812.0,1590567110.838
2218923.0,1590567110.877
2219405.0,1590567110.957
2219205.0,1590567110.917
2219920.0,1590567110.998
2219740.0,1590567111.037
2220418.0,1590567111.077
2220855.0,1590567111.119
2221288.0,1590567111.158
2221375.0,1590567111.198
2222239.0,1590567111.277
2221380.0,1590567111.238
2224524.0,1590567111.318
2229855.0,1590567111.358
2234306.0,1590567111.397
2237020.0,1590567111.438
2238673.0,1590567111.479
2238083.0,1590567111.519
2235050.0,1590567111.559
2231213.0,1590567111.598
2228591.0,1590567111.637
2225765.0,1590567111.677
2225085.0,1590567111.719
2223554.0,1590567111.757
2222368.0,1590567111.798
2221507.0,1590567111.839
2220732.0,1590567111.878
2219540.0,1590567111.919
2216499.0,1590567111.96
2212340.0,1590567111.999
2206906.0,1590567112.037
2201486.0,1590567112.078
2195022.0,1590567112.118
2192097.0,1590567112.158
2188920.0,1590567112.199
2183854.0,1590567112.239
2177672.0,1590567112.279
2170642.0,1590567112.321
2164506.0,1590567112.359
2158568.0,1590567112.397
2153052.0,1590567112.439
2148588.0,1590567112.478
2144109.0,1590567112.519
2139742.0,1590567112.56
2135435.0,1590567112.599
2130763.0,1590567112.639
2126970.0,1590567112.68
2123435.0,1590567112.72
2120303.0,1590567112.758
2117252.0,1590567112.799
2114350.0,1590567112.838
2111693.0,1590567112.878
2109080.0,1590567112.92
2105138.0,1590567112.959
2098275.0,1590567112.999
2090446.0,1590567113.04
2082528.0,1590567113.08
2074867.0,1590567113.119
2067827.0,1590567113.159
2062043.0,1590567113.199
2056481.0,1590567113.239
2051246.0,1590567113.28
2046810.0,1590567113.32
2045314.0,1590567113.36
2043164.0,1590567113.401
2040347.0,1590567113.438
2036657.0,1590567113.478
2032511.0,1590567113.52
2028572.0,1590567113.559
2024893.0,1590567113.599
2021388.0,1590567113.641
2018429.0,1590567113.68
2015184.0,1590567113.721
2009071.0,1590567113.761
2002129.0,1590567113.798
1995199.0,1590567113.839
1988740.0,1590567113.88
1982939.0,1590567113.92
1978551.0,1590567113.959
1974313.0,1590567114.001
1970189.0,1590567114.04
1966411.0,1590567114.08
1963075.0,1590567114.122
1960110.0,1590567114.159
1957554.0,1590567114.199
1955503.0,1590567114.24
1953689.0,1590567114.279
1951771.0,1590567114.32
1950329.0,1590567114.361
1949123.0,1590567114.4
1948115.0,1590567114.44
1946998.0,1590567114.481
1943708.0,1590567114.521
1938771.0,1590567114.561
1934390.0,1590567114.6
1929955.0,1590567114.639
1926527.0,1590567114.68
1923929.0,1590567114.722
1921799.0,1590567114.76
1920114.0,1590567114.8
1918091.0,1590567114.842
1916691.0,1590567114.881
1915504.0,1590567114.922
1915015.0,1590567114.962
1915076.0,1590567114.999
1914881.0,1590567115.04
1914921.0,1590567115.081
1915153.0,1590567115.121
1915517.0,1590567115.16
1915605.0,1590567115.202
1915690.0,1590567115.241
1913939.0,1590567115.281
1910991.0,1590567115.323
1907934.0,1590567115.36
1905788.0,1590567115.4
1904051.0,1590567115.441
1902694.0,1590567115.48
1901917.0,1590567115.522
1901389.0,1590567115.562
1901162.0,1590567115.601
1900589.0,1590567115.642
1900734.0,1590567115.683
1900766.0,1590567115.721
1901315.0,1590567115.76
1901926.0,1590567115.802
1902513.0,1590567115.841
1903523.0,1590567115.881
1904678.0,1590567115.923
1905328.0,1590567115.961
1906437.0,1590567116.002
1905802.0,1590567116.043
1904447.0,1590567116.082
1902979.0,1590567116.121
1902336.0,1590567116.162
1901685.0,1590567116.201
1901693.0,1590567116.241
1902162.0,1590567116.282
1902555.0,1590567116.322
1902985.0,1590567116.362
1903446.0,1590567116.403
1904494.0,1590567116.442
1905296.0,1590567116.481
1906234.0,1590567116.523
1907563.0,1590567116.561
1909156.0,1590567116.601
1910353.0,1590567116.643
1911905.0,1590567116.682
1913121.0,1590567116.723
1914600.0,1590567116.763
1914074.0,1590567116.803
1913103.0,1590567116.843
1912561.0,1590567116.884
1912686.0,1590567116.923
1912949.0,1590567116.961
1914569.0,1590567117.041
1913640.0,1590567117.002
1915368.0,1590567117.082
1916261.0,1590567117.123
1917363.0,1590567117.161
1918458.0,1590567117.202
1919516.0,1590567117.243
1920791.0,1590567117.282
1922197.0,1590567117.323
1923863.0,1590567117.364
1924934.0,1590567117.403
1926504.0,1590567117.441
1928453.0,1590567117.483
1929215.0,1590567117.522
1928574.0,1590567117.562
1928088.0,1590567117.603
1927967.0,1590567117.642
1928078.0,1590567117.683
1928686.0,1590567117.724
1929534.0,1590567117.762
1930710.0,1590567117.803
1931553.0,1590567117.844
1932477.0,1590567117.883
1933507.0,1590567117.924
1934954.0,1590567117.965
1936250.0,1590567118.002
1937819.0,1590567118.042
1939207.0,1590567118.083
1940573.0,1590567118.123
1942355.0,1590567118.163
1943753.0,1590567118.204
1945258.0,1590567118.243
1945463.0,1590567118.284
1945123.0,1590567118.325
1944668.0,1590567118.363
1944946.0,1590567118.403
1945254.0,1590567118.445
1946100.0,1590567118.484
1947085.0,1590567118.523
1948116.0,1590567118.563
1948697.0,1590567118.603
1949727.0,1590567118.643
1950716.0,1590567118.684
1951873.0,1590567118.724
1952872.0,1590567118.764
1953979.0,1590567118.805
1955468.0,1590567118.844
1956771.0,1590567118.882
1958018.0,1590567118.925
1959243.0,1590567118.962
1960098.0,1590567119.002
1959633.0,1590567119.044
1959066.0,1590567119.083
1959221.0,1590567119.124
1959423.0,1590567119.165
1960206.0,1590567119.203
1960868.0,1590567119.243
1961842.0,1590567119.285
1962290.0,1590567119.324
1963110.0,1590567119.355
1963671.0,1590567119.396
1964473.0,1590567119.435
1965494.0,1590567119.475
1966416.0,1590567119.517
1967132.0,1590567119.555
1968292.0,1590567119.595
1969284.0,1590567119.636
1969265.0,1590567119.675
1968630.0,1590567119.716
1967791.0,1590567119.756
1967310.0,1590567119.795
1967220.0,1590567119.835
1967471.0,1590567119.877
1967790.0,1590567119.916
1968259.0,1590567119.956
1968518.0,1590567119.997
1968881.0,1590567120.033
1969434.0,1590567120.074
1969831.0,1590567120.115
1970552.0,1590567120.153
1971430.0,1590567120.194
1972148.0,1590567120.235
1973100.0,1590567120.274
1974316.0,1590567120.315
1975095.0,1590567120.355
1976138.0,1590567120.395
1975544.0,1590567120.435
1974229.0,1590567120.476
1973219.0,1590567120.516
1972396.0,1590567120.554
1971596.0,1590567120.595
1971485.0,1590567120.634
1971635.0,1590567120.674
1971993.0,1590567120.716
1972676.0,1590567120.754
1973658.0,1590567120.794
1974801.0,1590567120.836
1975986.0,1590567120.875
1977688.0,1590567120.916
1980199.0,1590567120.956
1983069.0,1590567120.996
1986573.0,1590567121.036
1989932.0,1590567121.077
1992482.0,1590567121.115
1994601.0,1590567121.155
1994599.0,1590567121.196
1994349.0,1590567121.235
1994529.0,1590567121.275
1995165.0,1590567121.317
1996499.0,1590567121.356
1997692.0,1590567121.396
1999646.0,1590567121.435
2001071.0,1590567121.475
2004144.0,1590567121.556
2002594.0,1590567121.516
2005947.0,1590567121.595
2009906.0,1590567121.677
2008051.0,1590567121.636
2011431.0,1590567121.717
2012562.0,1590567121.756
2013347.0,1590567121.798
2013888.0,1590567121.835
2014529.0,1590567121.875
2013415.0,1590567121.917
2011278.0,1590567121.955
2009202.0,1590567121.996
2007302.0,1590567122.037
2005670.0,1590567122.076
2004841.0,1590567122.117
2004002.0,1590567122.158
2003245.0,1590567122.197
2002748.0,1590567122.235
2001110.0,1590567122.276
1998956.0,1590567122.316
1996548.0,1590567122.356
1994096.0,1590567122.397
1991300.0,1590567122.436
1988765.0,1590567122.477
1986508.0,1590567122.519
1984440.0,1590567122.557
1981945.0,1590567122.597
1978526.0,1590567122.636
1975472.0,1590567122.676
1973210.0,1590567122.717
1970869.0,1590567122.757
1969410.0,1590567122.796
1968738.0,1590567122.837
1968438.0,1590567122.878
1967442.0,1590567122.918
1966830.0,1590567122.957
1966413.0,1590567122.999
1966029.0,1590567123.036
1965684.0,1590567123.076
1965650.0,1590567123.118
1965586.0,1590567123.157
1965543.0,1590567123.197
1965407.0,1590567123.238
1965222.0,1590567123.277
1964245.0,1590567123.318
1961995.0,1590567123.359
1959718.0,1590567123.396
1957880.0,1590567123.436
1956481.0,1590567123.478
1955788.0,1590567123.517
1954839.0,1590567123.557
1954334.0,1590567123.598
1953514.0,1590567123.638
1953190.0,1590567123.678
1953191.0,1590567123.72
1953204.0,1590567123.758
1953366.0,1590567123.796
1954023.0,1590567123.838
1954454.0,1590567123.877
1954882.0,1590567123.918
1955372.0,1590567123.958
1954791.0,1590567123.997
1953048.0,1590567124.038
1951171.0,1590567124.079
1950073.0,1590567124.119
1950077.0,1590567124.157
1950251.0,1590567124.198
1950251.0,1590567124.234
1950098.0,1590567124.274
1950025.0,1590567124.316
1949619.0,1590567124.354
1949338.0,1590567124.394
1949474.0,1590567124.435
1949797.0,1590567124.474
1950276.0,1590567124.515
1951016.0,1590567124.555
1951904.0,1590567124.594
1952385.0,1590567124.634
1952597.0,1590567124.675
1950999.0,1590567124.715
1949290.0,1590567124.755
1947534.0,1590567124.796
1946336.0,1590567124.835
1945543.0,1590567124.875
1945096.0,1590567124.917
1944687.0,1590567124.956
1944338.0,1590567124.996
1943779.0,1590567125.038
1943692.0,1590567125.077
1943667.0,1590567125.118
1943874.0,1590567125.158
1944052.0,1590567125.197
1945096.0,1590567125.279
1944656.0,1590567125.238
1945587.0,1590567125.319
1946304.0,1590567125.358
1946488.0,1590567125.4
1945334.0,1590567125.439
1943363.0,1590567125.479
1941806.0,1590567125.521
1940050.0,1590567125.56
1938899.0,1590567125.598
1938130.0,1590567125.639
1937876.0,1590567125.678
1937324.0,1590567125.719
1937067.0,1590567125.76
1936968.0,1590567125.799
1937090.0,1590567125.839
1937628.0,1590567125.88
1938158.0,1590567125.92
1938829.0,1590567125.96
1939837.0,1590567125.999
1941154.0,1590567126.038
1942178.0,1590567126.079
1942850.0,1590567126.12
1942053.0,1590567126.158
1941102.0,1590567126.198
1940307.0,1590567126.24
1939536.0,1590567126.279
1938776.0,1590567126.32
1938273.0,1590567126.36
1937719.0,1590567126.4
1936898.0,1590567126.44
1936057.0,1590567126.481
1935391.0,1590567126.519
1935479.0,1590567126.559
1935840.0,1590567126.6
1936465.0,1590567126.639
1937624.0,1590567126.679
1939246.0,1590567126.721
1941301.0,1590567126.799
1942212.0,1590567126.841
1940410.0,1590567126.759
1941715.0,1590567126.88
1940460.0,1590567126.921
1939226.0,1590567126.961
1938289.0,1590567127.0
1937744.0,1590567127.038
1937605.0,1590567127.079
1937384.0,1590567127.119
1937118.0,1590567127.159
1936805.0,1590567127.2
1936612.0,1590567127.239
1936542.0,1590567127.279
1936508.0,1590567127.321
1936992.0,1590567127.359
1937451.0,1590567127.399
1937854.0,1590567127.441
1939138.0,1590567127.521
1938364.0,1590567127.48
1939712.0,1590567127.561
1940399.0,1590567127.6
1941159.0,1590567127.641
1940223.0,1590567127.682
1939298.0,1590567127.722
1938632.0,1590567127.759
1937879.0,1590567127.801
1937314.0,1590567127.84
1937375.0,1590567127.88
1937648.0,1590567127.921
1937576.0,1590567127.96
1937600.0,1590567128.0
1938073.0,1590567128.041
1938352.0,1590567128.08
1938913.0,1590567128.121
1939238.0,1590567128.162
1939713.0,1590567128.201
1940374.0,1590567128.242
1940887.0,1590567128.281
1941597.0,1590567128.321
1942540.0,1590567128.36
1943333.0,1590567128.402
1943828.0,1590567128.441
1943943.0,1590567128.481
1943821.0,1590567128.523
1944075.0,1590567128.561
1944846.0,1590567128.602
1946099.0,1590567128.641
1947048.0,1590567128.68
1948162.0,1590567128.721
1948780.0,1590567128.762
1949548.0,1590567128.801
1950541.0,1590567128.841
1951512.0,1590567128.882
1952656.0,1590567128.922
1953836.0,1590567128.962
1954615.0,1590567129.003
1955778.0,1590567129.04
1956613.0,1590567129.081
1957618.0,1590567129.122
1958237.0,1590567129.16
1957931.0,1590567129.201
1957379.0,1590567129.242
1957271.0,1590567129.281
1957446.0,1590567129.322
1957535.0,1590567129.363
1957996.0,1590567129.402
1958152.0,1590567129.442
1958419.0,1590567129.484
1958600.0,1590567129.521
1958957.0,1590567129.561
1959383.0,1590567129.602
1959950.0,1590567129.641
1960974.0,1590567129.681
1961635.0,1590567129.723
1962256.0,1590567129.761
1962951.0,1590567129.802
1963713.0,1590567129.843
1964573.0,1590567129.882
1964919.0,1590567129.923
1964277.0,1590567129.964
1963159.0,1590567130.003
1962600.0,1590567130.041
1962198.0,1590567130.082
1961775.0,1590567130.122
1962024.0,1590567130.162
1962302.0,1590567130.203
1962835.0,1590567130.243
1962590.0,1590567130.283
1963093.0,1590567130.325
1963458.0,1590567130.363
1963931.0,1590567130.401
1964629.0,1590567130.443
1965271.0,1590567130.482
1965780.0,1590567130.523
1966840.0,1590567130.564
1967420.0,1590567130.603
1968162.0,1590567130.643
1967420.0,1590567130.684
1966632.0,1590567130.724
1966015.0,1590567130.762
1965493.0,1590567130.803
1965288.0,1590567130.842
1965303.0,1590567130.882
1965558.0,1590567130.924
1965708.0,1590567130.963
1966104.0,1590567131.003
1966298.0,1590567131.044
1966749.0,1590567131.084
1967210.0,1590567131.125
1967903.0,1590567131.163
1968434.0,1590567131.202
1969396.0,1590567131.243
1969920.0,1590567131.284
1970578.0,1590567131.324
1971666.0,1590567131.372
1972089.0,1590567131.413
1971592.0,1590567131.452
1970945.0,1590567131.492
1970692.0,1590567131.534
1970292.0,1590567131.572
1970582.0,1590567131.612
1970743.0,1590567131.653
1971279.0,1590567131.692
1971271.0,1590567131.733
1971340.0,1590567131.773
1971426.0,1590567131.812
1971915.0,1590567131.853
1972360.0,1590567131.894
1972635.0,1590567131.933
1973160.0,1590567131.973
1973741.0,1590567132.014
1974606.0,1590567132.053
1975131.0,1590567132.093
1974774.0,1590567132.135
1973575.0,1590567132.174
1972643.0,1590567132.214
1972190.0,1590567132.254
1971788.0,1590567132.293
1971892.0,1590567132.334
1971708.0,1590567132.374
1971620.0,1590567132.414
1971544.0,1590567132.454
1971699.0,1590567132.493
1971939.0,1590567132.533
1972057.0,1590567132.573
1972438.0,1590567132.614
1972870.0,1590567132.653
1973196.0,1590567132.693
1973509.0,1590567132.735
1973981.0,1590567132.774
1974498.0,1590567132.814
1974600.0,1590567132.853
1973200.0,1590567132.892
1971815.0,1590567132.933
1970295.0,1590567132.974
1969079.0,1590567133.012
1967927.0,1590567133.053
1967460.0,1590567133.094
1966996.0,1590567133.134
1966623.0,1590567133.174
1966070.0,1590567133.215
1965993.0,1590567133.254
1965816.0,1590567133.294
1965813.0,1590567133.336
1965800.0,1590567133.373
1965743.0,1590567133.413
1966123.0,1590567133.454
1966564.0,1590567133.493
1966641.0,1590567133.534
1966966.0,1590567133.575
1966519.0,1590567133.614
1965236.0,1590567133.654
1963392.0,1590567133.696
1962024.0,1590567133.734
1960657.0,1590567133.773
1959524.0,1590567133.814
1959381.0,1590567133.854
1958939.0,1590567133.894
1958421.0,1590567133.936
1957936.0,1590567133.974
1957705.0,1590567134.015
1957674.0,1590567134.056
1957684.0,1590567134.095
1958200.0,1590567134.134
1958218.0,1590567134.175
1958513.0,1590567134.213
1959079.0,1590567134.253
1959857.0,1590567134.295
1960549.0,1590567134.334
1960800.0,1590567134.374
1959814.0,1590567134.415
1958425.0,1590567134.455
1957381.0,1590567134.495
1956569.0,1590567134.537
1955516.0,1590567134.575
1955197.0,1590567134.616
1955129.0,1590567134.655
1955348.0,1590567134.694
1954908.0,1590567134.735
1955136.0,1590567134.775
1955253.0,1590567134.814
1955502.0,1590567134.854
1955539.0,1590567134.895
1955749.0,1590567134.935
1956132.0,1590567134.974
1956224.0,1590567135.016
1956197.0,1590567135.055
1956272.0,1590567135.095
1956565.0,1590567135.137
1956682.0,1590567135.176
1955752.0,1590567135.214
1954338.0,1590567135.255
1952878.0,1590567135.295
1951582.0,1590567135.335
1950501.0,1590567135.376
1949552.0,1590567135.415
1948739.0,1590567135.456
1947675.0,1590567135.497
1947065.0,1590567135.537
1946525.0,1590567135.576
1946210.0,1590567135.615
1946073.0,1590567135.655
1945820.0,1590567135.695
1946131.0,1590567135.737
1946105.0,1590567135.775
1945814.0,1590567135.816
1945983.0,1590567135.857
1945949.0,1590567135.896
1945360.0,1590567135.937
1944160.0,1590567135.976
1942921.0,1590567136.015
1942221.0,1590567136.055
1941666.0,1590567136.096
1941478.0,1590567136.136
1941373.0,1590567136.175
1941634.0,1590567136.217
1941724.0,1590567136.256
1942060.0,1590567136.296
1942328.0,1590567136.338
1942926.0,1590567136.377
1943314.0,1590567136.417
1944038.0,1590567136.456
1944678.0,1590567136.495
1945328.0,1590567136.536
1946305.0,1590567136.577
1947175.0,1590567136.616
1948134.0,1590567136.656
1947629.0,1590567136.698
1946619.0,1590567136.737
1945703.0,1590567136.777
1944710.0,1590567136.818
1944078.0,1590567136.855
1943400.0,1590567136.896
1942924.0,1590567136.938
1942755.0,1590567136.976
1942664.0,1590567137.016
1942626.0,1590567137.058
1942890.0,1590567137.097
1943339.0,1590567137.138
1943723.0,1590567137.178
1944527.0,1590567137.217
1945173.0,1590567137.257
1946193.0,1590567137.296
1947267.0,1590567137.335
1948783.0,1590567137.375
1949913.0,1590567137.417
1949761.0,1590567137.456
1949534.0,1590567137.496
1949252.0,1590567137.538
1948920.0,1590567137.576
1948909.0,1590567137.616
1949178.0,1590567137.658
1949782.0,1590567137.697
1950139.0,1590567137.738
1950721.0,1590567137.779
1950901.0,1590567137.818
1951492.0,1590567137.858
1951861.0,1590567137.899
1953232.0,1590567137.978
1952720.0,1590567137.939
1953996.0,1590567138.019
1955608.0,1590567138.098
1954725.0,1590567138.058
1956397.0,1590567138.14
1957207.0,1590567138.178
1956880.0,1590567138.218
1955747.0,1590567138.259
1954964.0,1590567138.298
1954203.0,1590567138.339
1953658.0,1590567138.379
1953089.0,1590567138.418
1953124.0,1590567138.458
1953099.0,1590567138.499
1953421.0,1590567138.537
1953357.0,1590567138.577
1953819.0,1590567138.618
1954010.0,1590567138.657
1954694.0,1590567138.697
1955347.0,1590567138.739
1956253.0,1590567138.777
1957160.0,1590567138.818
1957734.0,1590567138.859
1958782.0,1590567138.898
1959541.0,1590567138.939
1959844.0,1590567138.98
1959215.0,1590567139.018
1958572.0,1590567139.058
1958390.0,1590567139.1
1958031.0,1590567139.139
1958109.0,1590567139.177
1958387.0,1590567139.218
1958523.0,1590567139.258
1958729.0,1590567139.298
1958926.0,1590567139.34
1959077.0,1590567139.377
1959501.0,1590567139.418
1960145.0,1590567139.459
1960492.0,1590567139.498
1961063.0,1590567139.539
1961352.0,1590567139.58
1961623.0,1590567139.619
1962227.0,1590567139.659
1962509.0,1590567139.699
1962628.0,1590567139.738
1961552.0,1590567139.778
1960581.0,1590567139.819
1959758.0,1590567139.858
1959165.0,1590567139.898
1958801.0,1590567139.94
1958791.0,1590567139.979
1958522.0,1590567140.019
1958338.0,1590567140.06
1957791.0,1590567140.1
1957998.0,1590567140.139
1957994.0,1590567140.179
1958270.0,1590567140.218
1958732.0,1590567140.258
1958888.0,1590567140.299
1959317.0,1590567140.339
1959795.0,1590567140.379
1960502.0,1590567140.42
1960421.0,1590567140.459
1959379.0,1590567140.499
1958360.0,1590567140.541
1957682.0,1590567140.58
1956434.0,1590567140.62
1955574.0,1590567140.659
1955016.0,1590567140.698
1954323.0,1590567140.739
1953306.0,1590567140.78
1952678.0,1590567140.818
1952144.0,1590567140.859
1951511.0,1590567140.9
1951149.0,1590567140.94
1951045.0,1590567140.979
1950907.0,1590567141.021
1951023.0,1590567141.06
1950852.0,1590567141.1
1950921.0,1590567141.142
1950885.0,1590567141.179
1949358.0,1590567141.219
1947323.0,1590567141.26
1945687.0,1590567141.299
1944179.0,1590567141.34
1942917.0,1590567141.381
1941689.0,1590567141.42
1940939.0,1590567141.46
1940077.0,1590567141.502
1939617.0,1590567141.542
1938993.0,1590567141.579
1938949.0,1590567141.62
1939358.0,1590567141.659
1939260.0,1590567141.7
1939407.0,1590567141.742
1939690.0,1590567141.78
1940058.0,1590567141.82
1940903.0,1590567141.862
1941741.0,1590567141.901
1941126.0,1590567141.942
1940089.0,1590567141.98
1938993.0,1590567142.019
1938226.0,1590567142.06
1937372.0,1590567142.101
1937245.0,1590567142.141
1937011.0,1590567142.181
1936839.0,1590567142.222
1936768.0,1590567142.261
1936830.0,1590567142.301
1936676.0,1590567142.341
1936754.0,1590567142.38
1937057.0,1590567142.42
1936838.0,1590567142.461
1936932.0,1590567142.5
1937167.0,1590567142.541
1937280.0,1590567142.581
1937515.0,1590567142.621
1937548.0,1590567142.661
1936514.0,1590567142.702
1935169.0,1590567142.742
1933670.0,1590567142.782
1932522.0,1590567142.823
1930956.0,1590567142.86
1930237.0,1590567142.9
1929481.0,1590567142.942
1928577.0,1590567142.981
1927083.0,1590567143.021
1925956.0,1590567143.062
1924528.0,1590567143.101
1923121.0,1590567143.142
1922310.0,1590567143.183
1921396.0,1590567143.221
1920655.0,1590567143.262
1920231.0,1590567143.303
1920132.0,1590567143.343
1920164.0,1590567143.376
1920548.0,1590567143.417
1919369.0,1590567143.456
1917564.0,1590567143.496
1915872.0,1590567143.538
1914279.0,1590567143.576
1913075.0,1590567143.616
1912653.0,1590567143.658
1911915.0,1590567143.697
1911084.0,1590567143.737
1910612.0,1590567143.778
1910240.0,1590567143.817
1910300.0,1590567143.855
1910315.0,1590567143.896
1910476.0,1590567143.936
1910583.0,1590567143.975
1910575.0,1590567144.017
1910548.0,1590567144.056
1910587.0,1590567144.096
1910451.0,1590567144.138
1910424.0,1590567144.177
1909507.0,1590567144.215
1907603.0,1590567144.256
1905483.0,1590567144.295
1904044.0,1590567144.336
1902457.0,1590567144.377
1901305.0,1590567144.416
1900319.0,1590567144.457
1899705.0,1590567144.498
1898717.0,1590567144.538
1898294.0,1590567144.577
1897941.0,1590567144.616
1897490.0,1590567144.656
1897370.0,1590567144.696
1897473.0,1590567144.738
1897503.0,1590567144.776
1897325.0,1590567144.817
1897128.0,1590567144.858
1896591.0,1590567144.897
1894087.0,1590567144.938
1891992.0,1590567144.976
1890009.0,1590567145.014
1888728.0,1590567145.055
1888126.0,1590567145.097
1888353.0,1590567145.137
1888480.0,1590567145.176
1888628.0,1590567145.217
1888767.0,1590567145.256
1888769.0,1590567145.296
1888447.0,1590567145.338
1887856.0,1590567145.376
1887477.0,1590567145.416
1887010.0,1590567145.458
1886775.0,1590567145.497
1886540.0,1590567145.538
1886545.0,1590567145.578
1886431.0,1590567145.618
1885156.0,1590567145.658
1883703.0,1590567145.697
1882506.0,1590567145.737
1881197.0,1590567145.777
1880285.0,1590567145.818
1879736.0,1590567145.857
1879654.0,1590567145.897
1879028.0,1590567145.939
1878735.0,1590567145.978
1878357.0,1590567146.018
1878165.0,1590567146.059
1878126.0,1590567146.096
1878092.0,1590567146.137
1878549.0,1590567146.178
1878539.0,1590567146.216
1878730.0,1590567146.257
1878854.0,1590567146.298
1878738.0,1590567146.338
1877616.0,1590567146.377
1875883.0,1590567146.419
1874387.0,1590567146.458
1872506.0,1590567146.498
1870334.0,1590567146.54
1868355.0,1590567146.579
1866450.0,1590567146.617
1865207.0,1590567146.658
1863904.0,1590567146.697
1863306.0,1590567146.738
1862879.0,1590567146.779
1862714.0,1590567146.817
1862700.0,1590567146.857
1863134.0,1590567146.899
1863745.0,1590567146.939
1864571.0,1590567146.978
1865690.0,1590567147.019
1866927.0,1590567147.059
1867639.0,1590567147.099
1867654.0,1590567147.14
1867675.0,1590567147.179
1867484.0,1590567147.219
1866663.0,1590567147.26
1866625.0,1590567147.297
1866996.0,1590567147.338
1867824.0,1590567147.379
1868929.0,1590567147.418
1869993.0,1590567147.458
1870984.0,1590567147.5
1872130.0,1590567147.537
1873493.0,1590567147.576
1874627.0,1590567147.618
1875516.0,1590567147.658
1876163.0,1590567147.698
1876030.0,1590567147.74
1874845.0,1590567147.778
1874132.0,1590567147.818
1872754.0,1590567147.859
1871155.0,1590567147.898
1870079.0,1590567147.939
1869527.0,1590567147.98
1869698.0,1590567148.018
1870240.0,1590567148.058
1871144.0,1590567148.099
1872064.0,1590567148.139
1872811.0,1590567148.179
1873726.0,1590567148.22
1874269.0,1590567148.26
1874365.0,1590567148.3
1873953.0,1590567148.341
1873759.0,1590567148.379
1873878.0,1590567148.419
1874016.0,1590567148.46
1874357.0,1590567148.499
1874809.0,1590567148.54
1874366.0,1590567148.581
1873433.0,1590567148.62
1872688.0,1590567148.658
1871887.0,1590567148.7
1870995.0,1590567148.74
1870500.0,1590567148.779
1870341.0,1590567148.82
1868951.0,1590567148.86
1867436.0,1590567148.9
1865024.0,1590567148.941
1863060.0,1590567148.979
1861933.0,1590567149.02
1860976.0,1590567149.061
1860491.0,1590567149.1
1860091.0,1590567149.141
1859871.0,1590567149.18
1859845.0,1590567149.219
1860607.0,1590567149.259
1861000.0,1590567149.3
1861742.0,1590567149.34
1862014.0,1590567149.379
1862393.0,1590567149.421
1862576.0,1590567149.46
1863291.0,1590567149.5
1863530.0,1590567149.542
1863577.0,1590567149.58
1862986.0,1590567149.621
1862078.0,1590567149.662
1861308.0,1590567149.699
1860353.0,1590567149.74
1859753.0,1590567149.781
1859462.0,1590567149.819
1859138.0,1590567149.859
1858763.0,1590567149.901
1858573.0,1590567149.94
1858610.0,1590567149.98
1857949.0,1590567150.021
1856830.0,1590567150.06
1855418.0,1590567150.098
1854733.0,1590567150.14
1854013.0,1590567150.178
1854111.0,1590567150.219
1854687.0,1590567150.261
1855922.0,1590567150.3
1856594.0,1590567150.34
1857411.0,1590567150.381
1858034.0,1590567150.42
1858944.0,1590567150.461
1859642.0,1590567150.502
1860017.0,1590567150.542
1861056.0,1590567150.581
1861709.0,1590567150.623
1862086.0,1590567150.662
1863014.0,1590567150.7
1863549.0,1590567150.742
1864172.0,1590567150.78
1864158.0,1590567150.82
1863927.0,1590567150.861
1864364.0,1590567150.901
1865010.0,1590567150.941
1865081.0,1590567150.982
1865740.0,1590567151.02
1867139.0,1590567151.061
1868959.0,1590567151.102
1870381.0,1590567151.142
1873002.0,1590567151.223
1871679.0,1590567151.182
1874307.0,1590567151.262
1875182.0,1590567151.302
1876058.0,1590567151.343
1876922.0,1590567151.381
1878039.0,1590567151.421
1879216.0,1590567151.463
1880333.0,1590567151.502
1881251.0,1590567151.543
1882618.0,1590567151.583
1882825.0,1590567151.623
1882859.0,1590567151.661
1882823.0,1590567151.702
1882997.0,1590567151.742
1883153.0,1590567151.781
1883553.0,1590567151.823
1884166.0,1590567151.862
1885070.0,1590567151.902
1885662.0,1590567151.943
1886449.0,1590567151.982
1887300.0,1590567152.022
1888366.0,1590567152.063
1888932.0,1590567152.102
1889053.0,1590567152.143
1888062.0,1590567152.182
1887379.0,1590567152.221
1887015.0,1590567152.261
1887197.0,1590567152.302
1887415.0,1590567152.342
1887716.0,1590567152.382
1887921.0,1590567152.423
1887452.0,1590567152.462
1887087.0,1590567152.502
1886943.0,1590567152.544
1886758.0,1590567152.583
1886570.0,1590567152.623
1886477.0,1590567152.661
1886365.0,1590567152.7
1886180.0,1590567152.742
1886046.0,1590567152.783
1886414.0,1590567152.821
1886846.0,1590567152.862
1887511.0,1590567152.903
1888188.0,1590567152.942
1888970.0,1590567152.982
1889735.0,1590567153.023
1890357.0,1590567153.062
1891287.0,1590567153.103
1892052.0,1590567153.144
1891952.0,1590567153.182
1891470.0,1590567153.223
1891411.0,1590567153.264
1891104.0,1590567153.303
1891263.0,1590567153.344
1891249.0,1590567153.385
1891463.0,1590567153.424
1891920.0,1590567153.462
1892032.0,1590567153.503
1892827.0,1590567153.543
1893428.0,1590567153.583
1894261.0,1590567153.624
1894577.0,1590567153.663
1895095.0,1590567153.704
1895187.0,1590567153.745
1895585.0,1590567153.783
1895642.0,1590567153.823
1895324.0,1590567153.865
1894360.0,1590567153.904
1893067.0,1590567153.945
1891847.0,1590567153.985
1890976.0,1590567154.024
1890351.0,1590567154.064
1889773.0,1590567154.105
1889414.0,1590567154.145
1889368.0,1590567154.183
1889330.0,1590567154.224
1888927.0,1590567154.263
1888992.0,1590567154.303
1888779.0,1590567154.344
1888441.0,1590567154.383
1888380.0,1590567154.423
1888294.0,1590567154.464
1888298.0,1590567154.504
1888443.0,1590567154.545
1888662.0,1590567154.585
1888216.0,1590567154.624
1887163.0,1590567154.665
1886322.0,1590567154.706
1885417.0,1590567154.744
1884609.0,1590567154.783
1884059.0,1590567154.825
1884171.0,1590567154.864
1883816.0,1590567154.904
1883977.0,1590567154.945
1883893.0,1590567154.984
1884134.0,1590567155.024
1884159.0,1590567155.065
1884429.0,1590567155.104
1884589.0,1590567155.145
1884755.0,1590567155.186
1884797.0,1590567155.222
1885038.0,1590567155.263
1885082.0,1590567155.305
1885259.0,1590567155.344
1884460.0,1590567155.38
1883595.0,1590567155.421
1882723.0,1590567155.46
1882213.0,1590567155.5
1881522.0,1590567155.542
1881194.0,1590567155.58
1881048.0,1590567155.621
1880941.0,1590567155.662
1880694.0,1590567155.701
1880631.0,1590567155.741
1880714.0,1590567155.782
1881435.0,1590567155.821
1881952.0,1590567155.861
1882318.0,1590567155.902
1883009.0,1590567155.942
1883384.0,1590567155.982
1884074.0,1590567156.023
1884667.0,1590567156.062
1884353.0,1590567156.102
1883476.0,1590567156.144
1882464.0,1590567156.182
1881674.0,1590567156.223
1881131.0,1590567156.264
1880862.0,1590567156.303
1880365.0,1590567156.342
1880086.0,1590567156.383
1879731.0,1590567156.422
1879815.0,1590567156.462
1879472.0,1590567156.503
1879412.0,1590567156.543
1879486.0,1590567156.583
1879585.0,1590567156.624
1879570.0,1590567156.663
1879851.0,1590567156.704
1880120.0,1590567156.745
1880592.0,1590567156.783
1880190.0,1590567156.823
1878929.0,1590567156.865
1877951.0,1590567156.902
1876749.0,1590567156.943
1875819.0,1590567156.983
1875082.0,1590567157.022
1874795.0,1590567157.062
1874509.0,1590567157.103
1873897.0,1590567157.143
1873404.0,1590567157.183
1873298.0,1590567157.224
1873147.0,1590567157.263
1872954.0,1590567157.303
1873042.0,1590567157.345
1873276.0,1590567157.382
1873643.0,1590567157.422
1873619.0,1590567157.464
1873940.0,1590567157.503
1872722.0,1590567157.544
1871069.0,1590567157.585
1869328.0,1590567157.624
1867872.0,1590567157.664
1866382.0,1590567157.705
1865365.0,1590567157.742
1864642.0,1590567157.782
1863938.0,1590567157.824
1863153.0,1590567157.862
1862655.0,1590567157.903
1862453.0,1590567157.945
1862278.0,1590567157.983
1862395.0,1590567158.023
1862197.0,1590567158.064
1862479.0,1590567158.103
1862603.0,1590567158.144
1862893.0,1590567158.185
1863486.0,1590567158.223
1863147.0,1590567158.263
1861617.0,1590567158.305
1860132.0,1590567158.345
1858971.0,1590567158.384
1857740.0,1590567158.426
1856863.0,1590567158.465
1856298.0,1590567158.503
1856035.0,1590567158.545
1855914.0,1590567158.583
1855576.0,1590567158.624
1855397.0,1590567158.665
1855535.0,1590567158.704
1855739.0,1590567158.745
1856024.0,1590567158.786
1856513.0,1590567158.824
1856840.0,1590567158.864
1857279.0,1590567158.906
1858084.0,1590567158.945
1858626.0,1590567158.985
1858098.0,1590567159.026
1856394.0,1590567159.063
1855004.0,1590567159.104
1853363.0,1590567159.145
1852014.0,1590567159.184
1850945.0,1590567159.224
1850424.0,1590567159.265
1849969.0,1590567159.304
1849494.0,1590567159.345
1849168.0,1590567159.386
1849125.0,1590567159.425
1849161.0,1590567159.465
1849360.0,1590567159.507
1849482.0,1590567159.544
1849800.0,1590567159.584
1850532.0,1590567159.625
1850938.0,1590567159.665
1851288.0,1590567159.705
1851880.0,1590567159.746
1851960.0,1590567159.784
1850969.0,1590567159.825
1849373.0,1590567159.866
1848179.0,1590567159.905
1846877.0,1590567159.946
1845859.0,1590567159.987
1845418.0,1590567160.025
1844937.0,1590567160.065
1844637.0,1590567160.107
1844607.0,1590567160.146
1844504.0,1590567160.186
1844653.0,1590567160.225
1844819.0,1590567160.265
1844979.0,1590567160.307
1845867.0,1590567160.346
1846119.0,1590567160.385
1846662.0,1590567160.424
1847491.0,1590567160.466
1848205.0,1590567160.505
1849103.0,1590567160.546
1848604.0,1590567160.586
1847228.0,1590567160.625
1846330.0,1590567160.666
1845672.0,1590567160.707
1845151.0,1590567160.747
1845331.0,1590567160.787
1845466.0,1590567160.826
1845444.0,1590567160.865
1845119.0,1590567160.905
1845092.0,1590567160.947
1845445.0,1590567160.985
1845381.0,1590567161.025
1845787.0,1590567161.066
1846300.0,1590567161.106
1846600.0,1590567161.147
1847265.0,1590567161.187
1847408.0,1590567161.226
1847033.0,1590567161.266
1845754.0,1590567161.307
1844577.0,1590567161.347
1843332.0,1590567161.387
1842472.0,1590567161.428
1842206.0,1590567161.467
1842574.0,1590567161.547
1843441.0,1590567161.626
1843597.0,1590567161.667
1843016.0,1590567161.586
1842444.0,1590567161.505
1842671.0,1590567161.707
1840966.0,1590567161.747
1840068.0,1590567161.788
1839872.0,1590567161.826
1839970.0,1590567161.867
1840320.0,1590567161.908
1841607.0,1590567161.987
1840953.0,1590567161.948
1840964.0,1590567162.029
1840348.0,1590567162.066
1840475.0,1590567162.106
1841645.0,1590567162.148
1842600.0,1590567162.186
1842690.0,1590567162.226
1842976.0,1590567162.268
1842416.0,1590567162.307
1841936.0,1590567162.348
1840756.0,1590567162.388
1840034.0,1590567162.427
1839666.0,1590567162.468
1839560.0,1590567162.509
1839518.0,1590567162.547
1840013.0,1590567162.586
1840327.0,1590567162.628
1840733.0,1590567162.667
1841075.0,1590567162.707
1840030.0,1590567162.748
1838361.0,1590567162.787
1837295.0,1590567162.827
1836129.0,1590567162.868
1834800.0,1590567162.907
1834068.0,1590567162.948
1833890.0,1590567162.989
1833391.0,1590567163.027
1833263.0,1590567163.068
1833372.0,1590567163.109
1833918.0,1590567163.149
1834415.0,1590567163.188
1835159.0,1590567163.228
1835843.0,1590567163.267
1837548.0,1590567163.307
1839988.0,1590567163.349
1842840.0,1590567163.387
1845959.0,1590567163.427
1848606.0,1590567163.468
1851553.0,1590567163.507
1854349.0,1590567163.548
1857569.0,1590567163.589
1860719.0,1590567163.628
1863722.0,1590567163.668
1867031.0,1590567163.709
1869331.0,1590567163.749
1870814.0,1590567163.789
1871038.0,1590567163.83
1871141.0,1590567163.867
1871193.0,1590567163.907
1871117.0,1590567163.949
1871813.0,1590567163.987
1874079.0,1590567164.027
1878701.0,1590567164.069
1884128.0,1590567164.108
1888441.0,1590567164.149
1891806.0,1590567164.19
1893124.0,1590567164.228
1893981.0,1590567164.268
1894812.0,1590567164.31
1895941.0,1590567164.349
1897000.0,1590567164.389
1898481.0,1590567164.43
1900297.0,1590567164.469
1901791.0,1590567164.508
1903208.0,1590567164.55
1904624.0,1590567164.588
1906316.0,1590567164.628
1908427.0,1590567164.67
1910341.0,1590567164.709
1912775.0,1590567164.75
1914795.0,1590567164.79
1917107.0,1590567164.829
1919070.0,1590567164.869
1920962.0,1590567164.91
1921621.0,1590567164.95
1921946.0,1590567164.99
1922027.0,1590567165.031
1921482.0,1590567165.068
1920411.0,1590567165.108
1919387.0,1590567165.15
1917909.0,1590567165.188
1916479.0,1590567165.229
1915541.0,1590567165.27
1914734.0,1590567165.309
1914426.0,1590567165.35
1914323.0,1590567165.391
1913971.0,1590567165.43
1913493.0,1590567165.467
1912429.0,1590567165.51
1910372.0,1590567165.549
1908546.0,1590567165.588
1906030.0,1590567165.63
1903492.0,1590567165.669
1901332.0,1590567165.709
1898567.0,1590567165.75
1895983.0,1590567165.789
1894297.0,1590567165.829
1892968.0,1590567165.87
1891833.0,1590567165.909
1890948.0,1590567165.95
1891329.0,1590567165.991
1892527.0,1590567166.029
1893103.0,1590567166.07
1894188.0,1590567166.111
1895267.0,1590567166.151
1896344.0,1590567166.19
1897135.0,1590567166.232
1899120.0,1590567166.271
1900240.0,1590567166.309
1900419.0,1590567166.351
1900212.0,1590567166.389
1899981.0,1590567166.429
1899952.0,1590567166.47
1899835.0,1590567166.509
1899683.0,1590567166.55
1899689.0,1590567166.591
1899797.0,1590567166.63
1900120.0,1590567166.67
1900815.0,1590567166.712
1901928.0,1590567166.751
1903175.0,1590567166.791
1906209.0,1590567166.832
1909879.0,1590567166.87
1913432.0,1590567166.91
1917159.0,1590567166.951
1921078.0,1590567166.99
1924679.0,1590567167.03
1927341.0,1590567167.071
1929225.0,1590567167.11
1931291.0,1590567167.151
1933656.0,1590567167.192
1935857.0,1590567167.23
1938001.0,1590567167.271
1940467.0,1590567167.312
1942577.0,1590567167.352
1944461.0,1590567167.393
1945891.0,1590567167.434
1947133.0,1590567167.473
1948081.0,1590567167.513
1949000.0,1590567167.555
1949796.0,1590567167.593
1950740.0,1590567167.633
1951526.0,1590567167.674
1952315.0,1590567167.713
1953036.0,1590567167.754
1953815.0,1590567167.795
1953647.0,1590567167.833
1952722.0,1590567167.874
1951827.0,1590567167.915
1950958.0,1590567167.954
1950329.0,1590567167.994
1949505.0,1590567168.035
1948723.0,1590567168.074
1947655.0,1590567168.114
1946519.0,1590567168.155
1945175.0,1590567168.194
1944089.0,1590567168.234
1943252.0,1590567168.276
1942523.0,1590567168.313
1942395.0,1590567168.354
1942003.0,1590567168.394
1942099.0,1590567168.433
1941837.0,1590567168.474
1942113.0,1590567168.515
1942209.0,1590567168.555
1942358.0,1590567168.594
1941647.0,1590567168.636
1940597.0,1590567168.673
1939847.0,1590567168.713
1939398.0,1590567168.755
1938782.0,1590567168.793
1939053.0,1590567168.825
1939012.0,1590567168.866
1938775.0,1590567168.905
1938759.0,1590567168.946
1938695.0,1590567168.986
1939015.0,1590567169.025
1939385.0,1590567169.065
1939738.0,1590567169.106
1940255.0,1590567169.146
1940671.0,1590567169.185
1940910.0,1590567169.226
1941423.0,1590567169.265
1942006.0,1590567169.305
1942457.0,1590567169.347
1942004.0,1590567169.386
1941167.0,1590567169.426
1940582.0,1590567169.506
1940247.0,1590567169.546
1940738.0,1590567169.467
1940308.0,1590567169.587
1940595.0,1590567169.626
1940678.0,1590567169.666
1940886.0,1590567169.707
1942512.0,1590567169.787
1941382.0,1590567169.747
1947541.0,1590567169.857
1945053.0,1590567169.822
1950053.0,1590567169.897
1952111.0,1590567169.938
1953923.0,1590567169.977
1955116.0,1590567170.017
1955791.0,1590567170.058
1955910.0,1590567170.097
1955153.0,1590567170.138
1954976.0,1590567170.178
1955075.0,1590567170.217
1955314.0,1590567170.257
1956345.0,1590567170.298
1958172.0,1590567170.338
1959829.0,1590567170.377
1961237.0,1590567170.418
1963257.0,1590567170.457
1966113.0,1590567170.497
1970895.0,1590567170.539
1976797.0,1590567170.577
1983156.0,1590567170.617
1990377.0,1590567170.658
1997169.0,1590567170.697
2002330.0,1590567170.738
2006744.0,1590567170.779
2012355.0,1590567170.818
2017094.0,1590567170.858
2019375.0,1590567170.899
2020163.0,1590567170.938
2020468.0,1590567170.978
2020784.0,1590567171.019
2021227.0,1590567171.058
2021961.0,1590567171.098
2023020.0,1590567171.14
2024113.0,1590567171.178
2025121.0,1590567171.218
2026750.0,1590567171.259
2027752.0,1590567171.298
2028883.0,1590567171.339
2030152.0,1590567171.379
2031934.0,1590567171.418
2033046.0,1590567171.458
2034601.0,1590567171.5
2036051.0,1590567171.539
2037994.0,1590567171.576
2039895.0,1590567171.618
2040927.0,1590567171.657
2042361.0,1590567171.697
2043291.0,1590567171.739
2044845.0,1590567171.777
2046846.0,1590567171.818
2049527.0,1590567171.859
2052500.0,1590567171.898
2055134.0,1590567171.937
2056651.0,1590567171.978
2057584.0,1590567172.017
2060209.0,1590567172.057
2063209.0,1590567172.099
2066372.0,1590567172.139
2068556.0,1590567172.178
2070264.0,1590567172.22
2071037.0,1590567172.257
2072126.0,1590567172.297
2073271.0,1590567172.339
2074441.0,1590567172.377
2075414.0,1590567172.418
2076518.0,1590567172.459
2077705.0,1590567172.498
2078226.0,1590567172.539
2078525.0,1590567172.58
2078236.0,1590567172.617
2077738.0,1590567172.657
2076913.0,1590567172.699
2075915.0,1590567172.738
2075665.0,1590567172.778
2075787.0,1590567172.82
2075839.0,1590567172.859
2076255.0,1590567172.899
2076168.0,1590567172.941
2077626.0,1590567172.977
2080385.0,1590567173.018
2083173.0,1590567173.059
2086178.0,1590567173.098
2089062.0,1590567173.138
2091223.0,1590567173.18
2093052.0,1590567173.219
2093986.0,1590567173.259
2094556.0,1590567173.301
2094802.0,1590567173.338
2094763.0,1590567173.378
2095679.0,1590567173.419
2096496.0,1590567173.458
2096765.0,1590567173.499
2096036.0,1590567173.541
2096251.0,1590567173.579
2096451.0,1590567173.619
2096933.0,1590567173.661
2097611.0,1590567173.698
2098096.0,1590567173.739
2098478.0,1590567173.78
2098207.0,1590567173.819
2097819.0,1590567173.859
2098298.0,1590567173.9
2099127.0,1590567173.94
2100302.0,1590567173.98
2101832.0,1590567174.021
2104487.0,1590567174.058
2107161.0,1590567174.098
2109943.0,1590567174.141
2112621.0,1590567174.179
2114868.0,1590567174.219
2116851.0,1590567174.261
2117294.0,1590567174.3
2117080.0,1590567174.341
2116190.0,1590567174.38
2115211.0,1590567174.419
2114423.0,1590567174.459
2113860.0,1590567174.501
2113310.0,1590567174.54
2112907.0,1590567174.58
2112918.0,1590567174.621
2112752.0,1590567174.66
2113740.0,1590567174.7
2114201.0,1590567174.741
2114427.0,1590567174.779
2114986.0,1590567174.819
2115384.0,1590567174.861
2115976.0,1590567174.9
2116514.0,1590567174.941
2117496.0,1590567174.981
2118082.0,1590567175.021
2118672.0,1590567175.061
2119414.0,1590567175.1
2119865.0,1590567175.14
2120738.0,1590567175.179
2120970.0,1590567175.221
2121924.0,1590567175.26
2123148.0,1590567175.3
2124846.0,1590567175.343
2126134.0,1590567175.381
2127189.0,1590567175.419
2128483.0,1590567175.461
2129572.0,1590567175.5
2131031.0,1590567175.541
2131994.0,1590567175.581
2133352.0,1590567175.621
2134932.0,1590567175.663
2136282.0,1590567175.699
2137496.0,1590567175.74
2138404.0,1590567175.779
2139052.0,1590567175.821
2138621.0,1590567175.86
2138242.0,1590567175.9
2138091.0,1590567175.942
2137552.0,1590567175.98
2137479.0,1590567176.021
2137457.0,1590567176.062
2137688.0,1590567176.101
2137518.0,1590567176.142
2137482.0,1590567176.181
2137864.0,1590567176.22
2138096.0,1590567176.26
2138525.0,1590567176.302
2138769.0,1590567176.342
2138994.0,1590567176.381
2139558.0,1590567176.423
2139587.0,1590567176.462
2140245.0,1590567176.5
2141213.0,1590567176.542
2141226.0,1590567176.58
2139812.0,1590567176.621
2138285.0,1590567176.662
2137489.0,1590567176.701
2136764.0,1590567176.742
2136330.0,1590567176.783
2135908.0,1590567176.822
2135753.0,1590567176.86
2135411.0,1590567176.902
2136030.0,1590567176.941
2137841.0,1590567176.981
2138656.0,1590567177.023
2139316.0,1590567177.062
2139447.0,1590567177.102
2139759.0,1590567177.144
2140074.0,1590567177.182
2140796.0,1590567177.22
2141469.0,1590567177.262
2142025.0,1590567177.301
2142674.0,1590567177.342
2143035.0,1590567177.383
2142022.0,1590567177.422
2140434.0,1590567177.462
2138273.0,1590567177.504
2136726.0,1590567177.543
2135414.0,1590567177.581
2134642.0,1590567177.622
2133809.0,1590567177.661
2133499.0,1590567177.702
2132982.0,1590567177.744
2132388.0,1590567177.782
2132080.0,1590567177.822
2131860.0,1590567177.864
2132048.0,1590567177.903
2132110.0,1590567177.942
2132404.0,1590567177.983
2132528.0,1590567178.022
2132990.0,1590567178.062
2132910.0,1590567178.103
2133577.0,1590567178.143
2133742.0,1590567178.183
2133657.0,1590567178.223
2132366.0,1590567178.262
2129646.0,1590567178.299
2127484.0,1590567178.342
2125252.0,1590567178.381
2123504.0,1590567178.421
2122422.0,1590567178.463
2120784.0,1590567178.502
2119364.0,1590567178.543
2118012.0,1590567178.583
2116911.0,1590567178.623
2116447.0,1590567178.663
2115922.0,1590567178.704
2115642.0,1590567178.744
2115578.0,1590567178.783
2115573.0,1590567178.823
2115953.0,1590567178.862
2116345.0,1590567178.902
2116714.0,1590567178.945
2117221.0,1590567178.983
2117671.0,1590567179.023
2117091.0,1590567179.065
2114991.0,1590567179.104
2112459.0,1590567179.145
2110293.0,1590567179.183
2108562.0,1590567179.222
2107701.0,1590567179.263
2106891.0,1590567179.304
2105952.0,1590567179.344
2104832.0,1590567179.383
2104008.0,1590567179.422
2103364.0,1590567179.461
2103091.0,1590567179.5
2102655.0,1590567179.539
2102503.0,1590567179.578
2102343.0,1590567179.617
2102727.0,1590567179.656
2102699.0,1590567179.695
2102531.0,1590567179.734
2102121.0,1590567179.773
2101803.0,1590567179.812
2099401.0,1590567179.851
2095115.0,1590567179.89
2090966.0,1590567179.929
2086807.0,1590567179.968
2082776.0,1590567180.007
2079254.0,1590567180.046
2076534.0,1590567180.085
2074060.0,1590567180.124
2071847.0,1590567180.163
2069826.0,1590567180.202
2067535.0,1590567180.241
2065662.0,1590567180.28
2063894.0,1590567180.319
2062476.0,1590567180.358
2061357.0,1590567180.397
2060570.0,1590567180.436
2059761.0,1590567180.475
2059108.0,1590567180.514
2058769.0,1590567180.553
2058655.0,1590567180.592
2058148.0,1590567180.631
2055151.0,1590567180.67
2050497.0,1590567180.709
2045921.0,1590567180.748
2041894.0,1590567180.787
2038320.0,1590567180.826
2035577.0,1590567180.866
2033482.0,1590567180.906
2031818.0,1590567180.946
2030077.0,1590567180.986
2028929.0,1590567181.026
2028147.0,1590567181.066
2027833.0,1590567181.106
2027735.0,1590567181.146
2028028.0,1590567181.186
2027852.0,1590567181.266
2028008.0,1590567181.226
2027901.0,1590567181.306
2028575.0,1590567181.346
2029208.0,1590567181.386
2029697.0,1590567181.426
2030505.0,1590567181.466
2029155.0,1590567181.506
2025327.0,1590567181.546
2021286.0,1590567181.586
2018207.0,1590567181.626
2014449.0,1590567181.666
2011760.0,1590567181.706
2009832.0,1590567181.746
2008175.0,1590567181.786
2005866.0,1590567181.826
2003103.0,1590567181.866
2000578.0,1590567181.906
1998132.0,1590567181.946
1995660.0,1590567181.986
1994219.0,1590567182.026
1992309.0,1590567182.066
1990684.0,1590567182.106
1989729.0,1590567182.146
1988857.0,1590567182.186
1988030.0,1590567182.226
1986887.0,1590567182.266
1986116.0,1590567182.306
1983167.0,1590567182.346
1977303.0,1590567182.386
1971005.0,1590567182.426
1965026.0,1590567182.466
1959550.0,1590567182.506
1954973.0,1590567182.546
1951611.0,1590567182.586
1948822.0,1590567182.626
1946511.0,1590567182.666
1944133.0,1590567182.706
1942310.0,1590567182.746
1941430.0,1590567182.786
1941890.0,1590567182.826
1942392.0,1590567182.866
1943377.0,1590567182.906
1944653.0,1590567182.946
1945931.0,1590567182.986
1947435.0,1590567183.026
1948346.0,1590567183.066
1949884.0,1590567183.106
1950482.0,1590567183.146
1948036.0,1590567183.186
1944837.0,1590567183.226
1942400.0,1590567183.266
1940391.0,1590567183.306
1939298.0,1590567183.346
1939052.0,1590567183.386
1938828.0,1590567183.426
1938445.0,1590567183.466
1938092.0,1590567183.506
1937916.0,1590567183.546
1938542.0,1590567183.586
1939510.0,1590567183.626
1940696.0,1590567183.666
1942042.0,1590567183.706
1943826.0,1590567183.746
1945684.0,1590567183.786
1947648.0,1590567183.826
1949668.0,1590567183.866
1951730.0,1590567183.906
1950814.0,1590567183.946
1948397.0,1590567183.986
1946667.0,1590567184.026
1945273.0,1590567184.066
1944601.0,1590567184.106
1944344.0,1590567184.146
1944328.0,1590567184.186
1944417.0,1590567184.226
1944234.0,1590567184.266
1943992.0,1590567184.306
1944149.0,1590567184.346
1944890.0,1590567184.386
1946066.0,1590567184.426
1946979.0,1590567184.466
1948279.0,1590567184.506
1949541.0,1590567184.546
1950675.0,1590567184.586
1951892.0,1590567184.626
1953530.0,1590567184.666
1955118.0,1590567184.706
1954751.0,1590567184.746
1952133.0,1590567184.786
1951122.0,1590567184.826
1949922.0,1590567184.866
1949130.0,1590567184.906
1948974.0,1590567184.946
1949759.0,1590567184.986
1950778.0,1590567185.026
1951466.0,1590567185.066
1952268.0,1590567185.106
1953298.0,1590567185.146
1954708.0,1590567185.186
1956750.0,1590567185.226
1958453.0,1590567185.266
1960563.0,1590567185.306
1962774.0,1590567185.346
1964871.0,1590567185.386
1967136.0,1590567185.426
1969334.0,1590567185.466
1971487.0,1590567185.506
1973520.0,1590567185.546
1972588.0,1590567185.586
1970597.0,1590567185.626
1969101.0,1590567185.666
1968182.0,1590567185.706
1967935.0,1590567185.746
1967841.0,1590567185.786
1968478.0,1590567185.826
1968879.0,1590567185.866
1969371.0,1590567185.906
1969829.0,1590567185.946
1970572.0,1590567185.986
1971353.0,1590567186.026
1972232.0,1590567186.066
1973361.0,1590567186.106
1974239.0,1590567186.146
1975465.0,1590567186.186
1977006.0,1590567186.226
1978368.0,1590567186.266
1980058.0,1590567186.306
1981561.0,1590567186.346
1983244.0,1590567186.386
1982443.0,1590567186.426
1980571.0,1590567186.466
1979275.0,1590567186.506
1978962.0,1590567186.546
1978223.0,1590567186.586
1978152.0,1590567186.626
1978536.0,1590567186.666
1978896.0,1590567186.706
1979718.0,1590567186.746
1980722.0,1590567186.786
1981536.0,1590567186.826
1982526.0,1590567186.866
1983708.0,1590567186.906
1985395.0,1590567186.946
1986986.0,1590567186.986
1988841.0,1590567187.026
1990865.0,1590567187.066
1992627.0,1590567187.106
1994401.0,1590567187.146
1996157.0,1590567187.186
1997210.0,1590567187.226
1996789.0,1590567187.266
1996361.0,1590567187.306
1996796.0,1590567187.346
1997791.0,1590567187.386
1999061.0,1590567187.426
2000561.0,1590567187.466
2001515.0,1590567187.506
2002395.0,1590567187.546
2002996.0,1590567187.586
2003661.0,1590567187.626
2004694.0,1590567187.666
2005702.0,1590567187.706
2006801.0,1590567187.746
2008147.0,1590567187.786
2009721.0,1590567187.826
2011587.0,1590567187.866
2013437.0,1590567187.906
2013828.0,1590567187.946
2012864.0,1590567187.986
2012579.0,1590567188.026
2012414.0,1590567188.066
2012769.0,1590567188.106
2013473.0,1590567188.146
2014589.0,1590567188.186
2015574.0,1590567188.226
2016578.0,1590567188.266
2017781.0,1590567188.306
2018613.0,1590567188.346
2019778.0,1590567188.386
2021557.0,1590567188.426
2022877.0,1590567188.466
2024537.0,1590567188.506
2026032.0,1590567188.546
2027913.0,1590567188.586
2029105.0,1590567188.626
2030453.0,1590567188.666
2029359.0,1590567188.706
2027663.0,1590567188.746
2026285.0,1590567188.786
2025169.0,1590567188.826
2023601.0,1590567188.866
2022635.0,1590567188.906
2022472.0,1590567188.946
2022589.0,1590567188.986
2022564.0,1590567189.026
2022995.0,1590567189.066
2023751.0,1590567189.106
2024506.0,1590567189.146
2025265.0,1590567189.186
2026367.0,1590567189.226
2027338.0,1590567189.266
2028380.0,1590567189.306
2029379.0,1590567189.346
2030309.0,1590567189.386
2030593.0,1590567189.426
2029463.0,1590567189.466
2027769.0,1590567189.506
2026641.0,1590567189.546
2025602.0,1590567189.586
2024820.0,1590567189.626
2024806.0,1590567189.666
2024834.0,1590567189.706
2024575.0,1590567189.746
2024598.0,1590567189.786
2024448.0,1590567189.826
2025035.0,1590567189.866
2025441.0,1590567189.906
2025960.0,1590567189.946
2027079.0,1590567189.986
2027880.0,1590567190.026
2029174.0,1590567190.066
2030461.0,1590567190.106
2031794.0,1590567190.146
2032778.0,1590567190.186
2032836.0,1590567190.226
2031182.0,1590567190.266
2029785.0,1590567190.306
2028775.0,1590567190.346
2027141.0,1590567190.386
2024904.0,1590567190.426
2022456.0,1590567190.466
2018785.0,1590567190.506
2015222.0,1590567190.546
2011327.0,1590567190.586
2008537.0,1590567190.626
2005915.0,1590567190.666
2003579.0,1590567190.706
2002176.0,1590567190.746
2000258.0,1590567190.786
1998826.0,1590567190.826
1998010.0,1590567190.866
1997580.0,1590567190.906
1997036.0,1590567190.946
1995259.0,1590567190.986
1993465.0,1590567191.026
1991805.0,1590567191.066
1990819.0,1590567191.106
1990265.0,1590567191.146
1990125.0,1590567191.186
1990393.0,1590567191.226
1990232.0,1590567191.266
1990544.0,1590567191.306
1990868.0,1590567191.346
1992213.0,1590567191.387
1994082.0,1590567191.426
1995469.0,1590567191.466
1997192.0,1590567191.508
1999730.0,1590567191.546
2001948.0,1590567191.586
2007303.0,1590567191.667
2004751.0,1590567191.628
2006066.0,1590567191.707
2004472.0,1590567191.748
2003007.0,1590567191.787
2001443.0,1590567191.827
2000544.0,1590567191.868
1999233.0,1590567191.908
1997673.0,1590567191.947
1996449.0,1590567191.988
1994624.0,1590567192.027
1993371.0,1590567192.067
1992430.0,1590567192.109
1991166.0,1590567192.147
1991115.0,1590567192.187
1991380.0,1590567192.228
1992825.0,1590567192.267
1994360.0,1590567192.308
1995303.0,1590567192.349
1994555.0,1590567192.388
1992085.0,1590567192.428
1988636.0,1590567192.469
1985405.0,1590567192.508
1981075.0,1590567192.548
1976910.0,1590567192.589
1972708.0,1590567192.628
1968287.0,1590567192.668
1963583.0,1590567192.71
1954967.0,1590567192.788
1958955.0,1590567192.748
1951051.0,1590567192.829
1947722.0,1590567192.868
1944838.0,1590567192.909
1942345.0,1590567192.949
1940281.0,1590567192.988
1936296.0,1590567193.069
1933042.0,1590567193.109
1938141.0,1590567193.028
1929786.0,1590567193.148
1926784.0,1590567193.19
1923788.0,1590567193.229
1921000.0,1590567193.269
1918821.0,1590567193.31
1917144.0,1590567193.349
1915959.0,1590567193.389
1915207.0,1590567193.43
1914294.0,1590567193.469
1913570.0,1590567193.509
1913070.0,1590567193.55
1912991.0,1590567193.589
1912754.0,1590567193.629
1912481.0,1590567193.67
1912174.0,1590567193.71
1911896.0,1590567193.749
1910629.0,1590567193.79
1908093.0,1590567193.829
1905767.0,1590567193.869
1903808.0,1590567193.911
1902038.0,1590567193.949
1899040.0,1590567194.069
1898449.0,1590567194.11
1898016.0,1590567194.151
1899783.0,1590567194.03
1900781.0,1590567193.989
1897531.0,1590567194.19
1897460.0,1590567194.271
1897606.0,1590567194.23
1897851.0,1590567194.31
1897956.0,1590567194.35
1898453.0,1590567194.391
1898816.0,1590567194.43
1898680.0,1590567194.47
1897412.0,1590567194.512
1895819.0,1590567194.55
1894974.0,1590567194.59
1893911.0,1590567194.631
1893165.0,1590567194.67
1892761.0,1590567194.711
1892566.0,1590567194.751
1892658.0,1590567194.79
1892864.0,1590567194.83
1893180.0,1590567194.871
1893859.0,1590567194.911
1894617.0,1590567194.95
1896041.0,1590567194.992
1897210.0,1590567195.031
1898454.0,1590567195.071
1899785.0,1590567195.112
1900937.0,1590567195.151
1900771.0,1590567195.191
1899967.0,1590567195.232
1899610.0,1590567195.271
1899525.0,1590567195.312
1899295.0,1590567195.352
1899615.0,1590567195.391
1900324.0,1590567195.431
1901163.0,1590567195.472
1902170.0,1590567195.512
1903194.0,1590567195.551
1904238.0,1590567195.592
1905246.0,1590567195.631
1905984.0,1590567195.671
1906740.0,1590567195.713
1907754.0,1590567195.751
1908657.0,1590567195.792
1909202.0,1590567195.833
1908372.0,1590567195.872
1907114.0,1590567195.912
1906185.0,1590567195.953
1905334.0,1590567195.992
1904575.0,1590567196.032
1904360.0,1590567196.073
1904310.0,1590567196.113
1904055.0,1590567196.152
1904227.0,1590567196.193
1904295.0,1590567196.232
1904463.0,1590567196.272
1904824.0,1590567196.314
1905127.0,1590567196.352
1905834.0,1590567196.392
1906333.0,1590567196.433
1906620.0,1590567196.473
1906207.0,1590567196.513
1905149.0,1590567196.554
1904449.0,1590567196.593
1904055.0,1590567196.633
1903572.0,1590567196.674
1903715.0,1590567196.714
1903927.0,1590567196.753
1903977.0,1590567196.794
1903963.0,1590567196.833
1904241.0,1590567196.873
1904709.0,1590567196.915
1904869.0,1590567196.953
1905544.0,1590567196.993
1906275.0,1590567197.035
1906966.0,1590567197.074
1907770.0,1590567197.114
1907648.0,1590567197.155
1907221.0,1590567197.194
1906692.0,1590567197.234
1906328.0,1590567197.275
1906275.0,1590567197.314
1906338.0,1590567197.354
1906835.0,1590567197.395
1907082.0,1590567197.434
1907325.0,1590567197.474
1907635.0,1590567197.516
1907905.0,1590567197.554
1908532.0,1590567197.594
1908774.0,1590567197.635
1909364.0,1590567197.674
1910021.0,1590567197.715
1910189.0,1590567197.755
1909596.0,1590567197.794
1909023.0,1590567197.834
1908719.0,1590567197.876
1908220.0,1590567197.915
1908077.0,1590567197.955
1908280.0,1590567197.996
1908264.0,1590567198.035
1908515.0,1590567198.075
1908635.0,1590567198.116
1908933.0,1590567198.155
1909261.0,1590567198.195
1909756.0,1590567198.236
1910136.0,1590567198.275
1910804.0,1590567198.316
1911332.0,1590567198.356
1911940.0,1590567198.395
1912424.0,1590567198.435
1912073.0,1590567198.476
1911146.0,1590567198.516
1910732.0,1590567198.555
1910089.0,1590567198.596
1910027.0,1590567198.635
1909932.0,1590567198.675
1910133.0,1590567198.717
1910394.0,1590567198.755
1910527.0,1590567198.796
1910525.0,1590567198.837
1910632.0,1590567198.876
1911120.0,1590567198.916
1911798.0,1590567198.957
1912042.0,1590567198.996
1912419.0,1590567199.036
1912863.0,1590567199.077
1913490.0,1590567199.117
1913559.0,1590567199.156
1912798.0,1590567199.197
1912012.0,1590567199.236
1911388.0,1590567199.276
1910947.0,1590567199.318
1910745.0,1590567199.356
1910668.0,1590567199.396
1910853.0,1590567199.437
1910688.0,1590567199.476
1910612.0,1590567199.517
1910832.0,1590567199.557
1910973.0,1590567199.596
1911239.0,1590567199.636
1911613.0,1590567199.678
1912173.0,1590567199.717
1912636.0,1590567199.757
1913532.0,1590567199.837
1912969.0,1590567199.798
1913826.0,1590567199.877
1912557.0,1590567199.957
1913359.0,1590567199.919
1911999.0,1590567199.997
1911752.0,1590567200.038
1911258.0,1590567200.077
1911245.0,1590567200.118
1911499.0,1590567200.158
1911165.0,1590567200.237
1911275.0,1590567200.197
1911112.0,1590567200.278
1911279.0,1590567200.318
1911454.0,1590567200.357
1911697.0,1590567200.398
1911647.0,1590567200.438
1912095.0,1590567200.478
1912295.0,1590567200.519
1912721.0,1590567200.558
1912861.0,1590567200.598
1912955.0,1590567200.639
1912359.0,1590567200.678
1911423.0,1590567200.719
1910403.0,1590567200.759
1909835.0,1590567200.798
1909271.0,1590567200.838
1909086.0,1590567200.879
1908944.0,1590567200.919
1908716.0,1590567200.958
1908413.0,1590567200.999
1908180.0,1590567201.038
1908144.0,1590567201.078
1908277.0,1590567201.12
1908147.0,1590567201.158
1908196.0,1590567201.198
1908363.0,1590567201.239
1908654.0,1590567201.278
1908633.0,1590567201.319
1909067.0,1590567201.36
1908973.0,1590567201.399
1908754.0,1590567201.439
1907861.0,1590567201.48
1906893.0,1590567201.519
1906071.0,1590567201.559
1905557.0,1590567201.6
1905161.0,1590567201.639
1904928.0,1590567201.679
1904662.0,1590567201.721
1904270.0,1590567201.759
1904288.0,1590567201.799
1903873.0,1590567201.84
1903811.0,1590567201.879
1903837.0,1590567201.92
1903701.0,1590567201.96
1903828.0,1590567201.999
1903884.0,1590567202.039
1904106.0,1590567202.08
1904094.0,1590567202.12
1904357.0,1590567202.159
1904528.0,1590567202.201
1903818.0,1590567202.24
1902611.0,1590567202.28
1902001.0,1590567202.321
1900974.0,1590567202.36
1900503.0,1590567202.4
1900166.0,1590567202.441
1899924.0,1590567202.48
1899480.0,1590567202.52
1899387.0,1590567202.561
1898962.0,1590567202.6
1899201.0,1590567202.64
1899121.0,1590567202.681
1899610.0,1590567202.721
1899677.0,1590567202.76
1899933.0,1590567202.801
1900333.0,1590567202.84
1900569.0,1590567202.88
1900777.0,1590567202.922
1901049.0,1590567202.96
1900669.0,1590567203.0
1899870.0,1590567203.041
1898823.0,1590567203.08
1897947.0,1590567203.121
1897357.0,1590567203.161
1897096.0,1590567203.2
1896678.0,1590567203.24
1896274.0,1590567203.281
1895838.0,1590567203.321
1895580.0,1590567203.407
1895453.0,1590567203.448
1895446.0,1590567203.487
1895255.0,1590567203.527
1895281.0,1590567203.569
1895163.0,1590567203.607
1895371.0,1590567203.647
1895557.0,1590567203.688
1895746.0,1590567203.727
1896058.0,1590567203.768
1895733.0,1590567203.808
1894686.0,1590567203.847
1893921.0,1590567203.887
1893112.0,1590567203.928
1892658.0,1590567203.968
1892343.0,1590567204.007
1892060.0,1590567204.048
1891682.0,1590567204.087
1891322.0,1590567204.127
1890965.0,1590567204.169
1890827.0,1590567204.207
1890801.0,1590567204.248
1890800.0,1590567204.289
1890842.0,1590567204.328
1890997.0,1590567204.368
1891186.0,1590567204.409
1891380.0,1590567204.448
1890824.0,1590567204.488
1889534.0,1590567204.529
1888628.0,1590567204.569
1887548.0,1590567204.608
1887014.0,1590567204.649
1886447.0,1590567204.688
1886092.0,1590567204.728
1885642.0,1590567204.77
1885228.0,1590567204.808
1884613.0,1590567204.848
1884452.0,1590567204.889
1884171.0,1590567204.928
1884253.0,1590567204.969
1883944.0,1590567205.009
1883817.0,1590567205.048
1883946.0,1590567205.089
1883914.0,1590567205.13
1883765.0,1590567205.169
1882991.0,1590567205.209
1881385.0,1590567205.25
1879932.0,1590567205.289
1878580.0,1590567205.329
1877712.0,1590567205.372
1877638.0,1590567205.41
1877657.0,1590567205.446
1876882.0,1590567205.485
1875888.0,1590567205.524
1875342.0,1590567205.565
1875217.0,1590567205.606
1874896.0,1590567205.645
1875199.0,1590567205.685
1875651.0,1590567205.727
1875833.0,1590567205.767
1876311.0,1590567205.806
1876069.0,1590567205.846
1876148.0,1590567205.885
1876224.0,1590567205.925
1874904.0,1590567205.967
1873066.0,1590567206.005
1871361.0,1590567206.045
1868466.0,1590567206.126
1869615.0,1590567206.087
1867709.0,1590567206.167
1867416.0,1590567206.208
1867025.0,1590567206.245
1866542.0,1590567206.285
1866493.0,1590567206.326
1865995.0,1590567206.366
1865625.0,1590567206.405
1865460.0,1590567206.446
1865306.0,1590567206.485
1865077.0,1590567206.567
1865336.0,1590567206.525
1865179.0,1590567206.606
1865223.0,1590567206.646
1865374.0,1590567206.688
1865237.0,1590567206.727
1863576.0,1590567206.767
1862055.0,1590567206.806
1860640.0,1590567206.845
1859361.0,1590567206.885
1858345.0,1590567206.927
1857736.0,1590567206.967
1857257.0,1590567207.006
1856470.0,1590567207.048
1856054.0,1590567207.087
1855471.0,1590567207.127
1855313.0,1590567207.169
1855303.0,1590567207.205
1855147.0,1590567207.246
1855285.0,1590567207.287
1855271.0,1590567207.326
1855378.0,1590567207.367
1855445.0,1590567207.408
1855657.0,1590567207.447
1856227.0,1590567207.487
1856203.0,1590567207.529
1855363.0,1590567207.566
1854359.0,1590567207.606
1853224.0,1590567207.647
1852167.0,1590567207.686
1851481.0,1590567207.726
1850939.0,1590567207.769
1850586.0,1590567207.807
1850252.0,1590567207.847
1849897.0,1590567207.889
1849734.0,1590567207.928
1849762.0,1590567207.967
1849705.0,1590567208.007
1849869.0,1590567208.046
1849945.0,1590567208.087
1850173.0,1590567208.128
1850665.0,1590567208.168
1850771.0,1590567208.207
1851280.0,1590567208.249
1851699.0,1590567208.286
1852362.0,1590567208.326
1852918.0,1590567208.369
1852504.0,1590567208.407
1851955.0,1590567208.447
1851365.0,1590567208.488
1850876.0,1590567208.528
1850797.0,1590567208.568
1850806.0,1590567208.609
1850971.0,1590567208.648
1851080.0,1590567208.686
1851211.0,1590567208.728
1851589.0,1590567208.768
1852155.0,1590567208.807
1852676.0,1590567208.849
1853198.0,1590567208.888
1853910.0,1590567208.928
1854667.0,1590567208.969
1855391.0,1590567209.006
1856217.0,1590567209.046
1857088.0,1590567209.087
1858144.0,1590567209.127
1859108.0,1590567209.167
1859873.0,1590567209.208
1860098.0,1590567209.248
1860087.0,1590567209.288
1860462.0,1590567209.329
1860617.0,1590567209.369
1861069.0,1590567209.408
1861531.0,1590567209.45
1862242.0,1590567209.487
1862607.0,1590567209.527
1863225.0,1590567209.569
1863655.0,1590567209.608
1864529.0,1590567209.648
1865179.0,1590567209.689
1865894.0,1590567209.729
1866756.0,1590567209.769
1867716.0,1590567209.81
1868363.0,1590567209.849
1869060.0,1590567209.887
1870033.0,1590567209.929
1870767.0,1590567209.969
1871692.0,1590567210.008
1872095.0,1590567210.05
1871945.0,1590567210.089
1871729.0,1590567210.129
1871533.0,1590567210.171
1871113.0,1590567210.209
1870742.0,1590567210.247
1870845.0,1590567210.289
1870393.0,1590567210.328
1870236.0,1590567210.369
1870085.0,1590567210.41
1869927.0,1590567210.449
1870039.0,1590567210.489
1870097.0,1590567210.531
1870452.0,1590567210.57
1870552.0,1590567210.608
1870884.0,1590567210.649
1870961.0,1590567210.688
1871151.0,1590567210.728
1871572.0,1590567210.771
1871890.0,1590567210.809
1872366.0,1590567210.849
1872302.0,1590567210.891
1872026.0,1590567210.93
1872102.0,1590567210.971
1871902.0,1590567211.009
1871706.0,1590567211.048
1871977.0,1590567211.089
1872329.0,1590567211.13
1872933.0,1590567211.17
1873598.0,1590567211.209
1874357.0,1590567211.251
1874788.0,1590567211.29
1875017.0,1590567211.33
1875521.0,1590567211.37
1875721.0,1590567211.409
1876239.0,1590567211.449
1876733.0,1590567211.489
1877357.0,1590567211.528
1877942.0,1590567211.569
1878314.0,1590567211.609
1878858.0,1590567211.649
1879262.0,1590567211.689
1880076.0,1590567211.731
1879990.0,1590567211.771
1879910.0,1590567211.81
1879699.0,1590567211.852
1879531.0,1590567211.889
1879560.0,1590567211.929
1879595.0,1590567211.971
1879703.0,1590567212.01
1879663.0,1590567212.05
1879747.0,1590567212.091
1880059.0,1590567212.13
1880290.0,1590567212.171
1880375.0,1590567212.212
1880631.0,1590567212.249
1880730.0,1590567212.289
1881257.0,1590567212.331
1881723.0,1590567212.371
1882405.0,1590567212.41
1882983.0,1590567212.452
1883678.0,1590567212.49
1884306.0,1590567212.531
1884923.0,1590567212.573
1885159.0,1590567212.611
1884958.0,1590567212.649
1884568.0,1590567212.691
1884251.0,1590567212.73
1883708.0,1590567212.771
1883595.0,1590567212.812
1883093.0,1590567212.851
1882851.0,1590567212.891
1882625.0,1590567212.932
1882461.0,1590567212.972
1882247.0,1590567213.009
1882224.0,1590567213.051
1882335.0,1590567213.09
1881961.0,1590567213.13
1882163.0,1590567213.173
1882326.0,1590567213.211
1882230.0,1590567213.251
1882368.0,1590567213.293
1882340.0,1590567213.332
1882505.0,1590567213.371
1882590.0,1590567213.411
1882273.0,1590567213.451
1881216.0,1590567213.491
1880724.0,1590567213.532
1879668.0,1590567213.572
1878844.0,1590567213.611
1878303.0,1590567213.653
1877705.0,1590567213.692
1877267.0,1590567213.73
1876497.0,1590567213.772
1876187.0,1590567213.811
1875739.0,1590567213.851
1875312.0,1590567213.892
1875267.0,1590567213.932
1875151.0,1590567213.972
1875260.0,1590567214.013
1875103.0,1590567214.052
1875167.0,1590567214.089
1875199.0,1590567214.13
1875462.0,1590567214.17
1875512.0,1590567214.21
1875533.0,1590567214.252
1875143.0,1590567214.291
1874078.0,1590567214.331
1873410.0,1590567214.373
1872443.0,1590567214.411
1871500.0,1590567214.451
1870760.0,1590567214.493
1870001.0,1590567214.532
1868887.0,1590567214.614
1869349.0,1590567214.573
1868353.0,1590567214.653
1867920.0,1590567214.691
1867382.0,1590567214.732
1867065.0,1590567214.772
1866809.0,1590567214.811
1866721.0,1590567214.853
1866683.0,1590567214.892
1866554.0,1590567214.932
1866494.0,1590567214.975
1866629.0,1590567215.013
1866891.0,1590567215.053
1867149.0,1590567215.092
1866539.0,1590567215.132
1864355.0,1590567215.253
1863507.0,1590567215.293
1864968.0,1590567215.213
1865671.0,1590567215.172
1862977.0,1590567215.334
1862837.0,1590567215.374
1862493.0,1590567215.415
1862411.0,1590567215.456
1862096.0,1590567215.495
1862216.0,1590567215.535
1862503.0,1590567215.576
1862633.0,1590567215.615
1862950.0,1590567215.655
1863109.0,1590567215.696
1863556.0,1590567215.735
1863986.0,1590567215.776
1864629.0,1590567215.816
1865059.0,1590567215.855
1864123.0,1590567215.936
1864313.0,1590567215.895
1863402.0,1590567215.976
1863064.0,1590567216.015
1862633.0,1590567216.056
1862499.0,1590567216.094
1862585.0,1590567216.134
1862493.0,1590567216.176
1862475.0,1590567216.215
1862532.0,1590567216.255
1862928.0,1590567216.297
1863566.0,1590567216.376
1863030.0,1590567216.336
1864122.0,1590567216.454
1863741.0,1590567216.417
1865003.0,1590567216.536
1864512.0,1590567216.494
1865371.0,1590567216.576
1865954.0,1590567216.615
1865815.0,1590567216.654
1862672.0,1590567216.733
1864210.0,1590567216.693
1861155.0,1590567216.775
1859548.0,1590567216.814
1858165.0,1590567216.854
1857106.0,1590567216.896
1856328.0,1590567216.935
1855492.0,1590567217.016
1855649.0,1590567216.975
1855164.0,1590567217.055
1855045.0,1590567217.137
1855062.0,1590567217.096
1855257.0,1590567217.177
1855524.0,1590567217.216
1855992.0,1590567217.258
1856152.0,1590567217.295
1856249.0,1590567217.335
1856576.0,1590567217.377
1857113.0,1590567217.416
1857572.0,1590567217.456
1857962.0,1590567217.497
1857271.0,1590567217.536
1855937.0,1590567217.577
1854761.0,1590567217.618
1852789.0,1590567217.695
1852240.0,1590567217.737
1854044.0,1590567217.657
1851782.0,1590567217.776
1851335.0,1590567217.816
1850666.0,1590567217.857
1850485.0,1590567217.896
1850409.0,1590567217.937
1850025.0,1590567217.979
1850142.0,1590567218.017
1850093.0,1590567218.057
1850128.0,1590567218.097
1850517.0,1590567218.136
1850902.0,1590567218.177
1851091.0,1590567218.257
1851046.0,1590567218.218
1851138.0,1590567218.297
1851199.0,1590567218.339
1851629.0,1590567218.378
1849414.0,1590567218.457
1848109.0,1590567218.496
1850703.0,1590567218.416
1846971.0,1590567218.536
1846024.0,1590567218.579
1845280.0,1590567218.617
1844543.0,1590567218.657
1843877.0,1590567218.699
1843507.0,1590567218.738
1843197.0,1590567218.779
1843101.0,1590567218.817
1843020.0,1590567218.856
1843393.0,1590567218.896
1843654.0,1590567218.938
1845320.0,1590567219.017
1844137.0,1590567218.978
1848909.0,1590567219.255
1847466.0,1590567219.138
1846675.0,1590567219.098
1847847.0,1590567219.18
1848381.0,1590567219.215
1846136.0,1590567219.059
1849667.0,1590567219.296
1849488.0,1590567219.336
1848585.0,1590567219.377
1847819.0,1590567219.418
1846984.0,1590567219.457
1846277.0,1590567219.497
1845885.0,1590567219.538
1845216.0,1590567219.618
1845560.0,1590567219.578
1844552.0,1590567219.698
1844726.0,1590567219.659
1844205.0,1590567219.738
1844292.0,1590567219.781
1844603.0,1590567219.817
1844759.0,1590567219.857
1844712.0,1590567219.898
1844980.0,1590567219.938
1845393.0,1590567219.978
1846410.0,1590567220.019
1847914.0,1590567220.058
1849193.0,1590567220.098
1850711.0,1590567220.14
1852542.0,1590567220.217
1851835.0,1590567220.18
1852912.0,1590567220.259
1854287.0,1590567220.338
1853499.0,1590567220.298
1856279.0,1590567220.418
1857546.0,1590567220.459
1858624.0,1590567220.5
1855109.0,1590567220.38
1859742.0,1590567220.539
1861447.0,1590567220.578
1862692.0,1590567220.619
1863947.0,1590567220.658
1865208.0,1590567220.698
1866403.0,1590567220.74
1867514.0,1590567220.779
1868733.0,1590567220.819
1869381.0,1590567220.861
1870292.0,1590567220.899
1871078.0,1590567220.938
1871450.0,1590567220.98
1870991.0,1590567221.018
1870691.0,1590567221.058
1870356.0,1590567221.1
1869972.0,1590567221.139
1869767.0,1590567221.18
1869736.0,1590567221.221
1869679.0,1590567221.26
1869253.0,1590567221.298
1869020.0,1590567221.339
1869051.0,1590567221.379
1869102.0,1590567221.418
1869282.0,1590567221.46
1869718.0,1590567221.499
1870309.0,1590567221.539
1870822.0,1590567221.581
1871370.0,1590567221.62
1871925.0,1590567221.66
1872370.0,1590567221.699
1873063.0,1590567221.739
1873390.0,1590567221.779
1873336.0,1590567221.819
1872398.0,1590567221.858
1872114.0,1590567221.899
1871791.0,1590567221.94
1871732.0,1590567221.98
1871301.0,1590567222.019
1871002.0,1590567222.061
1870826.0,1590567222.1
1870865.0,1590567222.14
1870692.0,1590567222.182
1870730.0,1590567222.219
1870916.0,1590567222.259
1870753.0,1590567222.3
1870493.0,1590567222.34
1870772.0,1590567222.38
1870776.0,1590567222.421
1870749.0,1590567222.46
1870732.0,1590567222.5
1871122.0,1590567222.542
1871209.0,1590567222.58
1871118.0,1590567222.619
1869905.0,1590567222.661
1868761.0,1590567222.7
1867772.0,1590567222.74
1866868.0,1590567222.782
1866313.0,1590567222.82
1865516.0,1590567222.86
1865155.0,1590567222.902
1864502.0,1590567222.941
1863953.0,1590567222.98
1863498.0,1590567223.021
1863224.0,1590567223.06
1862969.0,1590567223.1
1862625.0,1590567223.142
1862304.0,1590567223.181
1862455.0,1590567223.221
1862492.0,1590567223.262
1862786.0,1590567223.301
1863188.0,1590567223.339
1863160.0,1590567223.382
1863522.0,1590567223.42
1862905.0,1590567223.46
1862277.0,1590567223.502
1861635.0,1590567223.541
1861014.0,1590567223.582
1860086.0,1590567223.622
1859558.0,1590567223.662
1859112.0,1590567223.7
1858592.0,1590567223.741
1858411.0,1590567223.781
1858056.0,1590567223.82
1857925.0,1590567223.862
1857996.0,1590567223.901
1858070.0,1590567223.941
1858492.0,1590567223.983
1858570.0,1590567224.022
1858886.0,1590567224.062
1859309.0,1590567224.101
1859667.0,1590567224.14
1859862.0,1590567224.181
1859262.0,1590567224.222
1858666.0,1590567224.261
1858507.0,1590567224.301
1857727.0,1590567224.339
1857654.0,1590567224.38
1857727.0,1590567224.42
1857901.0,1590567224.461
1857912.0,1590567224.5
1857900.0,1590567224.541
1858183.0,1590567224.583
1858381.0,1590567224.621
1858760.0,1590567224.661
1859277.0,1590567224.703
1859582.0,1590567224.742
1859847.0,1590567224.783
1860616.0,1590567224.824
1860940.0,1590567224.863
1861657.0,1590567224.9
1861250.0,1590567224.942
1860393.0,1590567224.982
1859626.0,1590567225.021
1858633.0,1590567225.063
1857741.0,1590567225.102
1856969.0,1590567225.142
1856635.0,1590567225.184
1856111.0,1590567225.223
1855734.0,1590567225.261
1855231.0,1590567225.302
1854959.0,1590567225.342
1855053.0,1590567225.382
1855095.0,1590567225.423
1854985.0,1590567225.462
1855260.0,1590567225.502
1855307.0,1590567225.544
1855620.0,1590567225.584
1855960.0,1590567225.621
1856152.0,1590567225.663
1855739.0,1590567225.702
1854741.0,1590567225.742
1853357.0,1590567225.784
1852346.0,1590567225.822
1851015.0,1590567225.863
1849895.0,1590567225.904
1849372.0,1590567225.943
1848746.0,1590567225.984
1847866.0,1590567226.023
1847465.0,1590567226.062
1847345.0,1590567226.102
1847162.0,1590567226.144
1846833.0,1590567226.183
1847007.0,1590567226.223
1846985.0,1590567226.264
1847093.0,1590567226.303
1847325.0,1590567226.344
1847656.0,1590567226.384
1848215.0,1590567226.422
1848135.0,1590567226.462
1847576.0,1590567226.504
1846319.0,1590567226.543
1845143.0,1590567226.584
1843991.0,1590567226.624
1842927.0,1590567226.663
1842285.0,1590567226.704
1841653.0,1590567226.745
1841120.0,1590567226.783
1840528.0,1590567226.822
1840016.0,1590567226.863
1839844.0,1590567226.902
1839645.0,1590567226.942
1839568.0,1590567226.984
1839603.0,1590567227.023
1839657.0,1590567227.063
1839749.0,1590567227.105
1839949.0,1590567227.144
1840320.0,1590567227.184
1840746.0,1590567227.225
1841192.0,1590567227.262
1840923.0,1590567227.303
1839973.0,1590567227.344
1838846.0,1590567227.384
1838025.0,1590567227.423
1837070.0,1590567227.464
1836460.0,1590567227.503
1836390.0,1590567227.543
1836059.0,1590567227.584
1835845.0,1590567227.623
1835615.0,1590567227.663
1835664.0,1590567227.704
1835638.0,1590567227.743
1835935.0,1590567227.784
1836373.0,1590567227.824
1836811.0,1590567227.863
1837227.0,1590567227.904
1837832.0,1590567227.945
1838535.0,1590567227.985
1839248.0,1590567228.024
1839489.0,1590567228.066
1839073.0,1590567228.105
1838455.0,1590567228.143
1838136.0,1590567228.185
1837636.0,1590567228.224
1837695.0,1590567228.264
1837820.0,1590567228.305
1838251.0,1590567228.345
1838879.0,1590567228.385
1839556.0,1590567228.426
1840888.0,1590567228.465
1842492.0,1590567228.503
1844386.0,1590567228.545
1846080.0,1590567228.584
1847371.0,1590567228.624
1848901.0,1590567228.666
1850431.0,1590567228.705
1851937.0,1590567228.745
1852941.0,1590567228.787
1852810.0,1590567228.825
1852522.0,1590567228.865
1852151.0,1590567228.905
1852023.0,1590567228.944
1852143.0,1590567228.985
1852202.0,1590567229.026
1852295.0,1590567229.065
1852833.0,1590567229.105
1853349.0,1590567229.147
1853967.0,1590567229.186
1854947.0,1590567229.226
1855716.0,1590567229.265
1856501.0,1590567229.304
1857357.0,1590567229.344
1858366.0,1590567229.387
1859405.0,1590567229.425
1860235.0,1590567229.462
1860904.0,1590567229.504
1861060.0,1590567229.544
1860073.0,1590567229.585
1859079.0,1590567229.625
1857928.0,1590567229.664
1856529.0,1590567229.705
1855433.0,1590567229.746
1854422.0,1590567229.786
1853669.0,1590567229.825
1852892.0,1590567229.867
1851806.0,1590567229.906
1851255.0,1590567229.946
1850707.0,1590567229.988
1850626.0,1590567230.025
1850289.0,1590567230.065
1850340.0,1590567230.106
1850711.0,1590567230.145
1851539.0,1590567230.186
1852516.0,1590567230.227
1853712.0,1590567230.266
1853781.0,1590567230.306
1853943.0,1590567230.348
1854335.0,1590567230.386
1855070.0,1590567230.425
1855894.0,1590567230.467
1857351.0,1590567230.505
1859229.0,1590567230.546
1860664.0,1590567230.588
1861913.0,1590567230.626
1863151.0,1590567230.666
1864395.0,1590567230.708
1865726.0,1590567230.747
1866633.0,1590567230.786
1867585.0,1590567230.827
1868133.0,1590567230.866
1868559.0,1590567230.906
1868759.0,1590567230.947
1869151.0,1590567230.987
1869247.0,1590567231.026
1869084.0,1590567231.068
1868166.0,1590567231.107
1867583.0,1590567231.145
1866930.0,1590567231.188
1866378.0,1590567231.226
1865923.0,1590567231.266
1865589.0,1590567231.308
1865180.0,1590567231.347
1864848.0,1590567231.388
1864498.0,1590567231.428
1864776.0,1590567231.468
1865133.0,1590567231.505
1865130.0,1590567231.547
1865257.0,1590567231.587
1865308.0,1590567231.626
1865102.0,1590567231.668
1865089.0,1590567231.707
1865236.0,1590567231.747
1864848.0,1590567231.789
1864442.0,1590567231.828
1863369.0,1590567231.868
1861649.0,1590567231.907
1860226.0,1590567231.946
1858618.0,1590567231.986
1857354.0,1590567232.027
1856365.0,1590567232.066
1855545.0,1590567232.106
1854915.0,1590567232.148
1854266.0,1590567232.188
1853913.0,1590567232.227
1853482.0,1590567232.269
1853422.0,1590567232.308
1853445.0,1590567232.346
1853345.0,1590567232.388
1853577.0,1590567232.427
1853434.0,1590567232.467
1853905.0,1590567232.508
1854162.0,1590567232.548
1854341.0,1590567232.588
1853516.0,1590567232.629
1852451.0,1590567232.668
1851683.0,1590567232.706
1851003.0,1590567232.748
1850358.0,1590567232.788
1850597.0,1590567232.827
1850944.0,1590567232.869
1850997.0,1590567232.908
1851223.0,1590567232.948
1851625.0,1590567232.99
1852247.0,1590567233.029
1852656.0,1590567233.069
1853394.0,1590567233.108
1853970.0,1590567233.147
1854229.0,1590567233.188
1854591.0,1590567233.229
1854987.0,1590567233.268
1855390.0,1590567233.308
1855624.0,1590567233.35
1854908.0,1590567233.39
1853741.0,1590567233.429
1852582.0,1590567233.468
1851560.0,1590567233.507
1850450.0,1590567233.548
1849599.0,1590567233.59
1848994.0,1590567233.628
1848359.0,1590567233.668
1847820.0,1590567233.71
1847427.0,1590567233.749
1847251.0,1590567233.79
1847070.0,1590567233.829
1847118.0,1590567233.868
1847526.0,1590567233.908
1847834.0,1590567233.949
1848210.0,1590567233.989
1848913.0,1590567234.029
1850665.0,1590567234.07
1852172.0,1590567234.109
1854057.0,1590567234.149
1855083.0,1590567234.19
1855455.0,1590567234.228
1854582.0,1590567234.268
1853815.0,1590567234.31
1852791.0,1590567234.349
1851800.0,1590567234.39
1850684.0,1590567234.431
1849971.0,1590567234.47
1849268.0,1590567234.51
1848615.0,1590567234.548
1848261.0,1590567234.588
1847936.0,1590567234.628
1847683.0,1590567234.669
1847701.0,1590567234.708
1847758.0,1590567234.749
1847884.0,1590567234.791
1848256.0,1590567234.829
1848675.0,1590567234.869
1849235.0,1590567234.911
1849919.0,1590567234.95
1850723.0,1590567234.991
1851306.0,1590567235.03
1851998.0,1590567235.069
1851943.0,1590567235.109
1851184.0,1590567235.15
1850213.0,1590567235.19
1849348.0,1590567235.23
1848589.0,1590567235.271
1847873.0,1590567235.31
1847433.0,1590567235.35
1847209.0,1590567235.39
1847307.0,1590567235.429
1847142.0,1590567235.469
1847407.0,1590567235.51
1848012.0,1590567235.55
1848589.0,1590567235.59
1849580.0,1590567235.631
1850794.0,1590567235.67
1851569.0,1590567235.71
1852778.0,1590567235.752
1854202.0,1590567235.79
1855661.0,1590567235.829
1857228.0,1590567235.871
1858631.0,1590567235.91
1859885.0,1590567235.95
1862391.0,1590567236.03
1861494.0,1590567235.992
1862638.0,1590567236.07
1862896.0,1590567236.112
1862975.0,1590567236.151
1862891.0,1590567236.19
1862955.0,1590567236.231
1863391.0,1590567236.27
1863747.0,1590567236.31
1864131.0,1590567236.352
1864228.0,1590567236.391
1864717.0,1590567236.431
1865324.0,1590567236.472
1866164.0,1590567236.511
1867031.0,1590567236.549
1867938.0,1590567236.592
1868634.0,1590567236.63
1869441.0,1590567236.67
1870249.0,1590567236.712
1870976.0,1590567236.751
1871938.0,1590567236.792
1872589.0,1590567236.832
1873400.0,1590567236.872
1874039.0,1590567236.91
1873812.0,1590567236.951
1873156.0,1590567236.991
1872861.0,1590567237.03
1872183.0,1590567237.072
1871946.0,1590567237.112
1871949.0,1590567237.152
1871957.0,1590567237.195
1872182.0,1590567237.232
1872293.0,1590567237.27
1872535.0,1590567237.311
1872994.0,1590567237.351
1873314.0,1590567237.391
1873681.0,1590567237.432
1874300.0,1590567237.471
1874693.0,1590567237.511
1875469.0,1590567237.553
1876317.0,1590567237.593
1876977.0,1590567237.63
1877703.0,1590567237.672
1878134.0,1590567237.711
1878627.0,1590567237.751
1878054.0,1590567237.793
1877387.0,1590567237.831
1876674.0,1590567237.872
1876046.0,1590567237.913
1875405.0,1590567237.952
1874847.0,1590567237.993
1873420.0,1590567238.071
1874246.0,1590567238.032
1872972.0,1590567238.111
1872425.0,1590567238.153
1871737.0,1590567238.192
1871868.0,1590567238.232
1871578.0,1590567238.274
1871493.0,1590567238.313
1871336.0,1590567238.353
1871697.0,1590567238.393
1872044.0,1590567238.431
1872573.0,1590567238.471
1873226.0,1590567238.513
1874192.0,1590567238.552
1874659.0,1590567238.593
1874408.0,1590567238.634
1873582.0,1590567238.673
1872915.0,1590567238.713
1872496.0,1590567238.754
1871888.0,1590567238.792
1871657.0,1590567238.831
1871467.0,1590567238.873
1871409.0,1590567238.912
1871591.0,1590567238.952
1871301.0,1590567238.994
1871317.0,1590567239.033
1871349.0,1590567239.073
1871759.0,1590567239.114
1872104.0,1590567239.153
1872441.0,1590567239.192
1873082.0,1590567239.233
1873858.0,1590567239.272
1875023.0,1590567239.312
1875787.0,1590567239.354
1876598.0,1590567239.394
1876649.0,1590567239.433
1875818.0,1590567239.472
1874942.0,1590567239.511
1873925.0,1590567239.55
1872944.0,1590567239.589
1871903.0,1590567239.628
1871063.0,1590567239.667
1870238.0,1590567239.706
1869099.0,1590567239.745
1868483.0,1590567239.784
1867164.0,1590567239.862
1866934.0,1590567239.901
1866795.0,1590567239.94
1866659.0,1590567239.979
1867769.0,1590567239.823
1866522.0,1590567240.018
1866730.0,1590567240.057
1866824.0,1590567240.096
1867155.0,1590567240.135
1867398.0,1590567240.174
1867841.0,1590567240.213
1867720.0,1590567240.252
1866961.0,1590567240.291
1865608.0,1590567240.33
1864434.0,1590567240.369
1863572.0,1590567240.408
1862559.0,1590567240.447
1861785.0,1590567240.486
1861370.0,1590567240.525
1860813.0,1590567240.564
1860042.0,1590567240.603
1859532.0,1590567240.642
1859208.0,1590567240.681
1858883.0,1590567240.72
1858789.0,1590567240.759
1858709.0,1590567240.837
1858711.0,1590567240.876
1858746.0,1590567240.915
1859075.0,1590567240.954
1859047.0,1590567240.993
1859469.0,1590567241.032
1859720.0,1590567241.071
1859902.0,1590567241.11
1859075.0,1590567241.149
1858724.0,1590567240.798
1857616.0,1590567241.228
1858253.0,1590567241.188
1856921.0,1590567241.268
1856125.0,1590567241.308
1855810.0,1590567241.348
1855376.0,1590567241.388
1855114.0,1590567241.428
1855111.0,1590567241.468
1854940.0,1590567241.548
1855199.0,1590567241.588
1855393.0,1590567241.628
1855955.0,1590567241.668
1856337.0,1590567241.708
1856861.0,1590567241.748
1857217.0,1590567241.788
1857786.0,1590567241.828
1858449.0,1590567241.868
1859094.0,1590567241.908
1859304.0,1590567241.948
1858503.0,1590567241.988
1857685.0,1590567242.028
1855069.0,1590567241.508
1857213.0,1590567242.068
1856702.0,1590567242.108
1856548.0,1590567242.148
1856345.0,1590567242.268
1856431.0,1590567242.308
1856729.0,1590567242.348
1856560.0,1590567242.228
1856522.0,1590567242.188
1857575.0,1590567242.428
1857139.0,1590567242.388
1857928.0,1590567242.468
1857816.0,1590567242.508
1858183.0,1590567242.548
1858753.0,1590567242.588
1859384.0,1590567242.628
1859625.0,1590567242.668
1859094.0,1590567242.708
1858098.0,1590567242.748
1857471.0,1590567242.788
1856430.0,1590567242.828
1855704.0,1590567242.868
1855253.0,1590567242.908
1854714.0,1590567242.948
1854116.0,1590567242.988
1853827.0,1590567243.028
1853353.0,1590567243.068
1853423.0,1590567243.108
1853371.0,1590567243.148
1853341.0,1590567243.188
1853313.0,1590567243.228
1853307.0,1590567243.268
1853628.0,1590567243.308
1853935.0,1590567243.348
1854707.0,1590567243.388
1855016.0,1590567243.428
1855496.0,1590567243.468
1855370.0,1590567243.508
1854410.0,1590567243.548
1853307.0,1590567243.588
1852060.0,1590567243.628
1851125.0,1590567243.668
1850287.0,1590567243.708
1849312.0,1590567243.748
1848818.0,1590567243.788
1848147.0,1590567243.828
1847638.0,1590567243.868
1847402.0,1590567243.908
1847200.0,1590567243.948
1847189.0,1590567243.988
1847132.0,1590567244.028
1847501.0,1590567244.068
1848292.0,1590567244.188
1847694.0,1590567244.108
1848021.0,1590567244.148
1849043.0,1590567244.268
1848701.0,1590567244.228
1848676.0,1590567244.348
1849389.0,1590567244.308
1847912.0,1590567244.388
1847201.0,1590567244.428
1846320.0,1590567244.468
1845289.0,1590567244.548
1844265.0,1590567244.628
1843924.0,1590567244.668
1845492.0,1590567244.508
1844783.0,1590567244.588
1843738.0,1590567244.708
1843566.0,1590567244.748
1843581.0,1590567244.788
1843729.0,1590567244.828
1843615.0,1590567244.868
1843794.0,1590567244.908
1843953.0,1590567244.948
1844184.0,1590567244.988
1844570.0,1590567245.028
1844905.0,1590567245.068
1845242.0,1590567245.108
1845270.0,1590567245.148
1844333.0,1590567245.188
1842627.0,1590567245.268
1843533.0,1590567245.228
1842073.0,1590567245.308
1841300.0,1590567245.348
1841076.0,1590567245.388
1840592.0,1590567245.428
1840247.0,1590567245.468
1839876.0,1590567245.508
1839619.0,1590567245.548
1839716.0,1590567245.588
1840031.0,1590567245.628
1839809.0,1590567245.668
1840180.0,1590567245.708
1840432.0,1590567245.748
1841102.0,1590567245.828
1840740.0,1590567245.788
1841688.0,1590567245.868
1842236.0,1590567245.908
1842946.0,1590567245.948
1843062.0,1590567245.988
1842701.0,1590567246.028
1842411.0,1590567246.068
1842246.0,1590567246.108
1842114.0,1590567246.148
1842303.0,1590567246.188
1842556.0,1590567246.228
1842801.0,1590567246.268
1843200.0,1590567246.308
1843948.0,1590567246.348
1844604.0,1590567246.388
1845605.0,1590567246.428
1847305.0,1590567246.468
1848724.0,1590567246.508
1850932.0,1590567246.548
1853439.0,1590567246.588
1857433.0,1590567246.628
1862604.0,1590567246.668
1868277.0,1590567246.708
1873825.0,1590567246.748
1878743.0,1590567246.788
1883419.0,1590567246.828
1888773.0,1590567246.868
1892877.0,1590567246.908
1898807.0,1590567246.948
1906373.0,1590567246.988
1913796.0,1590567247.028
1920327.0,1590567247.068
1925848.0,1590567247.108
1930887.0,1590567247.148
1936236.0,1590567247.188
1940973.0,1590567247.228
1945645.0,1590567247.268
1949825.0,1590567247.308
1953255.0,1590567247.348
1956596.0,1590567247.388
1958446.0,1590567247.428
1958625.0,1590567247.468
1957537.0,1590567247.508
1958055.0,1590567247.548
1955559.0,1590567247.588
