bvp,time
64.0,1669796847.0
-0.0,1669796847.015625
-0.0,1669796847.03125
-0.0,1669796847.046875
-0.0,1669796847.0625
-0.0,1669796847.078125
-0.0,1669796847.09375
-0.0,1669796847.109375
-0.0,1669796847.125
-0.0,1669796847.140625
-0.0,1669796847.15625
0.0,1669796847.171875
0.01,1669796847.1875
0.01,1669796847.203125
-0.0,1669796847.21875
-0.03,1669796847.234375
-0.05,1669796847.25
-0.05,1669796847.265625
0.0,1669796847.28125
0.13,1669796847.296875
0.36,1669796847.3125
0.66,1669796847.328125
1.01,1669796847.34375
1.37,1669796847.359375
1.72,1669796847.375
2.06,1669796847.390625
2.4,1669796847.40625
2.79,1669796847.421875
3.24,1669796847.4375
3.8,1669796847.453125
4.42,1669796847.46875
5.06,1669796847.484375
5.66,1669796847.5
6.2,1669796847.515625
6.68,1669796847.53125
7.15,1669796847.546875
7.68,1669796847.5625
8.31,1669796847.578125
9.14,1669796847.59375
10.09,1669796847.609375
11.04,1669796847.625
11.88,1669796847.640625
12.56,1669796847.65625
13.14,1669796847.671875
13.76,1669796847.6875
14.65,1669796847.703125
15.96,1669796847.71875
17.91,1669796847.734375
20.32,1669796847.75
22.9,1669796847.765625
25.38,1669796847.78125
27.58,1669796847.796875
29.57,1669796847.8125
31.68,1669796847.828125
34.32,1669796847.84375
37.81,1669796847.859375
42.54,1669796847.875
48.15,1669796847.890625
54.1,1669796847.90625
59.83,1669796847.921875
64.97,1669796847.9375
69.58,1669796847.953125
74.14,1669796847.96875
79.34,1669796847.984375
85.71,1669796848.0
93.76,1669796848.015625
103.0,1669796848.03125
112.62,1669796848.046875
121.73,1669796848.0625
129.77,1669796848.078125
136.75,1669796848.09375
143.3,1669796848.109375
150.75,1669796848.125
157.77,1669796848.140625
166.64,1669796848.15625
177.95,1669796848.171875
191.79,1669796848.1875
206.97,1669796848.203125
220.57,1669796848.21875
228.25,1669796848.234375
225.36,1669796848.25
208.53,1669796848.265625
176.87,1669796848.28125
132.76,1669796848.296875
80.05,1669796848.3125
23.07,1669796848.328125
-34.94,1669796848.34375
-92.44,1669796848.359375
-149.16,1669796848.375
-205.23,1669796848.390625
-260.37,1669796848.40625
-313.74,1669796848.421875
-363.87,1669796848.4375
-409.83,1669796848.453125
-450.91,1669796848.46875
-486.5,1669796848.484375
-515.74,1669796848.5
-537.23,1669796848.515625
-549.22,1669796848.53125
-549.96,1669796848.546875
-538.37,1669796848.5625
-514.21,1669796848.578125
-478.67,1669796848.59375
-433.88,1669796848.609375
-382.45,1669796848.625
-327.02,1669796848.640625
-269.84,1669796848.65625
-212.63,1669796848.671875
-156.66,1669796848.6875
-102.95,1669796848.703125
-52.37,1669796848.71875
-5.9,1669796848.734375
35.58,1669796848.75
71.43,1669796848.765625
101.35,1669796848.78125
125.5,1669796848.796875
144.38,1669796848.8125
158.69,1669796848.828125
169.15,1669796848.84375
176.37,1669796848.859375
180.75,1669796848.875
182.57,1669796848.890625
182.07,1669796848.90625
179.51,1669796848.921875
175.23,1669796848.9375
169.65,1669796848.953125
163.18,1669796848.96875
156.15,1669796848.984375
148.81,1669796849.0
141.3,1669796849.015625
133.69,1669796849.03125
126.02,1669796849.046875
118.33,1669796849.0625
110.69,1669796849.078125
103.16,1669796849.09375
95.8,1669796849.109375
88.68,1669796849.125
81.83,1669796849.140625
75.25,1669796849.15625
68.95,1669796849.171875
62.95,1669796849.1875
57.25,1669796849.203125
51.86,1669796849.21875
46.78,1669796849.234375
42.03,1669796849.25
37.59,1669796849.265625
33.45,1669796849.28125
29.61,1669796849.296875
26.07,1669796849.3125
22.81,1669796849.328125
19.83,1669796849.34375
17.11,1669796849.359375
14.67,1669796849.375
12.48,1669796849.390625
10.54,1669796849.40625
8.83,1669796849.421875
7.35,1669796849.4375
6.07,1669796849.453125
4.97,1669796849.46875
4.05,1669796849.484375
3.27,1669796849.5
2.62,1669796849.515625
2.09,1669796849.53125
1.65,1669796849.546875
1.3,1669796849.5625
1.01,1669796849.578125
0.79,1669796849.59375
0.61,1669796849.609375
0.48,1669796849.625
0.37,1669796849.640625
0.29,1669796849.65625
0.24,1669796849.671875
0.2,1669796849.6875
0.18,1669796849.703125
0.17,1669796849.71875
0.17,1669796849.734375
0.19,1669796849.75
0.21,1669796849.765625
0.24,1669796849.78125
0.27,1669796849.796875
0.3,1669796849.8125
0.35,1669796849.828125
0.39,1669796849.84375
0.43,1669796849.859375
0.48,1669796849.875
0.52,1669796849.890625
0.57,1669796849.90625
0.62,1669796849.921875
0.68,1669796849.9375
0.74,1669796849.953125
0.8,1669796849.96875
0.87,1669796849.984375
0.94,1669796850.0
1.02,1669796850.015625
1.11,1669796850.03125
1.21,1669796850.046875
1.33,1669796850.0625
1.45,1669796850.078125
1.59,1669796850.09375
1.75,1669796850.109375
1.93,1669796850.125
2.13,1669796850.140625
2.34,1669796850.15625
2.59,1669796850.171875
2.85,1669796850.1875
3.15,1669796850.203125
3.47,1669796850.21875
3.83,1669796850.234375
4.22,1669796850.25
4.65,1669796850.265625
5.11,1669796850.28125
5.61,1669796850.296875
6.14,1669796850.3125
6.72,1669796850.328125
7.34,1669796850.34375
8.0,1669796850.359375
8.7,1669796850.375
9.44,1669796850.390625
10.24,1669796850.40625
11.1,1669796850.421875
12.0,1669796850.4375
12.95,1669796850.453125
13.92,1669796850.46875
14.92,1669796850.484375
15.93,1669796850.5
16.96,1669796850.515625
18.04,1669796850.53125
19.18,1669796850.546875
20.36,1669796850.5625
21.56,1669796850.578125
22.68,1669796850.59375
23.58,1669796850.609375
24.1,1669796850.625
24.1,1669796850.640625
23.47,1669796850.65625
22.11,1669796850.671875
20.05,1669796850.6875
17.3,1669796850.703125
13.93,1669796850.71875
9.98,1669796850.734375
5.57,1669796850.75
0.84,1669796850.765625
-4.03,1669796850.78125
-8.81,1669796850.796875
-13.22,1669796850.8125
-17.01,1669796850.828125
-19.98,1669796850.84375
-22.06,1669796850.859375
-23.35,1669796850.875
-24.06,1669796850.890625
-24.46,1669796850.90625
-24.75,1669796850.921875
-24.99,1669796850.9375
-25.12,1669796850.953125
-24.96,1669796850.96875
-24.36,1669796850.984375
-23.31,1669796851.0
-22.0,1669796851.015625
-20.79,1669796851.03125
-20.06,1669796851.046875
-20.02,1669796851.0625
-20.64,1669796851.078125
-21.56,1669796851.09375
-22.28,1669796851.109375
-22.42,1669796851.125
-21.86,1669796851.140625
-20.92,1669796851.15625
-20.18,1669796851.171875
-20.29,1669796851.1875
-21.62,1669796851.203125
-24.08,1669796851.21875
-27.13,1669796851.234375
-30.01,1669796851.25
-32.09,1669796851.265625
-33.09,1669796851.28125
-33.28,1669796851.296875
-33.27,1669796851.3125
-33.74,1669796851.328125
-35.38,1669796851.34375
-38.74,1669796851.359375
-44.04,1669796851.375
-50.88,1669796851.390625
-57.91,1669796851.40625
-62.75,1669796851.421875
-62.64,1669796851.4375
-55.45,1669796851.453125
-40.77,1669796851.46875
-20.52,1669796851.484375
1.54,1669796851.5
21.14,1669796851.515625
35.09,1669796851.53125
42.27,1669796851.546875
43.7,1669796851.5625
41.64,1669796851.578125
38.42,1669796851.59375
35.72,1669796851.609375
34.22,1669796851.625
34.05,1669796851.640625
35.13,1669796851.65625
37.51,1669796851.671875
41.18,1669796851.6875
45.91,1669796851.703125
51.16,1669796851.71875
55.54,1669796851.734375
57.92,1669796851.75
57.72,1669796851.765625
55.09,1669796851.78125
50.84,1669796851.796875
46.09,1669796851.8125
41.84,1669796851.828125
38.62,1669796851.84375
36.31,1669796851.859375
34.34,1669796851.875
32.05,1669796851.890625
29.05,1669796851.90625
25.38,1669796851.921875
21.55,1669796851.9375
18.29,1669796851.953125
16.25,1669796851.96875
15.67,1669796851.984375
16.23,1669796852.0
17.19,1669796852.015625
17.69,1669796852.03125
17.13,1669796852.046875
15.29,1669796852.0625
12.49,1669796852.078125
9.38,1669796852.09375
6.63,1669796852.109375
4.62,1669796852.125
3.27,1669796852.140625
2.04,1669796852.15625
0.23,1669796852.171875
-2.74,1669796852.1875
-7.05,1669796852.203125
-12.44,1669796852.21875
-18.24,1669796852.234375
-23.67,1669796852.25
-28.03,1669796852.265625
-31.05,1669796852.28125
-32.92,1669796852.296875
-34.42,1669796852.3125
-36.74,1669796852.328125
-41.36,1669796852.34375
-49.58,1669796852.359375
-61.93,1669796852.375
-77.63,1669796852.390625
-94.3,1669796852.40625
-108.28,1669796852.421875
-115.51,1669796852.4375
-112.8,1669796852.453125
-98.92,1669796852.46875
-75.1,1669796852.484375
-44.73,1669796852.5
-12.26,1669796852.515625
18.01,1669796852.53125
42.99,1669796852.546875
61.14,1669796852.5625
72.36,1669796852.578125
77.33,1669796852.59375
77.02,1669796852.609375
72.32,1669796852.625
64.04,1669796852.640625
53.13,1669796852.65625
40.74,1669796852.671875
28.29,1669796852.6875
17.21,1669796852.703125
8.63,1669796852.71875
3.16,1669796852.734375
0.88,1669796852.75
1.51,1669796852.765625
4.6,1669796852.78125
9.74,1669796852.796875
16.55,1669796852.8125
24.59,1669796852.828125
33.23,1669796852.84375
41.68,1669796852.859375
49.15,1669796852.875
54.94,1669796852.890625
58.66,1669796852.90625
60.22,1669796852.921875
59.76,1669796852.9375
57.69,1669796852.953125
54.6,1669796852.96875
51.14,1669796852.984375
47.9,1669796853.0
45.2,1669796853.015625
42.95,1669796853.03125
40.71,1669796853.046875
37.86,1669796853.0625
33.94,1669796853.078125
28.86,1669796853.09375
22.94,1669796853.109375
16.68,1669796853.125
10.51,1669796853.140625
4.6,1669796853.15625
-1.25,1669796853.171875
-7.42,1669796853.1875
-14.3,1669796853.203125
-22.01,1669796853.21875
-30.44,1669796853.234375
-39.15,1669796853.25
-47.54,1669796853.265625
-55.06,1669796853.28125
-61.39,1669796853.296875
-66.6,1669796853.3125
-71.19,1669796853.328125
-76.04,1669796853.34375
-82.22,1669796853.359375
-90.69,1669796853.375
-101.86,1669796853.390625
-115.11,1669796853.40625
-128.47,1669796853.421875
-138.79,1669796853.4375
-142.46,1669796853.453125
-136.6,1669796853.46875
-120.14,1669796853.484375
-94.34,1669796853.5
-62.53,1669796853.515625
-28.94,1669796853.53125
2.54,1669796853.546875
29.29,1669796853.5625
50.17,1669796853.578125
65.1,1669796853.59375
74.47,1669796853.609375
78.7,1669796853.625
78.24,1669796853.640625
73.83,1669796853.65625
66.68,1669796853.671875
58.41,1669796853.6875
50.65,1669796853.703125
44.6,1669796853.71875
40.65,1669796853.734375
38.41,1669796853.75
36.99,1669796853.765625
35.51,1669796853.78125
33.49,1669796853.796875
31.03,1669796853.8125
28.69,1669796853.828125
27.13,1669796853.84375
26.76,1669796853.859375
27.66,1669796853.875
29.52,1669796853.890625
31.94,1669796853.90625
34.45,1669796853.921875
36.67,1669796853.9375
38.16,1669796853.953125
38.53,1669796853.96875
37.51,1669796853.984375
35.05,1669796854.0
31.45,1669796854.015625
27.26,1669796854.03125
23.1,1669796854.046875
19.32,1669796854.0625
15.94,1669796854.078125
12.59,1669796854.09375
8.71,1669796854.109375
3.84,1669796854.125
-2.22,1669796854.140625
-9.32,1669796854.15625
-17.01,1669796854.171875
-24.76,1669796854.1875
-32.16,1669796854.203125
-38.97,1669796854.21875
-45.32,1669796854.234375
-51.54,1669796854.25
-58.22,1669796854.265625
-66.1,1669796854.28125
-75.96,1669796854.296875
-88.27,1669796854.3125
-102.61,1669796854.328125
-117.2,1669796854.34375
-128.84,1669796854.359375
-133.53,1669796854.375
-127.84,1669796854.390625
-110.23,1669796854.40625
-82.03,1669796854.421875
-47.16,1669796854.4375
-11.02,1669796854.453125
21.29,1669796854.46875
46.31,1669796854.484375
62.86,1669796854.5
71.68,1669796854.515625
74.53,1669796854.53125
73.26,1669796854.546875
69.31,1669796854.5625
63.64,1669796854.578125
56.93,1669796854.59375
49.8,1669796854.609375
42.94,1669796854.625
36.93,1669796854.640625
32.18,1669796854.65625
28.8,1669796854.671875
26.64,1669796854.6875
25.5,1669796854.703125
25.36,1669796854.71875
26.46,1669796854.734375
29.26,1669796854.75
34.15,1669796854.765625
41.09,1669796854.78125
49.42,1669796854.796875
57.88,1669796854.8125
64.97,1669796854.828125
69.4,1669796854.84375
70.5,1669796854.859375
68.44,1669796854.875
64.05,1669796854.890625
58.52,1669796854.90625
52.98,1669796854.921875
48.1,1669796854.9375
43.89,1669796854.953125
39.84,1669796854.96875
35.09,1669796854.984375
28.92,1669796855.0
21.07,1669796855.015625
11.87,1669796855.03125
2.18,1669796855.046875
-6.97,1669796855.0625
-14.83,1669796855.078125
-21.23,1669796855.09375
-26.69,1669796855.109375
-32.15,1669796855.125
-38.57,1669796855.140625
-46.49,1669796855.15625
-55.81,1669796855.171875
-65.81,1669796855.1875
-75.53,1669796855.203125
-84.1,1669796855.21875
-91.12,1669796855.234375
-96.81,1669796855.25
-101.98,1669796855.265625
-107.87,1669796855.28125
-115.8,1669796855.296875
-126.74,1669796855.3125
-140.64,1669796855.328125
-155.91,1669796855.34375
-169.26,1669796855.359375
-176.26,1669796855.375
-172.65,1669796855.390625
-155.83,1669796855.40625
-126.15,1669796855.421875
-86.94,1669796855.4375
-43.63,1669796855.453125
-2.0,1669796855.46875
33.47,1669796855.484375
60.48,1669796855.5
78.88,1669796855.515625
89.86,1669796855.53125
95.14,1669796855.546875
96.33,1669796855.5625
94.77,1669796855.578125
91.62,1669796855.59375
87.85,1669796855.609375
84.21,1669796855.625
81.03,1669796855.640625
78.23,1669796855.65625
75.47,1669796855.671875
72.4,1669796855.6875
68.91,1669796855.703125
65.28,1669796855.71875
62.04,1669796855.734375
59.8,1669796855.75
59.0,1669796855.765625
59.77,1669796855.78125
61.82,1669796855.796875
64.52,1669796855.8125
66.95,1669796855.828125
68.16,1669796855.84375
67.39,1669796855.859375
64.29,1669796855.875
59.07,1669796855.890625
52.48,1669796855.90625
45.53,1669796855.921875
39.19,1669796855.9375
33.98,1669796855.953125
29.89,1669796855.96875
26.31,1669796855.984375
22.41,1669796856.0
17.5,1669796856.015625
11.29,1669796856.03125
4.07,1669796856.046875
-3.45,1669796856.0625
-10.41,1669796856.078125
-16.27,1669796856.09375
-20.98,1669796856.109375
-25.05,1669796856.125
-29.3,1669796856.140625
-34.55,1669796856.15625
-41.21,1669796856.171875
-49.11,1669796856.1875
-57.57,1669796856.203125
-65.69,1669796856.21875
-72.66,1669796856.234375
-78.13,1669796856.25
-82.34,1669796856.265625
-86.0,1669796856.28125
-90.19,1669796856.296875
-96.1,1669796856.3125
-104.76,1669796856.328125
-116.66,1669796856.34375
-131.19,1669796856.359375
-146.26,1669796856.375
-158.21,1669796856.390625
-162.56,1669796856.40625
-155.35,1669796856.421875
-134.7,1669796856.4375
-101.83,1669796856.453125
-60.89,1669796856.46875
-17.77,1669796856.484375
21.78,1669796856.5
53.76,1669796856.515625
76.64,1669796856.53125
91.02,1669796856.546875
98.61,1669796856.5625
101.32,1669796856.578125
100.62,1669796856.59375
97.67,1669796856.609375
93.44,1669796856.625
88.83,1669796856.640625
84.59,1669796856.65625
81.04,1669796856.671875
78.0,1669796856.6875
74.96,1669796856.703125
71.4,1669796856.71875
67.11,1669796856.734375
62.39,1669796856.75
57.93,1669796856.765625
54.52,1669796856.78125
52.68,1669796856.796875
52.5,1669796856.8125
53.55,1669796856.828125
55.07,1669796856.84375
56.22,1669796856.859375
56.33,1669796856.875
55.1,1669796856.890625
52.56,1669796856.90625
49.04,1669796856.921875
44.97,1669796856.9375
40.74,1669796856.953125
36.65,1669796856.96875
32.85,1669796856.984375
29.37,1669796857.0
26.16,1669796857.015625
23.04,1669796857.03125
19.75,1669796857.046875
15.99,1669796857.0625
11.52,1669796857.078125
6.32,1669796857.09375
0.64,1669796857.109375
-5.08,1669796857.125
-10.37,1669796857.140625
-14.95,1669796857.15625
-18.93,1669796857.171875
-22.74,1669796857.1875
-27.01,1669796857.203125
-32.19,1669796857.21875
-38.46,1669796857.234375
-45.51,1669796857.25
-52.73,1669796857.265625
-59.46,1669796857.28125
-65.22,1669796857.296875
-69.91,1669796857.3125
-73.83,1669796857.328125
-77.65,1669796857.34375
-82.31,1669796857.359375
-88.89,1669796857.375
-98.17,1669796857.390625
-110.11,1669796857.40625
-123.23,1669796857.421875
-134.45,1669796857.4375
-139.64,1669796857.453125
-134.9,1669796857.46875
-118.07,1669796857.484375
-89.83,1669796857.5
-53.75,1669796857.515625
-15.24,1669796857.53125
20.27,1669796857.546875
48.86,1669796857.5625
68.93,1669796857.578125
80.91,1669796857.59375
86.43,1669796857.609375
87.35,1669796857.625
85.27,1669796857.640625
81.43,1669796857.65625
76.78,1669796857.671875
72.13,1669796857.6875
68.03,1669796857.703125
64.67,1669796857.71875
61.83,1669796857.734375
59.08,1669796857.75
55.97,1669796857.765625
52.35,1669796857.78125
48.44,1669796857.796875
44.76,1669796857.8125
42.0,1669796857.828125
40.74,1669796857.84375
41.26,1669796857.859375
43.4,1669796857.875
46.54,1669796857.890625
49.79,1669796857.90625
52.17,1669796857.921875
52.9,1669796857.9375
51.61,1669796857.953125
48.4,1669796857.96875
43.75,1669796857.984375
38.31,1669796858.0
32.71,1669796858.015625
27.36,1669796858.03125
22.41,1669796858.046875
17.7,1669796858.0625
12.93,1669796858.078125
7.77,1669796858.09375
2.05,1669796858.109375
-4.19,1669796858.125
-10.61,1669796858.140625
-16.69,1669796858.15625
-21.95,1669796858.171875
-26.13,1669796858.1875
-29.33,1669796858.203125
-32.02,1669796858.21875
-34.91,1669796858.234375
-38.71,1669796858.25
-43.85,1669796858.265625
-50.35,1669796858.28125
-57.78,1669796858.296875
-65.43,1669796858.3125
-72.61,1669796858.328125
-78.88,1669796858.34375
-84.28,1669796858.359375
-89.28,1669796858.375
-94.71,1669796858.390625
-101.49,1669796858.40625
-110.31,1669796858.421875
-121.3,1669796858.4375
-133.53,1669796858.453125
-144.81,1669796858.46875
-151.91,1669796858.484375
-151.3,1669796858.5
-140.36,1669796858.515625
-118.55,1669796858.53125
-87.89,1669796858.546875
-52.63,1669796858.5625
-17.87,1669796858.578125
11.93,1669796858.59375
34.17,1669796858.609375
48.37,1669796858.625
55.64,1669796858.640625
57.8,1669796858.65625
56.59,1669796858.671875
53.39,1669796858.6875
49.28,1669796858.703125
45.22,1669796858.71875
42.09,1669796858.734375
40.52,1669796858.75
40.74,1669796858.765625
42.57,1669796858.78125
45.51,1669796858.796875
49.04,1669796858.8125
52.86,1669796858.828125
56.96,1669796858.84375
61.52,1669796858.859375
66.72,1669796858.875
72.54,1669796858.890625
78.66,1669796858.90625
84.53,1669796858.921875
89.48,1669796858.9375
92.87,1669796858.953125
94.25,1669796858.96875
93.47,1669796858.984375
90.63,1669796859.0
86.1,1669796859.015625
80.39,1669796859.03125
73.98,1669796859.046875
67.24,1669796859.0625
60.23,1669796859.078125
52.76,1669796859.09375
44.48,1669796859.109375
35.09,1669796859.125
24.58,1669796859.140625
13.42,1669796859.15625
2.51,1669796859.171875
-7.09,1669796859.1875
-14.55,1669796859.203125
-19.61,1669796859.21875
-22.73,1669796859.234375
-24.91,1669796859.25
-27.32,1669796859.265625
-30.86,1669796859.28125
-35.81,1669796859.296875
-41.83,1669796859.3125
-48.11,1669796859.328125
-53.7,1669796859.34375
-57.88,1669796859.359375
-60.32,1669796859.375
-61.21,1669796859.390625
-61.22,1669796859.40625
-61.37,1669796859.421875
-62.88,1669796859.4375
-66.67,1669796859.453125
-72.88,1669796859.46875
-80.41,1669796859.484375
-86.81,1669796859.5
-88.94,1669796859.515625
-83.93,1669796859.53125
-70.43,1669796859.546875
-49.32,1669796859.5625
-23.52,1669796859.578125
2.92,1669796859.59375
26.15,1669796859.609375
43.67,1669796859.625
54.63,1669796859.640625
59.54,1669796859.65625
59.56,1669796859.671875
55.87,1669796859.6875
49.42,1669796859.703125
41.05,1669796859.71875
31.62,1669796859.734375
22.11,1669796859.75
13.48,1669796859.765625
6.42,1669796859.78125
1.28,1669796859.796875
-2.02,1669796859.8125
-3.8,1669796859.828125
-4.49,1669796859.84375
-4.43,1669796859.859375
-3.84,1669796859.875
-2.74,1669796859.890625
-1.01,1669796859.90625
1.53,1669796859.921875
4.9,1669796859.9375
8.81,1669796859.953125
12.67,1669796859.96875
15.73,1669796859.984375
17.34,1669796860.0
17.26,1669796860.015625
15.74,1669796860.03125
13.32,1669796860.046875
10.54,1669796860.0625
7.74,1669796860.078125
4.98,1669796860.09375
2.11,1669796860.109375
-1.06,1669796860.125
-4.71,1669796860.140625
-8.96,1669796860.15625
-13.94,1669796860.171875
-19.66,1669796860.1875
-25.97,1669796860.203125
-32.46,1669796860.21875
-38.6,1669796860.234375
-43.91,1669796860.25
-48.11,1669796860.265625
-51.29,1669796860.28125
-53.78,1669796860.296875
-56.14,1669796860.3125
-59.07,1669796860.328125
-63.26,1669796860.34375
-69.13,1669796860.359375
-76.43,1669796860.375
-83.88,1669796860.390625
-89.08,1669796860.40625
-89.12,1669796860.421875
-81.59,1669796860.4375
-65.6,1669796860.453125
-42.37,1669796860.46875
-14.93,1669796860.484375
12.79,1669796860.5
37.27,1669796860.515625
56.26,1669796860.53125
69.1,1669796860.546875
76.31,1669796860.5625
78.96,1669796860.578125
78.17,1669796860.59375
74.82,1669796860.609375
69.59,1669796860.625
63.12,1669796860.640625
56.04,1669796860.65625
48.96,1669796860.671875
42.3,1669796860.6875
36.31,1669796860.703125
31.02,1669796860.71875
26.37,1669796860.734375
22.38,1669796860.75
19.19,1669796860.765625
16.96,1669796860.78125
15.83,1669796860.796875
15.77,1669796860.8125
16.55,1669796860.828125
17.82,1669796860.84375
19.17,1669796860.859375
20.21,1669796860.875
20.55,1669796860.890625
19.84,1669796860.90625
17.89,1669796860.921875
14.64,1669796860.9375
10.36,1669796860.953125
5.52,1669796860.96875
0.7,1669796860.984375
-3.67,1669796861.0
-7.44,1669796861.015625
-10.86,1669796861.03125
-14.38,1669796861.046875
-18.49,1669796861.0625
-23.52,1669796861.078125
-29.5,1669796861.09375
-36.07,1669796861.109375
-42.73,1669796861.125
-48.89,1669796861.140625
-54.15,1669796861.15625
-58.45,1669796861.171875
-62.05,1669796861.1875
-65.54,1669796861.203125
-69.62,1669796861.21875
-74.99,1669796861.234375
-82.12,1669796861.25
-90.92,1669796861.265625
-100.49,1669796861.28125
-108.91,1669796861.296875
-113.49,1669796861.3125
-111.4,1669796861.328125
-100.74,1669796861.34375
-81.3,1669796861.359375
-54.92,1669796861.375
-25.03,1669796861.390625
4.42,1669796861.40625
30.17,1669796861.421875
50.38,1669796861.4375
64.75,1669796861.453125
73.99,1669796861.46875
79.13,1669796861.484375
81.02,1669796861.5
80.18,1669796861.515625
77.04,1669796861.53125
72.14,1669796861.546875
66.23,1669796861.5625
60.11,1669796861.578125
54.43,1669796861.59375
49.47,1669796861.609375
45.11,1669796861.625
41.01,1669796861.640625
36.87,1669796861.65625
32.66,1669796861.671875
28.68,1669796861.6875
25.45,1669796861.703125
23.43,1669796861.71875
22.78,1669796861.734375
23.24,1669796861.75
24.17,1669796861.765625
24.8,1669796861.78125
24.48,1669796861.796875
22.87,1669796861.8125
19.97,1669796861.828125
16.12,1669796861.84375
11.79,1669796861.859375
7.51,1669796861.875
3.62,1669796861.890625
0.17,1669796861.90625
-3.11,1669796861.921875
-6.79,1669796861.9375
-11.47,1669796861.953125
-17.51,1669796861.96875
-24.83,1669796861.984375
-32.86,1669796862.0
-40.74,1669796862.015625
-47.67,1669796862.03125
-53.2,1669796862.046875
-57.46,1669796862.0625
-61.05,1669796862.078125
-64.86,1669796862.09375
-69.84,1669796862.109375
-76.75,1669796862.125
-85.9,1669796862.140625
-96.8,1669796862.15625
-107.96,1669796862.171875
-116.88,1669796862.1875
-120.46,1669796862.203125
-115.96,1669796862.21875
-102.0,1669796862.234375
-79.18,1669796862.25
-50.15,1669796862.265625
-18.82,1669796862.28125
10.89,1669796862.296875
36.08,1669796862.3125
55.42,1669796862.328125
68.94,1669796862.34375
77.39,1669796862.359375
81.64,1669796862.375
82.35,1669796862.390625
80.05,1669796862.40625
75.41,1669796862.421875
69.32,1669796862.4375
62.81,1669796862.453125
56.74,1669796862.46875
51.47,1669796862.484375
46.84,1669796862.5
42.36,1669796862.515625
37.68,1669796862.53125
32.88,1669796862.546875
28.57,1669796862.5625
25.54,1669796862.578125
24.39,1669796862.59375
25.11,1669796862.609375
27.09,1669796862.625
29.25,1669796862.640625
30.49,1669796862.65625
30.02,1669796862.671875
27.61,1669796862.6875
23.56,1669796862.703125
18.55,1669796862.71875
13.39,1669796862.734375
8.69,1669796862.75
4.69,1669796862.765625
1.14,1669796862.78125
-2.59,1669796862.796875
-7.27,1669796862.8125
-13.39,1669796862.828125
-20.93,1669796862.84375
-29.31,1669796862.859375
-37.67,1669796862.875
-45.24,1669796862.890625
-51.69,1669796862.90625
-57.19,1669796862.921875
-62.32,1669796862.9375
-67.83,1669796862.953125
-74.45,1669796862.96875
-82.75,1669796862.984375
-92.82,1669796863.0
-103.94,1669796863.015625
-114.31,1669796863.03125
-121.07,1669796863.046875
-121.05,1669796863.0625
-111.84,1669796863.078125
-92.9,1669796863.09375
-66.01,1669796863.109375
-34.81,1669796863.125
-3.54,1669796863.140625
24.25,1669796863.15625
46.61,1669796863.171875
63.11,1669796863.1875
74.29,1669796863.203125
80.86,1669796863.21875
83.38,1669796863.234375
82.29,1669796863.25
78.29,1669796863.265625
72.45,1669796863.28125
66.04,1669796863.296875
60.17,1669796863.3125
55.38,1669796863.328125
51.55,1669796863.34375
48.11,1669796863.359375
44.49,1669796863.375
40.51,1669796863.390625
36.48,1669796863.40625
33.1,1669796863.421875
31.16,1669796863.4375
31.06,1669796863.453125
32.73,1669796863.46875
35.49,1669796863.484375
38.26,1669796863.5
39.91,1669796863.515625
39.61,1669796863.53125
37.06,1669796863.546875
32.55,1669796863.5625
26.84,1669796863.578125
20.82,1669796863.59375
15.21,1669796863.609375
10.31,1669796863.625
5.89,1669796863.640625
1.37,1669796863.65625
-3.96,1669796863.671875
-10.61,1669796863.6875
-18.63,1669796863.703125
-27.58,1669796863.71875
-36.66,1669796863.734375
-45.01,1669796863.75
-52.08,1669796863.765625
-57.84,1669796863.78125
-62.83,1669796863.796875
-68.06,1669796863.8125
-74.72,1669796863.828125
-83.7,1669796863.84375
-95.18,1669796863.859375
-108.13,1669796863.875
-120.18,1669796863.890625
-127.95,1669796863.90625
-127.95,1669796863.921875
-117.7,1669796863.9375
-96.79,1669796863.953125
-67.2,1669796863.96875
-32.87,1669796863.984375
1.55,1669796864.0
32.02,1669796864.015625
56.09,1669796864.03125
73.18,1669796864.046875
84.07,1669796864.0625
90.06,1669796864.078125
92.33,1669796864.09375
91.63,1669796864.109375
88.46,1669796864.125
83.31,1669796864.140625
76.91,1669796864.15625
70.1,1669796864.171875
63.72,1669796864.1875
58.32,1669796864.203125
54.06,1669796864.21875
50.83,1669796864.234375
48.4,1669796864.25
46.6,1669796864.265625
45.38,1669796864.28125
44.79,1669796864.296875
44.88,1669796864.3125
45.63,1669796864.328125
46.9,1669796864.34375
48.4,1669796864.359375
49.69,1669796864.375
50.18,1669796864.390625
49.3,1669796864.40625
46.65,1669796864.421875
42.16,1669796864.4375
36.18,1669796864.453125
29.31,1669796864.46875
22.21,1669796864.484375
15.42,1669796864.5
9.13,1669796864.515625
3.19,1669796864.53125
-2.83,1669796864.546875
-9.37,1669796864.5625
-16.75,1669796864.578125
-24.92,1669796864.59375
-33.44,1669796864.609375
-41.67,1669796864.625
-48.97,1669796864.640625
-54.99,1669796864.65625
-59.84,1669796864.671875
-64.05,1669796864.6875
-68.43,1669796864.703125
-73.87,1669796864.71875
-81.12,1669796864.734375
-90.58,1669796864.75
-101.96,1669796864.765625
-114.0,1669796864.78125
-124.35,1669796864.796875
-129.86,1669796864.8125
-127.42,1669796864.828125
-115.04,1669796864.84375
-92.7,1669796864.859375
-62.63,1669796864.875
-28.68,1669796864.890625
4.82,1669796864.90625
34.25,1669796864.921875
57.48,1669796864.9375
73.93,1669796864.953125
84.21,1669796864.96875
89.44,1669796864.984375
90.78,1669796865.0
89.22,1669796865.015625
85.6,1669796865.03125
80.62,1669796865.046875
74.86,1669796865.0625
68.89,1669796865.078125
63.12,1669796865.09375
57.91,1669796865.109375
53.53,1669796865.125
50.21,1669796865.140625
48.02,1669796865.15625
46.96,1669796865.171875
46.91,1669796865.1875
47.63,1669796865.203125
48.84,1669796865.21875
50.17,1669796865.234375
51.24,1669796865.25
51.68,1669796865.265625
51.2,1669796865.28125
49.66,1669796865.296875
47.04,1669796865.3125
43.5,1669796865.328125
39.22,1669796865.34375
34.42,1669796865.359375
29.27,1669796865.375
23.88,1669796865.390625
18.32,1669796865.40625
12.68,1669796865.421875
7.04,1669796865.4375
1.48,1669796865.453125
-4.03,1669796865.46875
-9.61,1669796865.484375
-15.47,1669796865.5
-21.78,1669796865.515625
-28.52,1669796865.53125
-35.44,1669796865.546875
-42.02,1669796865.5625
-47.73,1669796865.578125
-52.24,1669796865.59375
-55.64,1669796865.609375
-58.53,1669796865.625
-61.86,1669796865.640625
-66.67,1669796865.65625
-73.79,1669796865.671875
-83.38,1669796865.6875
-94.63,1669796865.703125
-105.57,1669796865.71875
-113.28,1669796865.734375
-114.52,1669796865.75
-106.81,1669796865.765625
-89.37,1669796865.78125
-63.64,1669796865.796875
-32.99,1669796865.8125
-1.67,1669796865.828125
26.51,1669796865.84375
49.12,1669796865.859375
65.39,1669796865.875
75.82,1669796865.890625
81.4,1669796865.90625
83.1,1669796865.921875
81.65,1669796865.9375
77.66,1669796865.953125
71.84,1669796865.96875
65.13,1669796865.984375
58.45,1669796866.0
52.59,1669796866.015625
47.91,1669796866.03125
44.42,1669796866.046875
41.91,1669796866.0625
40.16,1669796866.078125
39.11,1669796866.09375
38.86,1669796866.109375
39.56,1669796866.125
41.2,1669796866.140625
43.5,1669796866.15625
45.84,1669796866.171875
47.48,1669796866.1875
47.81,1669796866.203125
46.56,1669796866.21875
43.92,1669796866.234375
40.44,1669796866.25
36.71,1669796866.265625
33.21,1669796866.28125
30.03,1669796866.296875
26.99,1669796866.3125
23.69,1669796866.328125
19.75,1669796866.34375
14.93,1669796866.359375
9.31,1669796866.375
3.23,1669796866.390625
-2.83,1669796866.40625
-8.4,1669796866.421875
-13.27,1669796866.4375
-17.62,1669796866.453125
-21.93,1669796866.46875
-26.81,1669796866.484375
-32.67,1669796866.5
-39.5,1669796866.515625
-46.81,1669796866.53125
-53.82,1669796866.546875
-59.84,1669796866.5625
-64.59,1669796866.578125
-68.32,1669796866.59375
-71.81,1669796866.609375
-76.14,1669796866.625
-82.38,1669796866.640625
-91.13,1669796866.65625
-102.2,1669796866.671875
-114.22,1669796866.6875
-124.66,1669796866.703125
-130.23,1669796866.71875
-127.84,1669796866.734375
-115.68,1669796866.75
-94.04,1669796866.765625
-65.36,1669796866.78125
-33.59,1669796866.796875
-2.9,1669796866.8125
23.5,1669796866.828125
44.0,1669796866.84375
58.5,1669796866.859375
67.83,1669796866.875
73.1,1669796866.890625
75.22,1669796866.90625
74.9,1669796866.921875
72.79,1669796866.9375
69.57,1669796866.953125
66.03,1669796866.96875
62.8,1669796866.984375
60.23,1669796867.0
58.27,1669796867.015625
56.61,1669796867.03125
54.95,1669796867.046875
53.25,1669796867.0625
51.82,1669796867.078125
51.31,1669796867.09375
52.3,1669796867.109375
55.13,1669796867.125
59.58,1669796867.140625
64.92,1669796867.15625
70.14,1669796867.171875
74.15,1669796867.1875
76.17,1669796867.203125
75.82,1669796867.21875
73.18,1669796867.234375
68.79,1669796867.25
63.62,1669796867.265625
58.87,1669796867.28125
55.73,1669796867.296875
54.89,1669796867.3125
56.28,1669796867.328125
58.94,1669796867.34375
61.32,1669796867.359375
61.84,1669796867.375
59.41,1669796867.390625
53.81,1669796867.40625
45.51,1669796867.421875
35.4,1669796867.4375
24.24,1669796867.453125
12.47,1669796867.46875
0.2,1669796867.484375
-12.58,1669796867.5
-25.76,1669796867.515625
-39.04,1669796867.53125
-52.01,1669796867.546875
-64.26,1669796867.5625
-75.58,1669796867.578125
-85.95,1669796867.59375
-95.56,1669796867.609375
-104.72,1669796867.625
-113.8,1669796867.640625
-123.27,1669796867.65625
-133.58,1669796867.671875
-145.09,1669796867.6875
-157.64,1669796867.703125
-170.18,1669796867.71875
-180.55,1669796867.734375
-185.73,1669796867.75
-182.66,1669796867.765625
-169.39,1669796867.78125
-146.01,1669796867.796875
-114.92,1669796867.8125
-80.18,1669796867.828125
-46.3,1669796867.84375
-16.84,1669796867.859375
6.36,1669796867.875
23.23,1669796867.890625
34.92,1669796867.90625
42.95,1669796867.921875
48.59,1669796867.9375
52.68,1669796867.953125
55.69,1669796867.96875
57.97,1669796867.984375
59.95,1669796868.0
62.08,1669796868.015625
64.84,1669796868.03125
68.5,1669796868.046875
73.04,1669796868.0625
78.2,1669796868.078125
83.55,1669796868.09375
88.7,1669796868.109375
93.37,1669796868.125
97.45,1669796868.140625
101.0,1669796868.15625
104.09,1669796868.171875
106.75,1669796868.1875
108.95,1669796868.203125
110.46,1669796868.21875
110.87,1669796868.234375
109.69,1669796868.25
106.52,1669796868.265625
101.25,1669796868.28125
94.28,1669796868.296875
86.46,1669796868.3125
78.84,1669796868.328125
72.27,1669796868.34375
67.01,1669796868.359375
62.63,1669796868.375
57.99,1669796868.390625
51.78,1669796868.40625
42.85,1669796868.421875
30.82,1669796868.4375
16.36,1669796868.453125
1.15,1669796868.46875
-12.64,1669796868.484375
-22.97,1669796868.5
-28.81,1669796868.515625
-30.41,1669796868.53125
-29.11,1669796868.546875
-26.68,1669796868.5625
-24.48,1669796868.578125
-23.04,1669796868.59375
-22.17,1669796868.609375
-21.49,1669796868.625
-20.99,1669796868.640625
-21.22,1669796868.65625
-23.01,1669796868.671875
-26.98,1669796868.6875
-33.16,1669796868.703125
-40.92,1669796868.71875
-49.19,1669796868.734375
-56.81,1669796868.75
-62.8,1669796868.765625
-66.45,1669796868.78125
-67.44,1669796868.796875
-65.8,1669796868.8125
-61.83,1669796868.828125
-55.95,1669796868.84375
-48.46,1669796868.859375
-39.32,1669796868.875
-28.28,1669796868.890625
-15.09,1669796868.90625
0.07,1669796868.921875
16.36,1669796868.9375
32.4,1669796868.953125
46.75,1669796868.96875
58.31,1669796868.984375
66.64,1669796869.0
71.82,1669796869.015625
74.1,1669796869.03125
73.71,1669796869.046875
70.82,1669796869.0625
65.89,1669796869.078125
59.81,1669796869.09375
53.9,1669796869.109375
49.47,1669796869.125
47.29,1669796869.140625
47.21,1669796869.15625
48.28,1669796869.171875
49.24,1669796869.1875
49.19,1669796869.203125
47.94,1669796869.21875
46.08,1669796869.234375
44.53,1669796869.25
44.03,1669796869.265625
44.66,1669796869.28125
45.75,1669796869.296875
46.09,1669796869.3125
44.29,1669796869.328125
39.26,1669796869.34375
30.51,1669796869.359375
18.23,1669796869.375
3.25,1669796869.390625
-13.17,1669796869.40625
-29.59,1669796869.421875
-44.56,1669796869.4375
-56.91,1669796869.453125
-65.92,1669796869.46875
-71.38,1669796869.484375
-73.61,1669796869.5
-73.34,1669796869.515625
-71.48,1669796869.53125
-68.89,1669796869.546875
-66.25,1669796869.5625
-64.03,1669796869.578125
-62.52,1669796869.59375
-61.88,1669796869.609375
-62.17,1669796869.625
-63.24,1669796869.640625
-64.77,1669796869.65625
-66.28,1669796869.671875
-67.32,1669796869.6875
-67.66,1669796869.703125
-67.46,1669796869.71875
-67.18,1669796869.734375
-67.37,1669796869.75
-68.41,1669796869.765625
-70.34,1669796869.78125
-72.93,1669796869.796875
-75.93,1669796869.8125
-79.13,1669796869.828125
-82.43,1669796869.84375
-85.56,1669796869.859375
-87.91,1669796869.875
-88.55,1669796869.890625
-86.48,1669796869.90625
-81.07,1669796869.921875
-72.38,1669796869.9375
-61.21,1669796869.953125
-48.82,1669796869.96875
-36.45,1669796869.984375
-25.08,1669796870.0
-15.22,1669796870.015625
-7.14,1669796870.03125
-0.85,1669796870.046875
3.73,1669796870.0625
6.85,1669796870.078125
8.98,1669796870.09375
10.61,1669796870.109375
12.13,1669796870.125
13.7,1669796870.140625
15.19,1669796870.15625
16.42,1669796870.171875
17.25,1669796870.1875
17.76,1669796870.203125
18.09,1669796870.21875
18.39,1669796870.234375
18.61,1669796870.25
18.55,1669796870.265625
18.01,1669796870.28125
16.94,1669796870.296875
15.56,1669796870.3125
14.27,1669796870.328125
13.45,1669796870.34375
13.25,1669796870.359375
13.53,1669796870.375
13.87,1669796870.390625
13.79,1669796870.40625
13.0,1669796870.421875
11.5,1669796870.4375
9.59,1669796870.453125
7.69,1669796870.46875
6.15,1669796870.484375
5.11,1669796870.5
4.48,1669796870.515625
4.06,1669796870.53125
3.61,1669796870.546875
3.06,1669796870.5625
2.39,1669796870.578125
1.73,1669796870.59375
1.14,1669796870.609375
0.65,1669796870.625
0.2,1669796870.640625
-0.29,1669796870.65625
-0.86,1669796870.671875
-1.49,1669796870.6875
-2.13,1669796870.703125
-2.73,1669796870.71875
-3.33,1669796870.734375
-4.08,1669796870.75
-5.13,1669796870.765625
-6.6,1669796870.78125
-8.34,1669796870.796875
-10.02,1669796870.8125
-11.12,1669796870.828125
-11.19,1669796870.84375
-10.04,1669796870.859375
-7.9,1669796870.875
-5.24,1669796870.890625
-2.7,1669796870.90625
-0.71,1669796870.921875
0.62,1669796870.9375
1.46,1669796870.953125
2.14,1669796870.96875
2.85,1669796870.984375
3.58,1669796871.0
4.12,1669796871.015625
4.28,1669796871.03125
4.01,1669796871.046875
3.51,1669796871.0625
3.09,1669796871.078125
3.0,1669796871.09375
3.23,1669796871.109375
3.55,1669796871.125
3.63,1669796871.140625
3.25,1669796871.15625
2.47,1669796871.171875
1.55,1669796871.1875
0.85,1669796871.203125
0.63,1669796871.21875
0.9,1669796871.234375
1.44,1669796871.25
1.98,1669796871.265625
2.29,1669796871.28125
2.31,1669796871.296875
2.12,1669796871.3125
1.86,1669796871.328125
1.65,1669796871.34375
1.54,1669796871.359375
1.52,1669796871.375
1.51,1669796871.390625
1.49,1669796871.40625
1.39,1669796871.421875
1.21,1669796871.4375
0.95,1669796871.453125
0.66,1669796871.46875
0.39,1669796871.484375
0.21,1669796871.5
0.16,1669796871.515625
0.22,1669796871.53125
0.37,1669796871.546875
0.58,1669796871.5625
0.8,1669796871.578125
1.05,1669796871.59375
1.28,1669796871.609375
1.49,1669796871.625
1.61,1669796871.640625
1.62,1669796871.65625
1.52,1669796871.671875
1.45,1669796871.6875
1.59,1669796871.703125
2.11,1669796871.71875
3.06,1669796871.734375
4.34,1669796871.75
5.69,1669796871.765625
6.75,1669796871.78125
7.26,1669796871.796875
7.14,1669796871.8125
6.55,1669796871.828125
5.85,1669796871.84375
5.47,1669796871.859375
5.78,1669796871.875
6.96,1669796871.890625
9.1,1669796871.90625
12.16,1669796871.921875
16.09,1669796871.9375
20.91,1669796871.953125
26.64,1669796871.96875
33.37,1669796871.984375
41.17,1669796872.0
49.98,1669796872.015625
59.5,1669796872.03125
69.07,1669796872.046875
77.73,1669796872.0625
84.27,1669796872.078125
87.62,1669796872.09375
86.98,1669796872.109375
82.13,1669796872.125
73.46,1669796872.140625
61.8,1669796872.15625
48.32,1669796872.171875
34.23,1669796872.1875
20.65,1669796872.203125
8.47,1669796872.21875
-1.76,1669796872.234375
-9.84,1669796872.25
-15.9,1669796872.265625
-20.38,1669796872.28125
-23.85,1669796872.296875
-26.87,1669796872.3125
-29.88,1669796872.328125
-33.06,1669796872.34375
-36.36,1669796872.359375
-39.48,1669796872.375
-42.04,1669796872.390625
-43.76,1669796872.40625
-44.44,1669796872.421875
-44.12,1669796872.4375
-42.92,1669796872.453125
-41.11,1669796872.46875
-38.98,1669796872.484375
-36.81,1669796872.5
-34.83,1669796872.515625
-33.22,1669796872.53125
-31.97,1669796872.546875
-30.93,1669796872.5625
-29.85,1669796872.578125
-28.45,1669796872.59375
-26.54,1669796872.609375
-24.22,1669796872.625
-21.84,1669796872.640625
-20.05,1669796872.65625
-19.56,1669796872.671875
-20.96,1669796872.6875
-24.46,1669796872.703125
-29.84,1669796872.71875
-36.48,1669796872.734375
-43.66,1669796872.75
-50.86,1669796872.765625
-57.97,1669796872.78125
-65.27,1669796872.796875
-73.16,1669796872.8125
-81.83,1669796872.828125
-90.99,1669796872.84375
-99.89,1669796872.859375
-107.48,1669796872.875
-112.78,1669796872.890625
-115.0,1669796872.90625
-113.75,1669796872.921875
-108.93,1669796872.9375
-100.83,1669796872.953125
-90.16,1669796872.96875
-77.99,1669796872.984375
-65.5,1669796873.0
-53.61,1669796873.015625
-42.51,1669796873.03125
-31.44,1669796873.046875
-19.11,1669796873.0625
-4.32,1669796873.078125
13.29,1669796873.09375
32.87,1669796873.109375
52.57,1669796873.125
70.21,1669796873.140625
84.1,1669796873.15625
93.54,1669796873.171875
98.79,1669796873.1875
100.73,1669796873.203125
100.31,1669796873.21875
98.27,1669796873.234375
95.04,1669796873.25
90.94,1669796873.265625
86.32,1669796873.28125
81.64,1669796873.296875
77.39,1669796873.3125
73.97,1669796873.328125
71.49,1669796873.34375
69.71,1669796873.359375
68.18,1669796873.375
66.32,1669796873.390625
63.67,1669796873.40625
60.02,1669796873.421875
55.56,1669796873.4375
50.71,1669796873.453125
45.98,1669796873.46875
41.79,1669796873.484375
38.17,1669796873.5
34.84,1669796873.515625
31.28,1669796873.53125
27.07,1669796873.546875
22.01,1669796873.5625
16.29,1669796873.578125
10.38,1669796873.59375
4.81,1669796873.609375
-0.02,1669796873.625
-4.01,1669796873.640625
-7.23,1669796873.65625
-9.93,1669796873.671875
-12.23,1669796873.6875
-14.22,1669796873.703125
-15.9,1669796873.71875
-17.37,1669796873.734375
-18.9,1669796873.75
-20.91,1669796873.765625
-23.8,1669796873.78125
-27.77,1669796873.796875
-32.65,1669796873.8125
-37.82,1669796873.828125
-42.54,1669796873.84375
-46.19,1669796873.859375
-48.62,1669796873.875
-50.17,1669796873.890625
-51.49,1669796873.90625
-53.12,1669796873.921875
-55.06,1669796873.9375
-56.66,1669796873.953125
-56.79,1669796873.96875
-54.38,1669796873.984375
-48.8,1669796874.0
-40.23,1669796874.015625
-29.52,1669796874.03125
-17.87,1669796874.046875
-6.48,1669796874.0625
3.72,1669796874.078125
12.13,1669796874.09375
18.5,1669796874.109375
22.77,1669796874.125
25.03,1669796874.140625
25.62,1669796874.15625
25.0,1669796874.171875
23.85,1669796874.1875
22.82,1669796874.203125
22.44,1669796874.21875
22.87,1669796874.234375
23.85,1669796874.25
24.78,1669796874.265625
24.96,1669796874.28125
23.9,1669796874.296875
21.53,1669796874.3125
18.31,1669796874.328125
14.99,1669796874.34375
12.38,1669796874.359375
10.96,1669796874.375
10.8,1669796874.390625
11.56,1669796874.40625
12.7,1669796874.421875
13.69,1669796874.4375
14.2,1669796874.453125
14.1,1669796874.46875
13.43,1669796874.484375
12.33,1669796874.5
10.94,1669796874.515625
9.29,1669796874.53125
7.37,1669796874.546875
5.16,1669796874.5625
2.67,1669796874.578125
0.03,1669796874.59375
-2.59,1669796874.609375
-4.99,1669796874.625
-7.07,1669796874.640625
-8.83,1669796874.65625
-10.34,1669796874.671875
-11.6,1669796874.6875
-12.51,1669796874.703125
-12.93,1669796874.71875
-12.76,1669796874.734375
-12.06,1669796874.75
-11.07,1669796874.765625
-10.13,1669796874.78125
-9.51,1669796874.796875
-9.33,1669796874.8125
-9.52,1669796874.828125
-9.88,1669796874.84375
-10.16,1669796874.859375
-10.17,1669796874.875
-9.79,1669796874.890625
-9.1,1669796874.90625
-8.32,1669796874.921875
-7.77,1669796874.9375
-7.76,1669796874.953125
-8.47,1669796874.96875
-9.83,1669796874.984375
-11.56,1669796875.0
-13.31,1669796875.015625
-14.78,1669796875.03125
-15.84,1669796875.046875
-16.49,1669796875.0625
-16.75,1669796875.078125
-16.63,1669796875.09375
-16.12,1669796875.109375
-15.22,1669796875.125
-14.09,1669796875.140625
-12.92,1669796875.15625
-11.91,1669796875.171875
-11.13,1669796875.1875
-10.45,1669796875.203125
-9.69,1669796875.21875
-8.74,1669796875.234375
-7.61,1669796875.25
-6.47,1669796875.265625
-5.41,1669796875.28125
-4.38,1669796875.296875
-3.15,1669796875.3125
-1.43,1669796875.328125
0.9,1669796875.34375
3.62,1669796875.359375
6.29,1669796875.375
8.49,1669796875.390625
10.04,1669796875.40625
11.16,1669796875.421875
12.33,1669796875.4375
14.02,1669796875.453125
16.36,1669796875.46875
19.06,1669796875.484375
21.54,1669796875.5
23.16,1669796875.515625
23.55,1669796875.53125
22.7,1669796875.546875
20.88,1669796875.5625
18.51,1669796875.578125
15.98,1669796875.59375
13.62,1669796875.609375
11.61,1669796875.625
10.16,1669796875.640625
9.34,1669796875.65625
9.09,1669796875.671875
9.2,1669796875.6875
9.3,1669796875.703125
9.0,1669796875.71875
8.06,1669796875.734375
6.43,1669796875.75
4.32,1669796875.765625
2.01,1669796875.78125
-0.26,1669796875.796875
-2.38,1669796875.8125
-4.34,1669796875.828125
-6.2,1669796875.84375
-7.94,1669796875.859375
-9.46,1669796875.875
-10.65,1669796875.890625
-11.43,1669796875.90625
-11.81,1669796875.921875
-11.84,1669796875.9375
-11.59,1669796875.953125
-11.07,1669796875.96875
-10.23,1669796875.984375
-9.04,1669796876.0
-7.53,1669796876.015625
-5.82,1669796876.03125
-4.0,1669796876.046875
-2.07,1669796876.0625
-0.0,1669796876.078125
2.26,1669796876.09375
4.66,1669796876.109375
6.94,1669796876.125
8.75,1669796876.140625
9.82,1669796876.15625
10.06,1669796876.171875
9.64,1669796876.1875
8.98,1669796876.203125
8.44,1669796876.21875
8.21,1669796876.234375
8.22,1669796876.25
8.13,1669796876.265625
7.57,1669796876.28125
6.26,1669796876.296875
4.23,1669796876.3125
1.84,1669796876.328125
-0.46,1669796876.34375
-2.24,1669796876.359375
-3.35,1669796876.375
-3.88,1669796876.390625
-4.21,1669796876.40625
-4.67,1669796876.421875
-5.45,1669796876.4375
-6.44,1669796876.453125
-7.33,1669796876.46875
-7.75,1669796876.484375
-7.5,1669796876.5
-6.7,1669796876.515625
-5.67,1669796876.53125
-4.86,1669796876.546875
-4.56,1669796876.5625
-4.83,1669796876.578125
-5.4,1669796876.59375
-5.83,1669796876.609375
-5.72,1669796876.625
-4.88,1669796876.640625
-3.41,1669796876.65625
-1.6,1669796876.671875
0.13,1669796876.6875
1.57,1669796876.703125
2.61,1669796876.71875
3.33,1669796876.734375
3.87,1669796876.75
4.24,1669796876.765625
4.4,1669796876.78125
4.2,1669796876.796875
3.63,1669796876.8125
2.72,1669796876.828125
1.72,1669796876.84375
0.88,1669796876.859375
0.32,1669796876.875
0.04,1669796876.890625
-0.07,1669796876.90625
-0.09,1669796876.921875
0.0,1669796876.9375
0.28,1669796876.953125
0.79,1669796876.96875
1.46,1669796876.984375
2.09,1669796877.0
2.43,1669796877.015625
2.37,1669796877.03125
2.01,1669796877.046875
1.62,1669796877.0625
1.47,1669796877.078125
1.67,1669796877.09375
2.07,1669796877.109375
2.35,1669796877.125
2.23,1669796877.140625
1.58,1669796877.15625
0.55,1669796877.171875
-0.53,1669796877.1875
-1.41,1669796877.203125
-1.93,1669796877.21875
-2.14,1669796877.234375
-2.23,1669796877.25
-2.34,1669796877.265625
-2.55,1669796877.28125
-2.84,1669796877.296875
-3.13,1669796877.3125
-3.31,1669796877.328125
-3.32,1669796877.34375
-3.07,1669796877.359375
-2.57,1669796877.375
-1.9,1669796877.390625
-1.2,1669796877.40625
-0.68,1669796877.421875
-0.49,1669796877.4375
-0.66,1669796877.453125
-1.06,1669796877.46875
-1.42,1669796877.484375
-1.55,1669796877.5
-1.31,1669796877.515625
-0.74,1669796877.53125
0.04,1669796877.546875
0.87,1669796877.5625
1.67,1669796877.578125
2.42,1669796877.59375
3.11,1669796877.609375
3.72,1669796877.625
4.14,1669796877.640625
4.28,1669796877.65625
4.03,1669796877.671875
3.39,1669796877.6875
2.42,1669796877.703125
1.25,1669796877.71875
0.05,1669796877.734375
-1.01,1669796877.75
-1.8,1669796877.765625
-2.3,1669796877.78125
-2.56,1669796877.796875
-2.74,1669796877.8125
-3.0,1669796877.828125
-3.5,1669796877.84375
-4.24,1669796877.859375
-5.08,1669796877.875
-5.86,1669796877.890625
-6.43,1669796877.90625
-6.79,1669796877.921875
-7.1,1669796877.9375
-7.53,1669796877.953125
-8.18,1669796877.96875
-8.88,1669796877.984375
-9.32,1669796878.0
-9.1,1669796878.015625
-8.05,1669796878.03125
-6.27,1669796878.046875
-4.14,1669796878.0625
-2.13,1669796878.078125
-0.59,1669796878.09375
0.39,1669796878.109375
0.92,1669796878.125
1.13,1669796878.140625
1.11,1669796878.15625
0.81,1669796878.171875
0.14,1669796878.1875
-0.81,1669796878.203125
-1.77,1669796878.21875
-2.39,1669796878.234375
-2.45,1669796878.25
-2.03,1669796878.265625
-1.49,1669796878.28125
-1.29,1669796878.296875
-1.69,1669796878.3125
-2.53,1669796878.328125
-3.4,1669796878.34375
-3.79,1669796878.359375
-3.45,1669796878.375
-2.5,1669796878.390625
-1.31,1669796878.40625
-0.27,1669796878.421875
0.44,1669796878.4375
0.86,1669796878.453125
1.15,1669796878.46875
1.43,1669796878.484375
1.66,1669796878.5
1.69,1669796878.515625
1.43,1669796878.53125
0.93,1669796878.546875
0.4,1669796878.5625
0.05,1669796878.578125
-0.02,1669796878.59375
0.2,1669796878.609375
0.52,1669796878.625
0.76,1669796878.640625
0.81,1669796878.65625
0.6,1669796878.671875
0.16,1669796878.6875
-0.44,1669796878.703125
-1.03,1669796878.71875
-1.46,1669796878.734375
-1.6,1669796878.75
-1.38,1669796878.765625
-0.88,1669796878.78125
-0.26,1669796878.796875
0.24,1669796878.8125
0.48,1669796878.828125
0.38,1669796878.84375
0.09,1669796878.859375
-0.21,1669796878.875
-0.29,1669796878.890625
-0.08,1669796878.90625
0.41,1669796878.921875
1.08,1669796878.9375
1.83,1669796878.953125
2.6,1669796878.96875
3.41,1669796878.984375
4.26,1669796879.0
5.12,1669796879.015625
5.93,1669796879.03125
6.56,1669796879.046875
6.94,1669796879.0625
7.06,1669796879.078125
6.99,1669796879.09375
6.81,1669796879.109375
6.49,1669796879.125
5.93,1669796879.140625
4.97,1669796879.15625
3.54,1669796879.171875
1.68,1669796879.1875
-0.4,1669796879.203125
-2.4,1669796879.21875
-4.03,1669796879.234375
-5.1,1669796879.25
-5.6,1669796879.265625
-5.59,1669796879.28125
-5.27,1669796879.296875
-4.78,1669796879.3125
-4.25,1669796879.328125
-3.71,1669796879.34375
-3.15,1669796879.359375
-2.51,1669796879.375
-1.76,1669796879.390625
-0.94,1669796879.40625
-0.16,1669796879.421875
0.42,1669796879.4375
0.73,1669796879.453125
0.82,1669796879.46875
0.86,1669796879.484375
1.07,1669796879.5
1.58,1669796879.515625
2.24,1669796879.53125
2.74,1669796879.546875
2.78,1669796879.5625
2.2,1669796879.578125
1.18,1669796879.59375
0.13,1669796879.609375
-0.48,1669796879.625
-0.4,1669796879.640625
0.32,1669796879.65625
1.34,1669796879.671875
2.28,1669796879.6875
2.9,1669796879.703125
3.23,1669796879.71875
3.48,1669796879.734375
3.93,1669796879.75
4.67,1669796879.765625
5.66,1669796879.78125
6.76,1669796879.796875
7.86,1669796879.8125
8.94,1669796879.828125
10.1,1669796879.84375
11.45,1669796879.859375
12.97,1669796879.875
14.56,1669796879.890625
16.06,1669796879.90625
17.38,1669796879.921875
18.56,1669796879.9375
19.74,1669796879.953125
21.08,1669796879.96875
22.71,1669796879.984375
24.67,1669796880.0
27.0,1669796880.015625
29.8,1669796880.03125
33.2,1669796880.046875
37.33,1669796880.0625
42.25,1669796880.078125
47.85,1669796880.09375
54.0,1669796880.109375
60.5,1669796880.125
67.21,1669796880.140625
73.97,1669796880.15625
80.63,1669796880.171875
86.91,1669796880.1875
92.55,1669796880.203125
97.29,1669796880.21875
100.99,1669796880.234375
103.53,1669796880.25
104.86,1669796880.265625
104.79,1669796880.28125
103.16,1669796880.296875
99.85,1669796880.3125
94.9,1669796880.328125
88.41,1669796880.34375
80.51,1669796880.359375
71.24,1669796880.375
60.48,1669796880.390625
48.11,1669796880.40625
34.07,1669796880.421875
18.6,1669796880.4375
2.21,1669796880.453125
-14.33,1669796880.46875
-30.08,1669796880.484375
-44.08,1669796880.5
-55.52,1669796880.515625
-63.81,1669796880.53125
-68.82,1669796880.546875
-70.88,1669796880.5625
-70.69,1669796880.578125
-69.09,1669796880.59375
-66.91,1669796880.609375
-64.75,1669796880.625
-62.91,1669796880.640625
-61.53,1669796880.65625
-60.62,1669796880.671875
-60.16,1669796880.6875
-60.11,1669796880.703125
-60.39,1669796880.71875
-60.83,1669796880.734375
-61.19,1669796880.75
-61.28,1669796880.765625
-61.01,1669796880.78125
-60.49,1669796880.796875
-59.88,1669796880.8125
-59.33,1669796880.828125
-58.81,1669796880.84375
-57.96,1669796880.859375
-56.34,1669796880.875
-53.51,1669796880.890625
-49.34,1669796880.90625
-44.09,1669796880.921875
-38.45,1669796880.9375
-33.21,1669796880.953125
-29.0,1669796880.96875
-26.13,1669796880.984375
-24.51,1669796881.0
-23.79,1669796881.015625
-23.48,1669796881.03125
-23.16,1669796881.046875
-22.44,1669796881.0625
-21.05,1669796881.078125
-18.81,1669796881.09375
-15.68,1669796881.109375
-11.93,1669796881.125
-8.04,1669796881.140625
-4.71,1669796881.15625
-2.53,1669796881.171875
-1.75,1669796881.1875
-2.12,1669796881.203125
-3.08,1669796881.21875
-3.9,1669796881.234375
-4.06,1669796881.25
-3.31,1669796881.265625
-1.7,1669796881.28125
0.61,1669796881.296875
3.46,1669796881.3125
6.58,1669796881.328125
9.63,1669796881.34375
12.06,1669796881.359375
13.32,1669796881.375
12.89,1669796881.390625
10.51,1669796881.40625
6.29,1669796881.421875
0.62,1669796881.4375
-5.96,1669796881.453125
-12.91,1669796881.46875
-19.77,1669796881.484375
-26.28,1669796881.5
-32.25,1669796881.515625
-37.61,1669796881.53125
-42.39,1669796881.546875
-46.65,1669796881.5625
-50.49,1669796881.578125
-53.97,1669796881.59375
-57.07,1669796881.609375
-59.71,1669796881.625
-61.77,1669796881.640625
-63.19,1669796881.65625
-64.0,1669796881.671875
-64.36,1669796881.6875
-64.42,1669796881.703125
-64.17,1669796881.71875
-63.39,1669796881.734375
-61.63,1669796881.75
-58.32,1669796881.765625
-53.05,1669796881.78125
-45.69,1669796881.796875
-36.48,1669796881.8125
-26.0,1669796881.828125
-15.04,1669796881.84375
-4.46,1669796881.859375
4.86,1669796881.875
12.22,1669796881.890625
17.23,1669796881.90625
19.96,1669796881.921875
20.99,1669796881.9375
21.35,1669796881.953125
22.16,1669796881.96875
24.37,1669796881.984375
28.44,1669796882.0
34.21,1669796882.015625
41.07,1669796882.03125
48.11,1669796882.046875
54.45,1669796882.0625
59.53,1669796882.078125
63.24,1669796882.09375
65.92,1669796882.109375
68.16,1669796882.125
70.54,1669796882.140625
73.4,1669796882.15625
76.75,1669796882.171875
80.2,1669796882.1875
83.17,1669796882.203125
84.98,1669796882.21875
84.95,1669796882.234375
82.44,1669796882.25
76.94,1669796882.265625
68.27,1669796882.28125
56.83,1669796882.296875
43.8,1669796882.3125
30.98,1669796882.328125
20.3,1669796882.34375
13.22,1669796882.359375
10.13,1669796882.375
10.23,1669796882.390625
11.88,1669796882.40625
13.16,1669796882.421875
12.55,1669796882.4375
9.29,1669796882.453125
3.31,1669796882.46875
-4.92,1669796882.484375
-14.74,1669796882.5
-25.43,1669796882.515625
-36.2,1669796882.53125
-46.18,1669796882.546875
-54.37,1669796882.5625
-59.91,1669796882.578125
-62.25,1669796882.59375
-61.38,1669796882.609375
-57.85,1669796882.625
-52.65,1669796882.640625
-46.97,1669796882.65625
-41.8,1669796882.671875
-37.74,1669796882.6875
-34.92,1669796882.703125
-33.06,1669796882.71875
-31.66,1669796882.734375
-30.28,1669796882.75
-28.67,1669796882.765625
-26.86,1669796882.78125
-25.02,1669796882.796875
-23.43,1669796882.8125
-22.23,1669796882.828125
-21.41,1669796882.84375
-20.79,1669796882.859375
-20.21,1669796882.875
-19.61,1669796882.890625
-19.08,1669796882.90625
-18.88,1669796882.921875
-19.18,1669796882.9375
-20.01,1669796882.953125
-21.11,1669796882.96875
-22.08,1669796882.984375
-22.53,1669796883.0
-22.23,1669796883.015625
-21.24,1669796883.03125
-19.86,1669796883.046875
-18.54,1669796883.0625
-17.71,1669796883.078125
-17.68,1669796883.09375
-18.52,1669796883.109375
-20.11,1669796883.125
-22.14,1669796883.140625
-24.31,1669796883.15625
-26.42,1669796883.171875
-28.46,1669796883.1875
-30.59,1669796883.203125
-33.07,1669796883.21875
-36.14,1669796883.234375
-39.87,1669796883.25
-44.06,1669796883.265625
-48.14,1669796883.28125
-51.09,1669796883.296875
-51.63,1669796883.3125
-48.47,1669796883.328125
-40.79,1669796883.34375
-28.57,1669796883.359375
-12.74,1669796883.375
5.05,1669796883.390625
22.88,1669796883.40625
39.1,1669796883.421875
52.58,1669796883.4375
62.76,1669796883.453125
69.48,1669796883.46875
72.76,1669796883.484375
72.84,1669796883.5
70.11,1669796883.515625
65.33,1669796883.53125
59.36,1669796883.546875
53.04,1669796883.5625
46.96,1669796883.578125
41.26,1669796883.59375
35.83,1669796883.609375
30.47,1669796883.625
25.13,1669796883.640625
19.98,1669796883.65625
15.36,1669796883.671875
11.54,1669796883.6875
8.51,1669796883.703125
5.93,1669796883.71875
3.18,1669796883.734375
-0.4,1669796883.75
-5.29,1669796883.765625
-11.54,1669796883.78125
-18.69,1669796883.796875
-25.81,1669796883.8125
-31.78,1669796883.828125
-35.71,1669796883.84375
-37.11,1669796883.859375
-36.21,1669796883.875
-33.76,1669796883.890625
-30.83,1669796883.90625
-28.35,1669796883.921875
-26.86,1669796883.9375
-26.37,1669796883.953125
-26.38,1669796883.96875
-26.28,1669796883.984375
-25.55,1669796884.0
-24.02,1669796884.015625
-21.93,1669796884.03125
-19.79,1669796884.046875
-18.09,1669796884.0625
-17.19,1669796884.078125
-17.1,1669796884.09375
-17.6,1669796884.109375
-18.41,1669796884.125
-19.33,1669796884.140625
-20.32,1669796884.15625
-21.48,1669796884.171875
-23.0,1669796884.1875
-24.99,1669796884.203125
-27.57,1669796884.21875
-30.83,1669796884.234375
-34.93,1669796884.25
-40.07,1669796884.265625
-46.31,1669796884.28125
-53.53,1669796884.296875
-61.41,1669796884.3125
-69.5,1669796884.328125
-77.45,1669796884.34375
-85.23,1669796884.359375
-93.28,1669796884.375
-102.26,1669796884.390625
-112.7,1669796884.40625
-124.41,1669796884.421875
-136.1,1669796884.4375
-145.49,1669796884.453125
-149.89,1669796884.46875
-147.09,1669796884.484375
-136.2,1669796884.5
-117.82,1669796884.515625
-93.83,1669796884.53125
-66.82,1669796884.546875
-39.31,1669796884.5625
-13.38,1669796884.578125
9.57,1669796884.59375
28.81,1669796884.609375
44.2,1669796884.625
55.99,1669796884.640625
64.68,1669796884.65625
70.78,1669796884.671875
74.72,1669796884.6875
76.87,1669796884.703125
77.62,1669796884.71875
77.49,1669796884.734375
77.15,1669796884.75
77.21,1669796884.765625
78.0,1669796884.78125
79.5,1669796884.796875
81.44,1669796884.8125
83.53,1669796884.828125
85.67,1669796884.84375
87.95,1669796884.859375
90.39,1669796884.875
92.8,1669796884.890625
94.71,1669796884.90625
95.6,1669796884.921875
95.1,1669796884.9375
93.24,1669796884.953125
90.31,1669796884.96875
86.78,1669796884.984375
82.97,1669796885.0
79.07,1669796885.015625
75.08,1669796885.03125
70.97,1669796885.046875
66.72,1669796885.0625
62.33,1669796885.078125
57.78,1669796885.09375
53.01,1669796885.109375
48.01,1669796885.125
42.9,1669796885.140625
37.99,1669796885.15625
33.6,1669796885.171875
29.92,1669796885.1875
26.92,1669796885.203125
24.2,1669796885.21875
21.26,1669796885.234375
17.65,1669796885.25
13.17,1669796885.265625
7.96,1669796885.28125
2.44,1669796885.296875
-2.86,1669796885.3125
-7.53,1669796885.328125
-11.39,1669796885.34375
-14.65,1669796885.359375
-17.83,1669796885.375
-21.66,1669796885.390625
-26.82,1669796885.40625
-33.61,1669796885.421875
-41.82,1669796885.4375
-50.73,1669796885.453125
-59.38,1669796885.46875
-66.96,1669796885.484375
-73.24,1669796885.5
-78.74,1669796885.515625
-84.58,1669796885.53125
-92.1,1669796885.546875
-102.34,1669796885.5625
-115.49,1669796885.578125
-130.53,1669796885.59375
-145.11,1669796885.609375
-155.9,1669796885.625
-159.3,1669796885.640625
-152.55,1669796885.65625
-134.62,1669796885.671875
-106.77,1669796885.6875
-72.33,1669796885.703125
-35.8,1669796885.71875
-1.54,1669796885.734375
27.33,1669796885.75
49.48,1669796885.765625
65.18,1669796885.78125
75.66,1669796885.796875
82.3,1669796885.8125
86.14,1669796885.828125
87.73,1669796885.84375
87.42,1669796885.859375
85.56,1669796885.875
82.74,1669796885.890625
79.62,1669796885.90625
76.84,1669796885.921875
74.78,1669796885.9375
73.58,1669796885.953125
73.17,1669796885.96875
73.49,1669796885.984375
74.61,1669796886.0
76.64,1669796886.015625
79.62,1669796886.03125
83.28,1669796886.046875
87.0,1669796886.0625
89.95,1669796886.078125
91.3,1669796886.09375
90.64,1669796886.109375
88.05,1669796886.125
84.05,1669796886.140625
79.36,1669796886.15625
74.62,1669796886.171875
70.2,1669796886.1875
66.19,1669796886.203125
62.42,1669796886.21875
58.6,1669796886.234375
54.41,1669796886.25
49.61,1669796886.265625
44.14,1669796886.28125
38.2,1669796886.296875
32.28,1669796886.3125
26.97,1669796886.328125
22.72,1669796886.34375
19.5,1669796886.359375
16.79,1669796886.375
13.66,1669796886.390625
9.28,1669796886.40625
3.38,1669796886.421875
-3.57,1669796886.4375
-10.54,1669796886.453125
-16.39,1669796886.46875
-20.52,1669796886.484375
-23.16,1669796886.5
-25.23,1669796886.515625
-28.0,1669796886.53125
-32.46,1669796886.546875
-38.95,1669796886.5625
-47.07,1669796886.578125
-55.85,1669796886.59375
-64.17,1669796886.609375
-71.19,1669796886.625
-76.61,1669796886.640625
-80.83,1669796886.65625
-84.85,1669796886.671875
-90.03,1669796886.6875
-97.67,1669796886.703125
-108.56,1669796886.71875
-122.45,1669796886.734375
-137.72,1669796886.75
-151.29,1669796886.765625
-159.15,1669796886.78125
-157.39,1669796886.796875
-143.57,1669796886.8125
-117.75,1669796886.828125
-82.77,1669796886.84375
-43.5,1669796886.859375
-5.37,1669796886.875
27.29,1669796886.890625
52.22,1669796886.90625
69.39,1669796886.921875
80.14,1669796886.9375
86.28,1669796886.953125
89.3,1669796886.96875
90.14,1669796886.984375
89.43,1669796887.0
87.72,1669796887.015625
85.62,1669796887.03125
83.71,1669796887.046875
82.28,1669796887.0625
81.23,1669796887.078125
80.27,1669796887.09375
79.09,1669796887.109375
77.58,1669796887.125
75.97,1669796887.140625
74.74,1669796887.15625
74.43,1669796887.171875
75.38,1669796887.1875
77.53,1669796887.203125
80.35,1669796887.21875
82.94,1669796887.234375
84.31,1669796887.25
83.73,1669796887.265625
80.97,1669796887.28125
76.39,1669796887.296875
70.78,1669796887.3125
65.02,1669796887.328125
59.72,1669796887.34375
55.05,1669796887.359375
50.69,1669796887.375
46.08,1669796887.390625
40.66,1669796887.40625
34.22,1669796887.421875
26.91,1669796887.4375
19.2,1669796887.453125
11.64,1669796887.46875
4.68,1669796887.484375
-1.51,1669796887.5
-7.0,1669796887.515625
-12.13,1669796887.53125
-17.38,1669796887.546875
-23.19,1669796887.5625
-29.88,1669796887.578125
-37.47,1669796887.59375
-45.73,1669796887.609375
-54.3,1669796887.625
-62.85,1669796887.640625
-71.4,1669796887.65625
-80.24,1669796887.671875
-89.91,1669796887.6875
-100.94,1669796887.703125
-113.51,1669796887.71875
-127.46,1669796887.734375
-142.33,1669796887.75
-157.63,1669796887.765625
-173.09,1669796887.78125
-188.76,1669796887.796875
-204.94,1669796887.8125
-222.13,1669796887.828125
-240.87,1669796887.84375
-261.71,1669796887.859375
-284.96,1669796887.875
-310.45,1669796887.890625
-337.0,1669796887.90625
-362.23,1669796887.921875
-382.78,1669796887.9375
-394.98,1669796887.953125
-396.02,1669796887.96875
-384.84,1669796887.984375
-362.49,1669796888.0
-331.68,1669796888.015625
-295.79,1669796888.03125
-257.77,1669796888.046875
-219.52,1669796888.0625
-181.81,1669796888.078125
-144.71,1669796888.09375
-108.05,1669796888.109375
-71.66,1669796888.125
-35.31,1669796888.140625
1.45,1669796888.15625
39.17,1669796888.171875
78.06,1669796888.1875
117.43,1669796888.203125
155.42,1669796888.21875
189.33,1669796888.234375
216.45,1669796888.25
235.12,1669796888.265625
245.37,1669796888.28125
248.85,1669796888.296875
248.13,1669796888.3125
245.7,1669796888.328125
243.15,1669796888.34375
240.9,1669796888.359375
238.51,1669796888.375
235.26,1669796888.390625
230.6,1669796888.40625
224.43,1669796888.421875
217.11,1669796888.4375
209.26,1669796888.453125
201.58,1669796888.46875
194.59,1669796888.484375
188.53,1669796888.5
183.18,1669796888.515625
177.99,1669796888.53125
172.24,1669796888.546875
165.36,1669796888.5625
157.12,1669796888.578125
147.73,1669796888.59375
137.67,1669796888.609375
127.55,1669796888.625
117.81,1669796888.640625
108.75,1669796888.65625
100.46,1669796888.671875
92.89,1669796888.6875
85.95,1669796888.703125
79.49,1669796888.71875
73.31,1669796888.734375
67.23,1669796888.75
61.08,1669796888.765625
54.79,1669796888.78125
48.3,1669796888.796875
41.48,1669796888.8125
34.17,1669796888.828125
26.19,1669796888.84375
17.53,1669796888.859375
8.44,1669796888.875
-0.59,1669796888.890625
-8.99,1669796888.90625
-16.41,1669796888.921875
-22.95,1669796888.9375
-29.17,1669796888.953125
-36.02,1669796888.96875
-44.61,1669796888.984375
-55.91,1669796889.0
-70.37,1669796889.015625
-87.48,1669796889.03125
-105.43,1669796889.046875
-121.15,1669796889.0625
-130.9,1669796889.078125
-131.26,1669796889.09375
-120.32,1669796889.109375
-98.37,1669796889.125
-68.03,1669796889.140625
-33.37,1669796889.15625
1.25,1669796889.171875
32.28,1669796889.1875
57.69,1669796889.203125
76.88,1669796889.21875
90.31,1669796889.234375
98.91,1669796889.25
103.66,1669796889.265625
105.4,1669796889.28125
104.83,1669796889.296875
102.52,1669796889.3125
99.01,1669796889.328125
94.75,1669796889.34375
90.17,1669796889.359375
85.64,1669796889.375
81.49,1669796889.390625
78.09,1669796889.40625
75.81,1669796889.421875
75.01,1669796889.4375
75.94,1669796889.453125
78.53,1669796889.46875
82.34,1669796889.484375
86.59,1669796889.5
90.28,1669796889.515625
92.52,1669796889.53125
92.76,1669796889.546875
90.91,1669796889.5625
87.28,1669796889.578125
82.45,1669796889.59375
77.0,1669796889.609375
71.34,1669796889.625
65.67,1669796889.640625
59.96,1669796889.65625
54.1,1669796889.671875
48.01,1669796889.6875
41.71,1669796889.703125
35.28,1669796889.71875
28.88,1669796889.734375
22.63,1669796889.75
16.6,1669796889.765625
10.76,1669796889.78125
5.11,1669796889.796875
-0.33,1669796889.8125
-5.45,1669796889.828125
-10.12,1669796889.84375
-14.27,1669796889.859375
-18.1,1669796889.875
-22.06,1669796889.890625
-26.73,1669796889.90625
-32.6,1669796889.921875
-39.81,1669796889.9375
-48.05,1669796889.953125
-56.65,1669796889.96875
-64.89,1669796889.984375
-72.24,1669796890.0
-78.61,1669796890.015625
-84.46,1669796890.03125
-90.62,1669796890.046875
-98.12,1669796890.0625
-107.89,1669796890.078125
-120.35,1669796890.09375
-134.95,1669796890.109375
-149.92,1669796890.125
-162.32,1669796890.140625
-168.68,1669796890.15625
-165.94,1669796890.171875
-152.51,1669796890.1875
-128.96,1669796890.203125
-97.96,1669796890.21875
-63.42,1669796890.234375
-29.4,1669796890.25
0.97,1669796890.265625
25.97,1669796890.28125
45.32,1669796890.296875
59.58,1669796890.3125
69.72,1669796890.328125
76.65,1669796890.34375
81.14,1669796890.359375
83.89,1669796890.375
85.47,1669796890.390625
86.33,1669796890.40625
86.74,1669796890.421875
86.69,1669796890.4375
86.09,1669796890.453125
84.89,1669796890.46875
83.25,1669796890.484375
81.66,1669796890.5
80.67,1669796890.515625
80.81,1669796890.53125
82.23,1669796890.546875
84.68,1669796890.5625
87.58,1669796890.578125
90.16,1669796890.59375
91.72,1669796890.609375
91.85,1669796890.625
90.44,1669796890.640625
87.66,1669796890.65625
83.82,1669796890.671875
79.24,1669796890.6875
74.22,1669796890.703125
68.94,1669796890.71875
63.51,1669796890.734375
57.97,1669796890.75
52.29,1669796890.765625
46.46,1669796890.78125
40.49,1669796890.796875
34.45,1669796890.8125
28.56,1669796890.828125
23.04,1669796890.84375
18.02,1669796890.859375
13.45,1669796890.875
9.12,1669796890.890625
4.75,1669796890.90625
0.15,1669796890.921875
-4.66,1669796890.9375
-9.44,1669796890.953125
-13.94,1669796890.96875
-18.05,1669796890.984375
-21.93,1669796891.0
-26.03,1669796891.015625
-30.83,1669796891.03125
-36.68,1669796891.046875
-43.54,1669796891.0625
-51.09,1669796891.078125
-58.8,1669796891.09375
-66.15,1669796891.109375
-72.84,1669796891.125
-78.91,1669796891.140625
-84.72,1669796891.15625
-90.96,1669796891.171875
-98.56,1669796891.1875
-108.36,1669796891.203125
-120.75,1669796891.21875
-135.07,1669796891.234375
-149.37,1669796891.25
-160.52,1669796891.265625
-164.95,1669796891.28125
-159.78,1669796891.296875
-143.91,1669796891.3125
-118.51,1669796891.328125
-86.75,1669796891.34375
-52.74,1669796891.359375
-20.39,1669796891.375
7.59,1669796891.390625
29.95,1669796891.40625
46.75,1669796891.421875
58.73,1669796891.4375
66.9,1669796891.453125
72.25,1669796891.46875
75.6,1669796891.484375
77.67,1669796891.5
79.0,1669796891.515625
79.97,1669796891.53125
80.72,1669796891.546875
81.24,1669796891.5625
81.43,1669796891.578125
81.25,1669796891.59375
80.81,1669796891.609375
80.4,1669796891.625
80.43,1669796891.640625
81.31,1669796891.65625
83.26,1669796891.671875
86.21,1669796891.6875
89.69,1669796891.703125
93.0,1669796891.71875
95.35,1669796891.734375
96.19,1669796891.75
95.36,1669796891.765625
93.2,1669796891.78125
90.31,1669796891.796875
87.39,1669796891.8125
84.91,1669796891.828125
83.0,1669796891.84375
81.47,1669796891.859375
79.95,1669796891.875
78.14,1669796891.890625
75.92,1669796891.90625
73.43,1669796891.921875
71.03,1669796891.9375
69.19,1669796891.953125
68.33,1669796891.96875
68.62,1669796891.984375
69.97,1669796892.0
71.97,1669796892.015625
74.02,1669796892.03125
75.57,1669796892.046875
76.27,1669796892.0625
76.09,1669796892.078125
75.29,1669796892.09375
74.17,1669796892.109375
72.81,1669796892.125
70.86,1669796892.140625
67.52,1669796892.15625
61.75,1669796892.171875
52.69,1669796892.1875
40.03,1669796892.203125
24.3,1669796892.21875
6.9,1669796892.234375
-10.26,1669796892.25
-25.27,1669796892.265625
-36.78,1669796892.28125
-44.52,1669796892.296875
-49.42,1669796892.3125
-53.47,1669796892.328125
-59.08,1669796892.34375
-68.29,1669796892.359375
-81.86,1669796892.375
-98.7,1669796892.390625
-115.84,1669796892.40625
-129.18,1669796892.421875
-134.78,1669796892.4375
-130.2,1669796892.453125
-115.43,1669796892.46875
-92.94,1669796892.484375
-66.7,1669796892.5
-40.87,1669796892.515625
-18.47,1669796892.53125
-0.86,1669796892.546875
12.12,1669796892.5625
21.41,1669796892.578125
27.91,1669796892.59375
32.05,1669796892.609375
33.81,1669796892.625
33.01,1669796892.640625
29.62,1669796892.65625
23.92,1669796892.671875
16.55,1669796892.6875
8.37,1669796892.703125
0.41,1669796892.71875
-6.3,1669796892.734375
-10.87,1669796892.75
-12.77,1669796892.765625
-11.96,1669796892.78125
-9.01,1669796892.796875
-5.0,1669796892.8125
-1.22,1669796892.828125
1.11,1669796892.84375
1.2,1669796892.859375
-1.21,1669796892.875
-5.79,1669796892.890625
-11.86,1669796892.90625
-18.58,1669796892.921875
-25.24,1669796892.9375
-31.35,1669796892.953125
-36.62,1669796892.96875
-40.84,1669796892.984375
-43.75,1669796893.0
-45.03,1669796893.015625
-44.5,1669796893.03125
-42.22,1669796893.046875
-38.69,1669796893.0625
-34.74,1669796893.078125
-31.31,1669796893.09375
-29.27,1669796893.109375
-29.1,1669796893.125
-30.89,1669796893.140625
-34.34,1669796893.15625
-38.97,1669796893.171875
-44.26,1669796893.1875
-49.79,1669796893.203125
-55.37,1669796893.21875
-61.02,1669796893.234375
-66.87,1669796893.25
-73.11,1669796893.265625
-79.76,1669796893.28125
-86.73,1669796893.296875
-93.83,1669796893.3125
-100.84,1669796893.328125
-107.66,1669796893.34375
-114.25,1669796893.359375
-120.65,1669796893.375
-126.92,1669796893.390625
-133.35,1669796893.40625
-140.4,1669796893.421875
-148.7,1669796893.4375
-158.53,1669796893.453125
-169.32,1669796893.46875
-179.21,1669796893.484375
-185.2,1669796893.5
-184.02,1669796893.515625
-173.28,1669796893.53125
-152.58,1669796893.546875
-123.88,1669796893.5625
-90.91,1669796893.578125
-57.99,1669796893.59375
-28.65,1669796893.609375
-4.85,1669796893.625
13.07,1669796893.640625
25.89,1669796893.65625
34.77,1669796893.671875
40.76,1669796893.6875
44.65,1669796893.703125
47.02,1669796893.71875
48.43,1669796893.734375
49.4,1669796893.75
50.31,1669796893.765625
51.32,1669796893.78125
52.34,1669796893.796875
53.15,1669796893.8125
53.63,1669796893.828125
53.86,1669796893.84375
54.23,1669796893.859375
55.21,1669796893.875
57.18,1669796893.890625
60.17,1669796893.90625
63.85,1669796893.921875
67.53,1669796893.9375
70.43,1669796893.953125
71.9,1669796893.96875
71.59,1669796893.984375
69.58,1669796894.0
66.27,1669796894.015625
62.27,1669796894.03125
58.21,1669796894.046875
54.53,1669796894.0625
51.33,1669796894.078125
48.31,1669796894.09375
44.98,1669796894.109375
40.86,1669796894.125
35.81,1669796894.140625
30.15,1669796894.15625
24.55,1669796894.171875
19.74,1669796894.1875
16.14,1669796894.203125
13.71,1669796894.21875
11.92,1669796894.234375
10.04,1669796894.25
7.39,1669796894.265625
3.66,1669796894.28125
-1.05,1669796894.296875
-6.29,1669796894.3125
-11.47,1669796894.328125
-16.1,1669796894.34375
-20.03,1669796894.359375
-23.54,1669796894.375
-27.18,1669796894.390625
-31.6,1669796894.40625
-37.18,1669796894.421875
-43.88,1669796894.4375
-51.21,1669796894.453125
-58.47,1669796894.46875
-65.01,1669796894.484375
-70.52,1669796894.5
-75.2,1669796894.515625
-79.66,1669796894.53125
-84.82,1669796894.546875
-91.6,1669796894.5625
-100.61,1669796894.578125
-111.81,1669796894.59375
-124.19,1669796894.609375
-135.65,1669796894.625
-143.25,1669796894.640625
-143.95,1669796894.65625
-135.55,1669796894.671875
-117.6,1669796894.6875
-91.71,1669796894.703125
-61.23,1669796894.71875
-30.19,1669796894.734375
-2.15,1669796894.75
20.69,1669796894.765625
37.77,1669796894.78125
49.8,1669796894.796875
58.05,1669796894.8125
63.66,1669796894.828125
67.38,1669796894.84375
69.64,1669796894.859375
70.74,1669796894.875
71.08,1669796894.890625
71.06,1669796894.90625
70.99,1669796894.921875
70.9,1669796894.9375
70.62,1669796894.953125
69.91,1669796894.96875
68.73,1669796894.984375
67.36,1669796895.0
66.31,1669796895.015625
66.09,1669796895.03125
66.9,1669796895.046875
68.6,1669796895.0625
70.65,1669796895.078125
72.36,1669796895.09375
73.13,1669796895.109375
72.58,1669796895.125
70.61,1669796895.140625
67.37,1669796895.15625
63.18,1669796895.171875
58.45,1669796895.1875
53.61,1669796895.203125
48.98,1669796895.21875
44.74,1669796895.234375
40.88,1669796895.25
37.2,1669796895.265625
33.45,1669796895.28125
29.42,1669796895.296875
25.08,1669796895.3125
20.61,1669796895.328125
16.32,1669796895.34375
12.56,1669796895.359375
9.49,1669796895.375
7.04,1669796895.390625
4.87,1669796895.40625
2.55,1669796895.421875
-0.27,1669796895.4375
-3.66,1669796895.453125
-7.45,1669796895.46875
-11.24,1669796895.484375
-14.66,1669796895.5
-17.54,1669796895.515625
-19.99,1669796895.53125
-22.45,1669796895.546875
-25.45,1669796895.5625
-29.5,1669796895.578125
-34.85,1669796895.59375
-41.39,1669796895.609375
-48.65,1669796895.625
-55.93,1669796895.640625
-62.5,1669796895.65625
-67.93,1669796895.671875
-72.21,1669796895.6875
-75.89,1669796895.703125
-79.97,1669796895.71875
-85.61,1669796895.734375
-93.72,1669796895.75
-104.44,1669796895.765625
-116.76,1669796895.78125
-128.38,1669796895.796875
-136.14,1669796895.8125
-136.84,1669796895.828125
-128.3,1669796895.84375
-110.26,1669796895.859375
-84.61,1669796895.875
-54.85,1669796895.890625
-25.04,1669796895.90625
1.46,1669796895.921875
22.66,1669796895.9375
38.17,1669796895.953125
48.67,1669796895.96875
55.36,1669796895.984375
59.32,1669796896.0
61.34,1669796896.015625
61.98,1669796896.03125
61.61,1669796896.046875
60.6,1669796896.0625
59.23,1669796896.078125
57.68,1669796896.09375
56.05,1669796896.109375
54.41,1669796896.125
52.88,1669796896.140625
51.67,1669796896.15625
51.09,1669796896.171875
51.43,1669796896.1875
52.88,1669796896.203125
55.35,1669796896.21875
58.5,1669796896.234375
61.71,1669796896.25
64.26,1669796896.265625
65.52,1669796896.28125
65.12,1669796896.296875
63.06,1669796896.3125
59.68,1669796896.328125
55.5,1669796896.34375
51.09,1669796896.359375
46.86,1669796896.375
42.99,1669796896.390625
39.43,1669796896.40625
35.95,1669796896.421875
32.29,1669796896.4375
28.22,1669796896.453125
23.69,1669796896.46875
18.86,1669796896.484375
14.06,1669796896.5
9.68,1669796896.515625
5.99,1669796896.53125
3.0,1669796896.546875
0.42,1669796896.5625
-2.28,1669796896.578125
-5.65,1669796896.59375
-10.01,1669796896.609375
-15.26,1669796896.625
-20.88,1669796896.640625
-26.13,1669796896.65625
-30.44,1669796896.671875
-33.71,1669796896.6875
-36.44,1669796896.703125
-39.5,1669796896.71875
-43.75,1669796896.734375
-49.55,1669796896.75
-56.58,1669796896.765625
-63.98,1669796896.78125
-70.76,1669796896.796875
-76.26,1669796896.8125
-80.48,1669796896.828125
-84.08,1669796896.84375
-88.13,1669796896.859375
-93.69,1669796896.875
-101.55,1669796896.890625
-111.87,1669796896.90625
-124.0,1669796896.921875
-136.27,1669796896.9375
-146.12,1669796896.953125
-150.52,1669796896.96875
-146.79,1669796896.984375
-133.49,1669796897.0
-111.11,1669796897.015625
-82.07,1669796897.03125
-50.1,1669796897.046875
-19.19,1669796897.0625
7.53,1669796897.078125
28.41,1669796897.09375
43.31,1669796897.109375
53.17,1669796897.125
59.39,1669796897.140625
63.28,1669796897.15625
65.77,1669796897.171875
67.39,1669796897.1875
68.35,1669796897.203125
68.73,1669796897.21875
68.54,1669796897.234375
67.84,1669796897.25
66.71,1669796897.265625
65.28,1669796897.28125
63.71,1669796897.296875
62.23,1669796897.3125
61.14,1669796897.328125
60.77,1669796897.34375
61.36,1669796897.359375
62.98,1669796897.375
65.35,1669796897.390625
67.93,1669796897.40625
70.0,1669796897.421875
70.87,1669796897.4375
70.11,1669796897.453125
67.69,1669796897.46875
63.95,1669796897.484375
59.54,1669796897.5
55.14,1669796897.515625
51.2,1669796897.53125
47.78,1669796897.546875
44.62,1669796897.5625
41.26,1669796897.578125
37.3,1669796897.59375
32.64,1669796897.609375
27.45,1669796897.625
22.12,1669796897.640625
17.05,1669796897.65625
12.56,1669796897.671875
8.78,1669796897.6875
5.7,1669796897.703125
3.11,1669796897.71875
0.73,1669796897.734375
-1.88,1669796897.75
-5.12,1669796897.765625
-9.22,1669796897.78125
-14.09,1669796897.796875
-19.3,1669796897.8125
-24.22,1669796897.828125
-28.38,1669796897.84375
-31.74,1669796897.859375
-34.76,1669796897.875
-38.21,1669796897.890625
-42.81,1669796897.90625
-48.85,1669796897.921875
-56.0,1669796897.9375
-63.55,1669796897.953125
-70.65,1669796897.96875
-76.81,1669796897.984375
-81.98,1669796898.0
-86.64,1669796898.015625
-91.58,1669796898.03125
-97.71,1669796898.046875
-105.77,1669796898.0625
-116.12,1669796898.078125
-128.32,1669796898.09375
-140.82,1669796898.109375
-150.99,1669796898.125
-155.51,1669796898.140625
-151.44,1669796898.15625
-137.25,1669796898.171875
-113.57,1669796898.1875
-83.19,1669796898.203125
-50.18,1669796898.21875
-18.67,1669796898.234375
8.32,1669796898.25
29.38,1669796898.265625
44.63,1669796898.28125
55.05,1669796898.296875
61.8,1669796898.3125
65.91,1669796898.328125
68.11,1669796898.34375
68.94,1669796898.359375
68.89,1669796898.375
68.36,1669796898.390625
67.59,1669796898.40625
66.66,1669796898.421875
65.53,1669796898.4375
64.17,1669796898.453125
62.71,1669796898.46875
61.45,1669796898.484375
60.79,1669796898.5
61.07,1669796898.515625
62.44,1669796898.53125
64.75,1669796898.546875
67.57,1669796898.5625
70.31,1669796898.578125
72.23,1669796898.59375
72.71,1669796898.609375
71.39,1669796898.625
68.31,1669796898.640625
63.93,1669796898.65625
58.99,1669796898.671875
54.3,1669796898.6875
50.36,1669796898.703125
47.24,1669796898.71875
44.51,1669796898.734375
41.55,1669796898.75
37.79,1669796898.765625
33.05,1669796898.78125
27.6,1669796898.796875
21.99,1669796898.8125
16.86,1669796898.828125
12.67,1669796898.84375
9.55,1669796898.859375
7.24,1669796898.875
5.29,1669796898.890625
3.14,1669796898.90625
0.39,1669796898.921875
-3.07,1669796898.9375
-7.06,1669796898.953125
-11.2,1669796898.96875
-15.11,1669796898.984375
-18.56,1669796899.0
-21.59,1669796899.015625
-24.54,1669796899.03125
-27.87,1669796899.046875
-32.06,1669796899.0625
-37.37,1669796899.078125
-43.78,1669796899.09375
-50.89,1669796899.109375
-58.12,1669796899.125
-64.84,1669796899.140625
-70.65,1669796899.15625
-75.53,1669796899.171875
-79.94,1669796899.1875
-84.72,1669796899.203125
-90.87,1669796899.21875
-99.18,1669796899.234375
-109.78,1669796899.25
-121.77,1669796899.265625
-133.01,1669796899.28125
-140.46,1669796899.296875
-140.94,1669796899.3125
-132.26,1669796899.328125
-114.01,1669796899.34375
-87.99,1669796899.359375
-57.64,1669796899.375
-27.02,1669796899.390625
0.43,1669796899.40625
22.7,1669796899.421875
39.33,1669796899.4375
50.89,1669796899.453125
58.37,1669796899.46875
62.62,1669796899.484375
64.21,1669796899.5
63.61,1669796899.515625
61.38,1669796899.53125
58.22,1669796899.546875
54.84,1669796899.5625
51.81,1669796899.578125
49.42,1669796899.59375
47.74,1669796899.609375
46.76,1669796899.625
46.54,1669796899.640625
47.22,1669796899.65625
48.97,1669796899.671875
51.81,1669796899.6875
55.49,1669796899.703125
59.53,1669796899.71875
63.25,1669796899.734375
66.02,1669796899.75
67.4,1669796899.765625
67.22,1669796899.78125
65.65,1669796899.796875
62.98,1669796899.8125
59.62,1669796899.828125
55.9,1669796899.84375
52.02,1669796899.859375
48.03,1669796899.875
43.9,1669796899.890625
39.62,1669796899.90625
35.27,1669796899.921875
31.08,1669796899.9375
27.31,1669796899.953125
24.14,1669796899.96875
21.58,1669796899.984375
19.44,1669796900.0
17.39,1669796900.015625
15.16,1669796900.03125
12.62,1669796900.046875
9.93,1669796900.0625
7.38,1669796900.078125
5.25,1669796900.09375
3.66,1669796900.109375
2.45,1669796900.125
1.27,1669796900.140625
-0.27,1669796900.15625
-2.43,1669796900.171875
-5.23,1669796900.1875
-8.47,1669796900.203125
-11.78,1669796900.21875
-14.79,1669796900.234375
-17.23,1669796900.25
-19.07,1669796900.265625
-20.59,1669796900.28125
-22.45,1669796900.296875
-25.65,1669796900.3125
-31.29,1669796900.328125
-40.05,1669796900.34375
-51.62,1669796900.359375
-64.3,1669796900.375
-75.06,1669796900.390625
-80.25,1669796900.40625
-76.8,1669796900.421875
-63.46,1669796900.4375
-41.46,1669796900.453125
-14.33,1669796900.46875
13.17,1669796900.484375
36.49,1669796900.5
52.54,1669796900.515625
60.33,1669796900.53125
60.68,1669796900.546875
55.56,1669796900.5625
47.26,1669796900.578125
37.83,1669796900.59375
28.82,1669796900.609375
21.21,1669796900.625
15.41,1669796900.640625
11.35,1669796900.65625
8.52,1669796900.671875
6.14,1669796900.6875
3.54,1669796900.703125
0.37,1669796900.71875
-3.21,1669796900.734375
-6.53,1669796900.75
-8.68,1669796900.765625
-8.77,1669796900.78125
-6.25,1669796900.796875
-1.08,1669796900.8125
6.14,1669796900.828125
14.34,1669796900.84375
22.14,1669796900.859375
28.26,1669796900.875
31.84,1669796900.890625
32.71,1669796900.90625
31.36,1669796900.921875
28.61,1669796900.9375
25.28,1669796900.953125
21.81,1669796900.96875
18.17,1669796900.984375
14.02,1669796901.0
9.0,1669796901.015625
3.05,1669796901.03125
-3.59,1669796901.046875
-10.32,1669796901.0625
-16.49,1669796901.078125
-21.53,1669796901.09375
-25.23,1669796901.109375
-27.7,1669796901.125
-29.39,1669796901.140625
-30.95,1669796901.15625
-32.96,1669796901.171875
-35.75,1669796901.1875
-39.33,1669796901.203125
-43.38,1669796901.21875
-47.5,1669796901.234375
-51.46,1669796901.25
-55.29,1669796901.265625
-59.28,1669796901.28125
-63.81,1669796901.296875
-69.1,1669796901.3125
-75.13,1669796901.328125
-81.53,1669796901.34375
-87.8,1669796901.359375
-93.45,1669796901.375
-98.26,1669796901.390625
-102.33,1669796901.40625
-106.15,1669796901.421875
-110.47,1669796901.4375
-116.13,1669796901.453125
-123.86,1669796901.46875
-133.83,1669796901.484375
-145.36,1669796901.5
-156.58,1669796901.515625
-164.63,1669796901.53125
-166.19,1669796901.546875
-158.54,1669796901.5625
-140.5,1669796901.578125
-113.13,1669796901.59375
-79.6,1669796901.609375
-44.25,1669796901.625
-11.35,1669796901.640625
16.22,1669796901.65625
37.35,1669796901.671875
52.55,1669796901.6875
63.18,1669796901.703125
70.63,1669796901.71875
75.85,1669796901.734375
79.33,1669796901.75
81.3,1669796901.765625
82.05,1669796901.78125
81.92,1669796901.796875
81.31,1669796901.8125
80.5,1669796901.828125
79.6,1669796901.84375
78.65,1669796901.859375
77.68,1669796901.875
76.8,1669796901.890625
76.21,1669796901.90625
76.18,1669796901.921875
76.85,1669796901.9375
78.23,1669796901.953125
80.02,1669796901.96875
81.73,1669796901.984375
82.76,1669796902.0
82.57,1669796902.015625
80.91,1669796902.03125
77.89,1669796902.046875
73.94,1669796902.0625
69.62,1669796902.078125
65.33,1669796902.09375
61.17,1669796902.109375
56.96,1669796902.125
52.35,1669796902.140625
47.13,1669796902.15625
41.34,1669796902.171875
35.35,1669796902.1875
29.7,1669796902.203125
24.88,1669796902.21875
21.09,1669796902.234375
18.15,1669796902.25
15.52,1669796902.265625
12.53,1669796902.28125
8.66,1669796902.296875
3.79,1669796902.3125
-1.78,1669796902.328125
-7.44,1669796902.34375
-12.53,1669796902.359375
-16.66,1669796902.375
-19.93,1669796902.390625
-22.89,1669796902.40625
-26.35,1669796902.421875
-30.96,1669796902.4375
-36.96,1669796902.453125
-44.03,1669796902.46875
-51.43,1669796902.484375
-58.38,1669796902.5
-64.33,1669796902.515625
-69.31,1669796902.53125
-73.93,1669796902.546875
-79.23,1669796902.5625
-86.29,1669796902.578125
-95.87,1669796902.59375
-107.98,1669796902.609375
-121.53,1669796902.625
-134.3,1669796902.640625
-143.15,1669796902.65625
-144.89,1669796902.671875
-137.12,1669796902.6875
-119.27,1669796902.703125
-92.9,1669796902.71875
-61.35,1669796902.734375
-28.76,1669796902.75
1.16,1669796902.765625
26.0,1669796902.78125
44.87,1669796902.796875
58.11,1669796902.8125
66.6,1669796902.828125
71.27,1669796902.84375
72.83,1669796902.859375
71.91,1669796902.875
69.18,1669796902.890625
65.42,1669796902.90625
61.47,1669796902.921875
58.03,1669796902.9375
55.53,1669796902.953125
54.13,1669796902.96875
53.8,1669796902.984375
54.4,1669796903.0
55.8,1669796903.015625
57.93,1669796903.03125
60.71,1669796903.046875
63.98,1669796903.0625
67.43,1669796903.078125
70.57,1669796903.09375
72.81,1669796903.109375
73.67,1669796903.125
72.89,1669796903.140625
70.58,1669796903.15625
67.11,1669796903.171875
62.99,1669796903.1875
58.62,1669796903.203125
54.19,1669796903.21875
49.66,1669796903.234375
44.9,1669796903.25
39.79,1669796903.265625
34.37,1669796903.28125
28.81,1669796903.296875
23.34,1669796903.3125
18.1,1669796903.328125
13.12,1669796903.34375
8.28,1669796903.359375
3.41,1669796903.375
-1.55,1669796903.390625
-6.55,1669796903.40625
-11.4,1669796903.421875
-15.87,1669796903.4375
-19.89,1669796903.453125
-23.56,1669796903.46875
-27.29,1669796903.484375
-31.51,1669796903.5
-36.67,1669796903.515625
-42.9,1669796903.53125
-49.98,1669796903.546875
-57.43,1669796903.5625
-64.63,1669796903.578125
-71.13,1669796903.59375
-76.8,1669796903.609375
-81.94,1669796903.625
-87.23,1669796903.640625
-93.59,1669796903.65625
-101.97,1669796903.671875
-112.94,1669796903.6875
-126.22,1669796903.703125
-140.27,1669796903.71875
-152.28,1669796903.734375
-158.64,1669796903.75
-156.0,1669796903.765625
-142.41,1669796903.78125
-118.19,1669796903.796875
-85.94,1669796903.8125
-49.75,1669796903.828125
-13.96,1669796903.84375
18.07,1669796903.859375
44.53,1669796903.875
65.13,1669796903.890625
80.56,1669796903.90625
91.83,1669796903.921875
99.9,1669796903.9375
105.53,1669796903.953125
109.34,1669796903.96875
111.86,1669796903.984375
113.59,1669796904.0
114.91,1669796904.015625
115.97,1669796904.03125
116.69,1669796904.046875
116.85,1669796904.0625
116.26,1669796904.078125
114.97,1669796904.09375
113.3,1669796904.109375
111.76,1669796904.125
110.85,1669796904.140625
110.76,1669796904.15625
111.22,1669796904.171875
111.56,1669796904.1875
110.89,1669796904.203125
108.38,1669796904.21875
103.53,1669796904.234375
96.28,1669796904.25
87.04,1669796904.265625
76.56,1669796904.28125
65.78,1669796904.296875
55.58,1669796904.3125
46.54,1669796904.328125
38.82,1669796904.34375
32.15,1669796904.359375
26.06,1669796904.375
20.1,1669796904.390625
14.1,1669796904.40625
8.17,1669796904.421875
2.54,1669796904.4375
-2.71,1669796904.453125
-7.78,1669796904.46875
-13.01,1669796904.484375
-18.69,1669796904.5
-24.77,1669796904.515625
-30.91,1669796904.53125
-36.72,1669796904.546875
-42.02,1669796904.5625
-47.02,1669796904.578125
-52.16,1669796904.59375
-57.96,1669796904.609375
-64.62,1669796904.625
-72.02,1669796904.640625
-79.65,1669796904.65625
-86.92,1669796904.671875
-93.32,1669796904.6875
-98.59,1669796904.703125
-102.77,1669796904.71875
-106.23,1669796904.734375
-109.67,1669796904.75
-114.05,1669796904.765625
-120.49,1669796904.78125
-129.97,1669796904.796875
-142.8,1669796904.8125
-158.11,1669796904.828125
-173.51,1669796904.84375
-185.31,1669796904.859375
-189.4,1669796904.875
-182.61,1669796904.890625
-163.85,1669796904.90625
-134.78,1669796904.921875
-99.36,1669796904.9375
-62.58,1669796904.953125
-28.96,1669796904.96875
-1.35,1669796904.984375
19.33,1669796905.0
33.7,1669796905.015625
43.11,1669796905.03125
48.87,1669796905.046875
51.97,1669796905.0625
53.08,1669796905.078125
52.76,1669796905.09375
51.59,1669796905.109375
50.12,1669796905.125
48.77,1669796905.140625
47.74,1669796905.15625
47.05,1669796905.171875
46.6,1669796905.1875
46.36,1669796905.203125
46.45,1669796905.21875
47.13,1669796905.234375
48.71,1669796905.25
51.37,1669796905.265625
54.99,1669796905.28125
59.11,1669796905.296875
63.04,1669796905.3125
65.98,1669796905.328125
67.34,1669796905.34375
66.81,1669796905.359375
64.5,1669796905.375
60.76,1669796905.390625
56.11,1669796905.40625
51.06,1669796905.421875
46.02,1669796905.4375
41.23,1669796905.453125
36.78,1669796905.46875
32.64,1669796905.484375
28.7,1669796905.5
24.81,1669796905.515625
20.75,1669796905.53125
16.33,1669796905.546875
11.46,1669796905.5625
6.24,1669796905.578125
0.95,1669796905.59375
-4.01,1669796905.609375
-8.31,1669796905.625
-11.91,1669796905.640625
-15.1,1669796905.65625
-18.44,1669796905.671875
-22.51,1669796905.6875
-27.66,1669796905.703125
-33.84,1669796905.71875
-40.62,1669796905.734375
-47.45,1669796905.75
-53.83,1669796905.765625
-59.5,1669796905.78125
-64.54,1669796905.796875
-69.37,1669796905.8125
-74.7,1669796905.828125
-81.51,1669796905.84375
-90.64,1669796905.859375
-102.36,1669796905.875
-115.81,1669796905.890625
-128.66,1669796905.90625
-137.51,1669796905.921875
-138.76,1669796905.9375
-129.94,1669796905.953125
-110.72,1669796905.96875
-83.16,1669796905.984375
-51.08,1669796906.0
-18.78,1669796906.015625
10.25,1669796906.03125
34.06,1669796906.046875
52.24,1669796906.0625
65.31,1669796906.078125
74.09,1669796906.09375
79.17,1669796906.109375
80.97,1669796906.125
79.89,1669796906.140625
76.53,1669796906.15625
71.77,1669796906.171875
66.65,1669796906.1875
62.12,1669796906.203125
58.83,1669796906.21875
57.07,1669796906.234375
56.79,1669796906.25
57.69,1669796906.265625
59.45,1669796906.28125
61.79,1669796906.296875
64.54,1669796906.3125
67.62,1669796906.328125
70.86,1669796906.34375
73.91,1669796906.359375
76.19,1669796906.375
77.03,1669796906.390625
75.84,1669796906.40625
72.37,1669796906.421875
66.9,1669796906.4375
60.13,1669796906.453125
52.97,1669796906.46875
46.19,1669796906.484375
40.22,1669796906.5
35.0,1669796906.515625
30.17,1669796906.53125
25.24,1669796906.546875
19.85,1669796906.5625
13.9,1669796906.578125
7.52,1669796906.59375
1.02,1669796906.609375
-5.24,1669796906.625
-10.93,1669796906.640625
-15.9,1669796906.65625
-20.22,1669796906.671875
-24.21,1669796906.6875
-28.42,1669796906.703125
-33.43,1669796906.71875
-39.61,1669796906.734375
-46.97,1669796906.75
-55.05,1669796906.765625
-63.14,1669796906.78125
-70.52,1669796906.796875
-76.8,1669796906.8125
-82.09,1669796906.828125
-87.03,1669796906.84375
-92.66,1669796906.859375
-100.21,1669796906.875
-110.63,1669796906.890625
-124.13,1669796906.90625
-139.65,1669796906.921875
-154.7,1669796906.9375
-165.71,1669796906.953125
-168.85,1669796906.96875
-161.33,1669796906.984375
-142.42,1669796907.0
-113.86,1669796907.015625
-79.43,1669796907.03125
-43.67,1669796907.046875
-10.67,1669796907.0625
17.04,1669796907.078125
38.64,1669796907.09375
54.63,1669796907.109375
66.09,1669796907.125
74.14,1669796907.140625
79.61,1669796907.15625
83.13,1669796907.171875
85.26,1669796907.1875
86.5,1669796907.203125
87.28,1669796907.21875
87.74,1669796907.234375
87.8,1669796907.25
87.23,1669796907.265625
85.95,1669796907.28125
84.15,1669796907.296875
82.41,1669796907.3125
81.43,1669796907.328125
81.7,1669796907.34375
83.28,1669796907.359375
85.7,1669796907.375
88.11,1669796907.390625
89.6,1669796907.40625
89.54,1669796907.421875
87.69,1669796907.4375
84.21,1669796907.453125
79.48,1669796907.46875
73.97,1669796907.484375
68.06,1669796907.5
62.07,1669796907.515625
56.18,1669796907.53125
50.46,1669796907.546875
44.91,1669796907.5625
39.5,1669796907.578125
34.23,1669796907.59375
29.09,1669796907.609375
24.07,1669796907.625
19.11,1669796907.640625
14.07,1669796907.65625
8.83,1669796907.671875
3.32,1669796907.6875
-2.3,1669796907.703125
-7.75,1669796907.71875
-12.7,1669796907.734375
-16.98,1669796907.75
-20.71,1669796907.765625
-24.36,1669796907.78125
-28.54,1669796907.796875
-33.79,1669796907.8125
-40.36,1669796907.828125
-48.05,1669796907.84375
-56.32,1669796907.859375
-64.46,1669796907.875
-71.88,1669796907.890625
-78.28,1669796907.90625
-83.79,1669796907.921875
-89.01,1669796907.9375
-94.91,1669796907.953125
-102.64,1669796907.96875
-113.16,1669796907.984375
-126.71,1669796908.0
-142.32,1669796908.015625
-157.45,1669796908.03125
-168.33,1669796908.046875
-170.84,1669796908.0625
-161.92,1669796908.078125
-140.83,1669796908.09375
-109.62,1669796908.109375
-72.63,1669796908.125
-35.03,1669796908.140625
-1.24,1669796908.15625
26.2,1669796908.171875
46.81,1669796908.1875
61.56,1669796908.203125
71.93,1669796908.21875
79.13,1669796908.234375
83.9,1669796908.25
86.63,1669796908.265625
87.67,1669796908.28125
87.43,1669796908.296875
86.34,1669796908.3125
84.71,1669796908.328125
82.69,1669796908.34375
80.29,1669796908.359375
77.57,1669796908.375
74.8,1669796908.390625
72.49,1669796908.40625
71.28,1669796908.421875
71.63,1669796908.4375
73.65,1669796908.453125
76.92,1669796908.46875
80.51,1669796908.484375
83.32,1669796908.5
84.4,1669796908.515625
83.29,1669796908.53125
80.15,1669796908.546875
75.55,1669796908.5625
70.23,1669796908.578125
64.79,1669796908.59375
59.46,1669796908.609375
54.19,1669796908.625
48.79,1669796908.640625
43.1,1669796908.65625
37.18,1669796908.671875
31.23,1669796908.6875
25.54,1669796908.703125
20.3,1669796908.71875
15.51,1669796908.734375
10.99,1669796908.75
6.46,1669796908.765625
1.71,1669796908.78125
-3.21,1669796908.796875
-8.06,1669796908.8125
-12.51,1669796908.828125
-16.36,1669796908.84375
-19.76,1669796908.859375
-23.15,1669796908.875
-27.13,1669796908.890625
-32.17,1669796908.90625
-38.33,1669796908.921875
-45.26,1669796908.9375
-52.34,1669796908.953125
-58.91,1669796908.96875
-64.55,1669796908.984375
-69.27,1669796909.0
-73.5,1669796909.015625
-77.98,1669796909.03125
-83.66,1669796909.046875
-91.46,1669796909.0625
-101.93,1669796909.078125
-114.86,1669796909.09375
-128.92,1669796909.109375
-141.53,1669796909.125
-149.26,1669796909.140625
-148.71,1669796909.15625
-137.66,1669796909.171875
-116.0,1669796909.1875
-85.91,1669796909.203125
-51.35,1669796909.21875
-16.82,1669796909.234375
13.87,1669796909.25
38.47,1669796909.265625
56.39,1669796909.28125
68.27,1669796909.296875
75.31,1669796909.3125
78.66,1669796909.328125
79.17,1669796909.34375
77.46,1669796909.359375
74.01,1669796909.375
69.38,1669796909.390625
64.17,1669796909.40625
59.07,1669796909.421875
54.72,1669796909.4375
51.61,1669796909.453125
50.0,1669796909.46875
49.92,1669796909.484375
51.19,1669796909.5
53.48,1669796909.515625
56.46,1669796909.53125
59.81,1669796909.546875
63.16,1669796909.5625
66.08,1669796909.578125
68.06,1669796909.59375
68.65,1669796909.609375
67.51,1669796909.625
64.61,1669796909.640625
60.24,1669796909.65625
54.88,1669796909.671875
49.04,1669796909.6875
43.12,1669796909.703125
37.31,1669796909.71875
31.69,1669796909.734375
26.23,1669796909.75
20.94,1669796909.765625
15.76,1669796909.78125
10.65,1669796909.796875
5.48,1669796909.8125
0.18,1669796909.828125
-5.22,1669796909.84375
-10.53,1669796909.859375
-15.48,1669796909.875
-19.83,1669796909.890625
-23.6,1669796909.90625
-27.09,1669796909.921875
-30.86,1669796909.9375
-35.5,1669796909.953125
-41.42,1669796909.96875
-48.57,1669796909.984375
-56.54,1669796910.0
-64.6,1669796910.015625
-72.09,1669796910.03125
-78.58,1669796910.046875
-84.13,1669796910.0625
-89.18,1669796910.078125
-94.58,1669796910.09375
-101.35,1669796910.109375
-110.47,1669796910.125
-122.4,1669796910.140625
-136.59,1669796910.15625
-151.13,1669796910.171875
-162.82,1669796910.1875
-167.78,1669796910.203125
-162.7,1669796910.21875
-146.01,1669796910.234375
-118.67,1669796910.25
-84.02,1669796910.265625
-46.76,1669796910.28125
-11.49,1669796910.296875
18.49,1669796910.3125
41.76,1669796910.328125
58.49,1669796910.34375
69.78,1669796910.359375
76.95,1669796910.375
81.09,1669796910.390625
82.97,1669796910.40625
83.24,1669796910.421875
82.49,1669796910.4375
81.21,1669796910.453125
79.72,1669796910.46875
78.16,1669796910.484375
76.51,1669796910.5
74.72,1669796910.515625
72.92,1669796910.53125
71.39,1669796910.546875
70.56,1669796910.5625
70.8,1669796910.578125
72.22,1669796910.59375
74.59,1669796910.609375
77.29,1669796910.625
79.54,1669796910.640625
80.6,1669796910.65625
80.01,1669796910.671875
77.68,1669796910.6875
73.94,1669796910.703125
69.26,1669796910.71875
64.14,1669796910.734375
58.9,1669796910.75
53.61,1669796910.765625
48.15,1669796910.78125
42.37,1669796910.796875
36.22,1669796910.8125
29.88,1669796910.828125
23.67,1669796910.84375
17.95,1669796910.859375
12.91,1669796910.875
8.44,1669796910.890625
4.19,1669796910.90625
-0.26,1669796910.921875
-5.18,1669796910.9375
-10.44,1669796910.953125
-15.64,1669796910.96875
-20.31,1669796910.984375
-24.24,1669796911.0
-27.72,1669796911.015625
-31.41,1669796911.03125
-36.03,1669796911.046875
-42.01,1669796911.0625
-49.23,1669796911.078125
-57.11,1669796911.09375
-64.89,1669796911.109375
-71.94,1669796911.125
-78.04,1669796911.140625
-83.37,1669796911.15625
-88.46,1669796911.171875
-94.06,1669796911.1875
-100.99,1669796911.203125
-110.05,1669796911.21875
-121.57,1669796911.234375
-135.03,1669796911.25
-148.6,1669796911.265625
-159.21,1669796911.28125
-163.16,1669796911.296875
-157.27,1669796911.3125
-140.09,1669796911.328125
-112.62,1669796911.34375
-78.2,1669796911.359375
-41.46,1669796911.375
-6.95,1669796911.390625
22.12,1669796911.40625
44.42,1669796911.421875
60.25,1669796911.4375
70.85,1669796911.453125
77.64,1669796911.46875
81.73,1669796911.484375
83.86,1669796911.5
84.43,1669796911.515625
83.8,1669796911.53125
82.25,1669796911.546875
80.05,1669796911.5625
77.42,1669796911.578125
74.56,1669796911.59375
71.63,1669796911.609375
68.93,1669796911.625
66.82,1669796911.640625
65.65,1669796911.65625
65.73,1669796911.671875
67.08,1669796911.6875
69.46,1669796911.703125
72.28,1669796911.71875
74.78,1669796911.734375
76.12,1669796911.75
75.73,1669796911.765625
73.45,1669796911.78125
69.54,1669796911.796875
64.67,1669796911.8125
59.53,1669796911.828125
54.6,1669796911.84375
49.91,1669796911.859375
45.15,1669796911.875
39.88,1669796911.890625
33.89,1669796911.90625
27.37,1669796911.921875
20.82,1669796911.9375
14.8,1669796911.953125
9.6,1669796911.96875
5.1,1669796911.984375
0.87,1669796912.0
-3.52,1669796912.015625
-8.26,1669796912.03125
-13.16,1669796912.046875
-17.75,1669796912.0625
-21.7,1669796912.078125
-24.93,1669796912.09375
-27.84,1669796912.109375
-31.07,1669796912.125
-35.21,1669796912.140625
-40.51,1669796912.15625
-46.73,1669796912.171875
-53.25,1669796912.1875
-59.37,1669796912.203125
-64.6,1669796912.21875
-68.89,1669796912.234375
-72.63,1669796912.25
-76.56,1669796912.265625
-81.55,1669796912.28125
-88.43,1669796912.296875
-97.73,1669796912.3125
-109.42,1669796912.328125
-122.54,1669796912.34375
-134.99,1669796912.359375
-143.67,1669796912.375
-145.16,1669796912.390625
-136.84,1669796912.40625
-117.85,1669796912.421875
-89.74,1669796912.4375
-56.04,1669796912.453125
-21.27,1669796912.46875
10.44,1669796912.484375
36.34,1669796912.5
55.42,1669796912.515625
68.01,1669796912.53125
75.18,1669796912.546875
78.12,1669796912.5625
77.8,1669796912.578125
75.03,1669796912.59375
70.53,1669796912.609375
65.02,1669796912.625
59.23,1669796912.640625
53.87,1669796912.65625
49.53,1669796912.671875
46.62,1669796912.6875
45.37,1669796912.703125
45.73,1669796912.71875
47.47,1669796912.734375
50.19,1669796912.75
53.48,1669796912.765625
56.92,1669796912.78125
60.13,1669796912.796875
62.78,1669796912.8125
64.56,1669796912.828125
65.15,1669796912.84375
64.33,1669796912.859375
61.98,1669796912.875
58.14,1669796912.890625
53.04,1669796912.90625
47.04,1669796912.921875
40.63,1669796912.9375
34.27,1669796912.953125
28.29,1669796912.96875
22.85,1669796912.984375
17.92,1669796913.0
13.29,1669796913.015625
8.73,1669796913.03125
4.07,1669796913.046875
-0.79,1669796913.0625
-5.81,1669796913.078125
-10.89,1669796913.09375
-15.89,1669796913.109375
-20.59,1669796913.125
-24.91,1669796913.140625
-28.86,1669796913.15625
-32.66,1669796913.171875
-36.67,1669796913.1875
-41.27,1669796913.203125
-46.72,1669796913.21875
-53.03,1669796913.234375
-59.9,1669796913.25
-66.84,1669796913.265625
-73.38,1669796913.28125
-79.23,1669796913.296875
-84.43,1669796913.3125
-89.44,1669796913.328125
-95.07,1669796913.34375
-102.4,1669796913.359375
-112.36,1669796913.375
-125.18,1669796913.390625
-139.91,1669796913.40625
-154.05,1669796913.421875
-163.94,1669796913.4375
-165.67,1669796913.453125
-156.43,1669796913.46875
-135.58,1669796913.484375
-105.04,1669796913.5
-68.79,1669796913.515625
-31.61,1669796913.53125
2.31,1669796913.546875
30.33,1669796913.5625
51.55,1669796913.578125
66.45,1669796913.59375
76.17,1669796913.609375
81.92,1669796913.625
84.69,1669796913.640625
85.35,1669796913.65625
84.65,1669796913.671875
83.25,1669796913.6875
81.67,1669796913.703125
80.14,1669796913.71875
78.6,1669796913.734375
76.81,1669796913.75
74.6,1669796913.765625
72.09,1669796913.78125
69.72,1669796913.796875
68.15,1669796913.8125
67.97,1669796913.828125
69.45,1669796913.84375
72.31,1669796913.859375
75.75,1669796913.875
78.74,1669796913.890625
80.27,1669796913.90625
79.74,1669796913.921875
77.07,1669796913.9375
72.75,1669796913.953125
67.58,1669796913.96875
62.28,1669796913.984375
57.22,1669796914.0
52.29,1669796914.015625
47.14,1669796914.03125
41.38,1669796914.046875
35.0,1669796914.0625
28.35,1669796914.078125
22.02,1669796914.09375
16.52,1669796914.109375
11.95,1669796914.125
8.04,1669796914.140625
4.27,1669796914.15625
0.19,1669796914.171875
-4.41,1669796914.1875
-9.38,1669796914.203125
-14.37,1669796914.21875
-19.07,1669796914.234375
-23.31,1669796914.25
-27.18,1669796914.265625
-31.01,1669796914.28125
-35.21,1669796914.296875
-40.19,1669796914.3125
-46.18,1669796914.328125
-53.11,1669796914.34375
-60.59,1669796914.359375
-67.99,1669796914.375
-74.71,1669796914.390625
-80.44,1669796914.40625
-85.31,1669796914.421875
-90.01,1669796914.4375
-95.62,1669796914.453125
-103.32,1669796914.46875
-114.02,1669796914.484375
-127.83,1669796914.5
-143.58,1669796914.515625
-158.68,1669796914.53125
-169.35,1669796914.546875
-171.58,1669796914.5625
-162.35,1669796914.578125
-140.83,1669796914.59375
-108.91,1669796914.609375
-70.77,1669796914.625
-31.62,1669796914.640625
3.86,1669796914.65625
32.68,1669796914.671875
53.93,1669796914.6875
68.32,1669796914.703125
77.34,1669796914.71875
82.5,1669796914.734375
84.91,1669796914.75
85.32,1669796914.765625
84.31,1669796914.78125
82.43,1669796914.796875
80.23,1669796914.8125
78.04,1669796914.828125
76.0,1669796914.84375
74.02,1669796914.859375
71.98,1669796914.875
69.88,1669796914.890625
67.98,1669796914.90625
66.76,1669796914.921875
66.7,1669796914.9375
68.05,1669796914.953125
70.56,1669796914.96875
73.55,1669796914.984375
76.01,1669796915.0
77.05,1669796915.015625
76.11,1669796915.03125
73.2,1669796915.046875
68.79,1669796915.0625
63.56,1669796915.078125
58.17,1669796915.09375
52.99,1669796915.109375
48.14,1669796915.125
43.46,1669796915.140625
38.73,1669796915.15625
33.75,1669796915.171875
28.47,1669796915.1875
23.06,1669796915.203125
17.83,1669796915.21875
13.11,1669796915.234375
9.04,1669796915.25
5.51,1669796915.265625
2.11,1669796915.28125
-1.65,1669796915.296875
-6.07,1669796915.3125
-11.09,1669796915.328125
-16.3,1669796915.34375
-21.14,1669796915.359375
-25.28,1669796915.375
-28.81,1669796915.390625
-32.32,1669796915.40625
-36.54,1669796915.421875
-42.0,1669796915.4375
-48.67,1669796915.453125
-55.99,1669796915.46875
-63.09,1669796915.484375
-69.24,1669796915.5
-74.26,1669796915.515625
-78.49,1669796915.53125
-82.76,1669796915.546875
-88.05,1669796915.5625
-95.27,1669796915.578125
-104.97,1669796915.59375
-117.1,1669796915.609375
-130.63,1669796915.625
-143.36,1669796915.640625
-152.04,1669796915.65625
-153.1,1669796915.671875
-143.75,1669796915.6875
-123.09,1669796915.703125
-92.76,1669796915.71875
-56.54,1669796915.734375
-19.29,1669796915.75
14.53,1669796915.765625
41.98,1669796915.78125
61.98,1669796915.796875
75.01,1669796915.8125
82.34,1669796915.828125
85.3,1669796915.84375
84.96,1669796915.859375
82.1,1669796915.875
77.36,1669796915.890625
71.42,1669796915.90625
65.09,1669796915.921875
59.19,1669796915.9375
54.4,1669796915.953125
51.15,1669796915.96875
49.55,1669796915.984375
49.44,1669796916.0
50.53,1669796916.015625
52.53,1669796916.03125
55.23,1669796916.046875
58.43,1669796916.0625
61.86,1669796916.078125
65.06,1669796916.09375
67.39,1669796916.109375
68.19,1669796916.125
67.03,1669796916.140625
63.87,1669796916.15625
59.13,1669796916.171875
53.5,1669796916.1875
47.76,1669796916.203125
42.43,1669796916.21875
37.66,1669796916.234375
33.23,1669796916.25
28.74,1669796916.265625
23.81,1669796916.28125
18.35,1669796916.296875
12.58,1669796916.3125
6.86,1669796916.328125
1.46,1669796916.34375
-3.59,1669796916.359375
-8.47,1669796916.375
-13.38,1669796916.390625
-18.36,1669796916.40625
-23.17,1669796916.421875
-27.53,1669796916.4375
-31.31,1669796916.453125
-34.83,1669796916.46875
-38.74,1669796916.484375
-43.78,1669796916.5
-50.34,1669796916.515625
-58.22,1669796916.53125
-66.7,1669796916.546875
-74.8,1669796916.5625
-81.79,1669796916.578125
-87.46,1669796916.59375
-92.23,1669796916.609375
-96.99,1669796916.625
-102.89,1669796916.640625
-111.04,1669796916.65625
-122.19,1669796916.671875
-136.28,1669796916.6875
-152.0,1669796916.703125
-166.57,1669796916.71875
-176.1,1669796916.734375
-176.51,1669796916.75
-164.93,1669796916.765625
-140.88,1669796916.78125
-106.69,1669796916.796875
-66.89,1669796916.8125
-26.84,1669796916.828125
8.87,1669796916.84375
37.56,1669796916.859375
58.59,1669796916.875
72.88,1669796916.890625
81.96,1669796916.90625
87.29,1669796916.921875
89.95,1669796916.9375
90.69,1669796916.953125
90.09,1669796916.96875
88.72,1669796916.984375
86.95,1669796917.0
84.98,1669796917.015625
82.81,1669796917.03125
80.39,1669796917.046875
77.87,1669796917.0625
75.65,1669796917.078125
74.31,1669796917.09375
74.36,1669796917.109375
76.05,1669796917.125
79.14,1669796917.140625
83.02,1669796917.15625
86.76,1669796917.171875
89.42,1669796917.1875
90.23,1669796917.203125
88.8,1669796917.21875
85.18,1669796917.234375
79.81,1669796917.25
73.45,1669796917.265625
66.91,1669796917.28125
60.86,1669796917.296875
55.6,1669796917.3125
50.96,1669796917.328125
46.46,1669796917.34375
41.51,1669796917.359375
35.76,1669796917.375
29.25,1669796917.390625
22.46,1669796917.40625
16.03,1669796917.421875
10.44,1669796917.4375
5.82,1669796917.453125
1.81,1669796917.46875
-2.16,1669796917.484375
-6.61,1669796917.5
-11.72,1669796917.515625
-17.25,1669796917.53125
-22.65,1669796917.546875
-27.46,1669796917.5625
-31.56,1669796917.578125
-35.33,1669796917.59375
-39.5,1669796917.609375
-44.78,1669796917.625
-51.53,1669796917.640625
-59.55,1669796917.65625
-68.16,1669796917.671875
-76.5,1669796917.6875
-83.89,1669796917.703125
-90.1,1669796917.71875
-95.45,1669796917.734375
-100.81,1669796917.75
-107.41,1669796917.765625
-116.47,1669796917.78125
-128.8,1669796917.796875
-144.06,1669796917.8125
-160.44,1669796917.828125
-174.54,1669796917.84375
-182.06,1669796917.859375
-179.03,1669796917.875
-163.23,1669796917.890625
-135.13,1669796917.90625
-97.93,1669796917.921875
-56.58,1669796917.9375
-16.34,1669796917.953125
18.75,1669796917.96875
46.54,1669796917.984375
66.75,1669796918.0
80.36,1669796918.015625
88.74,1669796918.03125
93.17,1669796918.046875
94.64,1669796918.0625
93.96,1669796918.078125
91.88,1669796918.09375
89.13,1669796918.109375
86.3,1669796918.125
83.7,1669796918.140625
81.31,1669796918.15625
78.92,1669796918.171875
76.38,1669796918.1875
73.84,1669796918.203125
71.78,1669796918.21875
70.88,1669796918.234375
71.66,1669796918.25
74.16,1669796918.265625
77.84,1669796918.28125
81.66,1669796918.296875
84.44,1669796918.3125
85.28,1669796918.328125
83.84,1669796918.34375
80.36,1669796918.359375
75.54,1669796918.375
70.22,1669796918.390625
65.06,1669796918.40625
60.34,1669796918.421875
55.95,1669796918.4375
51.57,1669796918.453125
46.8,1669796918.46875
41.39,1669796918.484375
35.32,1669796918.5
28.85,1669796918.515625
22.38,1669796918.53125
16.32,1669796918.546875
10.99,1669796918.5625
6.43,1669796918.578125
2.4,1669796918.59375
-1.53,1669796918.609375
-5.83,1669796918.625
-10.72,1669796918.640625
-16.02,1669796918.65625
-21.23,1669796918.671875
-25.8,1669796918.6875
-29.44,1669796918.703125
-32.42,1669796918.71875
-35.46,1669796918.734375
-39.43,1669796918.75
-44.87,1669796918.765625
-51.75,1669796918.78125
-59.4,1669796918.796875
-66.92,1669796918.8125
-73.54,1669796918.828125
-78.98,1669796918.84375
-83.5,1669796918.859375
-87.92,1669796918.875
-93.32,1669796918.890625
-100.85,1669796918.90625
-111.32,1669796918.921875
-124.69,1669796918.9375
-139.58,1669796918.953125
-153.09,1669796918.96875
-161.21,1669796918.984375
-159.89,1669796919.0
-146.53,1669796919.015625
-121.02,1669796919.03125
-86.15,1669796919.046875
-46.72,1669796919.0625
-8.07,1669796919.078125
25.48,1669796919.09375
51.6,1669796919.109375
69.96,1669796919.125
81.58,1669796919.140625
87.91,1669796919.15625
90.24,1669796919.171875
89.47,1669796919.1875
86.31,1669796919.203125
81.42,1669796919.21875
75.58,1669796919.234375
69.55,1669796919.25
64.03,1669796919.265625
59.52,1669796919.28125
56.36,1669796919.296875
54.77,1669796919.3125
54.78,1669796919.328125
56.27,1669796919.34375
58.98,1669796919.359375
62.48,1669796919.375
66.23,1669796919.390625
69.65,1669796919.40625
72.17,1669796919.421875
73.26,1669796919.4375
72.6,1669796919.453125
70.13,1669796919.46875
66.1,1669796919.484375
61.02,1669796919.5
55.53,1669796919.515625
50.12,1669796919.53125
45.01,1669796919.546875
40.05,1669796919.5625
34.95,1669796919.578125
29.47,1669796919.59375
23.63,1669796919.609375
17.75,1669796919.625
12.24,1669796919.640625
7.37,1669796919.65625
3.15,1669796919.671875
-0.78,1669796919.6875
-4.82,1669796919.703125
-9.28,1669796919.71875
-14.18,1669796919.734375
-19.27,1669796919.75
-24.16,1669796919.765625
-28.6,1669796919.78125
-32.62,1669796919.796875
-36.54,1669796919.8125
-40.91,1669796919.828125
-46.22,1669796919.84375
-52.69,1669796919.859375
-60.19,1669796919.875
-68.22,1669796919.890625
-76.1,1669796919.90625
-83.2,1669796919.921875
-89.29,1669796919.9375
-94.63,1669796919.953125
-100.03,1669796919.96875
-106.65,1669796919.984375
-115.71,1669796920.0
-128.0,1669796920.015625
-143.31,1669796920.03125
-159.95,1669796920.046875
-174.69,1669796920.0625
-183.29,1669796920.078125
-181.64,1669796920.09375
-167.22,1669796920.109375
-140.15,1669796920.125
-103.36,1669796920.140625
-61.79,1669796920.15625
-20.9,1669796920.171875
14.93,1669796920.1875
43.28,1669796920.203125
63.79,1669796920.21875
77.5,1669796920.234375
86.0,1669796920.25
90.75,1669796920.265625
92.83,1669796920.28125
92.98,1669796920.296875
91.83,1669796920.3125
89.92,1669796920.328125
87.7,1669796920.34375
85.5,1669796920.359375
83.45,1669796920.375
81.49,1669796920.390625
79.55,1669796920.40625
77.71,1669796920.421875
76.25,1669796920.4375
75.71,1669796920.453125
76.58,1669796920.46875
79.08,1669796920.484375
82.89,1669796920.5
87.08,1669796920.515625
90.4,1669796920.53125
91.67,1669796920.546875
90.25,1669796920.5625
86.24,1669796920.578125
80.4,1669796920.59375
73.82,1669796920.609375
67.48,1669796920.625
61.95,1669796920.640625
57.28,1669796920.65625
53.08,1669796920.671875
48.78,1669796920.6875
43.94,1669796920.703125
38.37,1669796920.71875
32.29,1669796920.734375
26.15,1669796920.75
20.56,1669796920.765625
15.94,1669796920.78125
12.35,1669796920.796875
9.45,1669796920.8125
6.55,1669796920.828125
2.91,1669796920.84375
-1.89,1669796920.859375
-7.8,1669796920.875
-14.28,1669796920.890625
-20.57,1669796920.90625
-26.1,1669796920.921875
-30.79,1669796920.9375
-35.13,1669796920.953125
-39.97,1669796920.96875
-46.09,1669796920.984375
-53.81,1669796921.0
-62.85,1669796921.015625
-72.45,1669796921.03125
-81.64,1669796921.046875
-89.68,1669796921.0625
-96.31,1669796921.078125
-101.79,1669796921.09375
-106.89,1669796921.109375
-112.73,1669796921.125
-120.6,1669796921.140625
-131.59,1669796921.15625
-145.94,1669796921.171875
-162.41,1669796921.1875
-177.92,1669796921.203125
-188.01,1669796921.21875
-188.02,1669796921.234375
-174.81,1669796921.25
-148.11,1669796921.265625
-110.83,1669796921.28125
-68.22,1669796921.296875
-26.09,1669796921.3125
10.85,1669796921.328125
40.09,1669796921.34375
61.29,1669796921.359375
75.49,1669796921.375
84.25,1669796921.390625
88.99,1669796921.40625
90.89,1669796921.421875
90.88,1669796921.4375
89.81,1669796921.453125
88.37,1669796921.46875
86.9,1669796921.484375
85.45,1669796921.5
83.85,1669796921.515625
81.9,1669796921.53125
79.65,1669796921.546875
77.43,1669796921.5625
75.79,1669796921.578125
75.3,1669796921.59375
76.31,1669796921.609375
78.82,1669796921.625
82.37,1669796921.640625
86.11,1669796921.65625
89.03,1669796921.671875
90.17,1669796921.6875
88.96,1669796921.703125
85.4,1669796921.71875
79.99,1669796921.734375
73.6,1669796921.75
67.16,1669796921.765625
61.33,1669796921.78125
56.35,1669796921.796875
52.02,1669796921.8125
47.85,1669796921.828125
43.32,1669796921.84375
38.14,1669796921.859375
32.34,1669796921.875
26.25,1669796921.890625
20.35,1669796921.90625
15.08,1669796921.921875
10.64,1669796921.9375
6.96,1669796921.953125
3.7,1669796921.96875
0.36,1669796921.984375
-3.5,1669796922.0
-8.1,1669796922.015625
-13.28,1669796922.03125
-18.59,1669796922.046875
-23.48,1669796922.0625
-27.59,1669796922.078125
-31.01,1669796922.09375
-34.26,1669796922.109375
-38.12,1669796922.125
-43.29,1669796922.140625
-49.97,1669796922.15625
-57.79,1669796922.171875
-65.93,1669796922.1875
-73.47,1669796922.203125
-79.77,1669796922.21875
-84.72,1669796922.234375
-88.8,1669796922.25
-92.99,1669796922.265625
-98.55,1669796922.28125
-106.71,1669796922.296875
-118.15,1669796922.3125
-132.47,1669796922.328125
-147.69,1669796922.34375
-160.35,1669796922.359375
-166.15,1669796922.375
-161.29,1669796922.390625
-143.86,1669796922.40625
-114.74,1669796922.421875
-77.54,1669796922.4375
-37.46,1669796922.453125
0.27,1669796922.46875
31.9,1669796922.484375
55.76,1669796922.5
72.11,1669796922.515625
82.25,1669796922.53125
87.66,1669796922.546875
89.49,1669796922.5625
88.47,1669796922.578125
85.16,1669796922.59375
80.24,1669796922.609375
74.55,1669796922.625
68.95,1669796922.640625
64.18,1669796922.65625
60.69,1669796922.671875
58.7,1669796922.6875
58.26,1669796922.703125
59.31,1669796922.71875
61.81,1669796922.734375
65.63,1669796922.75
70.48,1669796922.765625
75.89,1669796922.78125
81.25,1669796922.796875
85.84,1669796922.8125
89.03,1669796922.828125
90.41,1669796922.84375
89.87,1669796922.859375
87.65,1669796922.875
84.32,1669796922.890625
80.62,1669796922.90625
77.26,1669796922.921875
74.72,1669796922.9375
73.09,1669796922.953125
72.1,1669796922.96875
71.26,1669796922.984375
70.13,1669796923.0
68.47,1669796923.015625
66.37,1669796923.03125
64.13,1669796923.046875
62.09,1669796923.0625
60.35,1669796923.078125
58.69,1669796923.09375
56.6,1669796923.109375
53.47,1669796923.125
48.88,1669796923.140625
42.72,1669796923.15625
35.29,1669796923.171875
27.12,1669796923.1875
18.76,1669796923.203125
10.45,1669796923.21875
2.01,1669796923.234375
-7.05,1669796923.25
-17.32,1669796923.265625
-29.12,1669796923.28125
-42.32,1669796923.296875
-56.4,1669796923.3125
-70.65,1669796923.328125
-84.48,1669796923.34375
-97.67,1669796923.359375
-110.31,1669796923.375
-122.7,1669796923.390625
-135.25,1669796923.40625
-148.37,1669796923.421875
-162.47,1669796923.4375
-177.79,1669796923.453125
-194.05,1669796923.46875
-209.94,1669796923.484375
-222.9,1669796923.5
-229.43,1669796923.515625
-226.1,1669796923.53125
-210.94,1669796923.546875
-184.42,1669796923.5625
-149.7,1669796923.578125
-111.76,1669796923.59375
-75.78,1669796923.609375
-45.58,1669796923.625
-22.76,1669796923.640625
-6.76,1669796923.65625
4.23,1669796923.671875
12.07,1669796923.6875
18.03,1669796923.703125
22.47,1669796923.71875
25.3,1669796923.734375
26.46,1669796923.75
26.2,1669796923.765625
25.15,1669796923.78125
24.05,1669796923.796875
23.47,1669796923.8125
23.67,1669796923.828125
24.65,1669796923.84375
26.29,1669796923.859375
28.56,1669796923.875
31.53,1669796923.890625
35.31,1669796923.90625
39.86,1669796923.921875
44.83,1669796923.9375
49.55,1669796923.953125
53.2,1669796923.96875
55.06,1669796923.984375
54.76,1669796924.0
52.47,1669796924.015625
48.84,1669796924.03125
44.74,1669796924.046875
41.07,1669796924.0625
38.32,1669796924.078125
