PPG GREEN,time
1997757.0,1780134876.665
2001664.0,1780134876.705
2005464.0,1780134876.745
2009500.0,1780134876.785
2016781.0,1780134876.865
2013312.0,1780134876.825
2020568.0,1780134876.905
2025351.0,1780134876.945
2032344.0,1780134876.985
2039703.0,1780134877.025
2046576.0,1780134877.065
2048239.0,1780134877.105
2049747.0,1780134877.145
2053126.0,1780134877.185
2056571.0,1780134877.225
2060112.0,1780134877.265
2070942.0,1780134877.345
2064844.0,1780134877.305
2076976.0,1780134877.385
2082421.0,1780134877.425
2088429.0,1780134877.465
2093352.0,1780134877.505
2097453.0,1780134877.545
2101805.0,1780134877.585
2106136.0,1780134877.625
2110773.0,1780134877.665
2115411.0,1780134877.705
2120122.0,1780134877.745
2124619.0,1780134877.785
2129860.0,1780134877.825
2139589.0,1780134877.865
2142425.0,1780134877.905
2142841.0,1780134877.945
2135312.0,1780134878.024
2129776.0,1780134878.063
2126260.0,1780134878.104
2131374.0,1780134878.144
2143147.0,1780134878.184
2157350.0,1780134878.226
2176051.0,1780134878.264
2195586.0,1780134878.304
2211600.0,1780134878.345
2221340.0,1780134878.384
2226257.0,1780134878.425
2226385.0,1780134878.466
2224248.0,1780134878.505
2221142.0,1780134878.545
2218809.0,1780134878.586
2218323.0,1780134878.626
2219082.0,1780134878.665
2221894.0,1780134878.706
2223836.0,1780134878.745
2226077.0,1780134878.786
2229547.0,1780134878.828
2234944.0,1780134878.866
2235659.0,1780134878.906
2236465.0,1780134878.947
2238287.0,1780134878.986
2238250.0,1780134879.027
2237332.0,1780134879.067
2240243.0,1780134879.107
2242770.0,1780134879.147
2246625.0,1780134879.188
2251840.0,1780134879.228
2255268.0,1780134879.267
2258724.0,1780134879.308
2261801.0,1780134879.347
2263610.0,1780134879.387
2264543.0,1780134879.429
2265095.0,1780134879.467
2265268.0,1780134879.507
2265958.0,1780134879.548
2265263.0,1780134879.587
2260945.0,1780134879.629
2260934.0,1780134879.669
2261712.0,1780134879.708
2262697.0,1780134879.748
2264370.0,1780134879.789
2266951.0,1780134879.829
2270094.0,1780134879.868
2273157.0,1780134879.909
2276377.0,1780134879.948
2277902.0,1780134879.988
2277585.0,1780134880.03
2276232.0,1780134880.069
2275606.0,1780134880.108
2273937.0,1780134880.149
2276585.0,1780134880.188
2274518.0,1780134880.23
2272318.0,1780134880.27
2270756.0,1780134880.309
2269318.0,1780134880.349
2268204.0,1780134880.39
2266742.0,1780134880.43
2267868.0,1780134880.469
2271844.0,1780134880.51
2273852.0,1780134880.549
2274953.0,1780134880.589
2278022.0,1780134880.631
2284315.0,1780134880.669
2293676.0,1780134880.751
2298382.0,1780134880.79
2301970.0,1780134880.831
2289647.0,1780134880.71
2305930.0,1780134880.871
2309424.0,1780134880.91
2312777.0,1780134880.95
2319254.0,1780134881.031
2316301.0,1780134880.991
2322371.0,1780134881.071
2328971.0,1780134881.191
2326732.0,1780134881.15
2330962.0,1780134881.233
2334032.0,1780134881.271
2335718.0,1780134881.311
2336685.0,1780134881.352
2337214.0,1780134881.391
2338551.0,1780134881.432
2340581.0,1780134881.472
2324528.0,1780134881.111
2343991.0,1780134881.551
2345209.0,1780134881.592
2346069.0,1780134881.632
2342542.0,1780134881.511
2346480.0,1780134881.672
2346784.0,1780134881.713
2346372.0,1780134881.752
2346625.0,1780134881.792
2347260.0,1780134881.834
2349728.0,1780134881.912
2348880.0,1780134881.872
2349370.0,1780134881.992
2350232.0,1780134881.953
2347673.0,1780134882.033
2347034.0,1780134882.113
2348073.0,1780134882.194
2346737.0,1780134882.073
2349087.0,1780134882.234
2349896.0,1780134882.273
2350493.0,1780134882.314
2347606.0,1780134882.153
2350803.0,1780134882.353
2353278.0,1780134882.435
2353939.0,1780134882.473
2354931.0,1780134882.513
2356452.0,1780134882.555
2357313.0,1780134882.594
2351553.0,1780134882.393
2357951.0,1780134882.635
2357624.0,1780134882.714
2357790.0,1780134882.754
2358544.0,1780134882.795
2359359.0,1780134882.835
2361000.0,1780134882.874
2363985.0,1780134882.954
2362448.0,1780134882.915
2365280.0,1780134882.995
2357745.0,1780134882.675
2366048.0,1780134883.037
2367102.0,1780134883.075
2368463.0,1780134883.115
2370761.0,1780134883.195
2371761.0,1780134883.236
2372952.0,1780134883.276
2373319.0,1780134883.315
2371147.0,1780134883.355
2369321.0,1780134883.156
2364488.0,1780134883.396
2349412.0,1780134883.436
2333325.0,1780134883.475
2332726.0,1780134883.517
2331622.0,1780134883.556
2328563.0,1780134883.596
2326808.0,1780134883.637
2328705.0,1780134883.676
2332255.0,1780134883.716
2337912.0,1780134883.757
2344957.0,1780134883.796
2351090.0,1780134883.837
2355398.0,1780134883.877
2357896.0,1780134883.916
2360364.0,1780134883.956
2362871.0,1780134883.998
2365825.0,1780134884.037
2368293.0,1780134884.077
2371408.0,1780134884.118
2375146.0,1780134884.157
2378592.0,1780134884.197
2382100.0,1780134884.239
2385181.0,1780134884.277
2388789.0,1780134884.317
2392349.0,1780134884.358
2395994.0,1780134884.397
2400338.0,1780134884.438
2404583.0,1780134884.479
2408354.0,1780134884.518
2412020.0,1780134884.558
2415649.0,1780134884.599
2418953.0,1780134884.639
2421675.0,1780134884.678
2424127.0,1780134884.719
2426712.0,1780134884.758
2432280.0,1780134884.84
2429519.0,1780134884.798
2434823.0,1780134884.878
2438380.0,1780134884.919
2441696.0,1780134884.96
2444363.0,1780134884.999
2446948.0,1780134885.039
2449333.0,1780134885.08
2451095.0,1780134885.119
2453039.0,1780134885.159
2454900.0,1780134885.2
2459295.0,1780134885.279
2462569.0,1780134885.36
2456766.0,1780134885.24
2462536.0,1780134885.4
2461547.0,1780134885.32
2462947.0,1780134885.441
2463935.0,1780134885.48
2464697.0,1780134885.52
2466424.0,1780134885.561
2467785.0,1780134885.6
2469200.0,1780134885.641
2470981.0,1780134885.681
2472563.0,1780134885.72
2473713.0,1780134885.76
2475320.0,1780134885.802
2476990.0,1780134885.841
2478768.0,1780134885.881
2480395.0,1780134885.922
2482156.0,1780134885.961
2484238.0,1780134886.001
2484748.0,1780134886.043
2484992.0,1780134886.081
2484714.0,1780134886.121
2485205.0,1780134886.162
2486644.0,1780134886.201
2488718.0,1780134886.242
2490148.0,1780134886.282
2492116.0,1780134886.322
2493684.0,1780134886.362
2495277.0,1780134886.403
2496363.0,1780134886.442
2498292.0,1780134886.482
2500196.0,1780134886.523
2502264.0,1780134886.562
2504064.0,1780134886.602
2506071.0,1780134886.644
2507585.0,1780134886.682
2508234.0,1780134886.722
2507240.0,1780134886.764
2506911.0,1780134886.803
2507249.0,1780134886.844
2508174.0,1780134886.884
2509465.0,1780134886.923
2510852.0,1780134886.963
2512386.0,1780134887.004
2513259.0,1780134887.044
2513658.0,1780134887.084
2514481.0,1780134887.125
2514269.0,1780134887.164
2515369.0,1780134887.204
2515858.0,1780134887.246
2517366.0,1780134887.284
2518490.0,1780134887.324
2520265.0,1780134887.365
2520418.0,1780134887.404
2519731.0,1780134887.445
2518310.0,1780134887.486
2517958.0,1780134887.525
2517873.0,1780134887.565
2517900.0,1780134887.606
2518906.0,1780134887.685
2518412.0,1780134887.646
2518529.0,1780134887.765
2519800.0,1780134887.726
2516667.0,1780134887.805
2498669.0,1780134887.847
2479953.0,1780134887.886
2470723.0,1780134887.926
2465811.0,1780134887.967
2462842.0,1780134888.006
2461539.0,1780134888.047
2459038.0,1780134888.126
2460064.0,1780134888.087
2456126.0,1780134888.166
2455826.0,1780134888.247
2454315.0,1780134888.207
2458414.0,1780134888.287
2463220.0,1780134888.328
2467687.0,1780134888.367
2471944.0,1780134888.407
2475271.0,1780134888.449
2477784.0,1780134888.487
2478283.0,1780134888.527
2478798.0,1780134888.568
2479797.0,1780134888.607
2481142.0,1780134888.648
2482146.0,1780134888.689
2481256.0,1780134888.728
2479662.0,1780134888.768
2477528.0,1780134888.809
2476690.0,1780134888.849
2475860.0,1780134888.888
2476665.0,1780134888.929
2477579.0,1780134888.968
2478740.0,1780134889.009
2479721.0,1780134889.05
2480692.0,1780134889.089
2481111.0,1780134889.129
2482499.0,1780134889.17
2483312.0,1780134889.209
2485158.0,1780134889.25
2485294.0,1780134889.29
2484164.0,1780134889.329
2481666.0,1780134889.37
2479423.0,1780134889.411
2477417.0,1780134889.45
2475169.0,1780134889.49
2474194.0,1780134889.531
2473118.0,1780134889.57
2472519.0,1780134889.61
2471568.0,1780134889.652
2470643.0,1780134889.69
2470679.0,1780134889.73
2471099.0,1780134889.772
2471105.0,1780134889.811
2471436.0,1780134889.852
2470393.0,1780134889.892
2466918.0,1780134889.931
2460836.0,1780134890.014
2463599.0,1780134889.972
2459234.0,1780134890.06
2458277.0,1780134890.1
2458107.0,1780134890.141
2458387.0,1780134890.18
2458715.0,1780134890.22
2458806.0,1780134890.262
2459265.0,1780134890.3
2459558.0,1780134890.34
2459918.0,1780134890.381
2460869.0,1780134890.42
2461601.0,1780134890.461
2461915.0,1780134890.502
2460250.0,1780134890.541
2456497.0,1780134890.581
2453277.0,1780134890.622
2450833.0,1780134890.662
2448898.0,1780134890.701
2448004.0,1780134890.742
2448005.0,1780134890.782
2447620.0,1780134890.822
2447278.0,1780134890.864
2447712.0,1780134890.902
2447481.0,1780134890.942
2447238.0,1780134890.983
2447250.0,1780134891.022
2447485.0,1780134891.063
2447512.0,1780134891.103
2447496.0,1780134891.142
2445230.0,1780134891.183
2441403.0,1780134891.225
2438474.0,1780134891.265
2436206.0,1780134891.305
2434733.0,1780134891.346
2434770.0,1780134891.385
2434731.0,1780134891.425
2435445.0,1780134891.467
2435764.0,1780134891.506
2436461.0,1780134891.546
2436784.0,1780134891.588
2439754.0,1780134891.666
2438250.0,1780134891.627
2444210.0,1780134891.745
2441876.0,1780134891.706
2443079.0,1780134891.786
2438056.0,1780134891.827
2433386.0,1780134891.867
2429598.0,1780134891.906
2426962.0,1780134891.948
2424987.0,1780134891.987
2425057.0,1780134892.025
2425659.0,1780134892.067
2426173.0,1780134892.106
2426552.0,1780134892.146
2426100.0,1780134892.187
2425517.0,1780134892.226
2424947.0,1780134892.267
2425639.0,1780134892.308
2425930.0,1780134892.347
2425664.0,1780134892.385
2423326.0,1780134892.427
2420486.0,1780134892.466
2418110.0,1780134892.506
2416352.0,1780134892.547
2416379.0,1780134892.588
2417314.0,1780134892.624
2417914.0,1780134892.667
2421302.0,1780134892.787
2419776.0,1780134892.705
2420565.0,1780134892.745
2422388.0,1780134892.826
2423398.0,1780134892.867
2427097.0,1780134892.947
2425066.0,1780134892.908
2428319.0,1780134893.028
2428331.0,1780134892.987
2426277.0,1780134893.068
2423175.0,1780134893.147
2424526.0,1780134893.106
2422564.0,1780134893.186
2422763.0,1780134893.226
2423484.0,1780134893.268
2424454.0,1780134893.307
2425062.0,1780134893.347
2426579.0,1780134893.428
2425960.0,1780134893.389
2428014.0,1780134893.507
2426988.0,1780134893.466
2430258.0,1780134893.586
2428819.0,1780134893.546
2430369.0,1780134893.628
2426340.0,1780134893.707
2428731.0,1780134893.668
2424502.0,1780134893.749
2423570.0,1780134893.788
2423292.0,1780134893.828
2423607.0,1780134893.868
2424170.0,1780134893.906
2425141.0,1780134893.946
2425390.0,1780134893.988
2425779.0,1780134894.027
2426522.0,1780134894.068
2427246.0,1780134894.109
2427867.0,1780134894.148
2428673.0,1780134894.188
2428680.0,1780134894.229
2426451.0,1780134894.267
2424218.0,1780134894.306
2422299.0,1780134894.348
2421587.0,1780134894.387
2421278.0,1780134894.427
2421734.0,1780134894.469
2422856.0,1780134894.508
2424134.0,1780134894.548
2425320.0,1780134894.589
2426322.0,1780134894.626
2427408.0,1780134894.667
2428945.0,1780134894.708
2431002.0,1780134894.747
2432181.0,1780134894.787
2433839.0,1780134894.829
2432590.0,1780134894.868
2431404.0,1780134894.908
2430240.0,1780134894.949
2429687.0,1780134894.988
2429900.0,1780134895.027
2430700.0,1780134895.069
2432162.0,1780134895.107
2432998.0,1780134895.146
2434139.0,1780134895.187
2435720.0,1780134895.226
2436769.0,1780134895.267
2438629.0,1780134895.307
2439946.0,1780134895.347
2441482.0,1780134895.388
2442854.0,1780134895.429
2443583.0,1780134895.469
2442366.0,1780134895.508
2440054.0,1780134895.55
2438083.0,1780134895.587
2437198.0,1780134895.627
2437172.0,1780134895.669
2437637.0,1780134895.708
2438440.0,1780134895.748
2439323.0,1780134895.789
2440401.0,1780134895.828
2441844.0,1780134895.869
2442680.0,1780134895.91
2443710.0,1780134895.946
2445304.0,1780134895.982
2446405.0,1780134896.023
2447072.0,1780134896.063
2447312.0,1780134896.103
2445529.0,1780134896.144
2443139.0,1780134896.183
2441045.0,1780134896.223
2439770.0,1780134896.265
2439691.0,1780134896.303
2441040.0,1780134896.384
2440091.0,1780134896.343
2441464.0,1780134896.424
2442416.0,1780134896.464
2442959.0,1780134896.505
2445338.0,1780134896.544
2439613.0,1780134896.625
2450998.0,1780134896.584
2413605.0,1780134896.665
2390985.0,1780134896.704
2358366.0,1780134896.745
2304145.0,1780134896.785
2286167.0,1780134896.825
2273636.0,1780134896.867
2262758.0,1780134896.905
2264294.0,1780134896.945
2273616.0,1780134896.986
2274053.0,1780134897.025
2273348.0,1780134897.066
2271663.0,1780134897.106
2265056.0,1780134897.145
2258141.0,1780134897.185
2254144.0,1780134897.226
2248162.0,1780134897.266
2239346.0,1780134897.306
2241041.0,1780134897.347
2245624.0,1780134897.386
2258901.0,1780134897.468
2263413.0,1780134897.506
2270780.0,1780134897.546
2275338.0,1780134897.588
2253220.0,1780134897.426
2273902.0,1780134897.627
2267365.0,1780134897.668
2261381.0,1780134897.708
2258262.0,1780134897.748
2257205.0,1780134897.788
2262513.0,1780134897.83
2271271.0,1780134897.869
2276954.0,1780134897.909
2281780.0,1780134897.95
2273606.0,1780134897.989
2231148.0,1780134898.03
2206247.0,1780134898.072
2194329.0,1780134898.11
2184548.0,1780134898.148
2177221.0,1780134898.19
2173046.0,1780134898.27
2178763.0,1780134898.31
2198285.0,1780134898.349
2210821.0,1780134898.39
2174096.0,1780134898.229
2217231.0,1780134898.431
2222689.0,1780134898.471
2222156.0,1780134898.508
2220694.0,1780134898.55
2218062.0,1780134898.589
2214196.0,1780134898.629
2207889.0,1780134898.671
2203136.0,1780134898.71
2199958.0,1780134898.75
2202669.0,1780134898.791
2209557.0,1780134898.83
2215289.0,1780134898.869
2210468.0,1780134898.949
2217064.0,1780134898.91
2201252.0,1780134898.989
2192046.0,1780134899.031
2194296.0,1780134899.07
2200550.0,1780134899.11
2210843.0,1780134899.151
2223216.0,1780134899.19
2231846.0,1780134899.229
2238035.0,1780134899.309
2235176.0,1780134899.349
2238271.0,1780134899.271
2217165.0,1780134899.391
2199475.0,1780134899.43
2195323.0,1780134899.471
2188901.0,1780134899.511
2186757.0,1780134899.55
2188504.0,1780134899.591
2196570.0,1780134899.63
2207739.0,1780134899.67
2213783.0,1780134899.709
2214691.0,1780134899.751
2213623.0,1780134899.79
2213081.0,1780134899.83
2210670.0,1780134899.872
2204158.0,1780134899.911
2198878.0,1780134899.951
2193767.0,1780134899.99
2191247.0,1780134900.024
2190083.0,1780134900.065
2194085.0,1780134900.106
2201504.0,1780134900.145
2206558.0,1780134900.185
2209748.0,1780134900.226
2206853.0,1780134900.266
2178504.0,1780134900.305
2141821.0,1780134900.346
2117903.0,1780134900.385
2103303.0,1780134900.425
2095544.0,1780134900.505
2108945.0,1780134900.546
2095704.0,1780134900.467
2135348.0,1780134900.587
2159740.0,1780134900.626
2171910.0,1780134900.667
2195872.0,1780134900.746
2183434.0,1780134900.707
2204071.0,1780134900.786
2207045.0,1780134900.868
2203354.0,1780134900.908
2196473.0,1780134900.949
2183430.0,1780134900.988
2167286.0,1780134901.029
2149934.0,1780134901.071
2140646.0,1780134901.109
2209022.0,1780134900.827
2144793.0,1780134901.15
2158166.0,1780134901.191
2183850.0,1780134901.312
2172451.0,1780134901.23
2180838.0,1780134901.271
2169336.0,1780134901.391
2154425.0,1780134901.433
2180826.0,1780134901.351
2149479.0,1780134901.472
2143743.0,1780134901.51
2135095.0,1780134901.551
2122900.0,1780134901.59
2110874.0,1780134901.631
2102260.0,1780134901.673
2098722.0,1780134901.711
2100537.0,1780134901.751
2102495.0,1780134901.793
2105642.0,1780134901.871
2105450.0,1780134901.911
2103992.0,1780134901.832
2108936.0,1780134901.991
2107058.0,1780134901.95
2111479.0,1780134902.032
2113606.0,1780134902.071
2113960.0,1780134902.11
2114849.0,1780134902.149
2114515.0,1780134902.188
2111912.0,1780134902.227
2110022.0,1780134902.266
2108344.0,1780134902.305
2107326.0,1780134902.344
2106887.0,1780134902.383
2107846.0,1780134902.422
2108908.0,1780134902.461
2112090.0,1780134902.539
2113349.0,1780134902.578
2114739.0,1780134902.617
2117413.0,1780134902.656
2119055.0,1780134902.695
2119268.0,1780134902.734
2110409.0,1780134902.5
2119194.0,1780134902.773
2119194.0,1780134902.812
2119748.0,1780134902.851
2120470.0,1780134902.89
2121814.0,1780134902.929
2123468.0,1780134902.968
2125466.0,1780134903.007
2126905.0,1780134903.046
2128706.0,1780134903.085
2130876.0,1780134903.124
2132984.0,1780134903.163
2135275.0,1780134903.202
2137317.0,1780134903.241
2138430.0,1780134903.28
2138193.0,1780134903.319
2136836.0,1780134903.358
2135864.0,1780134903.397
2134651.0,1780134903.436
2134647.0,1780134903.475
2135427.0,1780134903.514
2136533.0,1780134903.553
2137174.0,1780134903.592
2138209.0,1780134903.631
2138972.0,1780134903.67
2139802.0,1780134903.709
2141076.0,1780134903.748
2142941.0,1780134903.787
2145828.0,1780134903.826
2149102.0,1780134903.865
2152658.0,1780134903.904
2159240.0,1780134903.944
2173114.0,1780134903.984
2189271.0,1780134904.024
2201678.0,1780134904.064
2211383.0,1780134904.104
2217383.0,1780134904.144
2217849.0,1780134904.184
2210836.0,1780134904.224
2207965.0,1780134904.264
2210285.0,1780134904.304
2212781.0,1780134904.344
2215186.0,1780134904.384
2217346.0,1780134904.424
2221074.0,1780134904.464
2223105.0,1780134904.504
2221778.0,1780134904.544
2221560.0,1780134904.584
2222484.0,1780134904.624
2218963.0,1780134904.664
2217985.0,1780134904.704
2217985.0,1780134904.744
2218590.0,1780134904.784
2221007.0,1780134904.824
2223512.0,1780134904.864
2228024.0,1780134904.904
2233061.0,1780134904.944
2237425.0,1780134904.984
2241075.0,1780134905.024
2243459.0,1780134905.064
2244634.0,1780134905.104
2244591.0,1780134905.144
2242455.0,1780134905.184
2240766.0,1780134905.224
2239443.0,1780134905.264
2238795.0,1780134905.304
2239213.0,1780134905.344
2239738.0,1780134905.384
2241260.0,1780134905.424
2242206.0,1780134905.464
2242213.0,1780134905.504
2242276.0,1780134905.544
2242750.0,1780134905.584
2243403.0,1780134905.624
2243834.0,1780134905.664
2244354.0,1780134905.704
2242267.0,1780134905.744
2237523.0,1780134905.784
2233048.0,1780134905.824
2229759.0,1780134905.864
2227520.0,1780134905.904
2225155.0,1780134905.944
2223462.0,1780134905.984
2221986.0,1780134906.024
2221356.0,1780134906.064
2220195.0,1780134906.104
2219561.0,1780134906.144
2219487.0,1780134906.184
2219467.0,1780134906.224
2219669.0,1780134906.264
2219814.0,1780134906.304
2219805.0,1780134906.344
2217819.0,1780134906.384
2214311.0,1780134906.424
2211069.0,1780134906.464
2207932.0,1780134906.504
2206206.0,1780134906.544
2205151.0,1780134906.584
2203945.0,1780134906.624
2203715.0,1780134906.664
2203717.0,1780134906.704
2203445.0,1780134906.744
2203928.0,1780134906.784
2204038.0,1780134906.864
2204565.0,1780134906.904
2203570.0,1780134906.824
2205050.0,1780134906.944
2205561.0,1780134906.984
2204561.0,1780134907.024
2201698.0,1780134907.064
2198760.0,1780134907.104
2194113.0,1780134907.224
2193879.0,1780134907.264
2193895.0,1780134907.304
2195282.0,1780134907.184
2194074.0,1780134907.344
2193284.0,1780134907.384
2196479.0,1780134907.144
2193338.0,1780134907.424
2192758.0,1780134907.464
2192541.0,1780134907.504
2192392.0,1780134907.544
2192767.0,1780134907.584
2190757.0,1780134907.624
2187441.0,1780134907.664
2183913.0,1780134907.704
2181115.0,1780134907.744
2178840.0,1780134907.784
2177581.0,1780134907.824
2176840.0,1780134907.864
2176543.0,1780134907.904
2176231.0,1780134907.944
2175953.0,1780134907.984
2176063.0,1780134908.024
2176129.0,1780134908.064
2176379.0,1780134908.104
2176712.0,1780134908.144
2177627.0,1780134908.184
2176673.0,1780134908.224
2173506.0,1780134908.264
2169879.0,1780134908.304
2164972.0,1780134908.384
2166965.0,1780134908.344
2163365.0,1780134908.424
2163321.0,1780134908.464
2162991.0,1780134908.504
2163202.0,1780134908.544
2163310.0,1780134908.584
2163316.0,1780134908.624
2163745.0,1780134908.664
2164439.0,1780134908.704
2164737.0,1780134908.744
2165733.0,1780134908.784
2166339.0,1780134908.824
2165561.0,1780134908.864
2162458.0,1780134908.904
2158802.0,1780134908.944
2156199.0,1780134908.984
2154415.0,1780134909.024
2153115.0,1780134909.064
2153245.0,1780134909.104
2152890.0,1780134909.144
2152753.0,1780134909.184
2153094.0,1780134909.224
2153493.0,1780134909.264
2153518.0,1780134909.304
2154086.0,1780134909.344
2154845.0,1780134909.384
2155790.0,1780134909.424
2156730.0,1780134909.464
2154419.0,1780134909.544
2156681.0,1780134909.504
2151506.0,1780134909.584
2149240.0,1780134909.624
2147626.0,1780134909.664
2146887.0,1780134909.704
2146486.0,1780134909.744
2146370.0,1780134909.784
2146547.0,1780134909.824
2146824.0,1780134909.864
2147188.0,1780134909.904
2148122.0,1780134909.944
2148597.0,1780134909.984
2149542.0,1780134910.024
2150937.0,1780134910.064
2151154.0,1780134910.104
2150458.0,1780134910.144
2147709.0,1780134910.184
2144286.0,1780134910.224
2141840.0,1780134910.264
2140252.0,1780134910.304
2139268.0,1780134910.344
2139093.0,1780134910.384
2139403.0,1780134910.424
2139812.0,1780134910.464
2140234.0,1780134910.504
2140942.0,1780134910.544
2141712.0,1780134910.584
2142643.0,1780134910.624
2143571.0,1780134910.664
2144833.0,1780134910.704
2146149.0,1780134910.744
2146263.0,1780134910.784
2143645.0,1780134910.824
2140817.0,1780134910.864
2138827.0,1780134910.904
2137466.0,1780134910.944
2136585.0,1780134910.984
2136321.0,1780134911.024
2136890.0,1780134911.064
2137652.0,1780134911.104
2137926.0,1780134911.144
2138591.0,1780134911.184
2140218.0,1780134911.264
2141368.0,1780134911.304
2143175.0,1780134911.344
2139497.0,1780134911.224
2144520.0,1780134911.384
2145705.0,1780134911.424
2144730.0,1780134911.464
2142849.0,1780134911.504
2140726.0,1780134911.544
2139205.0,1780134911.584
2138417.0,1780134911.624
2138705.0,1780134911.664
2139129.0,1780134911.704
2140510.0,1780134911.784
2141071.0,1780134911.824
2139931.0,1780134911.744
2142110.0,1780134911.864
2143359.0,1780134911.904
2144797.0,1780134911.944
2146321.0,1780134911.984
2148045.0,1780134912.024
2149028.0,1780134912.064
2148052.0,1780134912.104
2146131.0,1780134912.144
2144076.0,1780134912.184
2142222.0,1780134912.224
2141671.0,1780134912.264
2141856.0,1780134912.304
2142235.0,1780134912.344
2143444.0,1780134912.384
2144532.0,1780134912.424
2145373.0,1780134912.464
2146357.0,1780134912.504
2147577.0,1780134912.544
2148698.0,1780134912.584
2149800.0,1780134912.624
2151192.0,1780134912.664
2152969.0,1780134912.704
2154415.0,1780134912.744
2153697.0,1780134912.784
2152020.0,1780134912.824
2149782.0,1780134912.864
2148306.0,1780134912.904
2147393.0,1780134912.944
2147372.0,1780134912.984
2147601.0,1780134913.024
2148533.0,1780134913.064
2149161.0,1780134913.104
2150153.0,1780134913.144
2150833.0,1780134913.184
2151943.0,1780134913.224
2153203.0,1780134913.264
2154658.0,1780134913.304
2156128.0,1780134913.344
2157901.0,1780134913.384
2156198.0,1780134913.544
2154634.0,1780134913.584
2153927.0,1780134913.624
2159686.0,1780134913.464
2153820.0,1780134913.664
2159652.0,1780134913.424
2154525.0,1780134913.704
2155184.0,1780134913.744
2158072.0,1780134913.504
2155696.0,1780134913.784
2156272.0,1780134913.824
2157261.0,1780134913.864
2158283.0,1780134913.904
2159068.0,1780134913.944
2160545.0,1780134913.984
2159293.0,1780134914.227
2158265.0,1780134914.266
2158869.0,1780134914.306
2159219.0,1780134914.347
2160033.0,1780134914.386
2164822.0,1780134914.588
2166054.0,1780134914.627
2167400.0,1780134914.667
2161725.0,1780134914.467
2168200.0,1780134914.708
2167227.0,1780134914.747
2166295.0,1780134914.787
2163657.0,1780134914.546
2159408.0,1780134914.829
2161959.0,1780134914.026
2162571.0,1780134914.506
2162083.0,1780134914.146
2139500.0,1780134914.867
2160784.0,1780134914.427
2131187.0,1780134914.907
2160323.0,1780134914.186
2128561.0,1780134914.948
2163540.0,1780134914.106
2130295.0,1780134914.987
2163492.0,1780134914.065
2137768.0,1780134915.028
2149872.0,1780134915.068
2163800.0,1780134915.107
2169355.0,1780134915.148
2174173.0,1780134915.189
2182489.0,1780134915.228
2201350.0,1780134915.388
2194414.0,1780134915.43
2210550.0,1780134915.309
2201020.0,1780134915.268
2180157.0,1780134915.508
2187652.0,1780134915.468
2173126.0,1780134915.549
2166410.0,1780134915.588
2159945.0,1780134915.629
2209841.0,1780134915.348
2154600.0,1780134915.67
2150700.0,1780134915.709
2150425.0,1780134915.749
2151800.0,1780134915.79
2155553.0,1780134915.83
2162715.0,1780134915.869
2172766.0,1780134915.91
2182872.0,1780134915.949
2190542.0,1780134915.989
2181885.0,1780134916.031
2164632.0,1780134916.07
2139418.0,1780134916.11
2125970.0,1780134916.151
2115768.0,1780134916.19
2107361.0,1780134916.231
2101005.0,1780134916.271
2096381.0,1780134916.31
2090727.0,1780134916.35
2083799.0,1780134916.391
2078389.0,1780134916.431
2075215.0,1780134916.47
2073945.0,1780134916.512
2072242.0,1780134916.551
2069997.0,1780134916.591
2068237.0,1780134916.633
2065975.0,1780134916.671
2065744.0,1780134916.711
2065724.0,1780134916.752
2065223.0,1780134916.791
2061053.0,1780134916.873
2058585.0,1780134916.912
2063213.0,1780134916.832
2059680.0,1780134916.993
2057562.0,1780134916.952
2062475.0,1780134917.033
2065674.0,1780134917.072
2069942.0,1780134917.113
2073848.0,1780134917.152
2077234.0,1780134917.193
2080208.0,1780134917.234
2080410.0,1780134917.273
2077922.0,1780134917.313
2074693.0,1780134917.354
2072612.0,1780134917.393
2070976.0,1780134917.434
2070801.0,1780134917.474
2070796.0,1780134917.513
2071231.0,1780134917.553
2071292.0,1780134917.594
2070865.0,1780134917.634
2070368.0,1780134917.674
2070836.0,1780134917.715
2072704.0,1780134917.794
2071593.0,1780134917.754
2074623.0,1780134917.914
2074158.0,1780134917.836
2075318.0,1780134917.874
2071126.0,1780134917.955
2067252.0,1780134917.994
2061883.0,1780134918.076
2061460.0,1780134918.155
2061007.0,1780134918.115
2064006.0,1780134918.035
2062521.0,1780134918.196
2063341.0,1780134918.236
2064233.0,1780134918.275
2065766.0,1780134918.316
2067525.0,1780134918.355
2069501.0,1780134918.396
2070781.0,1780134918.437
2072429.0,1780134918.476
2074382.0,1780134918.516
2075784.0,1780134918.557
2074048.0,1780134918.596
2070936.0,1780134918.637
2070244.0,1780134918.677
2075678.0,1780134918.716
2071193.0,1780134918.757
2051203.0,1780134918.798
2030175.0,1780134918.837
2018001.0,1780134918.877
2026708.0,1780134918.918
2032434.0,1780134918.957
2032546.0,1780134918.997
2030898.0,1780134919.039
2036353.0,1780134919.077
2039243.0,1780134919.118
2046576.0,1780134919.159
2052895.0,1780134919.198
2052882.0,1780134919.239
2061402.0,1780134919.279
2078388.0,1780134919.318
2101577.0,1780134919.358
2128268.0,1780134919.439
2118630.0,1780134919.4
2145608.0,1780134919.52
2134549.0,1780134919.479
2156074.0,1780134919.559
2167200.0,1780134919.599
2173005.0,1780134919.641
2169758.0,1780134919.679
2157161.0,1780134919.72
2146647.0,1780134919.761
2138796.0,1780134919.8
2131752.0,1780134919.841
2125198.0,1780134919.881
2117079.0,1780134919.92
2109067.0,1780134919.96
2102622.0,1780134920.002
2099590.0,1780134920.041
2097857.0,1780134920.081
2096560.0,1780134920.122
2096423.0,1780134920.161
2097019.0,1780134920.201
2097258.0,1780134920.244
2097379.0,1780134920.281
2097007.0,1780134920.321
2098236.0,1780134920.363
2098740.0,1780134920.402
2100549.0,1780134920.442
2101225.0,1780134920.483
2103407.0,1780134920.522
2104173.0,1780134920.562
2103255.0,1780134920.603
2100992.0,1780134920.643
2098543.0,1780134920.682
2097313.0,1780134920.723
2096666.0,1780134920.763
2096422.0,1780134920.803
2097199.0,1780134920.845
2097745.0,1780134920.883
2098144.0,1780134920.923
2098396.0,1780134920.964
2098823.0,1780134921.003
2099374.0,1780134921.044
2100272.0,1780134921.085
2101134.0,1780134921.124
2102320.0,1780134921.164
2103820.0,1780134921.205
2104607.0,1780134921.245
2103165.0,1780134921.284
2100588.0,1780134921.325
2098923.0,1780134921.364
2097729.0,1780134921.404
2097458.0,1780134921.446
2097698.0,1780134921.485
2098783.0,1780134921.525
2099708.0,1780134921.566
2100303.0,1780134921.605
2101082.0,1780134921.646
2101795.0,1780134921.686
2102572.0,1780134921.725
2103874.0,1780134921.766
2105453.0,1780134921.807
2106387.0,1780134921.846
2107335.0,1780134921.886
2105289.0,1780134921.927
2102612.0,1780134921.966
2100021.0,1780134922.006
2098201.0,1780134922.048
2097246.0,1780134922.086
2096979.0,1780134922.127
2096958.0,1780134922.168
2097423.0,1780134922.207
2097397.0,1780134922.248
2097487.0,1780134922.288
2094958.0,1780134922.327
2094814.0,1780134922.367
2095274.0,1780134922.408
2095419.0,1780134922.448
2102625.0,1780134922.487
2104595.0,1780134922.528
2103605.0,1780134922.567
2100159.0,1780134922.607
2097338.0,1780134922.649
2094774.0,1780134922.688
2092559.0,1780134922.728
2091405.0,1780134922.769
2090465.0,1780134922.808
2090135.0,1780134922.849
2089028.0,1780134922.889
2088631.0,1780134922.928
2087828.0,1780134922.968
2087489.0,1780134923.009
2087180.0,1780134923.049
2087224.0,1780134923.088
2086627.0,1780134923.129
2086133.0,1780134923.168
2084157.0,1780134923.208
2080338.0,1780134923.25
2075626.0,1780134923.289
2072331.0,1780134923.329
2069408.0,1780134923.37
2066973.0,1780134923.409
2065755.0,1780134923.45
2064747.0,1780134923.49
2063469.0,1780134923.529
2061856.0,1780134923.569
2060742.0,1780134923.61
2059602.0,1780134923.65
2058925.0,1780134923.689
2058353.0,1780134923.73
2058121.0,1780134923.77
2057806.0,1780134923.81
2055990.0,1780134923.852
2051012.0,1780134923.89
2046213.0,1780134923.93
2041848.0,1780134923.971
2038364.0,1780134924.01
2035839.0,1780134924.051
2034730.0,1780134924.091
2033687.0,1780134924.13
2032590.0,1780134924.17
2031213.0,1780134924.212
2030600.0,1780134924.251
2030319.0,1780134924.291
2029670.0,1780134924.332
2029844.0,1780134924.371
2030588.0,1780134924.411
2031062.0,1780134924.453
2030871.0,1780134924.491
2028436.0,1780134924.531
2024065.0,1780134924.572
2019777.0,1780134924.611
2016418.0,1780134924.652
2013908.0,1780134924.693
2012610.0,1780134924.732
2012282.0,1780134924.772
2011947.0,1780134924.813
2011531.0,1780134924.853
2011379.0,1780134924.892
2011457.0,1780134924.933
2011713.0,1780134924.972
2012464.0,1780134925.012
2013125.0,1780134925.054
2014392.0,1780134925.092
2016512.0,1780134925.174
2015567.0,1780134925.132
2015166.0,1780134925.213
2011873.0,1780134925.253
2008389.0,1780134925.294
2005762.0,1780134925.333
2004124.0,1780134925.373
2003449.0,1780134925.414
2003310.0,1780134925.454
2003843.0,1780134925.493
2003695.0,1780134925.534
2004010.0,1780134925.573
2004383.0,1780134925.613
2004468.0,1780134925.655
2005371.0,1780134925.693
2006292.0,1780134925.733
2007545.0,1780134925.775
2008636.0,1780134925.814
2010042.0,1780134925.854
2009981.0,1780134925.895
2007718.0,1780134925.934
2004796.0,1780134925.974
2002957.0,1780134926.015
2001658.0,1780134926.058
2001440.0,1780134926.097
2002002.0,1780134926.138
2002294.0,1780134926.177
2002803.0,1780134926.217
2003248.0,1780134926.259
2003568.0,1780134926.298
2004122.0,1780134926.338
2004971.0,1780134926.379
2006202.0,1780134926.418
2007367.0,1780134926.458
2008739.0,1780134926.499
2009943.0,1780134926.538
2011182.0,1780134926.578
2009885.0,1780134926.619
2007625.0,1780134926.659
2005671.0,1780134926.698
2004474.0,1780134926.739
2003595.0,1780134926.778
2003890.0,1780134926.819
2004741.0,1780134926.86
2005453.0,1780134926.899
2006480.0,1780134926.939
2006975.0,1780134926.98
2007766.0,1780134927.019
2008739.0,1780134927.06
2010068.0,1780134927.1
2011939.0,1780134927.139
2013494.0,1780134927.179
2015304.0,1780134927.22
2017118.0,1780134927.26
2018773.0,1780134927.299
2018900.0,1780134927.341
2017375.0,1780134927.38
2015672.0,1780134927.42
2014507.0,1780134927.462
2014324.0,1780134927.5
2014197.0,1780134927.54
2015103.0,1780134927.581
2015871.0,1780134927.62
2016713.0,1780134927.661
2017615.0,1780134927.701
2018084.0,1780134927.74
2018762.0,1780134927.78
2020157.0,1780134927.822
2021168.0,1780134927.861
2022878.0,1780134927.901
2024184.0,1780134927.942
2025758.0,1780134927.981
2027548.0,1780134928.021
2028404.0,1780134928.063
2027248.0,1780134928.101
2026002.0,1780134928.141
2025024.0,1780134928.182
2025003.0,1780134928.221
2024981.0,1780134928.262
2025736.0,1780134928.302
2026979.0,1780134928.341
2027897.0,1780134928.381
2028511.0,1780134928.423
2030122.0,1780134928.502
2029334.0,1780134928.462
2031269.0,1780134928.543
2032535.0,1780134928.582
2033539.0,1780134928.622
2035119.0,1780134928.664
2036268.0,1780134928.702
2037553.0,1780134928.742
2037251.0,1780134928.783
2034349.0,1780134928.863
2035567.0,1780134928.822
2033131.0,1780134928.942
2033215.0,1780134928.903
2033415.0,1780134928.983
2033961.0,1780134929.024
2034762.0,1780134929.063
2035330.0,1780134929.103
2035785.0,1780134929.144
2036229.0,1780134929.183
2037084.0,1780134929.223
2037964.0,1780134929.265
2039175.0,1780134929.303
2040243.0,1780134929.343
2041481.0,1780134929.384
2042443.0,1780134929.423
2043691.0,1780134929.464
2044018.0,1780134929.505
2042805.0,1780134929.544
2041175.0,1780134929.584
2040018.0,1780134929.625
2039164.0,1780134929.665
2039349.0,1780134929.704
2039597.0,1780134929.745
2040230.0,1780134929.784
2040968.0,1780134929.824
2041251.0,1780134929.866
2041833.0,1780134929.905
2042380.0,1780134929.945
2043054.0,1780134929.986
2044017.0,1780134930.025
2045513.0,1780134930.066
2046629.0,1780134930.106
2048038.0,1780134930.145
2049167.0,1780134930.185
2050287.0,1780134930.226
2048929.0,1780134930.266
2047473.0,1780134930.306
2046119.0,1780134930.347
2045595.0,1780134930.386
2045843.0,1780134930.426
2046024.0,1780134930.468
2046905.0,1780134930.506
2047248.0,1780134930.546
2047863.0,1780134930.587
2048242.0,1780134930.626
2048602.0,1780134930.667
2049222.0,1780134930.708
2050446.0,1780134930.746
2051206.0,1780134930.787
2052469.0,1780134930.828
2053290.0,1780134930.868
2053775.0,1780134930.907
2052768.0,1780134930.948
2050697.0,1780134930.987
2048720.0,1780134931.027
2047457.0,1780134931.069
2047052.0,1780134931.107
2047058.0,1780134931.148
2047269.0,1780134931.189
2046825.0,1780134931.228
2046859.0,1780134931.269
2046747.0,1780134931.309
2047059.0,1780134931.348
2047457.0,1780134931.388
2047970.0,1780134931.429
2048361.0,1780134931.469
2049252.0,1780134931.508
2049731.0,1780134931.55
2049788.0,1780134931.589
2048045.0,1780134931.629
2044666.0,1780134931.671
2042548.0,1780134931.709
2040459.0,1780134931.749
2039036.0,1780134931.79
2038347.0,1780134931.829
2038184.0,1780134931.87
2037880.0,1780134931.91
2037688.0,1780134931.95
2037633.0,1780134931.99
2037518.0,1780134932.031
2037424.0,1780134932.071
2037864.0,1780134932.11
2038647.0,1780134932.151
2039522.0,1780134932.19
2040397.0,1780134932.23
2041128.0,1780134932.272
2040234.0,1780134932.311
2037823.0,1780134932.351
2034866.0,1780134932.392
2032234.0,1780134932.431
2030816.0,1780134932.472
2029775.0,1780134932.512
2029148.0,1780134932.551
2028975.0,1780134932.592
2028747.0,1780134932.633
2028382.0,1780134932.672
2027894.0,1780134932.712
2027665.0,1780134932.753
2027837.0,1780134932.792
2028336.0,1780134932.832
2028830.0,1780134932.874
2029611.0,1780134932.912
2030590.0,1780134932.953
2030638.0,1780134932.994
2028529.0,1780134933.033
2025842.0,1780134933.074
2023545.0,1780134933.114
2022238.0,1780134933.153
2021134.0,1780134933.193
2021172.0,1780134933.234
2021296.0,1780134933.274
2021204.0,1780134933.313
2020935.0,1780134933.355
2020665.0,1780134933.394
2020980.0,1780134933.434
2021105.0,1780134933.476
2021593.0,1780134933.514
2021947.0,1780134933.554
2023024.0,1780134933.595
2023293.0,1780134933.634
2023388.0,1780134933.675
2021829.0,1780134933.716
2018665.0,1780134933.755
2016321.0,1780134933.795
2014232.0,1780134933.836
2013001.0,1780134933.876
2012143.0,1780134933.915
2011935.0,1780134933.956
2011652.0,1780134933.995
2011865.0,1780134934.035
2012212.0,1780134934.077
2012282.0,1780134934.116
2012787.0,1780134934.156
2013797.0,1780134934.197
2014649.0,1780134934.236
2015369.0,1780134934.277
2016518.0,1780134934.317
2016993.0,1780134934.356
2015373.0,1780134934.396
2012437.0,1780134934.437
2009920.0,1780134934.477
2007925.0,1780134934.516
2007179.0,1780134934.557
2006639.0,1780134934.596
2006505.0,1780134934.636
2006395.0,1780134934.678
2006098.0,1780134934.717
2006442.0,1780134934.757
2005806.0,1780134934.798
2006111.0,1780134934.837
2006549.0,1780134934.878
2007370.0,1780134934.918
2008219.0,1780134934.957
2008872.0,1780134934.997
2010001.0,1780134935.038
2010279.0,1780134935.078
2008439.0,1780134935.117
2005636.0,1780134935.158
2003234.0,1780134935.197
2001212.0,1780134935.238
1999971.0,1780134935.279
1999703.0,1780134935.318
1999500.0,1780134935.358
1999649.0,1780134935.399
1999731.0,1780134935.438
1999158.0,1780134935.479
1999292.0,1780134935.519
1999416.0,1780134935.558
1999960.0,1780134935.598
2000840.0,1780134935.639
2001843.0,1780134935.679
2002823.0,1780134935.718
2003555.0,1780134935.76
2002105.0,1780134935.799
1999157.0,1780134935.839
1996238.0,1780134935.88
1994204.0,1780134935.919
1992486.0,1780134935.959
1992009.0,1780134936.0
1992176.0,1780134936.039
1991970.0,1780134936.08
1991961.0,1780134936.12
1991575.0,1780134936.159
1991514.0,1780134936.199
1991547.0,1780134936.24
1992032.0,1780134936.28
1992610.0,1780134936.32
1993473.0,1780134936.361
1994539.0,1780134936.4
1995434.0,1780134936.44
1994104.0,1780134936.482
1991411.0,1780134936.52
1988340.0,1780134936.56
1986139.0,1780134936.601
1984407.0,1780134936.64
1983518.0,1780134936.681
1983196.0,1780134936.721
1983145.0,1780134936.76
1983114.0,1780134936.801
1982704.0,1780134936.842
1983207.0,1780134936.921
1983070.0,1780134936.882
1983823.0,1780134936.962
1984360.0,1780134937.001
1985354.0,1780134937.041
1986722.0,1780134937.083
1987501.0,1780134937.121
1987195.0,1780134937.161
1984500.0,1780134937.202
1981215.0,1780134937.242
1978717.0,1780134937.282
1976675.0,1780134937.323
1975547.0,1780134937.362
1975127.0,1780134937.402
1975201.0,1780134937.443
1974903.0,1780134937.483
1974606.0,1780134937.522
1974412.0,1780134937.563
1974629.0,1780134937.602
1974785.0,1780134937.642
1975457.0,1780134937.684
1976067.0,1780134937.723
1976983.0,1780134937.763
1977726.0,1780134937.804
1976541.0,1780134937.843
1972837.0,1780134937.884
1969710.0,1780134937.924
1967206.0,1780134937.963
1965628.0,1780134938.003
1964646.0,1780134938.044
1964470.0,1780134938.13
1964189.0,1780134938.169
1963792.0,1780134938.21
1963848.0,1780134938.25
1963860.0,1780134938.29
1964195.0,1780134938.331
1964784.0,1780134938.37
1965314.0,1780134938.41
1966399.0,1780134938.451
1967203.0,1780134938.49
1967790.0,1780134938.531
1965934.0,1780134938.571
1962075.0,1780134938.61
1958576.0,1780134938.65
1956012.0,1780134938.691
1953111.0,1780134938.771
1954182.0,1780134938.731
1953136.0,1780134938.812
1953126.0,1780134938.851
1953225.0,1780134938.891
1953280.0,1780134938.933
1953190.0,1780134938.971
1953948.0,1780134939.011
1954639.0,1780134939.052
1955730.0,1780134939.091
1956952.0,1780134939.132
1958078.0,1780134939.173
1959693.0,1780134939.212
1960439.0,1780134939.252
1958497.0,1780134939.293
1954834.0,1780134939.333
1951344.0,1780134939.372
1948785.0,1780134939.413
1946646.0,1780134939.452
1945855.0,1780134939.492
1945630.0,1780134939.534
1945665.0,1780134939.573
1945387.0,1780134939.613
1945393.0,1780134939.654
1945207.0,1780134939.693
1945858.0,1780134939.734
1946224.0,1780134939.774
1947430.0,1780134939.813
1948619.0,1780134939.853
1949673.0,1780134939.894
1951052.0,1780134939.934
1952474.0,1780134939.973
1953205.0,1780134940.015
1951147.0,1780134940.054
1947890.0,1780134940.094
1945238.0,1780134940.135
1943479.0,1780134940.174
1942258.0,1780134940.214
1942125.0,1780134940.255
1942225.0,1780134940.294
1942008.0,1780134940.335
1941987.0,1780134940.375
1942229.0,1780134940.414
1942202.0,1780134940.454
1944964.0,1780134940.575
1943628.0,1780134940.535
1942822.0,1780134940.495
1946559.0,1780134940.616
1947844.0,1780134940.655
1949528.0,1780134940.695
1950824.0,1780134940.737
1946370.0,1780134940.856
1944742.0,1780134940.896
1950955.0,1780134940.775
1948892.0,1780134940.815
1943941.0,1780134940.936
1944237.0,1780134941.016
1943696.0,1780134940.977
1945100.0,1780134941.056
1945969.0,1780134941.097
1946618.0,1780134941.137
1948229.0,1780134941.217
1947356.0,1780134941.176
1949317.0,1780134941.256
1950884.0,1780134941.296
1952482.0,1780134941.338
1954091.0,1780134941.376
1956066.0,1780134941.416
1957838.0,1780134941.458
1958966.0,1780134941.497
1958228.0,1780134941.537
1955821.0,1780134941.578
1953193.0,1780134941.617
1950984.0,1780134941.657
1950006.0,1780134941.698
1949167.0,1780134941.738
1949377.0,1780134941.777
1949637.0,1780134941.818
1949986.0,1780134941.857
1950167.0,1780134941.897
1950901.0,1780134941.939
1951149.0,1780134941.978
1951837.0,1780134942.019
1953090.0,1780134942.046
1954351.0,1780134942.085
1955737.0,1780134942.126
1957201.0,1780134942.166
1958356.0,1780134942.205
1959684.0,1780134942.245
1958867.0,1780134942.287
1955890.0,1780134942.326
1953091.0,1780134942.366
1950891.0,1780134942.407
1949702.0,1780134942.446
1948765.0,1780134942.486
1949000.0,1780134942.528
1949060.0,1780134942.566
1949060.0,1780134942.606
1949050.0,1780134942.647
1949435.0,1780134942.686
1950087.0,1780134942.728
1950652.0,1780134942.769
1952264.0,1780134942.808
1953989.0,1780134942.848
1955574.0,1780134942.89
1957384.0,1780134942.929
1959031.0,1780134942.969
1959143.0,1780134943.01
1956661.0,1780134943.049
1954517.0,1780134943.09
1952853.0,1780134943.132
1952223.0,1780134943.17
1952349.0,1780134943.208
1952742.0,1780134943.25
1953643.0,1780134943.289
1954063.0,1780134943.33
1954375.0,1780134943.37
1954889.0,1780134943.41
1955841.0,1780134943.45
1956897.0,1780134943.491
1958173.0,1780134943.531
1959346.0,1780134943.568
1960895.0,1780134943.601
1962089.0,1780134943.64
1963642.0,1780134943.68
1962562.0,1780134943.722
1959603.0,1780134943.76
1956546.0,1780134943.8
1953931.0,1780134943.841
1952136.0,1780134943.88
1951028.0,1780134943.921
1950620.0,1780134943.962
1950610.0,1780134944.001
1950799.0,1780134944.041
1950568.0,1780134944.082
1950701.0,1780134944.122
1951093.0,1780134944.161
1951478.0,1780134944.202
1952374.0,1780134944.241
1952979.0,1780134944.272
1954316.0,1780134944.312
1955340.0,1780134944.348
1956262.0,1780134944.388
1955037.0,1780134944.43
1951211.0,1780134944.469
1947639.0,1780134944.51
1944551.0,1780134944.55
1942821.0,1780134944.589
1941456.0,1780134944.63
1941278.0,1780134944.671
1941382.0,1780134944.709
1941212.0,1780134944.748
1941076.0,1780134944.79
1941370.0,1780134944.829
1941503.0,1780134944.869
1942493.0,1780134944.911
1943916.0,1780134944.95
1945516.0,1780134944.99
1946552.0,1780134945.031
1948115.0,1780134945.068
1947901.0,1780134945.109
1945205.0,1780134945.15
1942167.0,1780134945.189
1939689.0,1780134945.229
1938440.0,1780134945.271
1938100.0,1780134945.31
1938498.0,1780134945.35
1938828.0,1780134945.391
1939193.0,1780134945.43
1939554.0,1780134945.469
1939867.0,1780134945.51
1940236.0,1780134945.549
1941127.0,1780134945.589
1942484.0,1780134945.63
1943469.0,1780134945.67
1944753.0,1780134945.711
1946251.0,1780134945.751
1946819.0,1780134945.79
1944195.0,1780134945.831
1940430.0,1780134945.87
1937143.0,1780134945.91
1934461.0,1780134945.949
1932577.0,1780134945.99
1931574.0,1780134946.03
1931494.0,1780134946.07
1931539.0,1780134946.112
1931552.0,1780134946.15
1931247.0,1780134946.191
1931176.0,1780134946.23
1931448.0,1780134946.269
1933064.0,1780134946.35
1932065.0,1780134946.31
1934332.0,1780134946.39
1935544.0,1780134946.43
1936459.0,1780134946.471
1936001.0,1780134946.511
1932868.0,1780134946.551
1929409.0,1780134946.592
1926091.0,1780134946.631
1924049.0,1780134946.669
1923060.0,1780134946.711
1922805.0,1780134946.75
1922554.0,1780134946.79
1922641.0,1780134946.831
1922735.0,1780134946.87
1922872.0,1780134946.911
1923530.0,1780134946.952
1924201.0,1780134946.991
1925192.0,1780134947.031
1926562.0,1780134947.07
1928048.0,1780134947.11
1929721.0,1780134947.15
1930410.0,1780134947.191
1928718.0,1780134947.23
1925778.0,1780134947.271
1923361.0,1780134947.313
1921799.0,1780134947.351
1921130.0,1780134947.391
1921590.0,1780134947.431
1922318.0,1780134947.47
1923069.0,1780134947.511
1923897.0,1780134947.551
1924549.0,1780134947.59
1925270.0,1780134947.631
1926606.0,1780134947.672
1928155.0,1780134947.712
1929613.0,1780134947.751
1931457.0,1780134947.791
1933324.0,1780134947.83
1935523.0,1780134947.87
1936042.0,1780134947.912
1933767.0,1780134947.951
1930827.0,1780134947.991
1928449.0,1780134948.032
1926775.0,1780134948.071
1925803.0,1780134948.112
1925759.0,1780134948.151
1926356.0,1780134948.19
1926590.0,1780134948.23
1926995.0,1780134948.272
1927634.0,1780134948.311
1928677.0,1780134948.351
1929246.0,1780134948.392
1930367.0,1780134948.431
1931628.0,1780134948.472
1933308.0,1780134948.514
1934803.0,1780134948.55
1936426.0,1780134948.59
1937352.0,1780134948.632
1934926.0,1780134948.671
1932452.0,1780134948.712
1930412.0,1780134948.752
1929276.0,1780134948.792
1928693.0,1780134948.832
1928669.0,1780134948.873
1929401.0,1780134948.913
1930111.0,1780134948.952
1930327.0,1780134948.993
1930949.0,1780134949.03
1931696.0,1780134949.071
1933048.0,1780134949.113
1934226.0,1780134949.151
1936001.0,1780134949.191
1937786.0,1780134949.233
1939961.0,1780134949.272
1941514.0,1780134949.313
1941249.0,1780134949.353
1939248.0,1780134949.39
1937315.0,1780134949.431
1936461.0,1780134949.472
1936151.0,1780134949.512
1936644.0,1780134949.551
1937762.0,1780134949.593
1939014.0,1780134949.632
1939956.0,1780134949.672
1941034.0,1780134949.714
1942028.0,1780134949.751
1943194.0,1780134949.791
1944849.0,1780134949.832
1946416.0,1780134949.871
1948030.0,1780134949.912
1949911.0,1780134949.953
1951866.0,1780134949.992
1951992.0,1780134950.032
1950161.0,1780134950.074
1948081.0,1780134950.116
1946171.0,1780134950.156
1945360.0,1780134950.197
1945289.0,1780134950.236
1945432.0,1780134950.276
1946322.0,1780134950.318
1946599.0,1780134950.356
1947500.0,1780134950.396
1948197.0,1780134950.437
1949070.0,1780134950.476
1950257.0,1780134950.517
1951038.0,1780134950.557
1952515.0,1780134950.597
1954049.0,1780134950.637
1955350.0,1780134950.678
1956741.0,1780134950.718
1956976.0,1780134950.758
1954882.0,1780134950.799
1952556.0,1780134950.838
1950820.0,1780134950.876
1949568.0,1780134950.918
1948758.0,1780134950.957
1948805.0,1780134950.997
1949286.0,1780134951.038
1949759.0,1780134951.077
1949893.0,1780134951.118
1950265.0,1780134951.159
1951084.0,1780134951.198
1951946.0,1780134951.238
1952729.0,1780134951.277
1954094.0,1780134951.317
1955739.0,1780134951.357
1957366.0,1780134951.398
1959247.0,1780134951.437
1959674.0,1780134951.477
1958071.0,1780134951.519
1956959.0,1780134951.558
1955872.0,1780134951.598
1955733.0,1780134951.639
1955835.0,1780134951.679
1956857.0,1780134951.717
1957901.0,1780134951.758
1960078.0,1780134951.837
1958977.0,1780134951.797
1961011.0,1780134951.879
1962232.0,1780134951.919
1963495.0,1780134951.958
1965313.0,1780134951.999
1967022.0,1780134952.039
1968811.0,1780134952.077
1970712.0,1780134952.119
1972557.0,1780134952.157
1974231.0,1780134952.198
1973216.0,1780134952.239
1971370.0,1780134952.278
1970125.0,1780134952.319
1969380.0,1780134952.36
1968967.0,1780134952.399
1969414.0,1780134952.439
1970392.0,1780134952.478
1971496.0,1780134952.518
1972015.0,1780134952.557
1972781.0,1780134952.599
1973812.0,1780134952.638
1975040.0,1780134952.678
1976100.0,1780134952.72
1977566.0,1780134952.759
1979312.0,1780134952.799
1980877.0,1780134952.838
1982157.0,1780134952.877
1983663.0,1780134952.918
1983997.0,1780134952.959
1982393.0,1780134952.998
1980843.0,1780134953.038
1979983.0,1780134953.08
1979340.0,1780134953.12
1979282.0,1780134953.159
1979798.0,1780134953.198
1980662.0,1780134953.238
1981242.0,1780134953.278
1981811.0,1780134953.32
1982281.0,1780134953.358
1982827.0,1780134953.399
1983780.0,1780134953.44
1985047.0,1780134953.479
1986569.0,1780134953.52
1987936.0,1780134953.559
1989042.0,1780134953.598
1990808.0,1780134953.638
1990983.0,1780134953.679
1990058.0,1780134953.719
1988602.0,1780134953.759
1987956.0,1780134953.8
1987993.0,1780134953.839
1988770.0,1780134953.88
1989693.0,1780134953.919
1990764.0,1780134953.958
1991709.0,1780134953.998
1992826.0,1780134954.039
1993925.0,1780134954.078
1994628.0,1780134954.119
1995686.0,1780134954.16
1996991.0,1780134954.199
1998640.0,1780134954.239
2000344.0,1780134954.281
2001702.0,1780134954.32
2003578.0,1780134954.358
2003986.0,1780134954.399
2002646.0,1780134954.438
2001172.0,1780134954.479
1999972.0,1780134954.521
1999377.0,1780134954.559
1999502.0,1780134954.599
2000102.0,1780134954.641
2000828.0,1780134954.68
2001520.0,1780134954.719
2002072.0,1780134954.759
2002738.0,1780134954.799
2003317.0,1780134954.839
2004229.0,1780134954.88
2005091.0,1780134954.92
2006109.0,1780134954.959
2007482.0,1780134955.001
2008732.0,1780134955.04
2009856.0,1780134955.08
2011078.0,1780134955.12
2010550.0,1780134955.159
2008749.0,1780134955.199
2006488.0,1780134955.24
2005146.0,1780134955.279
2004238.0,1780134955.32
2004200.0,1780134955.361
2004253.0,1780134955.4
2004379.0,1780134955.44
2004755.0,1780134955.48
2004966.0,1780134955.519
2004789.0,1780134955.559
2005226.0,1780134955.6
2005701.0,1780134955.64
2006670.0,1780134955.68
2007372.0,1780134955.722
2008319.0,1780134955.76
2008844.0,1780134955.801
2010008.0,1780134955.84
2011073.0,1780134955.879
2010091.0,1780134955.92
2008020.0,1780134955.96
2006031.0,1780134956.0
2004727.0,1780134956.04
2004129.0,1780134956.081
2004169.0,1780134956.121
2004882.0,1780134956.161
2005455.0,1780134956.2
2005679.0,1780134956.239
2006191.0,1780134956.279
2006286.0,1780134956.321
2006849.0,1780134956.36
2007487.0,1780134956.4
2008536.0,1780134956.441
2009623.0,1780134956.481
2010757.0,1780134956.522
2011961.0,1780134956.56
2012971.0,1780134956.599
2010512.0,1780134956.68
2012462.0,1780134956.639
2008258.0,1780134956.72
2006454.0,1780134956.759
2005268.0,1780134956.801
2004734.0,1780134956.84
2004097.0,1780134956.88
2004198.0,1780134956.961
2003962.0,1780134956.922
2003746.0,1780134957.001
2003372.0,1780134957.042
2003474.0,1780134957.079
2003579.0,1780134957.12
2004276.0,1780134957.161
2004865.0,1780134957.2
2005438.0,1780134957.24
2006254.0,1780134957.282
2007098.0,1780134957.321
2006951.0,1780134957.361
2004581.0,1780134957.402
2001289.0,1780134957.441
1998470.0,1780134957.48
1996374.0,1780134957.521
1994800.0,1780134957.56
1994169.0,1780134957.6
1993629.0,1780134957.641
1993071.0,1780134957.681
1992609.0,1780134957.722
1991595.0,1780134957.762
1991393.0,1780134957.801
1991225.0,1780134957.842
1991093.0,1780134957.881
1991219.0,1780134957.921
1991743.0,1780134957.96
1991942.0,1780134958.001
1992601.0,1780134958.041
1992392.0,1780134958.081
1989315.0,1780134958.123
1985872.0,1780134958.161
1983193.0,1780134958.202
1981381.0,1780134958.241
1980091.0,1780134958.28
1979388.0,1780134958.321
1979063.0,1780134958.362
1978773.0,1780134958.401
1978256.0,1780134958.441
1978135.0,1780134958.482
1978076.0,1780134958.522
1978080.0,1780134958.562
1978316.0,1780134958.603
1979178.0,1780134958.64
1979589.0,1780134958.68
1980173.0,1780134958.722
1978371.0,1780134958.761
1975055.0,1780134958.801
1971685.0,1780134958.842
1968569.0,1780134958.882
1966431.0,1780134958.923
1965305.0,1780134958.963
1964601.0,1780134959.001
1964012.0,1780134959.042
1963525.0,1780134959.083
1962831.0,1780134959.123
1962460.0,1780134959.162
1962263.0,1780134959.24
1962017.0,1780134959.203
1962324.0,1780134959.281
1962731.0,1780134959.323
1963112.0,1780134959.361
1962680.0,1780134959.401
1959472.0,1780134959.443
1954885.0,1780134959.482
1950492.0,1780134959.523
1946636.0,1780134959.563
1943862.0,1780134959.603
1941924.0,1780134959.641
1940230.0,1780134959.682
1939288.0,1780134959.722
1938032.0,1780134959.761
1936776.0,1780134959.803
1935852.0,1780134959.842
1934916.0,1780134959.882
1934561.0,1780134959.924
1934228.0,1780134959.963
1934250.0,1780134960.001
1934422.0,1780134960.042
1934316.0,1780134960.072
1931812.0,1780134960.113
1926926.0,1780134960.153
1921835.0,1780134960.192
1917647.0,1780134960.232
1914705.0,1780134960.274
1912549.0,1780134960.313
1911408.0,1780134960.353
1910174.0,1780134960.394
1909013.0,1780134960.433
1907885.0,1780134960.473
1907089.0,1780134960.515
1906871.0,1780134960.553
1906592.0,1780134960.593
1906950.0,1780134960.634
1907515.0,1780134960.674
1908552.0,1780134960.714
1908967.0,1780134960.755
1907194.0,1780134960.791
1902925.0,1780134960.824
1899002.0,1780134960.863
1895634.0,1780134960.903
1893553.0,1780134960.943
1892538.0,1780134960.984
1892254.0,1780134961.023
1892276.0,1780134961.063
1892266.0,1780134961.106
1892110.0,1780134961.144
1892296.0,1780134961.184
1892952.0,1780134961.224
1893600.0,1780134961.263
1894818.0,1780134961.304
1896138.0,1780134961.344
1897505.0,1780134961.383
1898976.0,1780134961.424
1898496.0,1780134961.465
1895062.0,1780134961.505
1890873.0,1780134961.544
1887332.0,1780134961.584
1884741.0,1780134961.623
1882970.0,1780134961.663
1882283.0,1780134961.704
1882344.0,1780134961.743
1882155.0,1780134961.783
1882109.0,1780134961.825
1882050.0,1780134961.864
1882497.0,1780134961.905
1883000.0,1780134961.946
1884120.0,1780134961.983
1885254.0,1780134962.023
1886737.0,1780134962.064
1888123.0,1780134962.102
1889739.0,1780134962.142
1889589.0,1780134962.183
1887082.0,1780134962.222
1883104.0,1780134962.262
1879655.0,1780134962.304
1876846.0,1780134962.342
1875362.0,1780134962.382
1874850.0,1780134962.423
1874397.0,1780134962.462
1874795.0,1780134962.503
1874748.0,1780134962.544
1875059.0,1780134962.583
1875474.0,1780134962.623
1876346.0,1780134962.664
1877526.0,1780134962.704
1879235.0,1780134962.743
1880732.0,1780134962.785
1882909.0,1780134962.824
1884472.0,1780134962.865
1886133.0,1780134962.907
1885064.0,1780134962.945
1882474.0,1780134962.985
1880974.0,1780134963.027
1879820.0,1780134963.066
1879897.0,1780134963.107
1880672.0,1780134963.148
1882165.0,1780134963.187
1883381.0,1780134963.227
1884796.0,1780134963.268
1886532.0,1780134963.306
1887907.0,1780134963.346
1890025.0,1780134963.387
1892241.0,1780134963.426
1894605.0,1780134963.466
1897110.0,1780134963.509
1899595.0,1780134963.547
1902135.0,1780134963.587
1903411.0,1780134963.629
1902604.0,1780134963.666
1901116.0,1780134963.706
1899691.0,1780134963.747
1899343.0,1780134963.786
1899304.0,1780134963.826
1900008.0,1780134963.868
1901343.0,1780134963.908
1902753.0,1780134963.947
1903958.0,1780134963.989
1905427.0,1780134964.026
1906752.0,1780134964.066
1908656.0,1780134964.108
1910712.0,1780134964.147
1912699.0,1780134964.187
1914788.0,1780134964.228
1917119.0,1780134964.266
1919027.0,1780134964.306
1921323.0,1780134964.347
1922662.0,1780134964.386
1921935.0,1780134964.426
1920463.0,1780134964.467
1919221.0,1780134964.507
1918651.0,1780134964.547
1918616.0,1780134964.588
1919136.0,1780134964.627
1920120.0,1780134964.667
1921305.0,1780134964.71
1922362.0,1780134964.748
1923267.0,1780134964.786
1924595.0,1780134964.828
1926163.0,1780134964.867
1928140.0,1780134964.908
1929493.0,1780134964.948
1931621.0,1780134964.987
1933769.0,1780134965.028
1935477.0,1780134965.069
1937259.0,1780134965.109
1938918.0,1780134965.146
1939928.0,1780134965.188
1939338.0,1780134965.227
1938520.0,1780134965.267
1938422.0,1780134965.309
1938997.0,1780134965.348
1939791.0,1780134965.388
1941361.0,1780134965.429
1943104.0,1780134965.468
1944884.0,1780134965.507
1946216.0,1780134965.548
1948074.0,1780134965.587
1950148.0,1780134965.627
1952543.0,1780134965.669
1954585.0,1780134965.709
1957108.0,1780134965.748
1959744.0,1780134965.789
1962059.0,1780134965.829
1964542.0,1780134965.867
1967233.0,1780134965.909
1968619.0,1780134965.947
1968374.0,1780134965.987
1967964.0,1780134966.029
1968081.0,1780134966.068
1968668.0,1780134966.109
1969384.0,1780134966.15
1970550.0,1780134966.189
1972050.0,1780134966.227
1973134.0,1780134966.268
1974465.0,1780134966.308
1975524.0,1780134966.348
1976923.0,1780134966.389
1978409.0,1780134966.428
1980036.0,1780134966.468
1981980.0,1780134966.511
1983858.0,1780134966.549
1985674.0,1780134966.587
1987380.0,1780134966.628
1989126.0,1780134966.668
1990034.0,1780134966.708
1989206.0,1780134966.749
1988117.0,1780134966.788
1987511.0,1780134966.828
1986908.0,1780134966.867
1987077.0,1780134966.907
1987440.0,1780134966.947
1987971.0,1780134966.988
1988798.0,1780134967.027
1989494.0,1780134967.068
1990103.0,1780134967.11
1990993.0,1780134967.148
1991430.0,1780134967.188
1992673.0,1780134967.23
1994181.0,1780134967.269
1995717.0,1780134967.31
1996955.0,1780134967.349
1998466.0,1780134967.388
2000306.0,1780134967.428
2001296.0,1780134967.469
2000851.0,1780134967.509
1999961.0,1780134967.549
1999665.0,1780134967.59
1999728.0,1780134967.629
1999936.0,1780134967.669
2000739.0,1780134967.71
2001769.0,1780134967.748
2003111.0,1780134967.788
2004079.0,1780134967.83
2004802.0,1780134967.869
2006123.0,1780134967.91
2007268.0,1780134967.95
2008575.0,1780134967.989
2010289.0,1780134968.03
2011742.0,1780134968.069
2013161.0,1780134968.109
2015167.0,1780134968.148
2015602.0,1780134968.19
2014777.0,1780134968.229
2013448.0,1780134968.269
2012871.0,1780134968.311
2012864.0,1780134968.35
2013029.0,1780134968.39
2013632.0,1780134968.429
2014762.0,1780134968.468
2015439.0,1780134968.509
2016309.0,1780134968.55
2016710.0,1780134968.589
2017408.0,1780134968.629
2018365.0,1780134968.671
2019815.0,1780134968.71
2020694.0,1780134968.75
2022059.0,1780134968.789
2022709.0,1780134968.828
2024006.0,1780134968.869
2024014.0,1780134968.911
2022240.0,1780134968.949
2020242.0,1780134968.989
2018805.0,1780134969.031
2017677.0,1780134969.07
2016963.0,1780134969.111
2016699.0,1780134969.15
2016800.0,1780134969.189
2017068.0,1780134969.229
2017378.0,1780134969.27
2017517.0,1780134969.31
2017647.0,1780134969.349
2018456.0,1780134969.391
2019010.0,1780134969.428
2019967.0,1780134969.468
2020915.0,1780134969.51
2021912.0,1780134969.549
2022118.0,1780134969.63
2016844.0,1780134969.751
2017955.0,1780134969.71
2015556.0,1780134969.79
2015014.0,1780134969.83
2022995.0,1780134969.589
2020183.0,1780134969.669
2014850.0,1780134969.87
2015122.0,1780134969.91
2015271.0,1780134969.991
2016097.0,1780134970.112
2015444.0,1780134970.03
2017096.0,1780134970.151
2015602.0,1780134970.07
2015312.0,1780134969.949
2017933.0,1780134970.191
2018898.0,1780134970.23
2019943.0,1780134970.31
2020145.0,1780134970.269
2015954.0,1780134970.39
2018017.0,1780134970.351
2013298.0,1780134970.472
2014205.0,1780134970.43
2012706.0,1780134970.511
2012875.0,1780134970.551
2013327.0,1780134970.629
2013164.0,1780134970.59
2013476.0,1780134970.67
2013501.0,1780134970.712
2013803.0,1780134970.75
2014186.0,1780134970.79
2014906.0,1780134970.832
2015895.0,1780134970.871
2016413.0,1780134970.912
2016828.0,1780134970.95
2015130.0,1780134970.989
2012554.0,1780134971.03
2009874.0,1780134971.071
2007957.0,1780134971.111
2006843.0,1780134971.15
2006101.0,1780134971.192
2006158.0,1780134971.231
2005817.0,1780134971.271
2005673.0,1780134971.311
2005373.0,1780134971.35
2005192.0,1780134971.39
2005153.0,1780134971.431
2006006.0,1780134971.47
2006714.0,1780134971.511
2007565.0,1780134971.552
2007993.0,1780134971.591
2008623.0,1780134971.631
2006893.0,1780134971.671
2003768.0,1780134971.711
2001129.0,1780134971.75
1998711.0,1780134971.791
1997216.0,1780134971.831
1995874.0,1780134971.871
1995532.0,1780134971.913
1994968.0,1780134971.948
1994507.0,1780134971.988
1994284.0,1780134972.029
1993912.0,1780134972.069
1994114.0,1780134972.11
1994514.0,1780134972.151
1994992.0,1780134972.19
1995510.0,1780134972.23
1996296.0,1780134972.271
1996678.0,1780134972.311
1997129.0,1780134972.351
1995462.0,1780134972.392
1992296.0,1780134972.431
1988681.0,1780134972.472
1986328.0,1780134972.514
1984562.0,1780134972.55
1983328.0,1780134972.59
1982730.0,1780134972.632
1982227.0,1780134972.671
1981674.0,1780134972.712
1981412.0,1780134972.752
1981019.0,1780134972.791
1981158.0,1780134972.832
1981124.0,1780134972.873
1981723.0,1780134972.911
1982544.0,1780134972.95
1982898.0,1780134972.992
1983737.0,1780134973.031
1984537.0,1780134973.071
1983822.0,1780134973.113
1980939.0,1780134973.152
1978505.0,1780134973.192
1976165.0,1780134973.233
1974887.0,1780134973.27
1974160.0,1780134973.311
1974459.0,1780134973.352
1974560.0,1780134973.381
1974946.0,1780134973.421
1974808.0,1780134973.463
1975122.0,1780134973.502
1975925.0,1780134973.542
1976559.0,1780134973.583
1977766.0,1780134973.622
1978526.0,1780134973.662
1980130.0,1780134973.704
1981224.0,1780134973.742
1982001.0,1780134973.782
1980109.0,1780134973.823
1977118.0,1780134973.862
1974875.0,1780134973.903
1973198.0,1780134973.943
1972216.0,1780134973.983
1972001.0,1780134974.023
1972176.0,1780134974.064
1971887.0,1780134974.098
1972016.0,1780134974.138
1972334.0,1780134974.179
1972480.0,1780134974.218
1972871.0,1780134974.258
1973616.0,1780134974.3
1974439.0,1780134974.338
1975241.0,1780134974.378
1976877.0,1780134974.419
1977501.0,1780134974.458
1977046.0,1780134974.499
1974252.0,1780134974.54
1971233.0,1780134974.573
1968460.0,1780134974.614
1966914.0,1780134974.649
1965570.0,1780134974.686
1965058.0,1780134974.725
1965169.0,1780134974.767
1964611.0,1780134974.806
1964316.0,1780134974.846
1964115.0,1780134974.888
1963858.0,1780134974.927
1964301.0,1780134974.967
1964536.0,1780134975.008
1965207.0,1780134975.045
1966041.0,1780134975.086
1966782.0,1780134975.127
1967322.0,1780134975.166
1965955.0,1780134975.206
1962981.0,1780134975.248
1959924.0,1780134975.287
1958142.0,1780134975.327
1956557.0,1780134975.368
1956046.0,1780134975.407
1955995.0,1780134975.446
1956236.0,1780134975.487
1956392.0,1780134975.526
1956666.0,1780134975.566
1956890.0,1780134975.607
1957285.0,1780134975.647
1958137.0,1780134975.688
1958961.0,1780134975.728
1960314.0,1780134975.767
1961322.0,1780134975.806
1961980.0,1780134975.847
1960204.0,1780134975.887
1957283.0,1780134975.926
1954564.0,1780134975.968
1952922.0,1780134976.007
1951763.0,1780134976.047
1951631.0,1780134976.089
1951801.0,1780134976.128
1951869.0,1780134976.166
1952081.0,1780134976.207
1951903.0,1780134976.246
1952149.0,1780134976.287
1952803.0,1780134976.328
1953434.0,1780134976.367
1954238.0,1780134976.407
1955079.0,1780134976.449
1956089.0,1780134976.488
1956342.0,1780134976.528
1954082.0,1780134976.567
1950357.0,1780134976.606
1946761.0,1780134976.647
1944077.0,1780134976.689
1942565.0,1780134976.727
1941344.0,1780134976.767
1940880.0,1780134976.809
1940337.0,1780134976.848
1939746.0,1780134976.889
1939103.0,1780134976.927
1938939.0,1780134976.966
1939263.0,1780134977.007
1939309.0,1780134977.048
1939666.0,1780134977.084
1940452.0,1780134977.123
1940978.0,1780134977.164
1941377.0,1780134977.203
1939963.0,1780134977.243
1936267.0,1780134977.285
1932620.0,1780134977.324
1929730.0,1780134977.364
1927641.0,1780134977.405
1926524.0,1780134977.444
1926890.0,1780134977.485
1926451.0,1780134977.525
1926298.0,1780134977.564
1926245.0,1780134977.604
1926214.0,1780134977.645
1926531.0,1780134977.685
1927098.0,1780134977.724
1928079.0,1780134977.766
1929444.0,1780134977.805
1930817.0,1780134977.845
1932789.0,1780134977.887
1932203.0,1780134977.925
1929731.0,1780134977.965
1926879.0,1780134978.006
1924213.0,1780134978.045
1923074.0,1780134978.086
1922221.0,1780134978.126
1922501.0,1780134978.165
1922951.0,1780134978.206
1923442.0,1780134978.247
1923610.0,1780134978.286
1924066.0,1780134978.326
1924545.0,1780134978.367
1925690.0,1780134978.406
1926846.0,1780134978.446
1928335.0,1780134978.488
1929758.0,1780134978.526
1931275.0,1780134978.566
1932026.0,1780134978.607
1930337.0,1780134978.646
1927311.0,1780134978.687
1923933.0,1780134978.727
1921700.0,1780134978.766
1920100.0,1780134978.806
1919827.0,1780134978.847
1919907.0,1780134978.887
1919862.0,1780134978.926
1920100.0,1780134978.968
1920339.0,1780134979.007
1920376.0,1780134979.047
1921147.0,1780134979.088
1921778.0,1780134979.127
1923067.0,1780134979.167
1924251.0,1780134979.208
1925458.0,1780134979.247
1927199.0,1780134979.288
1927748.0,1780134979.328
1925640.0,1780134979.367
1922662.0,1780134979.407
1920010.0,1780134979.448
1918722.0,1780134979.488
1917872.0,1780134979.528
1917906.0,1780134979.569
1918435.0,1780134979.608
1919071.0,1780134979.648
1919465.0,1780134979.689
1919958.0,1780134979.728
1920713.0,1780134979.768
1921995.0,1780134979.809
1923356.0,1780134979.848
1924758.0,1780134979.889
1926402.0,1780134979.93
1928399.0,1780134979.969
1929721.0,1780134980.009
1928674.0,1780134980.051
1926372.0,1780134980.089
1924321.0,1780134980.128
1923182.0,1780134980.169
1922973.0,1780134980.209
1923273.0,1780134980.249
1924069.0,1780134980.292
1924949.0,1780134980.329
1925999.0,1780134980.37
1926769.0,1780134980.411
1927535.0,1780134980.45
1928515.0,1780134980.489
1929964.0,1780134980.529
1931424.0,1780134980.569
1933450.0,1780134980.609
1934906.0,1780134980.65
1936612.0,1780134980.69
1937227.0,1780134980.728
1935888.0,1780134980.77
1933231.0,1780134980.809
1931386.0,1780134980.849
1930402.0,1780134980.891
1929869.0,1780134980.93
1930157.0,1780134980.97
1930607.0,1780134981.011
1930882.0,1780134981.048
1931359.0,1780134981.089
1931855.0,1780134981.13
1932619.0,1780134981.169
1933243.0,1780134981.209
1934633.0,1780134981.251
1935871.0,1780134981.291
1937050.0,1780134981.33
1938262.0,1780134981.371
1939298.0,1780134981.411
1940577.0,1780134981.449
1939714.0,1780134981.491
1937533.0,1780134981.529
1935798.0,1780134981.569
1934072.0,1780134981.611
1933613.0,1780134981.65
1933622.0,1780134981.691
1934540.0,1780134981.731
1935332.0,1780134981.771
1935997.0,1780134981.811
1936800.0,1780134981.85
1937914.0,1780134981.89
1938816.0,1780134981.929
1940509.0,1780134981.971
1942292.0,1780134982.01
1944312.0,1780134982.05
1946278.0,1780134982.092
1948199.0,1780134982.131
1950449.0,1780134982.171
1951767.0,1780134982.212
1951098.0,1780134982.251
1949917.0,1780134982.292
1948931.0,1780134982.33
1948816.0,1780134982.369
1949235.0,1780134982.41
1950243.0,1780134982.451
1951188.0,1780134982.491
1952454.0,1780134982.53
1953667.0,1780134982.572
1954723.0,1780134982.611
1955775.0,1780134982.651
1957223.0,1780134982.691
1958710.0,1780134982.729
1960406.0,1780134982.77
1962239.0,1780134982.811
1964263.0,1780134982.85
1965745.0,1780134982.891
1967680.0,1780134982.932
1967851.0,1780134982.971
1966468.0,1780134983.011
1964883.0,1780134983.05
1963576.0,1780134983.09
1963012.0,1780134983.13
1963074.0,1780134983.171
1963595.0,1780134983.21
1964002.0,1780134983.251
1964594.0,1780134983.293
1965200.0,1780134983.331
1965606.0,1780134983.371
1966393.0,1780134983.411
1967261.0,1780134983.45
1968289.0,1780134983.491
1969576.0,1780134983.531
1970701.0,1780134983.571
1971686.0,1780134983.611
1973213.0,1780134983.652
1973090.0,1780134983.692
1971452.0,1780134983.732
1969200.0,1780134983.771
1967809.0,1780134983.81
1967306.0,1780134983.85
1966765.0,1780134983.892
1967499.0,1780134983.931
1968392.0,1780134983.971
1969311.0,1780134984.012
1970131.0,1780134984.052
1970796.0,1780134984.093
1971696.0,1780134984.131
1972796.0,1780134984.17
1974350.0,1780134984.21
1975723.0,1780134984.252
1976720.0,1780134984.292
1978385.0,1780134984.331
1979127.0,1780134984.372
1977595.0,1780134984.412
1975660.0,1780134984.452
1974307.0,1780134984.494
1973572.0,1780134984.53
1973640.0,1780134984.57
1973808.0,1780134984.612
1974210.0,1780134984.651
1974646.0,1780134984.692
1975221.0,1780134984.73
1975701.0,1780134984.769
1976594.0,1780134984.81
1977434.0,1780134984.851
1978104.0,1780134984.891
1979166.0,1780134984.931
1980274.0,1780134984.972
1981603.0,1780134985.011
1982163.0,1780134985.051
1980987.0,1780134985.093
1978136.0,1780134985.132
1975722.0,1780134985.172
1974511.0,1780134985.213
1972944.0,1780134985.251
1972463.0,1780134985.292
1972218.0,1780134985.332
1972296.0,1780134985.371
1971739.0,1780134985.453
1971976.0,1780134985.411
1971908.0,1780134985.493
1972104.0,1780134985.532
1973273.0,1780134985.613
1974604.0,1780134985.693
1972156.0,1780134985.574
1973760.0,1780134985.651
1972246.0,1780134985.771
1974445.0,1780134985.731
1967203.0,1780134985.852
1969538.0,1780134985.813
1965840.0,1780134985.893
1963962.0,1780134985.973
1964652.0,1780134985.933
1963821.0,1780134986.013
1963912.0,1780134986.052
1962805.0,1780134986.124
1963323.0,1780134986.204
1963026.0,1780134986.165
1963878.0,1780134986.244
1963428.0,1780134986.085
1965550.0,1780134986.324
1964466.0,1780134986.286
1966621.0,1780134986.365
1963551.0,1780134986.445
1965704.0,1780134986.406
1961732.0,1780134986.486
1960098.0,1780134986.526
1959438.0,1780134986.566
1959249.0,1780134986.606
1959772.0,1780134986.648
1960535.0,1780134986.726
1960463.0,1780134986.687
1960667.0,1780134986.768
1961225.0,1780134986.807
1961609.0,1780134986.848
1962545.0,1780134986.889
1963506.0,1780134986.928
1964721.0,1780134986.968
1965851.0,1780134987.009
1966798.0,1780134987.048
1965431.0,1780134987.089
1962981.0,1780134987.129
1960526.0,1780134987.168
1958683.0,1780134987.208
1957945.0,1780134987.249
1957030.0,1780134987.289
1956935.0,1780134987.328
1957397.0,1780134987.369
1956862.0,1780134987.408
1956818.0,1780134987.449
1957195.0,1780134987.49
1957615.0,1780134987.527
1958087.0,1780134987.567
1958807.0,1780134987.608
1959967.0,1780134987.647
1960775.0,1780134987.688
1961607.0,1780134987.729
1962289.0,1780134987.768
1960803.0,1780134987.808
1958233.0,1780134987.85
1955901.0,1780134987.888
1954299.0,1780134987.927
1952951.0,1780134987.968
1952370.0,1780134988.008
1952382.0,1780134988.048
1952004.0,1780134988.09
1952259.0,1780134988.128
1952290.0,1780134988.169
1952293.0,1780134988.21
1952522.0,1780134988.247
1953264.0,1780134988.288
1954205.0,1780134988.329
1955560.0,1780134988.368
1956687.0,1780134988.408
1957652.0,1780134988.449
1959048.0,1780134988.489
1959842.0,1780134988.529
1959036.0,1780134988.57
1957088.0,1780134988.607
1956162.0,1780134988.648
1955548.0,1780134988.69
1955719.0,1780134988.728
1956294.0,1780134988.768
1956733.0,1780134988.81
1957577.0,1780134988.849
1958467.0,1780134988.89
1959177.0,1780134988.93
1960308.0,1780134988.969
1961495.0,1780134989.009
1962556.0,1780134989.05
1963894.0,1780134989.09
1965355.0,1780134989.128
1966788.0,1780134989.169
1968516.0,1780134989.208
1970322.0,1780134989.248
1971058.0,1780134989.29
1969605.0,1780134989.329
1968439.0,1780134989.369
1967241.0,1780134989.41
1966641.0,1780134989.45
1966899.0,1780134989.488
1967199.0,1780134989.529
1967951.0,1780134989.568
1968982.0,1780134989.608
1969067.0,1780134989.65
1971144.0,1780134989.77
1969613.0,1780134989.69
1970392.0,1780134989.729
1972332.0,1780134989.81
1974881.0,1780134989.889
1973830.0,1780134989.847
1977697.0,1780134989.967
1976224.0,1780134989.927
1979128.0,1780134990.009
1980196.0,1780134990.048
1979661.0,1780134990.089
1978169.0,1780134990.129
1976618.0,1780134990.168
1975871.0,1780134990.208
1975509.0,1780134990.25
1975646.0,1780134990.29
1975992.0,1780134990.329
1976347.0,1780134990.37
1976564.0,1780134990.41
1976918.0,1780134990.45
1977427.0,1780134990.492
1978008.0,1780134990.53
1979126.0,1780134990.568
1980110.0,1780134990.61
1981661.0,1780134990.649
1983034.0,1780134990.69
1984276.0,1780134990.73
1985516.0,1780134990.769
1987043.0,1780134990.81
1986462.0,1780134990.851
1985090.0,1780134990.891
1984288.0,1780134990.929
1984244.0,1780134990.971
1984113.0,1780134991.01
1985024.0,1780134991.05
1986024.0,1780134991.092
1986749.0,1780134991.129
1987698.0,1780134991.169
1988536.0,1780134991.21
1989182.0,1780134991.249
1990312.0,1780134991.29
1991430.0,1780134991.331
1992634.0,1780134991.37
1993686.0,1780134991.41
1995054.0,1780134991.452
1996188.0,1780134991.489
1996722.0,1780134991.529
1995434.0,1780134991.57
1993809.0,1780134991.61
1992660.0,1780134991.65
1991793.0,1780134991.692
1991481.0,1780134991.73
1991506.0,1780134991.77
1991652.0,1780134991.812
1991942.0,1780134991.849
1992173.0,1780134991.89
1992211.0,1780134991.93
1993004.0,1780134991.97
1993880.0,1780134992.01
1995261.0,1780134992.051
1996621.0,1780134992.091
1997597.0,1780134992.131
1998920.0,1780134992.172
2000175.0,1780134992.209
2000113.0,1780134992.249
1998431.0,1780134992.291
1996800.0,1780134992.33
1995915.0,1780134992.37
1995054.0,1780134992.448
1995296.0,1780134992.409
1995386.0,1780134992.49
1995560.0,1780134992.531
1995672.0,1780134992.569
1996433.0,1780134992.651
1996015.0,1780134992.609
1996591.0,1780134992.691
1997223.0,1780134992.73
1998552.0,1780134992.811
2000409.0,1780134992.893
1997802.0,1780134992.771
1999339.0,1780134992.851
2000681.0,1780134992.931
1994435.0,1780134993.091
1999192.0,1780134992.97
1994041.0,1780134993.131
1995600.0,1780134993.05
1997095.0,1780134993.011
1994160.0,1780134993.171
1994283.0,1780134993.211
1994982.0,1780134993.292
1994387.0,1780134993.252
1995051.0,1780134993.332
1995624.0,1780134993.371
1996974.0,1780134993.45
1996317.0,1780134993.41
1998401.0,1780134993.531
1998959.0,1780134993.571
1997640.0,1780134993.492
1998493.0,1780134993.612
1994131.0,1780134993.692
1992581.0,1780134993.731
1996390.0,1780134993.651
1991988.0,1780134993.77
1991305.0,1780134993.81
1991527.0,1780134993.852
1991775.0,1780134993.892
1991828.0,1780134993.931
1992068.0,1780134993.972
1992078.0,1780134994.012
1992607.0,1780134994.052
1993433.0,1780134994.13
1993027.0,1780134994.092
1994288.0,1780134994.171
1995208.0,1780134994.212
1995150.0,1780134994.251
1993260.0,1780134994.292
1990828.0,1780134994.333
1988676.0,1780134994.372
1987333.0,1780134994.412
1986090.0,1780134994.453
1986124.0,1780134994.491
1985682.0,1780134994.531
1985795.0,1780134994.572
1985371.0,1780134994.611
1985424.0,1780134994.693
1985532.0,1780134994.732
1985111.0,1780134994.651
1985738.0,1780134994.772
1986597.0,1780134994.813
1987067.0,1780134994.85
1987693.0,1780134994.891
1986588.0,1780134994.932
1984017.0,1780134994.97
1981064.0,1780134995.01
1978495.0,1780134995.051
1976808.0,1780134995.091
1975647.0,1780134995.13
1974930.0,1780134995.172
1974311.0,1780134995.211
1973734.0,1780134995.251
1973304.0,1780134995.293
1973022.0,1780134995.371
1972717.0,1780134995.331
1972751.0,1780134995.413
1973350.0,1780134995.452
1974147.0,1780134995.493
1974595.0,1780134995.533
1975381.0,1780134995.573
1974199.0,1780134995.611
1971336.0,1780134995.652
1968566.0,1780134995.692
1966165.0,1780134995.732
1964124.0,1780134995.773
1962453.0,1780134995.852
1962374.0,1780134995.894
1962815.0,1780134995.812
1962092.0,1780134995.933
1962359.0,1780134995.971
1962441.0,1780134996.012
1962935.0,1780134996.051
1963721.0,1780134996.092
1964356.0,1780134996.133
1965222.0,1780134996.172
1966181.0,1780134996.212
1965100.0,1780134996.294
1966631.0,1780134996.254
1962690.0,1780134996.333
1960052.0,1780134996.372
1958582.0,1780134996.411
1957434.0,1780134996.452
1956829.0,1780134996.494
1957095.0,1780134996.532
1957315.0,1780134996.572
1957262.0,1780134996.614
1957358.0,1780134996.653
1957294.0,1780134996.694
1957574.0,1780134996.732
1958319.0,1780134996.772
1958860.0,1780134996.812
1959914.0,1780134996.853
1960615.0,1780134996.893
1961393.0,1780134996.933
1961307.0,1780134996.974
1958566.0,1780134997.013
1955677.0,1780134997.053
1953082.0,1780134997.093
1950802.0,1780134997.132
1949429.0,1780134997.172
1948743.0,1780134997.213
1948584.0,1780134997.253
1948109.0,1780134997.294
1947637.0,1780134997.334
1947567.0,1780134997.373
1947419.0,1780134997.413
1947452.0,1780134997.453
1948042.0,1780134997.493
1948717.0,1780134997.532
1949677.0,1780134997.573
1950687.0,1780134997.612
1951840.0,1780134997.653
1953259.0,1780134997.695
1952319.0,1780134997.733
1949742.0,1780134997.773
1947710.0,1780134997.815
1945774.0,1780134997.854
1944616.0,1780134997.893
1944033.0,1780134997.933
1943498.0,1780134997.972
1943114.0,1780134998.013
1942700.0,1780134998.054
1942101.0,1780134998.097
1941331.0,1780134998.136
1941138.0,1780134998.177
1941164.0,1780134998.216
1941223.0,1780134998.256
1941918.0,1780134998.298
1942509.0,1780134998.336
1943267.0,1780134998.376
1944394.0,1780134998.417
1944292.0,1780134998.456
1942961.0,1780134998.497
1940771.0,1780134998.537
1939552.0,1780134998.576
1939466.0,1780134998.618
1939564.0,1780134998.658
1940506.0,1780134998.698
1941497.0,1780134998.738
1942554.0,1780134998.779
1943464.0,1780134998.818
1944791.0,1780134998.858
1946350.0,1780134998.9
1947886.0,1780134998.939
1949760.0,1780134998.979
1951480.0,1780134999.02
1953077.0,1780134999.06
1954968.0,1780134999.098
1956842.0,1780134999.139
1957503.0,1780134999.178
1956551.0,1780134999.218
1955146.0,1780134999.26
1954207.0,1780134999.299
1953710.0,1780134999.339
1953783.0,1780134999.38
1954410.0,1780134999.419
1955422.0,1780134999.46
1957079.0,1780134999.5
1958453.0,1780134999.538
1959506.0,1780134999.578
1960751.0,1780134999.62
1962117.0,1780134999.659
1963075.0,1780134999.7
1964478.0,1780134999.74
1965844.0,1780134999.779
1967071.0,1780134999.82
1968473.0,1780134999.859
1969718.0,1780134999.899
1969317.0,1780134999.938
1967691.0,1780134999.98
1966501.0,1780135000.019
1965252.0,1780135000.059
1964355.0,1780135000.106
1964105.0,1780135000.144
1963995.0,1780135000.184
1963968.0,1780135000.225
1963968.0,1780135000.264
1964000.0,1780135000.305
1964330.0,1780135000.346
1964854.0,1780135000.385
1965748.0,1780135000.425
1966806.0,1780135000.466
1968225.0,1780135000.505
1969368.0,1780135000.545
1970933.0,1780135000.586
1972119.0,1780135000.625
1973407.0,1780135000.665
1972485.0,1780135000.707
1971447.0,1780135000.745
1970977.0,1780135000.785
1970809.0,1780135000.822
1971469.0,1780135000.858
1972276.0,1780135000.899
1973270.0,1780135000.94
1974417.0,1780135000.979
1975339.0,1780135001.019
1976344.0,1780135001.061
1977527.0,1780135001.101
1979255.0,1780135001.14
1980704.0,1780135001.182
1982707.0,1780135001.219
1984437.0,1780135001.259
1985888.0,1780135001.301
1988049.0,1780135001.339
1988522.0,1780135001.38
1987494.0,1780135001.421
1986987.0,1780135001.46
1986289.0,1780135001.501
1986331.0,1780135001.542
1986860.0,1780135001.581
1987632.0,1780135001.619
1988171.0,1780135001.66
1988801.0,1780135001.7
1989540.0,1780135001.74
1990196.0,1780135001.781
1990953.0,1780135001.82
1991728.0,1780135001.86
1993023.0,1780135001.902
1993665.0,1780135001.941
1994980.0,1780135001.979
1996085.0,1780135002.02
1997219.0,1780135002.06
1997412.0,1780135002.101
1995843.0,1780135002.141
1994514.0,1780135002.18
1993421.0,1780135002.22
1992580.0,1780135002.262
1992329.0,1780135002.302
1992653.0,1780135002.339
1992745.0,1780135002.38
1992892.0,1780135002.42
1992941.0,1780135002.46
1992754.0,1780135002.502
1993197.0,1780135002.54
1993635.0,1780135002.581
1993970.0,1780135002.622
1994349.0,1780135002.661
1994996.0,1780135002.702
1995784.0,1780135002.742
1996224.0,1780135002.779
1997106.0,1780135002.82
1996457.0,1780135002.861
1994698.0,1780135002.901
1993112.0,1780135002.94
1992467.0,1780135002.982
1991916.0,1780135003.021
1991737.0,1780135003.061
1992361.0,1780135003.103
1992627.0,1780135003.14
1993202.0,1780135003.18
1993577.0,1780135003.221
1994050.0,1780135003.26
1994712.0,1780135003.301
1995460.0,1780135003.342
1996509.0,1780135003.381
1997403.0,1780135003.421
1998258.0,1780135003.463
1999587.0,1780135003.502
2000371.0,1780135003.54
1999321.0,1780135003.581
1997715.0,1780135003.62
1996472.0,1780135003.661
1995639.0,1780135003.703
1995491.0,1780135003.741
1995783.0,1780135003.781
1995847.0,1780135003.823
1996502.0,1780135003.862
1996787.0,1780135003.901
1997095.0,1780135003.941
1997640.0,1780135003.98
1998199.0,1780135004.02
1999084.0,1780135004.061
1999541.0,1780135004.101
2000733.0,1780135004.141
2001470.0,1780135004.182
2002483.0,1780135004.221
2003712.0,1780135004.262
2003574.0,1780135004.303
2001408.0,1780135004.342
1999673.0,1780135004.38
1998085.0,1780135004.422
1997034.0,1780135004.461
1996139.0,1780135004.502
1995877.0,1780135004.542
1996044.0,1780135004.581
1995675.0,1780135004.622
1995308.0,1780135004.663
1994716.0,1780135004.703
1994558.0,1780135004.74
1994909.0,1780135004.782
1995056.0,1780135004.821
1995704.0,1780135004.861
1996533.0,1780135004.903
1997002.0,1780135004.942
1997783.0,1780135004.982
1997586.0,1780135005.023
1995561.0,1780135005.062
1993398.0,1780135005.101
1991303.0,1780135005.142
1989895.0,1780135005.181
1989221.0,1780135005.22
1988382.0,1780135005.261
1988308.0,1780135005.301
1988160.0,1780135005.34
1987905.0,1780135005.381
1987894.0,1780135005.421
1987207.0,1780135005.461
1987096.0,1780135005.503
1987268.0,1780135005.541
1986939.0,1780135005.581
1987275.0,1780135005.623
1987389.0,1780135005.662
1985717.0,1780135005.703
1983086.0,1780135005.743
1979806.0,1780135005.782
1977579.0,1780135005.823
1976183.0,1780135005.862
1975130.0,1780135005.902
1975021.0,1780135005.941
1974725.0,1780135005.983
1974719.0,1780135006.022
1974314.0,1780135006.062
1974394.0,1780135006.104
1974676.0,1780135006.143
1974827.0,1780135006.183
1975440.0,1780135006.222
1975859.0,1780135006.261
1976659.0,1780135006.302
1976064.0,1780135006.343
1973671.0,1780135006.382
1970563.0,1780135006.422
1967717.0,1780135006.464
1965717.0,1780135006.503
1964102.0,1780135006.543
1963387.0,1780135006.584
1962851.0,1780135006.621
1962101.0,1780135006.662
1961865.0,1780135006.704
1960974.0,1780135006.742
1960726.0,1780135006.782
1960511.0,1780135006.824
1960533.0,1780135006.863
1960818.0,1780135006.904
1961061.0,1780135006.944
1960660.0,1780135006.984
1958240.0,1780135007.022
1954279.0,1780135007.063
1950656.0,1780135007.103
1947600.0,1780135007.142
1944917.0,1780135007.184
1943112.0,1780135007.223
1942183.0,1780135007.263
1941140.0,1780135007.305
1940113.0,1780135007.344
1939161.0,1780135007.382
1938452.0,1780135007.423
1937802.0,1780135007.462
1937594.0,1780135007.503
1938179.0,1780135007.544
1937768.0,1780135007.583
1938143.0,1780135007.623
1937320.0,1780135007.665
1933920.0,1780135007.704
1929570.0,1780135007.742
1925500.0,1780135007.783
1922646.0,1780135007.822
1920355.0,1780135007.862
1919652.0,1780135007.904
1918983.0,1780135007.943
1918699.0,1780135007.983
1918574.0,1780135008.024
1918650.0,1780135008.064
1918968.0,1780135008.105
1919812.0,1780135008.143
1920575.0,1780135008.182
1921851.0,1780135008.223
1922628.0,1780135008.264
1924100.0,1780135008.304
1924126.0,1780135008.343
1921714.0,1780135008.385
1918426.0,1780135008.424
1915128.0,1780135008.464
1912477.0,1780135008.506
1910903.0,1780135008.542
1910055.0,1780135008.583
1909688.0,1780135008.624
1909570.0,1780135008.663
1909325.0,1780135008.704
1909091.0,1780135008.745
1909264.0,1780135008.784
1909723.0,1780135008.824
1910200.0,1780135008.865
1910892.0,1780135008.903
1911900.0,1780135008.943
1912777.0,1780135008.984
1913871.0,1780135009.023
1913436.0,1780135009.064
1910655.0,1780135009.106
1906817.0,1780135009.144
1903304.0,1780135009.184
1900849.0,1780135009.226
1898374.0,1780135009.263
1897515.0,1780135009.304
1896841.0,1780135009.344
1896658.0,1780135009.383
1896094.0,1780135009.424
1895760.0,1780135009.465
1896023.0,1780135009.505
1896300.0,1780135009.544
1896702.0,1780135009.586
1897725.0,1780135009.625
1898702.0,1780135009.663
1899908.0,1780135009.705
1901041.0,1780135009.743
1902631.0,1780135009.784
1902514.0,1780135009.825
1900664.0,1780135009.864
1897800.0,1780135009.905
1895638.0,1780135009.946
1893677.0,1780135009.985
1893125.0,1780135010.025
1892994.0,1780135010.064
1893763.0,1780135010.104
1894419.0,1780135010.143
1894194.0,1780135010.184
1894915.0,1780135010.223
1895254.0,1780135010.263
1896222.0,1780135010.306
1897609.0,1780135010.344
1899665.0,1780135010.384
1901447.0,1780135010.425
1903134.0,1780135010.464
1905270.0,1780135010.505
1906663.0,1780135010.545
1906123.0,1780135010.585
1904061.0,1780135010.625
1902124.0,1780135010.667
1900611.0,1780135010.706
1899913.0,1780135010.746
1899889.0,1780135010.787
1900066.0,1780135010.826
1900913.0,1780135010.866
1901784.0,1780135010.908
1902289.0,1780135010.947
1903363.0,1780135010.987
1904370.0,1780135011.028
1905974.0,1780135011.068
1907338.0,1780135011.106
1909044.0,1780135011.147
1910978.0,1780135011.186
1912849.0,1780135011.226
1914763.0,1780135011.268
1916684.0,1780135011.307
1916976.0,1780135011.347
1915330.0,1780135011.388
1912992.0,1780135011.427
1911252.0,1780135011.468
1909994.0,1780135011.508
1909428.0,1780135011.546
1909656.0,1780135011.586
1909996.0,1780135011.628
1910649.0,1780135011.667
1911419.0,1780135011.708
1911710.0,1780135011.748
1912822.0,1780135011.788
1913823.0,1780135011.828
1914921.0,1780135011.869
1916806.0,1780135011.907
1918420.0,1780135011.946
1919951.0,1780135011.988
1921302.0,1780135012.027
1922999.0,1780135012.067
1924711.0,1780135012.109
1924394.0,1780135012.148
1922790.0,1780135012.188
1920853.0,1780135012.229
1919519.0,1780135012.266
1919133.0,1780135012.307
1919374.0,1780135012.348
1920165.0,1780135012.387
1921256.0,1780135012.427
1922030.0,1780135012.468
1923460.0,1780135012.508
1924143.0,1780135012.548
1925648.0,1780135012.589
1926953.0,1780135012.628
1928938.0,1780135012.666
1930546.0,1780135012.708
1932529.0,1780135012.747
1934451.0,1780135012.787
1936360.0,1780135012.828
1938117.0,1780135012.868
1938370.0,1780135012.906
1937139.0,1780135012.947
1935731.0,1780135012.986
1935509.0,1780135013.026
1935557.0,1780135013.068
1935767.0,1780135013.108
1936807.0,1780135013.147
1937526.0,1780135013.188
1938692.0,1780135013.227
1940628.0,1780135013.309
1939384.0,1780135013.267
1941514.0,1780135013.348
1942825.0,1780135013.388
1944221.0,1780135013.429
1945774.0,1780135013.469
1948929.0,1780135013.548
1952468.0,1780135013.627
1947263.0,1780135013.509
1952956.0,1780135013.669
1951939.0,1780135013.709
1950624.0,1780135013.587
1950425.0,1780135013.745
1948542.0,1780135013.825
1949059.0,1780135013.786
1948209.0,1780135013.865
1948537.0,1780135013.907
1948674.0,1780135013.946
1949165.0,1780135014.027
1949097.0,1780135013.986
1949487.0,1780135014.066
1949563.0,1780135014.107
1950240.0,1780135014.147
1950467.0,1780135014.186
1951475.0,1780135014.226
1952025.0,1780135014.267
1952829.0,1780135014.307
1953270.0,1780135014.346
1953704.0,1780135014.387
1954160.0,1780135014.427
1952887.0,1780135014.468
1950880.0,1780135014.509
1949183.0,1780135014.547
1948333.0,1780135014.588
1947875.0,1780135014.629
1948254.0,1780135014.668
1949226.0,1780135014.709
1950399.0,1780135014.75
1950957.0,1780135014.789
1951901.0,1780135014.829
1953013.0,1780135014.87
1954406.0,1780135014.91
1955707.0,1780135014.948
1957160.0,1780135014.989
1958655.0,1780135015.028
1960310.0,1780135015.068
1961862.0,1780135015.11
1963422.0,1780135015.149
1963152.0,1780135015.189
1961950.0,1780135015.23
1960759.0,1780135015.27
1959740.0,1780135015.309
1959286.0,1780135015.349
1959442.0,1780135015.388
1959734.0,1780135015.428
1960241.0,1780135015.469
1960968.0,1780135015.509
1961831.0,1780135015.549
1961926.0,1780135015.59
1962738.0,1780135015.629
1963533.0,1780135015.67
1964370.0,1780135015.712
1965372.0,1780135015.75
1966875.0,1780135015.788
1967591.0,1780135015.829
1968724.0,1780135015.868
1969151.0,1780135015.909
1967319.0,1780135015.95
1965256.0,1780135015.989
1962899.0,1780135016.029
1961372.0,1780135016.071
1960076.0,1780135016.111
1959501.0,1780135016.15
1959501.0,1780135016.189
1958711.0,1780135016.228
1958370.0,1780135016.269
1957752.0,1780135016.311
1957654.0,1780135016.349
1957400.0,1780135016.39
1957545.0,1780135016.431
1958315.0,1780135016.47
1958946.0,1780135016.511
1959477.0,1780135016.549
1960158.0,1780135016.589
1960960.0,1780135016.629
1959806.0,1780135016.67
1957330.0,1780135016.71
1955116.0,1780135016.75
1953435.0,1780135016.791
1952305.0,1780135016.83
1951823.0,1780135016.87
1951779.0,1780135016.91
1952200.0,1780135016.949
1952200.0,1780135016.989
1952322.0,1780135017.03
1952371.0,1780135017.07
1952646.0,1780135017.111
1953406.0,1780135017.151
1954199.0,1780135017.19
1955264.0,1780135017.231
1955824.0,1780135017.272
1957395.0,1780135017.31
1957165.0,1780135017.349
1955424.0,1780135017.39
1952975.0,1780135017.43
1951001.0,1780135017.47
1949533.0,1780135017.512
1948927.0,1780135017.55
1948463.0,1780135017.59
1948845.0,1780135017.632
1948890.0,1780135017.669
1948881.0,1780135017.71
1948937.0,1780135017.75
1949124.0,1780135017.79
1949604.0,1780135017.83
1950232.0,1780135017.871
1951112.0,1780135017.911
1952063.0,1780135017.951
1953013.0,1780135017.992
1953594.0,1780135018.031
1952364.0,1780135018.071
1949285.0,1780135018.113
1946611.0,1780135018.151
1943970.0,1780135018.191
1941941.0,1780135018.23
1940765.0,1780135018.27
1939926.0,1780135018.31
1939774.0,1780135018.351
1939574.0,1780135018.39
1938953.0,1780135018.43
1938580.0,1780135018.472
1938772.0,1780135018.512
1938944.0,1780135018.551
1939469.0,1780135018.59
1939657.0,1780135018.63
1940237.0,1780135018.67
1941112.0,1780135018.712
1941250.0,1780135018.75
1939108.0,1780135018.791
1935591.0,1780135018.832
1932305.0,1780135018.871
1930001.0,1780135018.912
1928304.0,1780135018.951
1927068.0,1780135018.99
1926540.0,1780135019.03
1925966.0,1780135019.071
1925827.0,1780135019.111
1925158.0,1780135019.15
1925068.0,1780135019.191
1924731.0,1780135019.231
1924918.0,1780135019.271
1925368.0,1780135019.313
1925981.0,1780135019.351
1927035.0,1780135019.392
1927682.0,1780135019.431
1928641.0,1780135019.47
1927310.0,1780135019.511
1924069.0,1780135019.552
1920915.0,1780135019.591
1918228.0,1780135019.631
1916628.0,1780135019.672
1915633.0,1780135019.712
1915047.0,1780135019.752
1914989.0,1780135019.791
1915033.0,1780135019.83
1914930.0,1780135019.871
1915025.0,1780135019.913
1915319.0,1780135019.951
1916177.0,1780135019.991
1917214.0,1780135020.033
1918503.0,1780135020.072
1920156.0,1780135020.113
1921460.0,1780135020.151
1922029.0,1780135020.19
1919786.0,1780135020.231
1916330.0,1780135020.272
1913199.0,1780135020.312
1910678.0,1780135020.351
1908856.0,1780135020.393
1907995.0,1780135020.432
1907055.0,1780135020.472
1906428.0,1780135020.514
1905744.0,1780135020.55
1905054.0,1780135020.59
1904467.0,1780135020.632
1904010.0,1780135020.671
1903955.0,1780135020.711
1904202.0,1780135020.752
1904877.0,1780135020.791
1905493.0,1780135020.831
1906070.0,1780135020.873
1905373.0,1780135020.912
1902169.0,1780135020.952
1898411.0,1780135020.993
1894656.0,1780135021.033
1892132.0,1780135021.071
1890120.0,1780135021.113
1889386.0,1780135021.151
1889068.0,1780135021.191
1888815.0,1780135021.233
1888888.0,1780135021.272
1888806.0,1780135021.313
1888197.0,1780135021.353
1888341.0,1780135021.393
1889125.0,1780135021.433
1890639.0,1780135021.472
1892068.0,1780135021.512
1893669.0,1780135021.551
1894481.0,1780135021.593
1895052.0,1780135021.632
1893073.0,1780135021.672
1889188.0,1780135021.714
1885257.0,1780135021.753
1882259.0,1780135021.793
1879911.0,1780135021.832
1878477.0,1780135021.871
1878018.0,1780135021.912
1878416.0,1780135021.953
1878314.0,1780135021.992
1878624.0,1780135022.032
1878880.0,1780135022.074
1879382.0,1780135022.106
1880219.0,1780135022.146
1881681.0,1780135022.187
1883260.0,1780135022.226
1884721.0,1780135022.266
1886241.0,1780135022.308
1887413.0,1780135022.346
1886080.0,1780135022.386
1882248.0,1780135022.427
1878698.0,1780135022.466
1876304.0,1780135022.507
1874646.0,1780135022.547
1873573.0,1780135022.586
1873407.0,1780135022.626
1872819.0,1780135022.667
1872122.0,1780135022.707
1871365.0,1780135022.747
1870395.0,1780135022.788
1870030.0,1780135022.827
1869872.0,1780135022.867
1870282.0,1780135022.909
1871091.0,1780135022.948
1871583.0,1780135022.988
1872627.0,1780135023.029
1871871.0,1780135023.068
1868364.0,1780135023.109
1864437.0,1780135023.15
1861160.0,1780135023.189
1858756.0,1780135023.229
1857502.0,1780135023.27
1856775.0,1780135023.309
1857035.0,1780135023.349
1857298.0,1780135023.388
1857805.0,1780135023.427
1857947.0,1780135023.467
1858458.0,1780135023.509
1859356.0,1780135023.548
1860359.0,1780135023.588
1861911.0,1780135023.629
1863629.0,1780135023.669
1865282.0,1780135023.71
1867123.0,1780135023.748
1867210.0,1780135023.787
1864377.0,1780135023.828
1860258.0,1780135023.869
1856710.0,1780135023.909
1853747.0,1780135023.948
1851708.0,1780135023.99
1850563.0,1780135024.029
1850464.0,1780135024.069
1850722.0,1780135024.109
1850586.0,1780135024.148
1850851.0,1780135024.188
1850925.0,1780135024.229
1851189.0,1780135024.268
1852338.0,1780135024.309
1853602.0,1780135024.35
1855397.0,1780135024.389
1856891.0,1780135024.429
1858708.0,1780135024.469
1859676.0,1780135024.508
1857481.0,1780135024.548
1853462.0,1780135024.589
1849890.0,1780135024.628
1847521.0,1780135024.669
1846004.0,1780135024.711
1845845.0,1780135024.749
1846168.0,1780135024.789
1846886.0,1780135024.829
1847372.0,1780135024.868
1847475.0,1780135024.909
1847590.0,1780135024.949
1848248.0,1780135024.989
1848959.0,1780135025.029
1849564.0,1780135025.07
1850291.0,1780135025.11
1850608.0,1780135025.15
1850562.0,1780135025.189
1847170.0,1780135025.228
1841682.0,1780135025.268
1836671.0,1780135025.31
1832866.0,1780135025.349
1830417.0,1780135025.389
1829077.0,1780135025.43
1828796.0,1780135025.47
1828971.0,1780135025.511
1829003.0,1780135025.549
1829535.0,1780135025.588
1829929.0,1780135025.628
1830687.0,1780135025.67
1832109.0,1780135025.709
1833639.0,1780135025.749
1834911.0,1780135025.79
1836746.0,1780135025.829
1837520.0,1780135025.87
1834759.0,1780135025.912
1830268.0,1780135025.95
1825795.0,1780135025.99
1822725.0,1780135026.029
1820145.0,1780135026.068
1819100.0,1780135026.109
1818804.0,1780135026.15
1818804.0,1780135026.189
1818955.0,1780135026.229
1818815.0,1780135026.271
1819154.0,1780135026.311
1819933.0,1780135026.35
1820589.0,1780135026.391
1821907.0,1780135026.428
1823548.0,1780135026.469
1825348.0,1780135026.511
1825949.0,1780135026.549
1823041.0,1780135026.589
1818188.0,1780135026.631
1813881.0,1780135026.67
1810345.0,1780135026.709
1808302.0,1780135026.746
1807140.0,1780135026.785
1807193.0,1780135026.825
1807862.0,1780135026.866
1808276.0,1780135026.906
1808605.0,1780135026.945
1809176.0,1780135026.987
1810241.0,1780135027.026
1811679.0,1780135027.066
1812987.0,1780135027.108
1814803.0,1780135027.146
1816574.0,1780135027.186
1817992.0,1780135027.227
1816150.0,1780135027.266
1811366.0,1780135027.307
1806513.0,1780135027.348
1803124.0,1780135027.387
1800754.0,1780135027.426
1799543.0,1780135027.468
1799925.0,1780135027.507
1800635.0,1780135027.547
1800911.0,1780135027.589
1801518.0,1780135027.629
1802633.0,1780135027.669
1804523.0,1780135027.711
1806660.0,1780135027.749
1809334.0,1780135027.789
1811994.0,1780135027.83
1814685.0,1780135027.87
1817385.0,1780135027.911
1818649.0,1780135027.951
1816495.0,1780135027.99
1812785.0,1780135028.031
1809493.0,1780135028.072
1807026.0,1780135028.112
1805898.0,1780135028.149
1805569.0,1780135028.191
1806610.0,1780135028.23
1807501.0,1780135028.27
1808726.0,1780135028.312
1809614.0,1780135028.35
1811019.0,1780135028.39
1812981.0,1780135028.431
1814956.0,1780135028.47
1817307.0,1780135028.511
1819821.0,1780135028.552
1822319.0,1780135028.591
1825204.0,1780135028.631
1827739.0,1780135028.672
1828729.0,1780135028.71
1827061.0,1780135028.75
1823714.0,1780135028.791
1821517.0,1780135028.83
1819722.0,1780135028.871
1819178.0,1780135028.913
1819788.0,1780135028.951
1821264.0,1780135028.991
1822840.0,1780135029.033
1824543.0,1780135029.07
1825958.0,1780135029.111
1827588.0,1780135029.151
1829808.0,1780135029.191
1832130.0,1780135029.231
1834527.0,1780135029.272
1836787.0,1780135029.312
1839105.0,1780135029.351
1841110.0,1780135029.393
1843054.0,1780135029.432
1845274.0,1780135029.47
1845307.0,1780135029.512
1843117.0,1780135029.55
1841492.0,1780135029.591
1840524.0,1780135029.632
1840934.0,1780135029.671
1841782.0,1780135029.712
1843767.0,1780135029.753
1846054.0,1780135029.792
1847789.0,1780135029.832
1849730.0,1780135029.871
1851790.0,1780135029.911
1854348.0,1780135029.951
1856616.0,1780135029.992
1859713.0,1780135030.031
1862892.0,1780135030.072
1865778.0,1780135030.113
1868688.0,1780135030.152
1871771.0,1780135030.192
1874995.0,1780135030.231
1875506.0,1780135030.271
1874423.0,1780135030.312
1873305.0,1780135030.352
1872801.0,1780135030.391
1873183.0,1780135030.432
1874067.0,1780135030.473
1875458.0,1780135030.513
1877658.0,1780135030.552
1879332.0,1780135030.594
1881018.0,1780135030.631
1882842.0,1780135030.671
1884719.0,1780135030.713
1887040.0,1780135030.751
1889386.0,1780135030.792
1891979.0,1780135030.833
1894825.0,1780135030.872
1897079.0,1780135030.913
1899615.0,1780135030.953
1902153.0,1780135030.993
1904738.0,1780135031.031
1905242.0,1780135031.072
1903954.0,1780135031.112
1903068.0,1780135031.152
1902263.0,1780135031.193
1902472.0,1780135031.232
1902937.0,1780135031.272
1904165.0,1780135031.314
1905456.0,1780135031.353
1906461.0,1780135031.391
1907700.0,1780135031.432
1908692.0,1780135031.471
1909790.0,1780135031.512
1911369.0,1780135031.553
1912581.0,1780135031.592
1914321.0,1780135031.632
1915680.0,1780135031.674
1917773.0,1780135031.714
1919663.0,1780135031.753
1921461.0,1780135031.792
1923471.0,1780135031.831
1922998.0,1780135031.872
1921859.0,1780135031.914
1921588.0,1780135031.952
1922029.0,1780135031.992
1922710.0,1780135032.034
1923873.0,1780135032.073
1925364.0,1780135032.114
1926892.0,1780135032.152
1928328.0,1780135032.192
1929846.0,1780135032.232
1931173.0,1780135032.273
1932781.0,1780135032.313
1934849.0,1780135032.353
1936899.0,1780135032.394
1939098.0,1780135032.433
1941152.0,1780135032.473
1943275.0,1780135032.513
1945430.0,1780135032.552
1947394.0,1780135032.592
1947463.0,1780135032.633
1946308.0,1780135032.673
1945114.0,1780135032.714
1944713.0,1780135032.754
1944859.0,1780135032.793
1945490.0,1780135032.834
1946415.0,1780135032.873
1947463.0,1780135032.913
1948727.0,1780135032.952
1949300.0,1780135032.994
1950082.0,1780135033.033
1951263.0,1780135033.073
1952424.0,1780135033.115
1953878.0,1780135033.154
1955588.0,1780135033.194
1957188.0,1780135033.233
1959290.0,1780135033.272
1960757.0,1780135033.313
1962468.0,1780135033.354
1962894.0,1780135033.393
1960912.0,1780135033.433
1958829.0,1780135033.474
1957496.0,1780135033.513
1956415.0,1780135033.553
1955378.0,1780135033.594
1955479.0,1780135033.633
1955471.0,1780135033.674
1955560.0,1780135033.716
1955819.0,1780135033.754
1956092.0,1780135033.792
1956414.0,1780135033.833
1957100.0,1780135033.873
1957616.0,1780135033.914
1958764.0,1780135033.954
1959765.0,1780135033.993
1961094.0,1780135034.033
1962813.0,1780135034.074
1963972.0,1780135034.115
1962905.0,1780135034.154
1960953.0,1780135034.195
1959739.0,1780135034.234
1958736.0,1780135034.274
1958356.0,1780135034.316
1957961.0,1780135034.354
1958508.0,1780135034.395
1959107.0,1780135034.436
1959429.0,1780135034.475
1959708.0,1780135034.515
1959954.0,1780135034.556
1960699.0,1780135034.596
1961463.0,1780135034.636
1962892.0,1780135034.677
1964290.0,1780135034.717
1965113.0,1780135034.756
1966541.0,1780135034.797
1966008.0,1780135034.837
1963701.0,1780135034.877
1961328.0,1780135034.919
1959086.0,1780135034.957
1957982.0,1780135034.998
1957339.0,1780135035.037
1957224.0,1780135035.076
1957043.0,1780135035.117
1957409.0,1780135035.158
1957172.0,1780135035.197
1957262.0,1780135035.237
1957249.0,1780135035.278
1957714.0,1780135035.318
1958331.0,1780135035.358
1958810.0,1780135035.399
1959279.0,1780135035.436
1960287.0,1780135035.476
1959983.0,1780135035.518
1957322.0,1780135035.557
1953354.0,1780135035.597
1950327.0,1780135035.638
1947477.0,1780135035.678
1945753.0,1780135035.719
1944648.0,1780135035.759
1944078.0,1780135035.796
1943612.0,1780135035.836
1942810.0,1780135035.878
1942155.0,1780135035.918
1941911.0,1780135035.957
1941904.0,1780135035.998
1942278.0,1780135036.037
1943111.0,1780135036.078
1943411.0,1780135036.12
1944056.0,1780135036.158
1943789.0,1780135036.196
1941282.0,1780135036.238
1937395.0,1780135036.277
1933690.0,1780135036.318
1930831.0,1780135036.358
1928784.0,1780135036.398
1927602.0,1780135036.438
1926509.0,1780135036.479
1925914.0,1780135036.519
1925201.0,1780135036.559
1924716.0,1780135036.598
1923821.0,1780135036.637
1923800.0,1780135036.677
1924048.0,1780135036.719
1924661.0,1780135036.758
1924916.0,1780135036.798
1925591.0,1780135036.839
1925577.0,1780135036.878
1922738.0,1780135036.919
1918840.0,1780135036.958
1915388.0,1780135036.997
1912802.0,1780135037.037
1911394.0,1780135037.079
1911091.0,1780135037.118
1910818.0,1780135037.158
1910665.0,1780135037.239
1910756.0,1780135037.199
1910419.0,1780135037.279
1910598.0,1780135037.319
1911179.0,1780135037.357
1912010.0,1780135037.397
1912848.0,1780135037.439
1913789.0,1780135037.478
1915013.0,1780135037.519
1914023.0,1780135037.559
1910733.0,1780135037.599
1906623.0,1780135037.639
1903366.0,1780135037.678
1900511.0,1780135037.718
1898617.0,1780135037.758
1897328.0,1780135037.799
1896841.0,1780135037.838
1896342.0,1780135037.878
1895708.0,1780135037.92
1895064.0,1780135037.959
1894904.0,1780135037.999
1894886.0,1780135038.038
1895492.0,1780135038.078
1896375.0,1780135038.119
1897470.0,1780135038.159
1898818.0,1780135038.198
1899883.0,1780135038.239
1899024.0,1780135038.28
1896285.0,1780135038.32
1893185.0,1780135038.359
1890543.0,1780135038.401
1888665.0,1780135038.438
1887703.0,1780135038.478
1887536.0,1780135038.52
1887989.0,1780135038.558
1888467.0,1780135038.598
1889069.0,1780135038.639
1889851.0,1780135038.678
1890613.0,1780135038.719
1891707.0,1780135038.759
1893297.0,1780135038.799
1895011.0,1780135038.839
1896764.0,1780135038.88
1898474.0,1780135038.92
1900519.0,1780135038.96
1902557.0,1780135038.999
1904175.0,1780135039.038
1903827.0,1780135039.078
1901737.0,1780135039.12
1900010.0,1780135039.159
1899236.0,1780135039.199
1898674.0,1780135039.24
1898978.0,1780135039.28
1899940.0,1780135039.321
1901221.0,1780135039.359
1902333.0,1780135039.398
1903373.0,1780135039.438
1904746.0,1780135039.48
1905999.0,1780135039.52
1907725.0,1780135039.559
1909964.0,1780135039.601
1911958.0,1780135039.64
1914424.0,1780135039.68
1916680.0,1780135039.72
1919267.0,1780135039.758
1921918.0,1780135039.799
1922233.0,1780135039.84
1921437.0,1780135039.879
1920635.0,1780135039.92
1919989.0,1780135039.961
1920444.0,1780135040.0
1920752.0,1780135040.04
1921774.0,1780135040.081
1922500.0,1780135040.119
1923342.0,1780135040.156
1924405.0,1780135040.197
1925646.0,1780135040.236
1926622.0,1780135040.276
1928254.0,1780135040.318
1929563.0,1780135040.356
1931609.0,1780135040.396
1933448.0,1780135040.437
1935402.0,1780135040.476
1937341.0,1780135040.517
1939770.0,1780135040.558
1941290.0,1780135040.597
1941255.0,1780135040.637
1940670.0,1780135040.678
1939482.0,1780135040.718
1939262.0,1780135040.757
1939368.0,1780135040.798
1939835.0,1780135040.837
1940649.0,1780135040.878
1941707.0,1780135040.921
1942916.0,1780135040.959
1943791.0,1780135040.999
1945027.0,1780135041.043
1946439.0,1780135041.078
1948234.0,1780135041.12
1950256.0,1780135041.16
1951774.0,1780135041.199
1953637.0,1780135041.239
1955388.0,1780135041.281
1957432.0,1780135041.321
1959432.0,1780135041.36
1961684.0,1780135041.401
1963196.0,1780135041.441
1962771.0,1780135041.481
1962553.0,1780135041.523
1962285.0,1780135041.559
1962998.0,1780135041.6
1963622.0,1780135041.641
1964682.0,1780135041.68
1965848.0,1780135041.721
1966857.0,1780135041.762
1967982.0,1780135041.801
1968492.0,1780135041.841
1969281.0,1780135041.882
1970390.0,1780135041.92
1971726.0,1780135041.96
1973538.0,1780135042.001
1974788.0,1780135042.04
1976471.0,1780135042.08
1978404.0,1780135042.122
1980240.0,1780135042.161
1981840.0,1780135042.201
1983004.0,1780135042.243
1982780.0,1780135042.28
1981842.0,1780135042.321
1981754.0,1780135042.361
1982022.0,1780135042.4
1982606.0,1780135042.44
1982992.0,1780135042.482
1984027.0,1780135042.522
1985074.0,1780135042.561
1985408.0,1780135042.603
1986142.0,1780135042.642
1986595.0,1780135042.68
1987377.0,1780135042.722
1988438.0,1780135042.76
1989494.0,1780135042.8
1990561.0,1780135042.842
1991674.0,1780135042.881
1992707.0,1780135042.922
1994205.0,1780135042.963
1994949.0,1780135043.002
1994062.0,1780135043.042
1992912.0,1780135043.081
1992288.0,1780135043.121
1992215.0,1780135043.16
1992271.0,1780135043.202
1992693.0,1780135043.241
1993263.0,1780135043.281
1993813.0,1780135043.323
1994589.0,1780135043.362
1995112.0,1780135043.402
1995890.0,1780135043.441
1996781.0,1780135043.48
1997819.0,1780135043.521
1999049.0,1780135043.562
2000279.0,1780135043.601
2001621.0,1780135043.641
2002504.0,1780135043.682
2003588.0,1780135043.722
2004937.0,1780135043.761
2005217.0,1780135043.802
2003779.0,1780135043.842
2002054.0,1780135043.882
2001010.0,1780135043.924
2000446.0,1780135043.962
2000413.0,1780135044.0
2000403.0,1780135044.042
2000863.0,1780135044.081
2001026.0,1780135044.122
2001310.0,1780135044.162
2000997.0,1780135044.202
2001145.0,1780135044.242
2001396.0,1780135044.283
2001716.0,1780135044.323
2002409.0,1780135044.363
2002738.0,1780135044.402
2003409.0,1780135044.441
2003817.0,1780135044.481
2004786.0,1780135044.523
2004765.0,1780135044.562
2003188.0,1780135044.602
2001162.0,1780135044.643
1999088.0,1780135044.682
1998057.0,1780135044.723
1996971.0,1780135044.762
1996528.0,1780135044.801
1996247.0,1780135044.841
1996065.0,1780135044.883
1996012.0,1780135044.923
1995704.0,1780135044.962
1995641.0,1780135045.003
1996014.0,1780135045.043
1996671.0,1780135045.083
1997287.0,1780135045.123
1997837.0,1780135045.161
1998294.0,1780135045.202
1999155.0,1780135045.243
1998656.0,1780135045.282
1996610.0,1780135045.323
1993954.0,1780135045.364
1991482.0,1780135045.403
1989661.0,1780135045.443
1987898.0,1780135045.482
1986820.0,1780135045.522
1986189.0,1780135045.562
1985263.0,1780135045.603
1984365.0,1780135045.642
1984013.0,1780135045.683
1983298.0,1780135045.724
1982932.0,1780135045.763
1982893.0,1780135045.803
1983473.0,1780135045.882
1984492.0,1780135045.963
1984100.0,1780135045.923
1983181.0,1780135045.842
1984192.0,1780135046.002
1981652.0,1780135046.043
1977979.0,1780135046.084
1974096.0,1780135046.117
1971205.0,1780135046.156
1968495.0,1780135046.197
1966702.0,1780135046.236
1965139.0,1780135046.276
1963892.0,1780135046.318
1963042.0,1780135046.356
1961816.0,1780135046.396
1960729.0,1780135046.437
1959811.0,1780135046.476
1959369.0,1780135046.517
1959282.0,1780135046.557
1959110.0,1780135046.597
1959477.0,1780135046.637
1959426.0,1780135046.678
1959538.0,1780135046.718
1958355.0,1780135046.758
1954573.0,1780135046.799
1949703.0,1780135046.838
1945066.0,1780135046.878
1941755.0,1780135046.92
1939071.0,1780135046.959
1937156.0,1780135046.997
1935709.0,1780135047.038
1934409.0,1780135047.077
1933077.0,1780135047.118
1931662.0,1780135047.159
1930623.0,1780135047.198
1929545.0,1780135047.238
1928928.0,1780135047.28
1928942.0,1780135047.32
1928774.0,1780135047.359
1928815.0,1780135047.398
1928728.0,1780135047.437
1928306.0,1780135047.478
1926344.0,1780135047.52
1922035.0,1780135047.558
1917517.0,1780135047.598
1914059.0,1780135047.64
1911374.0,1780135047.679
1909709.0,1780135047.72
1908734.0,1780135047.758
1908000.0,1780135047.798
1907361.0,1780135047.838
1906453.0,1780135047.879
1905716.0,1780135047.919
1905129.0,1780135047.959
1905074.0,1780135048.0
1905417.0,1780135048.039
1906051.0,1780135048.079
1906773.0,1780135048.119
1907608.0,1780135048.158
1908627.0,1780135048.198
1908848.0,1780135048.239
1905490.0,1780135048.279
1900964.0,1780135048.32
1897167.0,1780135048.36
1893982.0,1780135048.399
1891710.0,1780135048.44
1890351.0,1780135048.481
1889770.0,1780135048.519
1889302.0,1780135048.558
1889167.0,1780135048.599
1888363.0,1780135048.639
1888239.0,1780135048.679
1888264.0,1780135048.721
1888748.0,1780135048.757
1889614.0,1780135048.797
1890376.0,1780135048.838
1891534.0,1780135048.877
1892687.0,1780135048.918
1893847.0,1780135048.959
1894542.0,1780135048.998
1892764.0,1780135049.038
1888702.0,1780135049.08
1884318.0,1780135049.119
1880903.0,1780135049.158
1878306.0,1780135049.2
1876749.0,1780135049.239
1876101.0,1780135049.279
1875984.0,1780135049.321
1875454.0,1780135049.359
1875442.0,1780135049.4
1874764.0,1780135049.441
1874783.0,1780135049.48
1874735.0,1780135049.519
1875589.0,1780135049.56
1876201.0,1780135049.599
1877202.0,1780135049.639
1878176.0,1780135049.68
1879100.0,1780135049.72
1880058.0,1780135049.76
1881142.0,1780135049.801
1880695.0,1780135049.84
1877726.0,1780135049.881
1874032.0,1780135049.92
1871412.0,1780135049.959
1870075.0,1780135049.999
1869140.0,1780135050.04
1869255.0,1780135050.079
1869409.0,1780135050.12
1869606.0,1780135050.161
1870167.0,1780135050.2
1870051.0,1780135050.24
1870738.0,1780135050.282
1871150.0,1780135050.319
1872140.0,1780135050.359
1873222.0,1780135050.4
1874770.0,1780135050.439
1875965.0,1780135050.48
1877772.0,1780135050.522
1879252.0,1780135050.56
1879718.0,1780135050.6
1877539.0,1780135050.642
1873967.0,1780135050.679
1871257.0,1780135050.72
1869650.0,1780135050.76
1868843.0,1780135050.8
1868823.0,1780135050.84
1869566.0,1780135050.881
1869914.0,1780135050.921
1870485.0,1780135050.961
1870859.0,1780135051.002
1871451.0,1780135051.039
1872372.0,1780135051.079
1873464.0,1780135051.121
1874960.0,1780135051.16
1876351.0,1780135051.2
1878046.0,1780135051.241
1879949.0,1780135051.282
1881642.0,1780135051.319
1883051.0,1780135051.361
1881721.0,1780135051.399
1878628.0,1780135051.439
1875351.0,1780135051.481
1872848.0,1780135051.521
1871420.0,1780135051.56
1870602.0,1780135051.601
1870654.0,1780135051.641
1871034.0,1780135051.681
1871406.0,1780135051.723
1871479.0,1780135051.761
1871937.0,1780135051.8
1872431.0,1780135051.841
1872989.0,1780135051.88
1874001.0,1780135051.921
1875015.0,1780135051.961
1875955.0,1780135052.001
1877058.0,1780135052.041
1877945.0,1780135052.082
1879048.0,1780135052.122
1878679.0,1780135052.16
1875934.0,1780135052.201
1871986.0,1780135052.24
1869164.0,1780135052.28
1867733.0,1780135052.322
1866834.0,1780135052.361
1867081.0,1780135052.401
1867840.0,1780135052.442
1868536.0,1780135052.482
1868759.0,1780135052.521
1869158.0,1780135052.561
1869520.0,1780135052.6
1870282.0,1780135052.641
1871580.0,1780135052.682
1872571.0,1780135052.722
1873871.0,1780135052.761
1875334.0,1780135052.803
1876689.0,1780135052.842
1877971.0,1780135052.882
1876138.0,1780135052.922
1872978.0,1780135052.96
1870513.0,1780135053.001
1868479.0,1780135053.042
1867477.0,1780135053.081
1867445.0,1780135053.122
1867961.0,1780135053.163
1868416.0,1780135053.202
1869144.0,1780135053.242
1869184.0,1780135053.281
1869774.0,1780135053.321
1870343.0,1780135053.361
1871561.0,1780135053.402
1872741.0,1780135053.441
1874240.0,1780135053.482
1875337.0,1780135053.523
1876896.0,1780135053.562
1878215.0,1780135053.602
1876367.0,1780135053.642
1872994.0,1780135053.681
1869316.0,1780135053.722
1866686.0,1780135053.762
1864845.0,1780135053.801
1863890.0,1780135053.839
1863677.0,1780135053.881
1863847.0,1780135053.921
1864022.0,1780135053.961
1863940.0,1780135054.002
1864023.0,1780135054.041
1864212.0,1780135054.078
1864957.0,1780135054.12
1865619.0,1780135054.158
1866921.0,1780135054.198
1868263.0,1780135054.239
1869300.0,1780135054.278
1870465.0,1780135054.319
1869684.0,1780135054.359
1866104.0,1780135054.398
1861982.0,1780135054.438
1858544.0,1780135054.48
1856259.0,1780135054.519
1854483.0,1780135054.559
1853871.0,1780135054.6
1853988.0,1780135054.639
1853951.0,1780135054.679
1854140.0,1780135054.721
1854050.0,1780135054.8
1854115.0,1780135054.759
1854592.0,1780135054.842
1855606.0,1780135054.881
1856801.0,1780135054.922
1860654.0,1780135055.041
1861644.0,1780135055.083
1859242.0,1780135055.001
1857885.0,1780135054.962
1856056.0,1780135055.162
1859836.0,1780135055.122
1851933.0,1780135055.203
1848722.0,1780135055.243
1846336.0,1780135055.283
1844864.0,1780135055.325
1843967.0,1780135055.401
1844338.0,1780135055.363
1843462.0,1780135055.443
1842751.0,1780135055.482
1842501.0,1780135055.523
1842668.0,1780135055.563
1842985.0,1780135055.603
1844784.0,1780135055.684
1846110.0,1780135055.724
1843954.0,1780135055.643
1847205.0,1780135055.762
1848114.0,1780135055.803
1845839.0,1780135055.842
1841298.0,1780135055.882
1837435.0,1780135055.924
1834435.0,1780135055.963
1832236.0,1780135056.003
1831182.0,1780135056.044
1830919.0,1780135056.084
1830625.0,1780135056.122
1830162.0,1780135056.163
1829711.0,1780135056.202
1829580.0,1780135056.242
1829733.0,1780135056.284
1830328.0,1780135056.324
1831517.0,1780135056.363
1833018.0,1780135056.402
1834255.0,1780135056.441
1835791.0,1780135056.482
1837476.0,1780135056.524
1837215.0,1780135056.562
1833364.0,1780135056.602
1828567.0,1780135056.643
1824444.0,1780135056.683
1820990.0,1780135056.724
1818998.0,1780135056.764
1817951.0,1780135056.803
1817727.0,1780135056.843
1817657.0,1780135056.885
1817486.0,1780135056.925
1817623.0,1780135056.962
1817733.0,1780135057.003
1818420.0,1780135057.043
1819406.0,1780135057.083
1820580.0,1780135057.125
1822102.0,1780135057.163
1824001.0,1780135057.204
1825559.0,1780135057.245
1827379.0,1780135057.284
1828157.0,1780135057.323
1825737.0,1780135057.363
1820917.0,1780135057.403
1816303.0,1780135057.443
1812782.0,1780135057.484
1810216.0,1780135057.524
1808903.0,1780135057.564
1808550.0,1780135057.605
1808355.0,1780135057.644
1808466.0,1780135057.684
1808370.0,1780135057.724
1808448.0,1780135057.763
1809072.0,1780135057.803
1809935.0,1780135057.844
1811226.0,1780135057.883
1813085.0,1780135057.924
1814480.0,1780135057.965
1816204.0,1780135058.004
1817722.0,1780135058.044
1819592.0,1780135058.084
1821453.0,1780135058.123
1819611.0,1780135058.162
1815305.0,1780135058.201
1811046.0,1780135058.24
1807276.0,1780135058.279
1804946.0,1780135058.318
1803978.0,1780135058.357
1803847.0,1780135058.396
1804064.0,1780135058.435
1804637.0,1780135058.474
1805297.0,1780135058.513
1806455.0,1780135058.552
1807834.0,1780135058.591
1810329.0,1780135058.63
1812600.0,1780135058.669
1815401.0,1780135058.708
1818066.0,1780135058.747
1820780.0,1780135058.786
1823358.0,1780135058.825
1825914.0,1780135058.864
1826656.0,1780135058.903
1824088.0,1780135058.942
1820834.0,1780135058.981
1818271.0,1780135059.02
1816710.0,1780135059.059
1815986.0,1780135059.098
1816436.0,1780135059.137
1817599.0,1780135059.176
1818974.0,1780135059.215
1820159.0,1780135059.254
1821433.0,1780135059.293
1822772.0,1780135059.332
1824225.0,1780135059.371
1826551.0,1780135059.41
1828775.0,1780135059.45
1831219.0,1780135059.49
1833612.0,1780135059.53
1836322.0,1780135059.57
1838683.0,1780135059.61
1841094.0,1780135059.65
1842740.0,1780135059.69
1841177.0,1780135059.73
1838208.0,1780135059.77
1835832.0,1780135059.81
1833846.0,1780135059.85
1833146.0,1780135059.89
1833238.0,1780135059.93
1834132.0,1780135059.97
1835224.0,1780135060.01
1835999.0,1780135060.05
1837016.0,1780135060.09
1838232.0,1780135060.13
1839744.0,1780135060.17
1840715.0,1780135060.21
1842648.0,1780135060.25
1844521.0,1780135060.29
1846427.0,1780135060.33
1848368.0,1780135060.37
1850283.0,1780135060.41
1852299.0,1780135060.45
1853862.0,1780135060.49
1853132.0,1780135060.53
1851375.0,1780135060.57
1850293.0,1780135060.61
1850140.0,1780135060.65
1850917.0,1780135060.69
1852277.0,1780135060.73
1854252.0,1780135060.77
1856083.0,1780135060.81
1857648.0,1780135060.85
1859360.0,1780135060.89
1861213.0,1780135060.93
1863168.0,1780135060.97
1865299.0,1780135061.01
1867795.0,1780135061.05
1870273.0,1780135061.09
1872884.0,1780135061.13
1875544.0,1780135061.17
1878083.0,1780135061.21
1880503.0,1780135061.25
1880272.0,1780135061.29
1878913.0,1780135061.33
1877587.0,1780135061.37
1877063.0,1780135061.41
1877068.0,1780135061.45
1877597.0,1780135061.49
1878844.0,1780135061.53
1880301.0,1780135061.57
1881598.0,1780135061.61
1882608.0,1780135061.65
1883844.0,1780135061.69
1885108.0,1780135061.73
1886622.0,1780135061.77
1888285.0,1780135061.81
1890154.0,1780135061.85
1892091.0,1780135061.89
1894439.0,1780135061.93
1896354.0,1780135061.97
1898404.0,1780135062.01
1899564.0,1780135062.05
1898138.0,1780135062.09
1895849.0,1780135062.13
1894087.0,1780135062.17
1893483.0,1780135062.21
1892968.0,1780135062.25
1892539.0,1780135062.29
1893047.0,1780135062.33
1893365.0,1780135062.37
1893471.0,1780135062.41
1894169.0,1780135062.45
