bvp,time
64.0,1708003146.0
-0.0,1708003146.015625
-0.0,1708003146.03125
-0.0,1708003146.046875
-0.0,1708003146.0625
-0.0,1708003146.078125
-0.0,1708003146.09375
-0.0,1708003146.109375
-0.0,1708003146.125
-0.0,1708003146.140625
-0.0,1708003146.15625
0.0,1708003146.171875
0.01,1708003146.1875
0.01,1708003146.203125
-0.0,1708003146.21875
-0.03,1708003146.234375
-0.05,1708003146.25
-0.05,1708003146.265625
0.0,1708003146.28125
0.13,1708003146.296875
0.36,1708003146.3125
0.66,1708003146.328125
1.01,1708003146.34375
1.37,1708003146.359375
1.72,1708003146.375
2.06,1708003146.390625
2.4,1708003146.40625
2.79,1708003146.421875
3.24,1708003146.4375
3.8,1708003146.453125
4.42,1708003146.46875
5.06,1708003146.484375
5.66,1708003146.5
6.2,1708003146.515625
6.68,1708003146.53125
7.15,1708003146.546875
7.68,1708003146.5625
8.31,1708003146.578125
9.14,1708003146.59375
10.09,1708003146.609375
11.04,1708003146.625
11.88,1708003146.640625
12.56,1708003146.65625
13.14,1708003146.671875
13.76,1708003146.6875
14.65,1708003146.703125
15.96,1708003146.71875
17.91,1708003146.734375
20.32,1708003146.75
22.9,1708003146.765625
25.38,1708003146.78125
27.58,1708003146.796875
29.57,1708003146.8125
31.68,1708003146.828125
34.32,1708003146.84375
37.81,1708003146.859375
42.54,1708003146.875
48.15,1708003146.890625
54.1,1708003146.90625
59.83,1708003146.921875
64.97,1708003146.9375
69.58,1708003146.953125
74.14,1708003146.96875
79.34,1708003146.984375
85.71,1708003147.0
93.76,1708003147.015625
103.0,1708003147.03125
112.62,1708003147.046875
121.73,1708003147.0625
129.77,1708003147.078125
136.75,1708003147.09375
143.3,1708003147.109375
150.75,1708003147.125
157.77,1708003147.140625
166.64,1708003147.15625
177.95,1708003147.171875
191.79,1708003147.1875
206.97,1708003147.203125
220.57,1708003147.21875
228.25,1708003147.234375
225.36,1708003147.25
208.53,1708003147.265625
176.87,1708003147.28125
132.76,1708003147.296875
80.05,1708003147.3125
23.07,1708003147.328125
-34.94,1708003147.34375
-92.44,1708003147.359375
-149.16,1708003147.375
-205.23,1708003147.390625
-260.37,1708003147.40625
-313.74,1708003147.421875
-363.87,1708003147.4375
-409.83,1708003147.453125
-450.91,1708003147.46875
-486.5,1708003147.484375
-515.74,1708003147.5
-537.23,1708003147.515625
-549.22,1708003147.53125
-549.96,1708003147.546875
-538.37,1708003147.5625
-514.21,1708003147.578125
-478.67,1708003147.59375
-433.88,1708003147.609375
-382.45,1708003147.625
-327.02,1708003147.640625
-269.84,1708003147.65625
-212.63,1708003147.671875
-156.66,1708003147.6875
-102.95,1708003147.703125
-52.37,1708003147.71875
-5.9,1708003147.734375
35.58,1708003147.75
71.42,1708003147.765625
101.35,1708003147.78125
125.51,1708003147.796875
144.4,1708003147.8125
158.72,1708003147.828125
169.18,1708003147.84375
176.38,1708003147.859375
180.7,1708003147.875
182.45,1708003147.890625
181.86,1708003147.90625
179.22,1708003147.921875
174.9,1708003147.9375
169.31,1708003147.953125
162.84,1708003147.96875
155.82,1708003147.984375
148.48,1708003148.0
140.92,1708003148.015625
133.24,1708003148.03125
125.48,1708003148.046875
117.72,1708003148.0625
110.05,1708003148.078125
102.53,1708003148.09375
95.21,1708003148.109375
88.11,1708003148.125
81.21,1708003148.140625
74.51,1708003148.15625
68.02,1708003148.171875
61.8,1708003148.1875
55.93,1708003148.203125
50.46,1708003148.21875
45.43,1708003148.234375
40.76,1708003148.25
36.36,1708003148.265625
32.11,1708003148.28125
27.94,1708003148.296875
23.87,1708003148.3125
20.01,1708003148.328125
16.54,1708003148.34375
13.57,1708003148.359375
11.12,1708003148.375
9.09,1708003148.390625
7.23,1708003148.40625
5.3,1708003148.421875
3.15,1708003148.4375
0.83,1708003148.453125
-1.45,1708003148.46875
-3.37,1708003148.484375
-4.7,1708003148.5
-5.39,1708003148.515625
-5.65,1708003148.53125
-5.89,1708003148.546875
-6.52,1708003148.5625
-7.79,1708003148.578125
-9.62,1708003148.59375
-11.65,1708003148.609375
-13.4,1708003148.625
-14.51,1708003148.640625
-14.88,1708003148.65625
-14.71,1708003148.671875
-14.43,1708003148.6875
-14.47,1708003148.703125
-15.18,1708003148.71875
-16.79,1708003148.734375
-19.42,1708003148.75
-22.89,1708003148.765625
-26.48,1708003148.78125
-28.89,1708003148.796875
-28.42,1708003148.8125
-23.73,1708003148.828125
-14.55,1708003148.84375
-2.08,1708003148.859375
11.23,1708003148.875
22.64,1708003148.890625
30.21,1708003148.90625
33.47,1708003148.921875
33.35,1708003148.9375
31.43,1708003148.953125
29.08,1708003148.96875
26.93,1708003148.984375
24.91,1708003149.0
22.71,1708003149.015625
20.27,1708003149.03125
17.87,1708003149.046875
15.96,1708003149.0625
14.81,1708003149.078125
14.31,1708003149.09375
14.02,1708003149.109375
13.44,1708003149.125
12.23,1708003149.140625
10.45,1708003149.15625
8.45,1708003149.171875
6.68,1708003149.1875
5.42,1708003149.203125
4.66,1708003149.21875
4.12,1708003149.234375
3.52,1708003149.25
2.73,1708003149.265625
2.0,1708003149.28125
1.79,1708003149.296875
2.63,1708003149.3125
4.74,1708003149.328125
7.93,1708003149.34375
11.58,1708003149.359375
14.92,1708003149.375
17.28,1708003149.390625
18.27,1708003149.40625
17.94,1708003149.421875
16.57,1708003149.4375
14.64,1708003149.453125
12.52,1708003149.46875
10.52,1708003149.484375
8.83,1708003149.5
7.58,1708003149.515625
6.85,1708003149.53125
6.7,1708003149.546875
7.14,1708003149.5625
8.14,1708003149.578125
9.56,1708003149.59375
11.21,1708003149.609375
12.92,1708003149.625
14.52,1708003149.640625
15.91,1708003149.65625
16.97,1708003149.671875
17.55,1708003149.6875
17.48,1708003149.703125
16.57,1708003149.71875
14.68,1708003149.734375
11.9,1708003149.75
8.27,1708003149.765625
4.05,1708003149.78125
-0.41,1708003149.796875
-4.76,1708003149.8125
-8.7,1708003149.828125
-12.03,1708003149.84375
-14.7,1708003149.859375
-16.72,1708003149.875
-18.15,1708003149.890625
-19.12,1708003149.90625
-19.69,1708003149.921875
-19.91,1708003149.9375
-19.81,1708003149.953125
-19.41,1708003149.96875
-18.77,1708003149.984375
-18.0,1708003150.0
-17.25,1708003150.015625
-16.61,1708003150.03125
-16.08,1708003150.046875
-15.56,1708003150.0625
-14.9,1708003150.078125
-14.05,1708003150.09375
-13.03,1708003150.109375
-11.97,1708003150.125
-11.01,1708003150.140625
-10.23,1708003150.15625
-9.69,1708003150.171875
-9.39,1708003150.1875
-9.35,1708003150.203125
-9.52,1708003150.21875
-9.69,1708003150.234375
-9.51,1708003150.25
-8.49,1708003150.265625
-6.24,1708003150.28125
-2.68,1708003150.296875
1.85,1708003150.3125
6.69,1708003150.328125
11.05,1708003150.34375
14.34,1708003150.359375
16.23,1708003150.375
16.76,1708003150.390625
16.14,1708003150.40625
14.69,1708003150.421875
12.68,1708003150.4375
10.38,1708003150.453125
7.98,1708003150.46875
5.7,1708003150.484375
3.73,1708003150.5
2.23,1708003150.515625
1.3,1708003150.53125
0.92,1708003150.546875
1.03,1708003150.5625
1.47,1708003150.578125
2.13,1708003150.59375
2.96,1708003150.609375
3.97,1708003150.625
5.22,1708003150.640625
6.73,1708003150.65625
8.42,1708003150.671875
10.08,1708003150.6875
11.47,1708003150.703125
12.36,1708003150.71875
12.67,1708003150.734375
12.44,1708003150.75
11.84,1708003150.765625
11.11,1708003150.78125
10.4,1708003150.796875
9.68,1708003150.8125
8.79,1708003150.828125
7.54,1708003150.84375
5.79,1708003150.859375
3.58,1708003150.875
1.09,1708003150.890625
-1.44,1708003150.90625
-3.77,1708003150.921875
-5.84,1708003150.9375
-7.7,1708003150.953125
-9.46,1708003150.96875
-11.23,1708003150.984375
-13.08,1708003151.0
-14.98,1708003151.015625
-16.86,1708003151.03125
-18.64,1708003151.046875
-20.31,1708003151.0625
-21.89,1708003151.078125
-23.4,1708003151.09375
-24.88,1708003151.109375
-26.38,1708003151.125
-28.01,1708003151.140625
-29.9,1708003151.15625
-32.17,1708003151.171875
-34.8,1708003151.1875
-37.51,1708003151.203125
-39.7,1708003151.21875
-40.56,1708003151.234375
-39.32,1708003151.25
-35.51,1708003151.265625
-29.17,1708003151.28125
-20.82,1708003151.296875
-11.32,1708003151.3125
-1.66,1708003151.328125
7.33,1708003151.34375
15.05,1708003151.359375
21.2,1708003151.375
25.69,1708003151.390625
28.59,1708003151.40625
30.03,1708003151.421875
30.22,1708003151.4375
29.37,1708003151.453125
27.74,1708003151.46875
25.63,1708003151.484375
23.33,1708003151.5
21.12,1708003151.515625
19.2,1708003151.53125
17.68,1708003151.546875
16.57,1708003151.5625
15.89,1708003151.578125
15.67,1708003151.59375
15.95,1708003151.609375
16.74,1708003151.625
17.97,1708003151.640625
19.47,1708003151.65625
20.97,1708003151.671875
22.17,1708003151.6875
22.83,1708003151.703125
22.77,1708003151.71875
21.97,1708003151.734375
20.52,1708003151.75
18.6,1708003151.765625
16.43,1708003151.78125
14.19,1708003151.796875
11.97,1708003151.8125
9.77,1708003151.828125
7.51,1708003151.84375
5.1,1708003151.859375
2.52,1708003151.875
-0.17,1708003151.890625
-2.8,1708003151.90625
-5.22,1708003151.921875
-7.33,1708003151.9375
-9.18,1708003151.953125
-10.9,1708003151.96875
-12.73,1708003151.984375
-14.79,1708003152.0
-17.13,1708003152.015625
-19.6,1708003152.03125
-22.01,1708003152.046875
-24.17,1708003152.0625
-26.06,1708003152.078125
-27.83,1708003152.09375
-29.8,1708003152.109375
-32.27,1708003152.125
-35.43,1708003152.140625
-39.15,1708003152.15625
-42.98,1708003152.171875
-46.24,1708003152.1875
-48.11,1708003152.203125
-47.9,1708003152.21875
-45.21,1708003152.234375
-40.01,1708003152.25
-32.64,1708003152.265625
-23.76,1708003152.28125
-14.16,1708003152.296875
-4.65,1708003152.3125
4.07,1708003152.328125
11.41,1708003152.34375
17.01,1708003152.359375
20.7,1708003152.375
22.54,1708003152.390625
22.8,1708003152.40625
21.86,1708003152.421875
20.12,1708003152.4375
17.92,1708003152.453125
15.5,1708003152.46875
13.06,1708003152.484375
10.79,1708003152.5
8.92,1708003152.515625
7.71,1708003152.53125
7.36,1708003152.546875
7.95,1708003152.5625
9.38,1708003152.578125
11.39,1708003152.59375
13.63,1708003152.609375
15.76,1708003152.625
17.5,1708003152.640625
18.66,1708003152.65625
19.18,1708003152.671875
19.1,1708003152.6875
18.46,1708003152.703125
17.35,1708003152.71875
15.82,1708003152.734375
13.93,1708003152.75
11.75,1708003152.765625
9.39,1708003152.78125
6.99,1708003152.796875
4.63,1708003152.8125
2.39,1708003152.828125
0.21,1708003152.84375
-2.03,1708003152.859375
-4.46,1708003152.875
-7.14,1708003152.890625
-10.01,1708003152.90625
-12.9,1708003152.921875
-15.58,1708003152.9375
-17.86,1708003152.953125
-19.64,1708003152.96875
-20.93,1708003152.984375
-21.9,1708003153.0
-22.82,1708003153.015625
-24.03,1708003153.03125
-25.85,1708003153.046875
-28.49,1708003153.0625
-32.0,1708003153.078125
-36.11,1708003153.09375
-40.29,1708003153.109375
-43.72,1708003153.125
-45.55,1708003153.140625
-45.05,1708003153.15625
-41.88,1708003153.171875
-36.11,1708003153.1875
-28.28,1708003153.203125
-19.16,1708003153.21875
-9.59,1708003153.234375
-0.36,1708003153.25
7.94,1708003153.265625
14.85,1708003153.28125
20.08,1708003153.296875
23.43,1708003153.3125
24.93,1708003153.328125
24.8,1708003153.34375
23.4,1708003153.359375
21.22,1708003153.375
18.71,1708003153.390625
16.23,1708003153.40625
14.06,1708003153.421875
12.39,1708003153.4375
11.35,1708003153.453125
11.05,1708003153.46875
11.53,1708003153.484375
12.74,1708003153.5
14.51,1708003153.515625
16.59,1708003153.53125
18.72,1708003153.546875
20.68,1708003153.5625
22.29,1708003153.578125
23.4,1708003153.59375
23.87,1708003153.609375
23.59,1708003153.625
22.51,1708003153.640625
20.68,1708003153.65625
18.29,1708003153.671875
15.63,1708003153.6875
12.93,1708003153.703125
10.33,1708003153.71875
7.82,1708003153.734375
5.24,1708003153.75
2.43,1708003153.765625
-0.69,1708003153.78125
-4.11,1708003153.796875
-7.7,1708003153.8125
-11.29,1708003153.828125
-14.72,1708003153.84375
-17.85,1708003153.859375
-20.6,1708003153.875
-22.96,1708003153.890625
-25.02,1708003153.90625
-26.99,1708003153.921875
-29.21,1708003153.9375
-32.04,1708003153.953125
-35.74,1708003153.96875
-40.28,1708003153.984375
-45.25,1708003154.0
-49.85,1708003154.015625
-53.0,1708003154.03125
-53.66,1708003154.046875
-51.14,1708003154.0625
-45.29,1708003154.078125
-36.58,1708003154.09375
-25.94,1708003154.109375
-14.51,1708003154.125
-3.37,1708003154.140625
6.69,1708003154.15625
15.2,1708003154.171875
21.94,1708003154.1875
26.87,1708003154.203125
30.05,1708003154.21875
31.6,1708003154.234375
31.67,1708003154.25
30.51,1708003154.265625
28.43,1708003154.28125
25.83,1708003154.296875
23.19,1708003154.3125
20.94,1708003154.328125
19.42,1708003154.34375
18.78,1708003154.359375
18.95,1708003154.375
19.77,1708003154.390625
21.06,1708003154.40625
22.66,1708003154.421875
24.46,1708003154.4375
26.33,1708003154.453125
28.05,1708003154.46875
29.36,1708003154.484375
30.01,1708003154.5
29.87,1708003154.515625
28.93,1708003154.53125
27.32,1708003154.546875
25.19,1708003154.5625
22.65,1708003154.578125
19.77,1708003154.59375
16.63,1708003154.609375
13.36,1708003154.625
10.1,1708003154.640625
6.94,1708003154.65625
3.88,1708003154.671875
0.79,1708003154.6875
-2.49,1708003154.703125
-6.03,1708003154.71875
-9.69,1708003154.734375
-13.24,1708003154.75
-16.43,1708003154.765625
-19.14,1708003154.78125
-21.47,1708003154.796875
-23.67,1708003154.8125
-26.08,1708003154.828125
-28.93,1708003154.84375
-32.38,1708003154.859375
-36.39,1708003154.875
-40.81,1708003154.890625
-45.27,1708003154.90625
-49.19,1708003154.921875
-51.83,1708003154.9375
-52.34,1708003154.953125
-50.04,1708003154.96875
-44.67,1708003154.984375
-36.46,1708003155.0
-26.17,1708003155.015625
-14.85,1708003155.03125
-3.59,1708003155.046875
6.73,1708003155.0625
15.54,1708003155.078125
22.51,1708003155.09375
27.58,1708003155.109375
30.78,1708003155.125
32.3,1708003155.140625
32.42,1708003155.15625
31.53,1708003155.171875
30.04,1708003155.1875
28.32,1708003155.203125
26.68,1708003155.21875
25.35,1708003155.234375
24.46,1708003155.25
24.12,1708003155.265625
24.36,1708003155.28125
25.16,1708003155.296875
26.38,1708003155.3125
27.86,1708003155.328125
29.39,1708003155.34375
30.79,1708003155.359375
31.9,1708003155.375
32.57,1708003155.390625
32.71,1708003155.40625
32.23,1708003155.421875
31.1,1708003155.4375
29.34,1708003155.453125
27.08,1708003155.46875
24.47,1708003155.484375
21.66,1708003155.5
18.82,1708003155.515625
15.99,1708003155.53125
13.19,1708003155.546875
10.34,1708003155.5625
7.36,1708003155.578125
4.16,1708003155.59375
0.76,1708003155.609375
-2.77,1708003155.625
-6.29,1708003155.640625
-9.64,1708003155.65625
-12.69,1708003155.671875
-15.42,1708003155.6875
-17.84,1708003155.703125
-20.04,1708003155.71875
-22.19,1708003155.734375
-24.47,1708003155.75
-27.14,1708003155.765625
-30.4,1708003155.78125
-34.27,1708003155.796875
-38.51,1708003155.8125
-42.47,1708003155.828125
-45.28,1708003155.84375
-45.99,1708003155.859375
-43.91,1708003155.875
-38.82,1708003155.890625
-31.06,1708003155.90625
-21.46,1708003155.921875
-11.03,1708003155.9375
-0.81,1708003155.953125
8.41,1708003155.96875
16.1,1708003155.984375
22.07,1708003156.0
26.31,1708003156.015625
28.97,1708003156.03125
30.3,1708003156.046875
30.54,1708003156.0625
29.96,1708003156.078125
28.79,1708003156.09375
27.27,1708003156.109375
25.67,1708003156.125
24.21,1708003156.140625
23.11,1708003156.15625
22.5,1708003156.171875
22.41,1708003156.1875
22.8,1708003156.203125
23.62,1708003156.21875
24.8,1708003156.234375
26.3,1708003156.25
27.96,1708003156.265625
29.53,1708003156.28125
30.66,1708003156.296875
31.03,1708003156.3125
30.45,1708003156.328125
28.97,1708003156.34375
26.87,1708003156.359375
24.49,1708003156.375
22.12,1708003156.390625
19.9,1708003156.40625
17.8,1708003156.421875
15.72,1708003156.4375
13.56,1708003156.453125
11.3,1708003156.46875
9.0,1708003156.484375
6.73,1708003156.5
4.51,1708003156.515625
2.35,1708003156.53125
0.21,1708003156.546875
-1.95,1708003156.5625
-4.18,1708003156.578125
-6.51,1708003156.59375
-8.95,1708003156.609375
-11.47,1708003156.625
-13.98,1708003156.640625
-16.36,1708003156.65625
-18.49,1708003156.671875
-20.38,1708003156.6875
-22.16,1708003156.703125
-24.02,1708003156.71875
-26.22,1708003156.734375
-28.97,1708003156.75
-32.34,1708003156.765625
-36.24,1708003156.78125
-40.36,1708003156.796875
-44.16,1708003156.8125
-46.89,1708003156.828125
-47.76,1708003156.84375
-46.11,1708003156.859375
-41.63,1708003156.875
-34.58,1708003156.890625
-25.68,1708003156.90625
-15.98,1708003156.921875
-6.47,1708003156.9375
2.12,1708003156.953125
9.39,1708003156.96875
15.24,1708003156.984375
19.65,1708003157.0
22.61,1708003157.015625
24.12,1708003157.03125
24.27,1708003157.046875
23.34,1708003157.0625
21.77,1708003157.078125
20.04,1708003157.09375
18.55,1708003157.109375
17.53,1708003157.125
17.03,1708003157.140625
17.0,1708003157.15625
17.39,1708003157.171875
18.15,1708003157.1875
19.27,1708003157.203125
20.7,1708003157.21875
22.34,1708003157.234375
24.05,1708003157.25
25.62,1708003157.265625
26.87,1708003157.28125
27.6,1708003157.296875
27.69,1708003157.3125
27.1,1708003157.328125
25.91,1708003157.34375
24.22,1708003157.359375
22.2,1708003157.375
19.95,1708003157.390625
17.6,1708003157.40625
15.31,1708003157.421875
13.23,1708003157.4375
11.51,1708003157.453125
10.14,1708003157.46875
8.99,1708003157.484375
7.83,1708003157.5
6.48,1708003157.515625
4.89,1708003157.53125
3.17,1708003157.546875
1.5,1708003157.5625
-0.01,1708003157.578125
-1.39,1708003157.59375
-2.79,1708003157.609375
-4.35,1708003157.625
-6.12,1708003157.640625
-7.98,1708003157.65625
-9.8,1708003157.671875
-11.48,1708003157.6875
-13.08,1708003157.703125
-14.74,1708003157.71875
-16.58,1708003157.734375
-18.61,1708003157.75
-20.75,1708003157.765625
-22.89,1708003157.78125
-24.96,1708003157.796875
-26.96,1708003157.8125
-28.98,1708003157.828125
-31.1,1708003157.84375
-33.4,1708003157.859375
-35.99,1708003157.875
-38.89,1708003157.890625
-42.04,1708003157.90625
-45.14,1708003157.921875
-47.61,1708003157.9375
-48.68,1708003157.953125
-47.59,1708003157.96875
-43.9,1708003157.984375
-37.72,1708003158.0
-29.66,1708003158.015625
-20.66,1708003158.03125
-11.68,1708003158.046875
-3.41,1708003158.0625
3.75,1708003158.078125
9.64,1708003158.09375
14.16,1708003158.109375
17.22,1708003158.125
18.75,1708003158.140625
18.8,1708003158.15625
17.62,1708003158.171875
15.65,1708003158.1875
13.37,1708003158.203125
11.26,1708003158.21875
9.63,1708003158.234375
8.66,1708003158.25
8.4,1708003158.265625
8.84,1708003158.28125
9.9,1708003158.296875
11.48,1708003158.3125
13.43,1708003158.328125
15.54,1708003158.34375
17.61,1708003158.359375
19.46,1708003158.375
20.93,1708003158.390625
21.93,1708003158.40625
22.4,1708003158.421875
22.34,1708003158.4375
21.73,1708003158.453125
20.59,1708003158.46875
18.97,1708003158.484375
17.0,1708003158.5
14.89,1708003158.515625
12.86,1708003158.53125
11.1,1708003158.546875
9.64,1708003158.5625
8.38,1708003158.578125
7.12,1708003158.59375
5.65,1708003158.609375
3.91,1708003158.625
1.96,1708003158.640625
-0.05,1708003158.65625
-1.97,1708003158.671875
-3.7,1708003158.6875
-5.25,1708003158.703125
-6.67,1708003158.71875
-8.07,1708003158.734375
-9.54,1708003158.75
-11.12,1708003158.765625
-12.88,1708003158.78125
-14.79,1708003158.796875
-16.8,1708003158.8125
-18.81,1708003158.828125
-20.74,1708003158.84375
-22.56,1708003158.859375
-24.36,1708003158.875
-26.3,1708003158.890625
-28.57,1708003158.90625
-31.32,1708003158.921875
-34.56,1708003158.9375
-38.13,1708003158.953125
-41.61,1708003158.96875
-44.44,1708003158.984375
-45.92,1708003159.0
-45.42,1708003159.015625
-42.54,1708003159.03125
-37.27,1708003159.046875
-29.99,1708003159.0625
-21.46,1708003159.078125
-12.6,1708003159.09375
-4.29,1708003159.109375
2.83,1708003159.125
8.44,1708003159.140625
12.53,1708003159.15625
15.27,1708003159.171875
16.92,1708003159.1875
17.69,1708003159.203125
17.71,1708003159.21875
17.06,1708003159.234375
15.86,1708003159.25
14.31,1708003159.265625
12.66,1708003159.28125
11.19,1708003159.296875
10.17,1708003159.3125
9.74,1708003159.328125
9.99,1708003159.34375
10.94,1708003159.359375
12.49,1708003159.375
14.51,1708003159.390625
16.71,1708003159.40625
18.8,1708003159.421875
20.5,1708003159.4375
21.6,1708003159.453125
22.06,1708003159.46875
21.93,1708003159.484375
21.31,1708003159.5
20.31,1708003159.515625
19.0,1708003159.53125
17.47,1708003159.546875
15.82,1708003159.5625
14.15,1708003159.578125
12.55,1708003159.59375
10.99,1708003159.609375
9.38,1708003159.625
7.58,1708003159.640625
5.52,1708003159.65625
3.27,1708003159.671875
0.99,1708003159.6875
-1.06,1708003159.703125
-2.73,1708003159.71875
-3.97,1708003159.734375
-4.95,1708003159.75
-5.9,1708003159.765625
-7.04,1708003159.78125
-8.51,1708003159.796875
-10.3,1708003159.8125
-12.29,1708003159.828125
-14.34,1708003159.84375
-16.39,1708003159.859375
-18.41,1708003159.875
-20.45,1708003159.890625
-22.51,1708003159.90625
-24.58,1708003159.921875
-26.63,1708003159.9375
-28.67,1708003159.953125
-30.81,1708003159.96875
-33.29,1708003159.984375
-36.3,1708003160.0
-39.9,1708003160.015625
-43.87,1708003160.03125
-47.68,1708003160.046875
-50.6,1708003160.0625
-51.9,1708003160.078125
-51.06,1708003160.09375
-47.86,1708003160.109375
-42.42,1708003160.125
-35.11,1708003160.140625
-26.46,1708003160.15625
-17.12,1708003160.171875
-7.8,1708003160.1875
0.78,1708003160.203125
8.0,1708003160.21875
13.49,1708003160.234375
17.14,1708003160.25
19.15,1708003160.265625
19.89,1708003160.28125
19.74,1708003160.296875
19.03,1708003160.3125
18.02,1708003160.328125
16.89,1708003160.34375
15.83,1708003160.359375
14.99,1708003160.375
14.51,1708003160.390625
14.44,1708003160.40625
14.81,1708003160.421875
15.61,1708003160.4375
16.87,1708003160.453125
18.6,1708003160.46875
20.72,1708003160.484375
23.04,1708003160.5
25.23,1708003160.515625
26.93,1708003160.53125
27.86,1708003160.546875
27.95,1708003160.5625
27.31,1708003160.578125
26.19,1708003160.59375
24.84,1708003160.609375
23.41,1708003160.625
21.91,1708003160.640625
20.29,1708003160.65625
18.48,1708003160.671875
16.5,1708003160.6875
14.44,1708003160.703125
12.46,1708003160.71875
10.66,1708003160.734375
9.04,1708003160.75
7.52,1708003160.765625
5.96,1708003160.78125
4.31,1708003160.796875
2.59,1708003160.8125
0.86,1708003160.828125
-0.82,1708003160.84375
-2.44,1708003160.859375
-4.11,1708003160.875
-5.91,1708003160.890625
-7.93,1708003160.90625
-10.17,1708003160.921875
-12.56,1708003160.9375
-15.02,1708003160.953125
-17.48,1708003160.96875
-19.88,1708003160.984375
-22.17,1708003161.0
-24.34,1708003161.015625
-26.36,1708003161.03125
-28.32,1708003161.046875
-30.4,1708003161.0625
-32.88,1708003161.078125
-35.99,1708003161.09375
-39.81,1708003161.109375
-44.1,1708003161.125
-48.3,1708003161.140625
-51.59,1708003161.15625
-53.14,1708003161.171875
-52.26,1708003161.1875
-48.6,1708003161.203125
-42.24,1708003161.21875
-33.68,1708003161.234375
-23.72,1708003161.25
-13.28,1708003161.265625
-3.25,1708003161.28125
5.67,1708003161.296875
13.02,1708003161.3125
18.6,1708003161.328125
22.41,1708003161.34375
24.62,1708003161.359375
25.45,1708003161.375
25.16,1708003161.390625
24.05,1708003161.40625
22.38,1708003161.421875
20.45,1708003161.4375
18.54,1708003161.453125
16.92,1708003161.46875
15.8,1708003161.484375
15.28,1708003161.5
15.43,1708003161.515625
16.19,1708003161.53125
17.47,1708003161.546875
19.15,1708003161.5625
21.05,1708003161.578125
23.0,1708003161.59375
24.83,1708003161.609375
26.4,1708003161.625
27.63,1708003161.640625
28.43,1708003161.65625
28.74,1708003161.671875
28.49,1708003161.6875
27.61,1708003161.703125
26.1,1708003161.71875
24.1,1708003161.734375
21.8,1708003161.75
19.42,1708003161.765625
17.08,1708003161.78125
14.77,1708003161.796875
12.4,1708003161.8125
9.86,1708003161.828125
7.2,1708003161.84375
4.57,1708003161.859375
2.16,1708003161.875
0.1,1708003161.890625
-1.67,1708003161.90625
-3.34,1708003161.921875
-5.14,1708003161.9375
-7.23,1708003161.953125
-9.64,1708003161.96875
-12.22,1708003161.984375
-14.79,1708003162.0
-17.12,1708003162.015625
-19.09,1708003162.03125
-20.68,1708003162.046875
-22.03,1708003162.0625
-23.4,1708003162.078125
-25.1,1708003162.09375
-27.49,1708003162.109375
-30.74,1708003162.125
-34.8,1708003162.140625
-39.29,1708003162.15625
-43.52,1708003162.171875
-46.64,1708003162.1875
-47.8,1708003162.203125
-46.37,1708003162.21875
-42.13,1708003162.234375
-35.31,1708003162.25
-26.54,1708003162.265625
-16.73,1708003162.28125
-6.83,1708003162.296875
2.34,1708003162.3125
10.15,1708003162.328125
16.3,1708003162.34375
20.75,1708003162.359375
23.6,1708003162.375
25.03,1708003162.390625
25.24,1708003162.40625
24.38,1708003162.421875
22.61,1708003162.4375
20.18,1708003162.453125
17.43,1708003162.46875
14.8,1708003162.484375
12.7,1708003162.5
11.44,1708003162.515625
11.13,1708003162.53125
11.71,1708003162.546875
12.98,1708003162.5625
14.72,1708003162.578125
16.7,1708003162.59375
18.76,1708003162.609375
20.74,1708003162.625
22.49,1708003162.640625
23.82,1708003162.65625
24.58,1708003162.671875
24.64,1708003162.6875
24.02,1708003162.703125
22.84,1708003162.71875
21.26,1708003162.734375
19.45,1708003162.75
17.49,1708003162.765625
15.36,1708003162.78125
13.03,1708003162.796875
10.52,1708003162.8125
7.9,1708003162.828125
5.27,1708003162.84375
2.7,1708003162.859375
0.16,1708003162.875
-2.48,1708003162.890625
-5.3,1708003162.90625
-8.33,1708003162.921875
-11.43,1708003162.9375
-14.36,1708003162.953125
-16.9,1708003162.96875
-18.97,1708003162.984375
-20.66,1708003163.0
-22.24,1708003163.015625
-24.05,1708003163.03125
-26.38,1708003163.046875
-29.43,1708003163.0625
-33.13,1708003163.078125
-37.23,1708003163.09375
-41.21,1708003163.109375
-44.36,1708003163.125
-45.9,1708003163.140625
-45.09,1708003163.15625
-41.49,1708003163.171875
-35.12,1708003163.1875
-26.46,1708003163.203125
-16.43,1708003163.21875
-6.13,1708003163.234375
3.43,1708003163.25
11.56,1708003163.265625
17.9,1708003163.28125
22.37,1708003163.296875
25.09,1708003163.3125
26.27,1708003163.328125
26.15,1708003163.34375
25.09,1708003163.359375
23.44,1708003163.375
21.54,1708003163.390625
19.64,1708003163.40625
17.93,1708003163.421875
16.51,1708003163.4375
15.49,1708003163.453125
14.98,1708003163.46875
15.08,1708003163.484375
15.84,1708003163.5
17.19,1708003163.515625
18.96,1708003163.53125
20.94,1708003163.546875
22.86,1708003163.5625
24.49,1708003163.578125
25.61,1708003163.59375
26.11,1708003163.609375
25.92,1708003163.625
25.12,1708003163.640625
23.82,1708003163.65625
22.14,1708003163.671875
20.12,1708003163.6875
17.77,1708003163.703125
15.07,1708003163.71875
12.1,1708003163.734375
9.01,1708003163.75
5.98,1708003163.765625
3.09,1708003163.78125
0.33,1708003163.796875
-2.42,1708003163.8125
-5.31,1708003163.828125
-8.34,1708003163.84375
-11.44,1708003163.859375
-14.43,1708003163.875
-17.11,1708003163.890625
-19.43,1708003163.90625
-21.39,1708003163.921875
-23.18,1708003163.9375
-25.01,1708003163.953125
-27.16,1708003163.96875
-29.88,1708003163.984375
-33.26,1708003164.0
-37.24,1708003164.015625
-41.45,1708003164.03125
-45.31,1708003164.046875
-48.07,1708003164.0625
-49.01,1708003164.078125
-47.59,1708003164.09375
-43.6,1708003164.109375
-37.21,1708003164.125
-28.93,1708003164.140625
-19.53,1708003164.15625
-9.91,1708003164.171875
-0.85,1708003164.1875
7.07,1708003164.203125
13.58,1708003164.21875
18.63,1708003164.234375
22.32,1708003164.25
24.72,1708003164.265625
25.87,1708003164.28125
25.8,1708003164.296875
24.67,1708003164.3125
22.8,1708003164.328125
20.68,1708003164.34375
18.81,1708003164.359375
17.59,1708003164.375
17.2,1708003164.390625
17.63,1708003164.40625
18.75,1708003164.421875
20.35,1708003164.4375
22.24,1708003164.453125
24.17,1708003164.46875
25.95,1708003164.484375
27.35,1708003164.5
28.22,1708003164.515625
28.5,1708003164.53125
28.21,1708003164.546875
27.41,1708003164.5625
26.24,1708003164.578125
24.77,1708003164.59375
23.09,1708003164.609375
21.28,1708003164.625
19.36,1708003164.640625
17.33,1708003164.65625
15.13,1708003164.671875
12.7,1708003164.6875
10.03,1708003164.703125
7.17,1708003164.71875
4.23,1708003164.734375
1.37,1708003164.75
-1.32,1708003164.765625
-3.79,1708003164.78125
-6.1,1708003164.796875
-8.37,1708003164.8125
-10.68,1708003164.828125
-13.06,1708003164.84375
-15.46,1708003164.859375
-17.8,1708003164.875
-20.02,1708003164.890625
-22.13,1708003164.90625
-24.2,1708003164.921875
-26.41,1708003164.9375
-28.92,1708003164.953125
-31.93,1708003164.96875
-35.53,1708003164.984375
-39.59,1708003165.0
-43.67,1708003165.015625
-47.01,1708003165.03125
-48.66,1708003165.046875
-47.79,1708003165.0625
-43.95,1708003165.078125
-37.31,1708003165.09375
-28.54,1708003165.109375
-18.69,1708003165.125
-8.82,1708003165.140625
0.21,1708003165.15625
7.83,1708003165.171875
13.81,1708003165.1875
18.1,1708003165.203125
20.85,1708003165.21875
22.27,1708003165.234375
22.67,1708003165.25
22.32,1708003165.265625
21.46,1708003165.28125
20.3,1708003165.296875
19.02,1708003165.3125
17.8,1708003165.328125
16.83,1708003165.34375
16.28,1708003165.359375
16.23,1708003165.375
16.71,1708003165.390625
17.65,1708003165.40625
18.98,1708003165.421875
20.6,1708003165.4375
22.41,1708003165.453125
24.26,1708003165.46875
25.91,1708003165.484375
27.1,1708003165.5
27.59,1708003165.515625
27.24,1708003165.53125
26.06,1708003165.546875
24.22,1708003165.5625
21.94,1708003165.578125
19.38,1708003165.59375
16.67,1708003165.609375
13.83,1708003165.625
10.88,1708003165.640625
7.86,1708003165.65625
4.85,1708003165.671875
1.96,1708003165.6875
-0.74,1708003165.703125
-3.19,1708003165.71875
-5.42,1708003165.734375
-7.51,1708003165.75
-9.53,1708003165.765625
-11.56,1708003165.78125
-13.6,1708003165.796875
-15.63,1708003165.8125
-17.57,1708003165.828125
-19.39,1708003165.84375
-21.09,1708003165.859375
-22.78,1708003165.875
-24.65,1708003165.890625
-26.91,1708003165.90625
-29.72,1708003165.921875
-33.07,1708003165.9375
-36.74,1708003165.953125
-40.27,1708003165.96875
-43.02,1708003165.984375
-44.31,1708003166.0
-43.58,1708003166.015625
-40.5,1708003166.03125
-35.11,1708003166.046875
-27.81,1708003166.0625
-19.31,1708003166.078125
-10.46,1708003166.09375
-2.05,1708003166.109375
5.3,1708003166.125
11.22,1708003166.140625
15.6,1708003166.15625
18.47,1708003166.171875
19.91,1708003166.1875
20.08,1708003166.203125
19.14,1708003166.21875
17.35,1708003166.234375
15.07,1708003166.25
12.77,1708003166.265625
10.86,1708003166.28125
9.65,1708003166.296875
9.23,1708003166.3125
9.5,1708003166.328125
10.31,1708003166.34375
11.54,1708003166.359375
13.14,1708003166.375
15.07,1708003166.390625
17.2,1708003166.40625
19.26,1708003166.421875
20.89,1708003166.4375
21.78,1708003166.453125
21.77,1708003166.46875
20.97,1708003166.484375
19.62,1708003166.5
17.98,1708003166.515625
16.21,1708003166.53125
14.33,1708003166.546875
12.25,1708003166.5625
9.93,1708003166.578125
7.41,1708003166.59375
4.78,1708003166.609375
2.18,1708003166.625
-0.31,1708003166.640625
-2.71,1708003166.65625
-5.08,1708003166.671875
-7.48,1708003166.6875
-9.9,1708003166.703125
-12.26,1708003166.71875
-14.49,1708003166.734375
-16.51,1708003166.75
-18.33,1708003166.765625
-20.04,1708003166.78125
-21.82,1708003166.796875
-23.87,1708003166.8125
-26.44,1708003166.828125
-29.68,1708003166.84375
-33.57,1708003166.859375
-37.79,1708003166.875
-41.71,1708003166.890625
-44.52,1708003166.90625
-45.39,1708003166.921875
-43.72,1708003166.9375
-39.33,1708003166.953125
-32.53,1708003166.96875
-23.96,1708003166.984375
-14.48,1708003167.0
-4.98,1708003167.015625
3.77,1708003167.03125
11.19,1708003167.046875
16.9,1708003167.0625
20.73,1708003167.078125
22.73,1708003167.09375
23.12,1708003167.109375
22.22,1708003167.125
20.43,1708003167.140625
18.16,1708003167.15625
15.82,1708003167.171875
13.78,1708003167.1875
12.37,1708003167.203125
11.79,1708003167.21875
12.1,1708003167.234375
13.22,1708003167.25
14.95,1708003167.265625
17.03,1708003167.28125
19.16,1708003167.296875
21.11,1708003167.3125
22.69,1708003167.328125
23.79,1708003167.34375
24.38,1708003167.359375
24.45,1708003167.375
24.04,1708003167.390625
23.13,1708003167.40625
21.7,1708003167.421875
19.71,1708003167.4375
17.23,1708003167.453125
14.39,1708003167.46875
11.43,1708003167.484375
8.53,1708003167.5
5.79,1708003167.515625
3.13,1708003167.53125
0.39,1708003167.546875
-2.57,1708003167.5625
-5.77,1708003167.578125
-9.13,1708003167.59375
-12.51,1708003167.609375
-15.76,1708003167.625
-18.78,1708003167.640625
-21.5,1708003167.65625
-23.88,1708003167.671875
-25.93,1708003167.6875
-27.73,1708003167.703125
-29.48,1708003167.71875
-31.53,1708003167.734375
-34.22,1708003167.75
-37.83,1708003167.765625
-42.37,1708003167.78125
-47.51,1708003167.796875
-52.54,1708003167.8125
-56.55,1708003167.828125
-58.56,1708003167.84375
-57.8,1708003167.859375
-53.95,1708003167.875
-47.16,1708003167.890625
-38.02,1708003167.90625
-27.41,1708003167.921875
-16.25,1708003167.9375
-5.39,1708003167.953125
4.52,1708003167.96875
13.08,1708003167.984375
20.01,1708003168.0
25.24,1708003168.015625
28.81,1708003168.03125
30.88,1708003168.046875
31.64,1708003168.0625
31.34,1708003168.078125
30.25,1708003168.09375
28.71,1708003168.109375
27.09,1708003168.125
25.76,1708003168.140625
25.05,1708003168.15625
25.16,1708003168.171875
26.07,1708003168.1875
27.65,1708003168.203125
29.65,1708003168.21875
31.86,1708003168.234375
34.08,1708003168.25
36.14,1708003168.265625
37.84,1708003168.28125
38.93,1708003168.296875
39.15,1708003168.3125
38.44,1708003168.328125
36.93,1708003168.34375
34.89,1708003168.359375
32.66,1708003168.375
30.43,1708003168.390625
28.24,1708003168.40625
25.92,1708003168.421875
23.25,1708003168.4375
20.06,1708003168.453125
16.43,1708003168.46875
12.64,1708003168.484375
8.98,1708003168.5
5.62,1708003168.515625
2.6,1708003168.53125
-0.18,1708003168.546875
-2.86,1708003168.5625
-5.6,1708003168.578125
-8.51,1708003168.59375
-11.55,1708003168.609375
-14.59,1708003168.625
-17.56,1708003168.640625
-20.43,1708003168.65625
-23.18,1708003168.671875
-25.84,1708003168.6875
-28.53,1708003168.703125
-31.55,1708003168.71875
-35.3,1708003168.734375
-39.67,1708003168.75
-44.34,1708003168.765625
-48.88,1708003168.78125
-52.85,1708003168.796875
-55.75,1708003168.8125
-56.98,1708003168.828125
-55.97,1708003168.84375
-52.35,1708003168.859375
-46.15,1708003168.875
-36.86,1708003168.890625
-24.42,1708003168.90625
-9.65,1708003168.921875
5.75,1708003168.9375
19.81,1708003168.953125
31.04,1708003168.96875
38.81,1708003168.984375
43.16,1708003169.0
44.62,1708003169.015625
45.32,1708003169.03125
47.22,1708003169.046875
51.07,1708003169.0625
56.13,1708003169.078125
60.9,1708003169.09375
64.19,1708003169.109375
65.69,1708003169.125
65.77,1708003169.140625
65.21,1708003169.15625
66.91,1708003169.171875
73.56,1708003169.1875
86.45,1708003169.203125
104.86,1708003169.21875
126.93,1708003169.234375
150.61,1708003169.25
174.34,1708003169.265625
196.86,1708003169.28125
205.33,1708003169.296875
191.07,1708003169.3125
154.09,1708003169.328125
104.47,1708003169.34375
55.19,1708003169.359375
14.65,1708003169.375
-14.97,1708003169.390625
-35.18,1708003169.40625
-48.98,1708003169.421875
-59.28,1708003169.4375
-66.31,1708003169.453125
-69.73,1708003169.46875
-69.81,1708003169.484375
-67.98,1708003169.5
-65.43,1708003169.515625
-63.87,1708003169.53125
-63.9,1708003169.546875
-65.49,1708003169.5625
-68.65,1708003169.578125
-72.16,1708003169.59375
-75.22,1708003169.609375
-77.78,1708003169.625
-80.49,1708003169.640625
-84.05,1708003169.65625
-88.62,1708003169.671875
-93.72,1708003169.6875
-98.98,1708003169.703125
-104.61,1708003169.71875
-108.92,1708003169.734375
-110.95,1708003169.75
-110.41,1708003169.765625
-107.65,1708003169.78125
-103.35,1708003169.796875
-97.96,1708003169.8125
-91.31,1708003169.828125
-82.89,1708003169.84375
-71.98,1708003169.859375
-57.67,1708003169.875
-39.84,1708003169.890625
-19.33,1708003169.90625
2.2,1708003169.921875
22.95,1708003169.9375
41.66,1708003169.953125
58.11,1708003169.96875
72.72,1708003169.984375
85.97,1708003170.0
98.14,1708003170.015625
108.71,1708003170.03125
116.59,1708003170.046875
120.43,1708003170.0625
118.99,1708003170.078125
111.52,1708003170.09375
98.09,1708003170.109375
79.61,1708003170.125
57.88,1708003170.140625
35.31,1708003170.15625
14.37,1708003170.171875
-2.89,1708003170.1875
-15.32,1708003170.203125
-22.82,1708003170.21875
-26.07,1708003170.234375
-26.1,1708003170.25
-23.92,1708003170.265625
-20.4,1708003170.28125
-16.31,1708003170.296875
-12.49,1708003170.3125
-9.75,1708003170.328125
-8.69,1708003170.34375
-9.4,1708003170.359375
-11.38,1708003170.375
-13.74,1708003170.390625
-15.57,1708003170.40625
-16.36,1708003170.421875
-16.15,1708003170.4375
-15.46,1708003170.453125
-14.91,1708003170.46875
-14.96,1708003170.484375
-15.7,1708003170.5
-16.96,1708003170.515625
-18.48,1708003170.53125
-19.98,1708003170.546875
-21.33,1708003170.5625
-22.43,1708003170.578125
-23.27,1708003170.59375
-23.88,1708003170.609375
-24.34,1708003170.625
-24.71,1708003170.640625
-25.0,1708003170.65625
-25.13,1708003170.671875
-24.93,1708003170.6875
-24.34,1708003170.703125
-23.46,1708003170.71875
-22.67,1708003170.734375
-22.48,1708003170.75
-23.35,1708003170.765625
-25.61,1708003170.78125
-29.26,1708003170.796875
-34.05,1708003170.8125
-39.47,1708003170.828125
-44.88,1708003170.84375
-49.47,1708003170.859375
-52.44,1708003170.875
-53.06,1708003170.890625
-50.86,1708003170.90625
-45.76,1708003170.921875
-38.08,1708003170.9375
-28.57,1708003170.953125
-18.16,1708003170.96875
-7.8,1708003170.984375
1.67,1708003171.0
9.68,1708003171.015625
15.9,1708003171.03125
20.2,1708003171.046875
22.65,1708003171.0625
23.43,1708003171.078125
22.83,1708003171.09375
21.25,1708003171.109375
19.1,1708003171.125
16.81,1708003171.140625
14.74,1708003171.15625
13.17,1708003171.171875
12.27,1708003171.1875
12.13,1708003171.203125
12.81,1708003171.21875
14.31,1708003171.234375
16.57,1708003171.25
19.4,1708003171.265625
22.5,1708003171.28125
25.47,1708003171.296875
27.93,1708003171.3125
29.64,1708003171.328125
30.5,1708003171.34375
30.62,1708003171.359375
30.16,1708003171.375
29.28,1708003171.390625
28.09,1708003171.40625
26.58,1708003171.421875
24.77,1708003171.4375
22.61,1708003171.453125
20.16,1708003171.46875
17.42,1708003171.484375
14.45,1708003171.5
11.26,1708003171.515625
7.88,1708003171.53125
4.41,1708003171.546875
0.94,1708003171.5625
-2.41,1708003171.578125
-5.56,1708003171.59375
-8.54,1708003171.609375
-11.47,1708003171.625
-14.5,1708003171.640625
-17.7,1708003171.65625
-21.06,1708003171.671875
-24.45,1708003171.6875
-27.69,1708003171.703125
-30.7,1708003171.71875
-33.52,1708003171.734375
-36.31,1708003171.75
-39.36,1708003171.765625
-42.9,1708003171.78125
-47.06,1708003171.796875
-51.82,1708003171.8125
-56.96,1708003171.828125
-61.98,1708003171.84375
-66.12,1708003171.859375
-68.45,1708003171.875
-68.01,1708003171.890625
-64.09,1708003171.90625
-56.5,1708003171.921875
-45.67,1708003171.9375
-32.6,1708003171.953125
-18.58,1708003171.96875
-4.87,1708003171.984375
7.57,1708003172.0
18.16,1708003172.015625
26.67,1708003172.03125
33.05,1708003172.046875
37.37,1708003172.0625
39.75,1708003172.078125
40.45,1708003172.09375
39.8,1708003172.109375
38.24,1708003172.125
36.18,1708003172.140625
34.0,1708003172.15625
31.97,1708003172.171875
30.27,1708003172.1875
29.08,1708003172.203125
28.57,1708003172.21875
28.84,1708003172.234375
29.93,1708003172.25
31.72,1708003172.265625
33.96,1708003172.28125
36.32,1708003172.296875
38.48,1708003172.3125
40.17,1708003172.328125
41.16,1708003172.34375
41.31,1708003172.359375
40.6,1708003172.375
39.11,1708003172.390625
37.06,1708003172.40625
34.71,1708003172.421875
32.26,1708003172.4375
29.79,1708003172.453125
27.24,1708003172.46875
24.47,1708003172.484375
21.39,1708003172.5
18.03,1708003172.515625
14.51,1708003172.53125
11.0,1708003172.546875
7.59,1708003172.5625
4.25,1708003172.578125
0.9,1708003172.59375
-2.54,1708003172.609375
-6.04,1708003172.625
-9.53,1708003172.640625
-12.96,1708003172.65625
-16.32,1708003172.671875
-19.74,1708003172.6875
-23.3,1708003172.703125
-26.96,1708003172.71875
-30.59,1708003172.734375
-33.96,1708003172.75
-37.02,1708003172.765625
-39.97,1708003172.78125
-43.23,1708003172.796875
-47.31,1708003172.8125
-52.49,1708003172.828125
-58.61,1708003172.84375
-64.98,1708003172.859375
-70.58,1708003172.875
-74.27,1708003172.890625
-75.06,1708003172.90625
-72.34,1708003172.921875
-65.89,1708003172.9375
-55.92,1708003172.953125
-42.99,1708003172.96875
-28.02,1708003172.984375
-12.18,1708003173.0
3.23,1708003173.015625
17.04,1708003173.03125
28.43,1708003173.046875
37.0,1708003173.0625
42.84,1708003173.078125
46.31,1708003173.09375
47.87,1708003173.109375
47.89,1708003173.125
46.67,1708003173.140625
44.49,1708003173.15625
41.71,1708003173.171875
38.79,1708003173.1875
36.19,1708003173.203125
34.27,1708003173.21875
33.18,1708003173.234375
32.9,1708003173.25
33.33,1708003173.265625
34.38,1708003173.28125
36.0,1708003173.296875
38.1,1708003173.3125
40.49,1708003173.328125
42.8,1708003173.34375
44.63,1708003173.359375
45.6,1708003173.375
45.54,1708003173.390625
44.5,1708003173.40625
42.69,1708003173.421875
40.36,1708003173.4375
37.66,1708003173.453125
34.67,1708003173.46875
31.38,1708003173.484375
27.79,1708003173.5
23.9,1708003173.515625
19.78,1708003173.53125
15.47,1708003173.546875
11.07,1708003173.5625
6.67,1708003173.578125
2.37,1708003173.59375
-1.72,1708003173.609375
-5.54,1708003173.625
-9.11,1708003173.640625
-12.51,1708003173.65625
-15.82,1708003173.671875
-19.08,1708003173.6875
-22.27,1708003173.703125
-25.3,1708003173.71875
-28.14,1708003173.734375
-30.81,1708003173.75
-33.46,1708003173.765625
-36.38,1708003173.78125
-39.87,1708003173.796875
-44.16,1708003173.8125
-49.24,1708003173.828125
-54.77,1708003173.84375
-60.04,1708003173.859375
-64.06,1708003173.875
-65.77,1708003173.890625
-64.26,1708003173.90625
-59.02,1708003173.921875
-50.06,1708003173.9375
-37.97,1708003173.953125
-23.82,1708003173.96875
-8.95,1708003173.984375
5.28,1708003174.0
17.78,1708003174.015625
27.88,1708003174.03125
35.37,1708003174.046875
40.34,1708003174.0625
43.04,1708003174.078125
43.7,1708003174.09375
42.58,1708003174.109375
39.99,1708003174.125
36.43,1708003174.140625
32.49,1708003174.15625
28.79,1708003174.171875
25.77,1708003174.1875
23.66,1708003174.203125
22.49,1708003174.21875
22.19,1708003174.234375
22.68,1708003174.25
23.86,1708003174.265625
25.57,1708003174.28125
27.57,1708003174.296875
29.56,1708003174.3125
31.29,1708003174.328125
32.57,1708003174.34375
33.29,1708003174.359375
33.37,1708003174.375
32.69,1708003174.390625
31.11,1708003174.40625
28.54,1708003174.421875
25.02,1708003174.4375
20.79,1708003174.453125
16.17,1708003174.46875
11.51,1708003174.484375
7.04,1708003174.5
2.82,1708003174.515625
-1.24,1708003174.53125
-5.31,1708003174.546875
-9.52,1708003174.5625
-13.9,1708003174.578125
-18.34,1708003174.59375
-22.63,1708003174.609375
-26.58,1708003174.625
-30.09,1708003174.640625
-33.21,1708003174.65625
-36.19,1708003174.671875
-39.33,1708003174.6875
-42.98,1708003174.703125
-47.33,1708003174.71875
-52.32,1708003174.734375
-57.56,1708003174.75
-62.25,1708003174.765625
-65.37,1708003174.78125
-65.81,1708003174.796875
-62.73,1708003174.8125
-55.81,1708003174.828125
-45.42,1708003174.84375
-32.49,1708003174.859375
-18.36,1708003174.875
-4.35,1708003174.890625
8.42,1708003174.90625
19.25,1708003174.921875
27.8,1708003174.9375
34.0,1708003174.953125
37.97,1708003174.96875
39.93,1708003174.984375
40.15,1708003175.0
38.96,1708003175.015625
36.65,1708003175.03125
33.54,1708003175.046875
29.97,1708003175.0625
26.34,1708003175.078125
23.12,1708003175.09375
20.75,1708003175.109375
19.54,1708003175.125
19.53,1708003175.140625
20.55,1708003175.15625
22.22,1708003175.171875
24.17,1708003175.1875
26.12,1708003175.203125
27.88,1708003175.21875
29.31,1708003175.234375
30.25,1708003175.25
30.5,1708003175.265625
29.86,1708003175.28125
28.28,1708003175.296875
25.88,1708003175.3125
22.92,1708003175.328125
19.69,1708003175.34375
16.41,1708003175.359375
13.1,1708003175.375
9.73,1708003175.390625
6.15,1708003175.40625
2.33,1708003175.421875
-1.69,1708003175.4375
-5.81,1708003175.453125
-9.92,1708003175.46875
-13.95,1708003175.484375
-17.89,1708003175.5
-21.73,1708003175.515625
-25.41,1708003175.53125
-28.85,1708003175.546875
-31.96,1708003175.5625
-34.75,1708003175.578125
-37.4,1708003175.59375
-40.25,1708003175.609375
-43.66,1708003175.625
-47.88,1708003175.640625
-52.87,1708003175.65625
-58.16,1708003175.671875
-62.9,1708003175.6875
-66.02,1708003175.703125
-66.48,1708003175.71875
-63.52,1708003175.734375
-56.93,1708003175.75
-47.08,1708003175.765625
-34.87,1708003175.78125
-21.47,1708003175.796875
-8.1,1708003175.8125
4.2,1708003175.828125
14.73,1708003175.84375
23.09,1708003175.859375
29.15,1708003175.875
32.98,1708003175.890625
34.81,1708003175.90625
34.95,1708003175.921875
33.82,1708003175.9375
31.84,1708003175.953125
29.39,1708003175.96875
26.8,1708003175.984375
24.28,1708003176.0
22.02,1708003176.015625
20.19,1708003176.03125
18.98,1708003176.046875
18.58,1708003176.0625
19.08,1708003176.078125
20.46,1708003176.09375
22.47,1708003176.109375
24.75,1708003176.125
26.9,1708003176.140625
28.56,1708003176.15625
29.5,1708003176.171875
29.65,1708003176.1875
29.04,1708003176.203125
27.76,1708003176.21875
25.91,1708003176.234375
23.57,1708003176.25
20.82,1708003176.265625
17.73,1708003176.28125
14.34,1708003176.296875
10.72,1708003176.3125
6.97,1708003176.328125
3.19,1708003176.34375
-0.49,1708003176.359375
-3.99,1708003176.375
-7.35,1708003176.390625
-10.63,1708003176.40625
-13.97,1708003176.421875
-17.43,1708003176.4375
-20.94,1708003176.453125
-24.3,1708003176.46875
-27.27,1708003176.484375
-29.67,1708003176.5
-31.53,1708003176.515625
-33.13,1708003176.53125
-34.89,1708003176.546875
-37.3,1708003176.5625
-40.68,1708003176.578125
-45.05,1708003176.59375
-49.99,1708003176.609375
-54.66,1708003176.625
-57.97,1708003176.640625
-58.77,1708003176.65625
-56.24,1708003176.671875
-50.1,1708003176.6875
-40.75,1708003176.703125
-29.13,1708003176.71875
-16.52,1708003176.734375
-4.19,1708003176.75
6.87,1708003176.765625
16.06,1708003176.78125
23.15,1708003176.796875
28.13,1708003176.8125
31.09,1708003176.828125
32.16,1708003176.84375
31.56,1708003176.859375
29.6,1708003176.875
26.75,1708003176.890625
23.5,1708003176.90625
20.36,1708003176.921875
17.68,1708003176.9375
15.69,1708003176.953125
14.49,1708003176.96875
14.13,1708003176.984375
14.64,1708003177.0
15.98,1708003177.015625
18.0,1708003177.03125
20.45,1708003177.046875
22.95,1708003177.0625
25.12,1708003177.078125
26.61,1708003177.09375
27.24,1708003177.109375
26.97,1708003177.125
25.91,1708003177.140625
24.2,1708003177.15625
22.02,1708003177.171875
19.49,1708003177.1875
16.72,1708003177.203125
13.79,1708003177.21875
10.81,1708003177.234375
7.85,1708003177.25
4.97,1708003177.265625
2.15,1708003177.28125
-0.72,1708003177.296875
-3.79,1708003177.3125
-7.16,1708003177.328125
-10.8,1708003177.34375
-14.48,1708003177.359375
-17.92,1708003177.375
-20.86,1708003177.390625
-23.25,1708003177.40625
-25.22,1708003177.421875
-27.05,1708003177.4375
-29.06,1708003177.453125
-31.54,1708003177.46875
-34.68,1708003177.484375
-38.51,1708003177.5
-42.84,1708003177.515625
-47.16,1708003177.53125
-50.68,1708003177.546875
-52.39,1708003177.5625
-51.35,1708003177.578125
-46.97,1708003177.59375
-39.26,1708003177.609375
-28.89,1708003177.625
-17.05,1708003177.640625
-5.07,1708003177.65625
5.84,1708003177.671875
14.91,1708003177.6875
21.77,1708003177.703125
26.43,1708003177.71875
29.1,1708003177.734375
30.07,1708003177.75
29.66,1708003177.765625
28.19,1708003177.78125
25.98,1708003177.796875
23.4,1708003177.8125
20.82,1708003177.828125
18.53,1708003177.84375
16.72,1708003177.859375
15.47,1708003177.875
14.89,1708003177.890625
15.12,1708003177.90625
16.23,1708003177.921875
18.14,1708003177.9375
20.56,1708003177.953125
23.04,1708003177.96875
25.05,1708003177.984375
26.22,1708003178.0
26.42,1708003178.015625
25.85,1708003178.03125
24.89,1708003178.046875
23.79,1708003178.0625
22.54,1708003178.078125
20.96,1708003178.09375
18.84,1708003178.109375
16.1,1708003178.125
12.83,1708003178.140625
9.23,1708003178.15625
5.79,1708003178.171875
3.04,1708003178.1875
1.12,1708003178.203125
-0.3,1708003178.21875
-1.74,1708003178.234375
-3.66,1708003178.25
-6.36,1708003178.265625
-9.89,1708003178.28125
-14.09,1708003178.296875
-18.15,1708003178.3125
-21.04,1708003178.328125
-22.28,1708003178.34375
-22.4,1708003178.359375
-22.32,1708003178.375
-22.98,1708003178.390625
-25.07,1708003178.40625
-28.84,1708003178.421875
-34.19,1708003178.4375
-39.91,1708003178.453125
-44.45,1708003178.46875
-47.06,1708003178.484375
-48.26,1708003178.5
-48.73,1708003178.515625
-48.89,1708003178.53125
-48.82,1708003178.546875
-48.54,1708003178.5625
-48.28,1708003178.578125
-47.28,1708003178.59375
-44.03,1708003178.609375
-36.92,1708003178.625
-24.7,1708003178.640625
-6.05,1708003178.65625
19.37,1708003178.671875
49.61,1708003178.6875
81.77,1708003178.703125
106.52,1708003178.71875
114.56,1708003178.734375
104.18,1708003178.75
82.91,1708003178.765625
57.94,1708003178.78125
33.63,1708003178.796875
11.1,1708003178.8125
-8.7,1708003178.828125
-25.9,1708003178.84375
-40.86,1708003178.859375
-52.5,1708003178.875
-58.8,1708003178.890625
-58.72,1708003178.90625
-53.24,1708003178.921875
-44.29,1708003178.9375
-33.91,1708003178.953125
-23.53,1708003178.96875
-13.77,1708003178.984375
-4.51,1708003179.0
5.7,1708003179.015625
18.49,1708003179.03125
34.19,1708003179.046875
51.27,1708003179.0625
67.52,1708003179.078125
80.79,1708003179.09375
89.73,1708003179.109375
93.78,1708003179.125
93.32,1708003179.140625
89.85,1708003179.15625
85.16,1708003179.171875
80.28,1708003179.1875
75.05,1708003179.203125
68.9,1708003179.21875
61.36,1708003179.234375
52.44,1708003179.25
42.52,1708003179.265625
32.28,1708003179.28125
22.61,1708003179.296875
14.22,1708003179.3125
7.33,1708003179.328125
1.61,1708003179.34375
-3.28,1708003179.359375
-7.53,1708003179.375
-11.22,1708003179.390625
-14.49,1708003179.40625
-17.6,1708003179.421875
-20.77,1708003179.4375
-24.12,1708003179.453125
-27.67,1708003179.46875
-31.33,1708003179.484375
-34.91,1708003179.5
-38.14,1708003179.515625
-40.79,1708003179.53125
-42.62,1708003179.546875
-43.4,1708003179.5625
-42.83,1708003179.578125
-40.69,1708003179.59375
-37.0,1708003179.609375
-32.09,1708003179.625
-26.66,1708003179.640625
-21.48,1708003179.65625
-17.22,1708003179.671875
-14.23,1708003179.6875
-12.42,1708003179.703125
-11.44,1708003179.71875
-10.82,1708003179.734375
-10.26,1708003179.75
-9.68,1708003179.765625
-9.3,1708003179.78125
-9.35,1708003179.796875
-9.9,1708003179.8125
-10.73,1708003179.828125
-11.35,1708003179.84375
-11.22,1708003179.859375
-10.06,1708003179.875
-7.98,1708003179.890625
-5.46,1708003179.90625
-3.11,1708003179.921875
-1.33,1708003179.9375
-0.25,1708003179.953125
0.37,1708003179.96875
0.99,1708003179.984375
1.92,1708003180.0
3.01,1708003180.015625
3.73,1708003180.03125
3.52,1708003180.046875
2.05,1708003180.0625
-0.48,1708003180.078125
-3.55,1708003180.09375
-6.4,1708003180.109375
-8.31,1708003180.125
-8.97,1708003180.140625
-8.55,1708003180.15625
-7.67,1708003180.171875
-7.04,1708003180.1875
-7.17,1708003180.203125
-8.31,1708003180.21875
-10.68,1708003180.234375
-14.15,1708003180.25
-18.24,1708003180.265625
-22.36,1708003180.28125
-26.2,1708003180.296875
-29.72,1708003180.3125
-33.07,1708003180.328125
-36.3,1708003180.34375
-39.29,1708003180.359375
-42.38,1708003180.375
-45.34,1708003180.390625
-47.29,1708003180.40625
-47.4,1708003180.421875
-45.79,1708003180.4375
-43.44,1708003180.453125
-41.54,1708003180.46875
-40.72,1708003180.484375
-40.63,1708003180.5
-41.64,1708003180.515625
-42.97,1708003180.53125
-42.54,1708003180.546875
-38.39,1708003180.5625
-30.23,1708003180.578125
-19.38,1708003180.59375
-7.64,1708003180.609375
3.69,1708003180.625
14.39,1708003180.640625
22.87,1708003180.65625
29.15,1708003180.671875
35.7,1708003180.6875
45.29,1708003180.703125
58.48,1708003180.71875
73.11,1708003180.734375
85.34,1708003180.75
90.56,1708003180.765625
84.06,1708003180.78125
58.87,1708003180.796875
11.94,1708003180.8125
-52.22,1708003180.828125
-122.7,1708003180.84375
-186.35,1708003180.859375
-231.89,1708003180.875
-253.26,1708003180.890625
-251.75,1708003180.90625
-214.74,1708003180.921875
-148.25,1708003180.9375
-75.53,1708003180.953125
-18.92,1708003180.96875
16.28,1708003180.984375
38.57,1708003181.0
58.04,1708003181.015625
79.0,1708003181.03125
99.84,1708003181.046875
114.43,1708003181.0625
119.52,1708003181.078125
116.21,1708003181.09375
110.17,1708003181.109375
107.58,1708003181.125
110.71,1708003181.140625
117.45,1708003181.15625
123.47,1708003181.171875
125.09,1708003181.1875
122.26,1708003181.203125
114.37,1708003181.21875
102.85,1708003181.234375
91.42,1708003181.25
83.59,1708003181.265625
79.98,1708003181.28125
78.48,1708003181.296875
76.18,1708003181.3125
71.27,1708003181.328125
63.64,1708003181.34375
53.21,1708003181.359375
40.95,1708003181.375
29.09,1708003181.390625
19.71,1708003181.40625
13.22,1708003181.421875
8.58,1708003181.4375
4.33,1708003181.453125
-0.45,1708003181.46875
-5.84,1708003181.484375
-12.07,1708003181.5
-18.97,1708003181.515625
-25.73,1708003181.53125
-31.5,1708003181.546875
-36.05,1708003181.5625
-39.73,1708003181.578125
-43.08,1708003181.59375
-46.43,1708003181.609375
-49.87,1708003181.625
-53.61,1708003181.640625
-57.77,1708003181.65625
-62.19,1708003181.671875
-66.64,1708003181.6875
-71.0,1708003181.703125
-75.13,1708003181.71875
-78.81,1708003181.734375
-81.53,1708003181.75
-82.59,1708003181.765625
-81.34,1708003181.78125
-77.42,1708003181.796875
-70.88,1708003181.8125
-62.2,1708003181.828125
-52.23,1708003181.84375
-41.86,1708003181.859375
-31.94,1708003181.875
-23.02,1708003181.890625
-15.42,1708003181.90625
-9.22,1708003181.921875
-4.4,1708003181.9375
-0.86,1708003181.953125
1.53,1708003181.96875
2.94,1708003181.984375
3.64,1708003182.0
3.88,1708003182.015625
3.92,1708003182.03125
3.99,1708003182.046875
4.25,1708003182.0625
4.83,1708003182.078125
5.82,1708003182.09375
7.29,1708003182.109375
9.2,1708003182.125
11.44,1708003182.140625
13.81,1708003182.15625
16.07,1708003182.171875
18.02,1708003182.1875
19.56,1708003182.203125
20.73,1708003182.21875
21.63,1708003182.234375
22.34,1708003182.25
22.89,1708003182.265625
23.2,1708003182.28125
23.08,1708003182.296875
22.36,1708003182.3125
20.87,1708003182.328125
18.6,1708003182.34375
15.66,1708003182.359375
12.3,1708003182.375
8.83,1708003182.390625
5.45,1708003182.40625
2.25,1708003182.421875
-0.81,1708003182.4375
-3.79,1708003182.453125
-6.74,1708003182.46875
-9.6,1708003182.484375
-12.27,1708003182.5
-14.63,1708003182.515625
-16.7,1708003182.53125
-18.54,1708003182.546875
-20.28,1708003182.5625
-22.04,1708003182.578125
-23.87,1708003182.59375
-25.71,1708003182.609375
-27.47,1708003182.625
-29.07,1708003182.640625
-30.44,1708003182.65625
-31.62,1708003182.671875
-32.69,1708003182.6875
-33.8,1708003182.703125
-35.15,1708003182.71875
-36.92,1708003182.734375
-39.25,1708003182.75
-42.11,1708003182.765625
-45.27,1708003182.78125
-48.22,1708003182.796875
-50.26,1708003182.8125
-50.58,1708003182.828125
-48.52,1708003182.84375
-43.7,1708003182.859375
-36.24,1708003182.875
-26.72,1708003182.890625
-16.04,1708003182.90625
-5.22,1708003182.921875
4.88,1708003182.9375
13.73,1708003182.953125
21.12,1708003182.96875
27.07,1708003182.984375
31.66,1708003183.0
34.9,1708003183.015625
36.75,1708003183.03125
37.2,1708003183.046875
36.4,1708003183.0625
34.68,1708003183.078125
32.48,1708003183.09375
30.24,1708003183.109375
28.32,1708003183.125
26.92,1708003183.140625
26.19,1708003183.15625
26.23,1708003183.171875
27.19,1708003183.1875
29.1,1708003183.203125
31.84,1708003183.21875
35.05,1708003183.234375
38.21,1708003183.25
40.8,1708003183.265625
42.48,1708003183.28125
43.12,1708003183.296875
42.81,1708003183.3125
41.76,1708003183.328125
40.2,1708003183.34375
38.31,1708003183.359375
36.19,1708003183.375
33.86,1708003183.390625
31.33,1708003183.40625
28.61,1708003183.421875
25.73,1708003183.4375
22.74,1708003183.453125
19.73,1708003183.46875
16.73,1708003183.484375
13.74,1708003183.5
10.7,1708003183.515625
7.57,1708003183.53125
4.34,1708003183.546875
1.11,1708003183.5625
-1.97,1708003183.578125
-4.76,1708003183.59375
-7.21,1708003183.609375
-9.43,1708003183.625
-11.63,1708003183.640625
-14.06,1708003183.65625
-16.94,1708003183.671875
-20.42,1708003183.6875
-24.44,1708003183.703125
-28.79,1708003183.71875
-33.05,1708003183.734375
-36.64,1708003183.75
-38.88,1708003183.765625
-39.15,1708003183.78125
-37.03,1708003183.796875
-32.4,1708003183.8125
-25.53,1708003183.828125
-17.01,1708003183.84375
-7.66,1708003183.859375
1.69,1708003183.875
10.31,1708003183.890625
17.71,1708003183.90625
23.63,1708003183.921875
28.01,1708003183.9375
30.86,1708003183.953125
32.2,1708003183.96875
32.06,1708003183.984375
30.6,1708003184.0
28.18,1708003184.015625
25.29,1708003184.03125
22.53,1708003184.046875
20.33,1708003184.0625
18.89,1708003184.078125
18.16,1708003184.09375
17.98,1708003184.109375
18.21,1708003184.125
18.83,1708003184.140625
19.87,1708003184.15625
21.3,1708003184.171875
22.93,1708003184.1875
24.42,1708003184.203125
25.38,1708003184.21875
25.54,1708003184.234375
24.83,1708003184.25
23.4,1708003184.265625
21.44,1708003184.28125
19.13,1708003184.296875
16.57,1708003184.3125
13.79,1708003184.328125
10.86,1708003184.34375
7.89,1708003184.359375
4.98,1708003184.375
2.17,1708003184.390625
-0.58,1708003184.40625
-3.46,1708003184.421875
-6.67,1708003184.4375
-10.26,1708003184.453125
-14.16,1708003184.46875
-18.1,1708003184.484375
-21.75,1708003184.5
-24.9,1708003184.515625
-27.51,1708003184.53125
-29.79,1708003184.546875
-32.09,1708003184.5625
-34.78,1708003184.578125
-38.1,1708003184.59375
-42.08,1708003184.609375
-46.46,1708003184.625
-50.73,1708003184.640625
-54.15,1708003184.65625
-55.92,1708003184.671875
-55.32,1708003184.6875
-51.92,1708003184.703125
-45.7,1708003184.71875
-37.1,1708003184.734375
-26.95,1708003184.75
-16.22,1708003184.765625
-5.87,1708003184.78125
3.39,1708003184.796875
11.16,1708003184.8125
17.28,1708003184.828125
21.76,1708003184.84375
24.75,1708003184.859375
26.42,1708003184.875
27.01,1708003184.890625
26.79,1708003184.90625
26.04,1708003184.921875
24.99,1708003184.9375
23.8,1708003184.953125
22.6,1708003184.96875
21.47,1708003184.984375
20.61,1708003185.0
20.23,1708003185.015625
20.55,1708003185.03125
21.7,1708003185.046875
23.57,1708003185.0625
25.89,1708003185.078125
28.23,1708003185.09375
30.2,1708003185.109375
31.54,1708003185.125
32.16,1708003185.140625
32.08,1708003185.15625
31.39,1708003185.171875
30.12,1708003185.1875
28.3,1708003185.203125
25.92,1708003185.21875
23.07,1708003185.234375
19.87,1708003185.25
16.51,1708003185.265625
13.15,1708003185.28125
9.93,1708003185.296875
6.9,1708003185.3125
4.01,1708003185.328125
1.15,1708003185.34375
-1.8,1708003185.359375
-4.91,1708003185.375
-8.15,1708003185.390625
-11.37,1708003185.40625
-14.38,1708003185.421875
-17.02,1708003185.4375
-19.23,1708003185.453125
-21.09,1708003185.46875
-22.86,1708003185.484375
-24.81,1708003185.5
-27.24,1708003185.515625
-30.32,1708003185.53125
-34.09,1708003185.546875
-38.39,1708003185.5625
-42.85,1708003185.578125
-46.89,1708003185.59375
-49.73,1708003185.609375
-50.51,1708003185.625
-48.52,1708003185.640625
-43.4,1708003185.65625
-35.33,1708003185.671875
-25.05,1708003185.6875
-13.68,1708003185.703125
-2.45,1708003185.71875
7.65,1708003185.734375
16.02,1708003185.75
22.51,1708003185.765625
27.29,1708003185.78125
30.6,1708003185.796875
32.65,1708003185.8125
33.58,1708003185.828125
33.51,1708003185.84375
32.66,1708003185.859375
31.34,1708003185.875
29.9,1708003185.890625
28.63,1708003185.90625
27.7,1708003185.921875
27.09,1708003185.9375
26.75,1708003185.953125
26.66,1708003185.96875
26.91,1708003185.984375
27.65,1708003186.0
28.94,1708003186.015625
30.68,1708003186.03125
32.53,1708003186.046875
34.04,1708003186.0625
34.79,1708003186.078125
34.57,1708003186.09375
33.43,1708003186.109375
31.6,1708003186.125
29.37,1708003186.140625
26.97,1708003186.15625
24.54,1708003186.171875
22.09,1708003186.1875
19.65,1708003186.203125
17.2,1708003186.21875
14.8,1708003186.234375
12.45,1708003186.25
10.11,1708003186.265625
7.73,1708003186.28125
5.27,1708003186.296875
2.75,1708003186.3125
0.22,1708003186.328125
-2.22,1708003186.34375
-4.53,1708003186.359375
-6.72,1708003186.375
-8.92,1708003186.390625
-11.23,1708003186.40625
-13.76,1708003186.421875
-16.5,1708003186.4375
-19.34,1708003186.453125
-22.11,1708003186.46875
-24.68,1708003186.484375
-27.11,1708003186.5
-29.63,1708003186.515625
-32.59,1708003186.53125
-36.29,1708003186.546875
-40.71,1708003186.5625
-45.44,1708003186.578125
-49.69,1708003186.59375
-52.49,1708003186.609375
-52.96,1708003186.625
-50.62,1708003186.640625
-45.5,1708003186.65625
-38.11,1708003186.671875
-29.3,1708003186.6875
-19.99,1708003186.703125
-10.97,1708003186.71875
-2.82,1708003186.734375
4.14,1708003186.75
9.78,1708003186.765625
14.17,1708003186.78125
17.41,1708003186.796875
19.61,1708003186.8125
20.88,1708003186.828125
21.32,1708003186.84375
21.01,1708003186.859375
20.08,1708003186.875
18.76,1708003186.890625
17.36,1708003186.90625
16.21,1708003186.921875
15.61,1708003186.9375
15.71,1708003186.953125
16.5,1708003186.96875
17.83,1708003186.984375
19.47,1708003187.0
21.21,1708003187.015625
22.91,1708003187.03125
24.4,1708003187.046875
25.56,1708003187.0625
26.19,1708003187.078125
26.14,1708003187.09375
25.37,1708003187.109375
23.94,1708003187.125
22.05,1708003187.140625
19.92,1708003187.15625
17.73,1708003187.171875
15.59,1708003187.1875
13.54,1708003187.203125
11.57,1708003187.21875
9.68,1708003187.234375
7.8,1708003187.25
5.87,1708003187.265625
3.81,1708003187.28125
1.58,1708003187.296875
-0.77,1708003187.3125
-3.09,1708003187.328125
-5.22,1708003187.34375
-7.05,1708003187.359375
-8.6,1708003187.375
-10.01,1708003187.390625
-11.43,1708003187.40625
-12.98,1708003187.421875
-14.68,1708003187.4375
-16.45,1708003187.453125
-18.17,1708003187.46875
-19.71,1708003187.484375
-21.04,1708003187.5
-22.18,1708003187.515625
-23.27,1708003187.53125
-24.57,1708003187.546875
-26.36,1708003187.5625
-28.83,1708003187.578125
-31.96,1708003187.59375
-35.43,1708003187.609375
-38.6,1708003187.625
-40.68,1708003187.640625
-40.85,1708003187.65625
-38.61,1708003187.671875
-33.81,1708003187.6875
-26.81,1708003187.703125
-18.35,1708003187.71875
-9.34,1708003187.734375
-0.71,1708003187.75
6.82,1708003187.765625
12.86,1708003187.78125
17.27,1708003187.796875
20.15,1708003187.8125
21.65,1708003187.828125
21.97,1708003187.84375
21.29,1708003187.859375
19.84,1708003187.875
17.91,1708003187.890625
15.85,1708003187.90625
13.99,1708003187.921875
12.58,1708003187.9375
11.71,1708003187.953125
11.41,1708003187.96875
11.58,1708003187.984375
12.12,1708003188.0
12.97,1708003188.015625
14.04,1708003188.03125
15.25,1708003188.046875
16.47,1708003188.0625
17.53,1708003188.078125
18.32,1708003188.09375
18.73,1708003188.109375
18.74,1708003188.125
18.37,1708003188.140625
17.65,1708003188.15625
16.66,1708003188.171875
15.45,1708003188.1875
14.08,1708003188.203125
12.63,1708003188.21875
11.16,1708003188.234375
9.68,1708003188.25
8.16,1708003188.265625
6.57,1708003188.28125
4.86,1708003188.296875
3.02,1708003188.3125
1.08,1708003188.328125
-0.87,1708003188.34375
-2.74,1708003188.359375
-4.49,1708003188.375
-6.13,1708003188.390625
-7.72,1708003188.40625
-9.31,1708003188.421875
-10.92,1708003188.4375
-12.53,1708003188.453125
-14.09,1708003188.46875
-15.58,1708003188.484375
-17.06,1708003188.5
-18.62,1708003188.515625
-20.37,1708003188.53125
-22.33,1708003188.546875
-24.44,1708003188.5625
-26.62,1708003188.578125
-28.78,1708003188.59375
-30.94,1708003188.609375
-33.21,1708003188.625
-35.76,1708003188.640625
-38.7,1708003188.65625
-42.01,1708003188.671875
-45.36,1708003188.6875
-48.22,1708003188.703125
-49.87,1708003188.71875
-49.61,1708003188.734375
-46.99,1708003188.75
-41.9,1708003188.765625
-34.68,1708003188.78125
-25.97,1708003188.796875
-16.64,1708003188.8125
-7.55,1708003188.828125
0.58,1708003188.84375
7.33,1708003188.859375
12.53,1708003188.875
16.24,1708003188.890625
18.68,1708003188.90625
20.13,1708003188.921875
20.84,1708003188.9375
20.98,1708003188.953125
20.68,1708003188.96875
20.05,1708003188.984375
19.26,1708003189.0
18.53,1708003189.015625
18.16,1708003189.03125
18.37,1708003189.046875
19.28,1708003189.0625
20.88,1708003189.078125
23.01,1708003189.09375
25.48,1708003189.109375
28.1,1708003189.125
30.69,1708003189.140625
33.07,1708003189.15625
35.11,1708003189.171875
36.64,1708003189.1875
37.57,1708003189.203125
37.85,1708003189.21875
37.55,1708003189.234375
36.76,1708003189.25
35.55,1708003189.265625
33.94,1708003189.28125
31.87,1708003189.296875
29.29,1708003189.3125
26.17,1708003189.328125
22.67,1708003189.34375
18.97,1708003189.359375
15.31,1708003189.375
11.84,1708003189.390625
8.57,1708003189.40625
5.44,1708003189.421875
2.32,1708003189.4375
-0.87,1708003189.453125
-4.16,1708003189.46875
-7.5,1708003189.484375
-10.86,1708003189.5
-14.18,1708003189.515625
-17.44,1708003189.53125
-20.62,1708003189.546875
-23.68,1708003189.5625
-26.58,1708003189.578125
-29.35,1708003189.59375
-32.05,1708003189.609375
-34.79,1708003189.625
-37.66,1708003189.640625
-40.67,1708003189.65625
-43.71,1708003189.671875
-46.68,1708003189.6875
-49.46,1708003189.703125
-52.03,1708003189.71875
-54.44,1708003189.734375
-56.76,1708003189.75
-59.09,1708003189.765625
-61.53,1708003189.78125
-64.22,1708003189.796875
-67.22,1708003189.8125
-70.41,1708003189.828125
-73.37,1708003189.84375
-75.41,1708003189.859375
-75.7,1708003189.875
-73.64,1708003189.890625
-69.03,1708003189.90625
-62.23,1708003189.921875
-54.07,1708003189.9375
-45.5,1708003189.953125
-37.32,1708003189.96875
-30.01,1708003189.984375
-23.76,1708003190.0
-18.57,1708003190.015625
-14.42,1708003190.03125
-11.28,1708003190.046875
-9.08,1708003190.0625
-7.64,1708003190.078125
-6.67,1708003190.09375
-5.82,1708003190.109375
-4.76,1708003190.125
-3.3,1708003190.140625
-1.32,1708003190.15625
1.19,1708003190.171875
4.28,1708003190.1875
8.0,1708003190.203125
12.39,1708003190.21875
17.36,1708003190.234375
22.7,1708003190.25
28.05,1708003190.265625
33.0,1708003190.28125
37.27,1708003190.296875
40.73,1708003190.3125
43.46,1708003190.328125
45.61,1708003190.34375
47.39,1708003190.359375
48.93,1708003190.375
50.23,1708003190.390625
51.19,1708003190.40625
51.64,1708003190.421875
51.44,1708003190.4375
50.59,1708003190.453125
49.22,1708003190.46875
47.59,1708003190.484375
45.95,1708003190.5
44.46,1708003190.515625
43.13,1708003190.53125
41.8,1708003190.546875
40.32,1708003190.5625
38.57,1708003190.578125
36.63,1708003190.59375
34.63,1708003190.609375
32.72,1708003190.625
30.94,1708003190.640625
29.23,1708003190.65625
27.47,1708003190.671875
25.54,1708003190.6875
23.44,1708003190.703125
21.27,1708003190.71875
19.16,1708003190.734375
17.2,1708003190.75
15.37,1708003190.765625
13.55,1708003190.78125
11.59,1708003190.796875
9.37,1708003190.8125
6.88,1708003190.828125
4.23,1708003190.84375
1.57,1708003190.859375
-0.95,1708003190.875
-3.3,1708003190.890625
-5.6,1708003190.90625
-8.09,1708003190.921875
-11.05,1708003190.9375
-14.59,1708003190.953125
-18.6,1708003190.96875
-22.67,1708003190.984375
-26.17,1708003191.0
-28.42,1708003191.015625
-28.95,1708003191.03125
-27.51,1708003191.046875
-24.21,1708003191.0625
-19.44,1708003191.078125
-13.75,1708003191.09375
-7.74,1708003191.109375
-1.94,1708003191.125
3.26,1708003191.140625
7.61,1708003191.15625
10.99,1708003191.171875
13.36,1708003191.1875
14.74,1708003191.203125
15.23,1708003191.21875
14.94,1708003191.234375
14.06,1708003191.25
12.83,1708003191.265625
11.42,1708003191.28125
10.02,1708003191.296875
8.73,1708003191.3125
7.6,1708003191.328125
6.67,1708003191.34375
5.99,1708003191.359375
5.59,1708003191.375
5.48,1708003191.390625
5.62,1708003191.40625
5.91,1708003191.421875
6.17,1708003191.4375
6.26,1708003191.453125
6.0,1708003191.46875
5.3,1708003191.484375
4.1,1708003191.5
2.4,1708003191.515625
0.28,1708003191.53125
-2.14,1708003191.546875
-4.73,1708003191.5625
-7.37,1708003191.578125
-10.01,1708003191.59375
-12.65,1708003191.609375
-15.35,1708003191.625
-18.13,1708003191.640625
-21.01,1708003191.65625
-23.95,1708003191.671875
-26.84,1708003191.6875
-29.61,1708003191.703125
-32.15,1708003191.71875
-34.43,1708003191.734375
-36.46,1708003191.75
-38.37,1708003191.765625
-40.33,1708003191.78125
-42.55,1708003191.796875
-45.13,1708003191.8125
-48.03,1708003191.828125
-51.02,1708003191.84375
-53.79,1708003191.859375
-56.08,1708003191.875
-57.79,1708003191.890625
-59.06,1708003191.90625
-60.21,1708003191.921875
-61.6,1708003191.9375
-63.5,1708003191.953125
-65.99,1708003191.96875
-68.89,1708003191.984375
-71.8,1708003192.0
-74.15,1708003192.015625
-75.33,1708003192.03125
-74.78,1708003192.046875
-72.13,1708003192.0625
-67.32,1708003192.078125
-60.56,1708003192.09375
-52.3,1708003192.109375
-43.11,1708003192.125
-33.54,1708003192.140625
-24.04,1708003192.15625
-14.94,1708003192.171875
-6.46,1708003192.1875
1.28,1708003192.203125
8.24,1708003192.21875
14.5,1708003192.234375
20.21,1708003192.25
25.57,1708003192.265625
30.72,1708003192.28125
35.73,1708003192.296875
40.58,1708003192.3125
45.24,1708003192.328125
49.7,1708003192.34375
54.03,1708003192.359375
58.31,1708003192.375
62.55,1708003192.390625
66.66,1708003192.40625
70.41,1708003192.421875
73.54,1708003192.4375
75.82,1708003192.453125
77.09,1708003192.46875
77.33,1708003192.484375
76.6,1708003192.5
75.07,1708003192.515625
72.98,1708003192.53125
70.58,1708003192.546875
68.11,1708003192.5625
65.7,1708003192.578125
63.31,1708003192.59375
60.85,1708003192.609375
58.19,1708003192.625
55.24,1708003192.640625
51.99,1708003192.65625
48.54,1708003192.671875
45.03,1708003192.6875
41.66,1708003192.703125
38.61,1708003192.71875
36.01,1708003192.734375
33.86,1708003192.75
32.02,1708003192.765625
30.21,1708003192.78125
28.08,1708003192.796875
25.34,1708003192.8125
21.86,1708003192.828125
17.77,1708003192.84375
13.45,1708003192.859375
9.38,1708003192.875
6.04,1708003192.890625
3.71,1708003192.90625
2.3,1708003192.921875
1.41,1708003192.9375
0.45,1708003192.953125
-1.15,1708003192.96875
-3.64,1708003192.984375
-6.84,1708003193.0
-10.2,1708003193.015625
-12.93,1708003193.03125
-14.36,1708003193.046875
-14.05,1708003193.0625
-11.92,1708003193.078125
-8.13,1708003193.09375
-2.99,1708003193.109375
3.15,1708003193.125
10.0,1708003193.140625
17.27,1708003193.15625
24.63,1708003193.171875
31.77,1708003193.1875
38.45,1708003193.203125
44.52,1708003193.21875
49.94,1708003193.234375
54.71,1708003193.25
58.81,1708003193.265625
62.23,1708003193.28125
64.9,1708003193.296875
66.8,1708003193.3125
67.96,1708003193.328125
68.56,1708003193.34375
68.98,1708003193.359375
69.59,1708003193.375
70.69,1708003193.390625
72.38,1708003193.40625
74.53,1708003193.421875
76.99,1708003193.4375
79.72,1708003193.453125
82.92,1708003193.46875
86.92,1708003193.484375
91.81,1708003193.5
97.17,1708003193.515625
101.96,1708003193.53125
104.79,1708003193.546875
104.52,1708003193.5625
100.73,1708003193.578125
93.83,1708003193.59375
84.81,1708003193.609375
74.64,1708003193.625
63.96,1708003193.640625
52.93,1708003193.65625
41.58,1708003193.671875
30.01,1708003193.6875
18.55,1708003193.703125
7.66,1708003193.71875
-2.3,1708003193.734375
-11.23,1708003193.75
-19.24,1708003193.765625
-26.57,1708003193.78125
-33.44,1708003193.796875
-39.95,1708003193.8125
-46.18,1708003193.828125
-52.1,1708003193.84375
-57.66,1708003193.859375
-62.7,1708003193.875
-67.06,1708003193.890625
-70.65,1708003193.90625
-73.62,1708003193.921875
-76.3,1708003193.9375
-79.15,1708003193.953125
-82.54,1708003193.96875
-86.55,1708003193.984375
-90.91,1708003194.0
-95.09,1708003194.015625
-98.42,1708003194.03125
-100.33,1708003194.046875
-100.47,1708003194.0625
-98.75,1708003194.078125
-95.32,1708003194.09375
-90.45,1708003194.109375
-84.46,1708003194.125
-77.67,1708003194.140625
-70.44,1708003194.15625
-63.15,1708003194.171875
-56.21,1708003194.1875
-49.97,1708003194.203125
-44.57,1708003194.21875
-39.95,1708003194.234375
-35.9,1708003194.25
-32.18,1708003194.265625
-28.75,1708003194.28125
-25.71,1708003194.296875
-23.32,1708003194.3125
-21.76,1708003194.328125
-20.96,1708003194.34375
-20.61,1708003194.359375
-20.25,1708003194.375
-19.5,1708003194.390625
-18.21,1708003194.40625
-16.48,1708003194.421875
-14.54,1708003194.4375
-12.59,1708003194.453125
-10.71,1708003194.46875
-8.94,1708003194.484375
-7.32,1708003194.5
-6.0,1708003194.515625
-5.15,1708003194.53125
-4.92,1708003194.546875
-5.31,1708003194.5625
-6.17,1708003194.578125
-7.27,1708003194.59375
-8.46,1708003194.609375
-9.73,1708003194.625
-11.21,1708003194.640625
-13.06,1708003194.65625
-15.32,1708003194.671875
-17.86,1708003194.6875
-20.42,1708003194.703125
-22.68,1708003194.71875
-24.4,1708003194.734375
-25.5,1708003194.75
-26.08,1708003194.765625
-26.37,1708003194.78125
-26.66,1708003194.796875
-27.16,1708003194.8125
-27.98,1708003194.828125
-29.02,1708003194.84375
-30.07,1708003194.859375
-30.91,1708003194.875
-31.43,1708003194.890625
-31.71,1708003194.90625
-31.96,1708003194.921875
-32.47,1708003194.9375
-33.45,1708003194.953125
-34.94,1708003194.96875
-36.84,1708003194.984375
-38.89,1708003195.0
-40.79,1708003195.015625
-42.18,1708003195.03125
-42.67,1708003195.046875
-41.85,1708003195.0625
-39.37,1708003195.078125
-35.08,1708003195.09375
-29.11,1708003195.109375
-21.98,1708003195.125
-14.42,1708003195.140625
-7.23,1708003195.15625
-1.0,1708003195.171875
3.96,1708003195.1875
7.64,1708003195.203125
10.19,1708003195.21875
11.74,1708003195.234375
12.39,1708003195.25
12.19,1708003195.265625
11.27,1708003195.28125
9.84,1708003195.296875
8.22,1708003195.3125
6.73,1708003195.328125
5.57,1708003195.34375
4.86,1708003195.359375
4.6,1708003195.375
4.83,1708003195.390625
5.56,1708003195.40625
6.77,1708003195.421875
8.4,1708003195.4375
10.2,1708003195.453125
11.87,1708003195.46875
13.1,1708003195.484375
13.68,1708003195.5
13.61,1708003195.515625
13.01,1708003195.53125
12.07,1708003195.546875
10.99,1708003195.5625
9.83,1708003195.578125
8.63,1708003195.59375
7.39,1708003195.609375
6.13,1708003195.625
4.93,1708003195.640625
3.9,1708003195.65625
3.09,1708003195.671875
2.45,1708003195.6875
1.83,1708003195.703125
1.03,1708003195.71875
-0.1,1708003195.734375
-1.52,1708003195.75
-3.03,1708003195.765625
-4.35,1708003195.78125
-5.28,1708003195.796875
-5.82,1708003195.8125
-6.17,1708003195.828125
-6.64,1708003195.84375
-7.53,1708003195.859375
-9.0,1708003195.875
-11.03,1708003195.890625
-13.48,1708003195.90625
-16.12,1708003195.921875
-18.6,1708003195.9375
-20.47,1708003195.953125
-21.19,1708003195.96875
-20.23,1708003195.984375
-17.27,1708003196.0
-12.38,1708003196.015625
-6.06,1708003196.03125
0.86,1708003196.046875
7.51,1708003196.0625
13.17,1708003196.078125
17.47,1708003196.09375
20.35,1708003196.109375
21.99,1708003196.125
22.62,1708003196.140625
22.49,1708003196.15625
21.72,1708003196.171875
20.47,1708003196.1875
18.84,1708003196.203125
16.99,1708003196.21875
15.1,1708003196.234375
13.36,1708003196.25
11.93,1708003196.265625
10.95,1708003196.28125
10.49,1708003196.296875
10.59,1708003196.3125
11.21,1708003196.328125
12.21,1708003196.34375
13.41,1708003196.359375
14.54,1708003196.375
15.35,1708003196.390625
15.63,1708003196.40625
15.27,1708003196.421875
14.33,1708003196.4375
12.99,1708003196.453125
11.49,1708003196.46875
10.04,1708003196.484375
8.72,1708003196.5
7.51,1708003196.515625
6.25,1708003196.53125
4.77,1708003196.546875
2.96,1708003196.5625
0.76,1708003196.578125
-1.74,1708003196.59375
-4.36,1708003196.609375
-6.88,1708003196.625
-9.04,1708003196.640625
-10.69,1708003196.65625
-11.82,1708003196.671875
-12.62,1708003196.6875
-13.37,1708003196.703125
-14.37,1708003196.71875
-15.77,1708003196.734375
-17.51,1708003196.75
-19.39,1708003196.765625
-21.15,1708003196.78125
-22.66,1708003196.796875
-24.0,1708003196.8125
-25.38,1708003196.828125
-27.06,1708003196.84375
-29.13,1708003196.859375
-31.43,1708003196.875
-33.6,1708003196.890625
-35.1,1708003196.90625
-35.4,1708003196.921875
-34.07,1708003196.9375
-30.87,1708003196.953125
-25.85,1708003196.96875
-19.38,1708003196.984375
-12.1,1708003197.0
-4.79,1708003197.015625
1.84,1708003197.03125
7.35,1708003197.046875
11.63,1708003197.0625
14.85,1708003197.078125
17.31,1708003197.09375
19.23,1708003197.109375
20.65,1708003197.125
21.52,1708003197.140625
21.82,1708003197.15625
21.6,1708003197.171875
21.11,1708003197.1875
20.6,1708003197.203125
20.24,1708003197.21875
20.08,1708003197.234375
20.1,1708003197.25
20.25,1708003197.265625
20.6,1708003197.28125
21.26,1708003197.296875
22.27,1708003197.3125
23.6,1708003197.328125
25.04,1708003197.34375
26.26,1708003197.359375
27.02,1708003197.375
27.21,1708003197.390625
26.88,1708003197.40625
26.15,1708003197.421875
25.16,1708003197.4375
23.96,1708003197.453125
22.57,1708003197.46875
21.03,1708003197.484375
19.45,1708003197.5
17.96,1708003197.515625
16.69,1708003197.53125
15.61,1708003197.546875
14.59,1708003197.5625
13.43,1708003197.578125
11.95,1708003197.59375
10.13,1708003197.609375
8.1,1708003197.625
6.07,1708003197.640625
4.22,1708003197.65625
2.62,1708003197.671875
1.19,1708003197.6875
-0.27,1708003197.703125
-1.91,1708003197.71875
-3.84,1708003197.734375
-6.02,1708003197.75
-8.32,1708003197.765625
-10.59,1708003197.78125
-12.68,1708003197.796875
-14.54,1708003197.8125
-16.21,1708003197.828125
-17.78,1708003197.84375
-19.4,1708003197.859375
-21.2,1708003197.875
-23.31,1708003197.890625
-25.8,1708003197.90625
-28.67,1708003197.921875
-31.79,1708003197.9375
-34.92,1708003197.953125
-37.6,1708003197.96875
-39.29,1708003197.984375
-39.45,1708003198.0
-37.66,1708003198.015625
-33.8,1708003198.03125
-28.12,1708003198.046875
-21.18,1708003198.0625
-13.79,1708003198.078125
-6.7,1708003198.09375
-0.44,1708003198.109375
4.72,1708003198.125
8.81,1708003198.140625
11.95,1708003198.15625
14.3,1708003198.171875
15.9,1708003198.1875
16.8,1708003198.203125
17.04,1708003198.21875
16.7,1708003198.234375
15.98,1708003198.25
15.05,1708003198.265625
14.11,1708003198.28125
13.29,1708003198.296875
12.74,1708003198.3125
12.57,1708003198.328125
12.88,1708003198.34375
13.7,1708003198.359375
14.96,1708003198.375
16.49,1708003198.390625
17.99,1708003198.40625
19.23,1708003198.421875
20.01,1708003198.4375
20.24,1708003198.453125
19.92,1708003198.46875
19.09,1708003198.484375
17.85,1708003198.5
16.26,1708003198.515625
14.41,1708003198.53125
12.39,1708003198.546875
10.33,1708003198.5625
8.32,1708003198.578125
6.41,1708003198.59375
4.58,1708003198.609375
2.77,1708003198.625
0.9,1708003198.640625
-1.05,1708003198.65625
-3.0,1708003198.671875
-4.86,1708003198.6875
-6.53,1708003198.703125
-7.98,1708003198.71875
-9.31,1708003198.734375
-10.64,1708003198.75
-12.08,1708003198.765625
-13.61,1708003198.78125
-15.16,1708003198.796875
-16.6,1708003198.8125
-17.89,1708003198.828125
-19.08,1708003198.84375
-20.23,1708003198.859375
-21.44,1708003198.875
-22.72,1708003198.890625
-24.01,1708003198.90625
-25.25,1708003198.921875
-26.45,1708003198.9375
-27.68,1708003198.953125
-29.01,1708003198.96875
-30.47,1708003198.984375
-31.92,1708003199.0
-33.13,1708003199.015625
-33.91,1708003199.03125
-34.25,1708003199.046875
-34.37,1708003199.0625
-34.62,1708003199.078125
-35.37,1708003199.09375
-36.71,1708003199.109375
-38.36,1708003199.125
-39.74,1708003199.140625
-40.07,1708003199.15625
-38.68,1708003199.171875
-35.16,1708003199.1875
-29.51,1708003199.203125
-22.13,1708003199.21875
-13.71,1708003199.234375
-5.13,1708003199.25
2.8,1708003199.265625
9.48,1708003199.28125
14.54,1708003199.296875
17.95,1708003199.3125
19.87,1708003199.328125
20.58,1708003199.34375
20.4,1708003199.359375
19.54,1708003199.375
18.15,1708003199.390625
16.31,1708003199.40625
14.07,1708003199.421875
11.48,1708003199.4375
8.63,1708003199.453125
5.6,1708003199.46875
2.54,1708003199.484375
-0.37,1708003199.5
-2.92,1708003199.515625
-4.99,1708003199.53125
-6.55,1708003199.546875
-7.76,1708003199.5625
-8.91,1708003199.578125
-10.28,1708003199.59375
-12.08,1708003199.609375
-14.33,1708003199.625
-16.9,1708003199.640625
-19.59,1708003199.65625
-22.2,1708003199.671875
-24.61,1708003199.6875
-26.69,1708003199.703125
-28.3,1708003199.71875
-29.3,1708003199.734375
-29.58,1708003199.75
-29.21,1708003199.765625
-28.38,1708003199.78125
-27.37,1708003199.796875
-26.39,1708003199.8125
-25.38,1708003199.828125
-24.06,1708003199.84375
-22.04,1708003199.859375
-19.05,1708003199.875
-15.1,1708003199.890625
-10.51,1708003199.90625
-5.66,1708003199.921875
-0.84,1708003199.9375
3.91,1708003199.953125
8.69,1708003199.96875
13.56,1708003199.984375
18.32,1708003200.0
22.57,1708003200.015625
25.89,1708003200.03125
28.19,1708003200.046875
29.74,1708003200.0625
31.1,1708003200.078125
32.7,1708003200.09375
34.53,1708003200.109375
36.17,1708003200.125
36.95,1708003200.140625
36.36,1708003200.15625
34.32,1708003200.171875
31.18,1708003200.1875
27.56,1708003200.203125
24.13,1708003200.21875
21.39,1708003200.234375
19.75,1708003200.25
19.53,1708003200.265625
21.03,1708003200.28125
24.38,1708003200.296875
29.5,1708003200.3125
35.96,1708003200.328125
43.08,1708003200.34375
50.07,1708003200.359375
56.23,1708003200.375
61.12,1708003200.390625
64.62,1708003200.40625
66.87,1708003200.421875
68.19,1708003200.4375
68.95,1708003200.453125
69.43,1708003200.46875
69.78,1708003200.484375
70.1,1708003200.5
70.39,1708003200.515625
70.65,1708003200.53125
70.86,1708003200.546875
70.95,1708003200.5625
70.86,1708003200.578125
70.57,1708003200.59375
70.19,1708003200.609375
69.98,1708003200.625
70.15,1708003200.640625
70.84,1708003200.65625
71.88,1708003200.671875
72.92,1708003200.6875
73.56,1708003200.703125
73.56,1708003200.71875
72.99,1708003200.734375
72.07,1708003200.75
71.02,1708003200.765625
69.76,1708003200.78125
68.02,1708003200.796875
65.59,1708003200.8125
62.57,1708003200.828125
59.42,1708003200.84375
56.79,1708003200.859375
55.02,1708003200.875
53.92,1708003200.890625
52.77,1708003200.90625
50.65,1708003200.921875
46.88,1708003200.9375
41.29,1708003200.953125
34.18,1708003200.96875
26.03,1708003200.984375
17.18,1708003201.0
7.71,1708003201.015625
-2.42,1708003201.03125
-13.14,1708003201.046875
-24.12,1708003201.0625
-34.78,1708003201.078125
-44.51,1708003201.09375
-52.93,1708003201.109375
-60.02,1708003201.125
-66.04,1708003201.140625
-71.4,1708003201.15625
-76.39,1708003201.171875
-81.12,1708003201.1875
-85.44,1708003201.203125
-89.15,1708003201.21875
-92.11,1708003201.234375
-94.46,1708003201.25
-96.54,1708003201.265625
-98.77,1708003201.28125
-101.31,1708003201.296875
-103.94,1708003201.3125
-106.05,1708003201.328125
-106.84,1708003201.34375
-105.67,1708003201.359375
-102.29,1708003201.375
-96.99,1708003201.390625
-90.47,1708003201.40625
-83.54,1708003201.421875
-76.92,1708003201.4375
-71.03,1708003201.453125
-65.96,1708003201.46875
-61.59,1708003201.484375
-57.74,1708003201.5
-54.25,1708003201.515625
-51.05,1708003201.53125
-48.08,1708003201.546875
-45.28,1708003201.5625
-42.57,1708003201.578125
-39.79,1708003201.59375
-36.8,1708003201.609375
-33.51,1708003201.625
-29.82,1708003201.640625
-25.68,1708003201.65625
-21.03,1708003201.671875
-15.79,1708003201.6875
-9.9,1708003201.703125
-3.42,1708003201.71875
3.41,1708003201.734375
10.2,1708003201.75
16.49,1708003201.765625
21.97,1708003201.78125
26.55,1708003201.796875
30.4,1708003201.8125
33.86,1708003201.828125
37.22,1708003201.84375
40.6,1708003201.859375
43.89,1708003201.875
46.82,1708003201.890625
49.18,1708003201.90625
50.88,1708003201.921875
52.0,1708003201.9375
52.66,1708003201.953125
52.97,1708003201.96875
52.93,1708003201.984375
52.5,1708003202.0
51.67,1708003202.015625
50.55,1708003202.03125
49.34,1708003202.046875
48.2,1708003202.0625
47.18,1708003202.078125
46.15,1708003202.09375
44.9,1708003202.109375
43.31,1708003202.125
41.51,1708003202.140625
39.81,1708003202.15625
38.61,1708003202.171875
38.14,1708003202.1875
38.31,1708003202.203125
38.76,1708003202.21875
39.05,1708003202.234375
38.84,1708003202.25
38.06,1708003202.265625
36.76,1708003202.28125
35.08,1708003202.296875
33.05,1708003202.3125
30.59,1708003202.328125
27.58,1708003202.34375
23.88,1708003202.359375
19.5,1708003202.375
14.52,1708003202.390625
9.11,1708003202.40625
3.56,1708003202.421875
-1.73,1708003202.4375
-6.3,1708003202.453125
-9.76,1708003202.46875
-11.99,1708003202.484375
-13.13,1708003202.5
-13.56,1708003202.515625
-13.69,1708003202.53125
-13.8,1708003202.546875
-14.05,1708003202.5625
-14.5,1708003202.578125
-15.27,1708003202.59375
-16.58,1708003202.609375
-18.63,1708003202.625
-21.48,1708003202.640625
-24.92,1708003202.65625
-28.54,1708003202.671875
-31.88,1708003202.6875
-34.61,1708003202.703125
-36.62,1708003202.71875
-37.97,1708003202.734375
-38.76,1708003202.75
-39.01,1708003202.765625
-38.65,1708003202.78125
-37.59,1708003202.796875
-35.89,1708003202.8125
-33.72,1708003202.828125
-31.35,1708003202.84375
-29.1,1708003202.859375
-27.14,1708003202.875
-25.48,1708003202.890625
-24.04,1708003202.90625
-22.7,1708003202.921875
-21.42,1708003202.9375
-20.26,1708003202.953125
-19.3,1708003202.96875
-18.65,1708003202.984375
-18.31,1708003203.0
-18.16,1708003203.015625
-17.95,1708003203.03125
-17.51,1708003203.046875
-16.73,1708003203.0625
-15.65,1708003203.078125
-14.48,1708003203.09375
-13.45,1708003203.109375
-12.75,1708003203.125
-12.41,1708003203.140625
-12.34,1708003203.15625
-12.37,1708003203.171875
-12.32,1708003203.1875
-12.13,1708003203.203125
-11.84,1708003203.21875
-11.65,1708003203.234375
-11.77,1708003203.25
-12.35,1708003203.265625
-13.35,1708003203.28125
-14.6,1708003203.296875
-15.87,1708003203.3125
-16.96,1708003203.328125
-17.85,1708003203.34375
-18.66,1708003203.359375
-19.64,1708003203.375
-21.07,1708003203.390625
-23.09,1708003203.40625
-25.67,1708003203.421875
-28.53,1708003203.4375
-31.19,1708003203.453125
-33.04,1708003203.46875
-33.45,1708003203.484375
-32.0,1708003203.5
-28.59,1708003203.515625
-23.46,1708003203.53125
-17.17,1708003203.546875
-10.44,1708003203.5625
-3.95,1708003203.578125
1.78,1708003203.59375
6.4,1708003203.609375
9.77,1708003203.625
11.92,1708003203.640625
13.0,1708003203.65625
13.22,1708003203.671875
12.77,1708003203.6875
11.82,1708003203.703125
10.47,1708003203.71875
8.79,1708003203.734375
6.94,1708003203.75
5.17,1708003203.765625
3.77,1708003203.78125
2.98,1708003203.796875
2.88,1708003203.8125
3.36,1708003203.828125
4.23,1708003203.84375
5.34,1708003203.859375
6.62,1708003203.875
8.12,1708003203.890625
9.85,1708003203.90625
11.7,1708003203.921875
13.42,1708003203.9375
14.69,1708003203.953125
15.28,1708003203.96875
15.13,1708003203.984375
14.36,1708003204.0
13.23,1708003204.015625
12.0,1708003204.03125
10.82,1708003204.046875
9.68,1708003204.0625
8.47,1708003204.078125
7.05,1708003204.09375
5.35,1708003204.109375
3.41,1708003204.125
1.39,1708003204.140625
-0.51,1708003204.15625
-2.14,1708003204.171875
-3.44,1708003204.1875
-4.41,1708003204.203125
-5.2,1708003204.21875
-5.95,1708003204.234375
-6.82,1708003204.25
-7.91,1708003204.265625
-9.26,1708003204.28125
-10.85,1708003204.296875
-12.61,1708003204.3125
-14.48,1708003204.328125
-16.4,1708003204.34375
-18.37,1708003204.359375
-20.34,1708003204.375
-22.1,1708003204.390625
-23.26,1708003204.40625
-23.28,1708003204.421875
-21.65,1708003204.4375
-18.13,1708003204.453125
-12.94,1708003204.46875
-6.65,1708003204.484375
-0.11,1708003204.5
5.96,1708003204.515625
11.1,1708003204.53125
15.15,1708003204.546875
18.19,1708003204.5625
20.28,1708003204.578125
21.47,1708003204.59375
21.74,1708003204.609375
21.13,1708003204.625
19.8,1708003204.640625
18.03,1708003204.65625
16.17,1708003204.671875
14.5,1708003204.6875
13.2,1708003204.703125
12.31,1708003204.71875
11.84,1708003204.734375
11.75,1708003204.75
12.02,1708003204.765625
12.7,1708003204.78125
13.76,1708003204.796875
15.11,1708003204.8125
16.53,1708003204.828125
17.75,1708003204.84375
18.44,1708003204.859375
18.44,1708003204.875
17.74,1708003204.890625
16.5,1708003204.90625
14.98,1708003204.921875
13.4,1708003204.9375
11.86,1708003204.953125
10.35,1708003204.96875
8.77,1708003204.984375
7.07,1708003205.0
5.23,1708003205.015625
3.29,1708003205.03125
1.27,1708003205.046875
-0.84,1708003205.0625
-3.07,1708003205.078125
-5.41,1708003205.09375
-7.77,1708003205.109375
-10.01,1708003205.125
-12.02,1708003205.140625
-13.73,1708003205.15625
-15.12,1708003205.171875
-16.22,1708003205.1875
-17.14,1708003205.203125
-18.01,1708003205.21875
-19.03,1708003205.234375
-20.47,1708003205.25
-22.53,1708003205.265625
-25.24,1708003205.28125
-28.36,1708003205.296875
-31.33,1708003205.3125
-33.43,1708003205.328125
-33.93,1708003205.34375
-32.35,1708003205.359375
-28.54,1708003205.375
-22.77,1708003205.390625
-15.62,1708003205.40625
-7.85,1708003205.421875
-0.25,1708003205.4375
6.5,1708003205.453125
11.93,1708003205.46875
15.88,1708003205.484375
18.43,1708003205.5
19.84,1708003205.515625
20.41,1708003205.53125
20.42,1708003205.546875
20.05,1708003205.5625
19.46,1708003205.578125
18.7,1708003205.59375
17.89,1708003205.609375
17.15,1708003205.625
16.59,1708003205.640625
16.3,1708003205.65625
16.34,1708003205.671875
16.72,1708003205.6875
17.42,1708003205.703125
18.44,1708003205.71875
19.73,1708003205.734375
21.17,1708003205.75
22.55,1708003205.765625
23.57,1708003205.78125
23.97,1708003205.796875
23.57,1708003205.8125
22.34,1708003205.828125
20.5,1708003205.84375
18.31,1708003205.859375
16.08,1708003205.875
13.96,1708003205.890625
12.0,1708003205.90625
10.11,1708003205.921875
8.2,1708003205.9375
6.21,1708003205.953125
4.18,1708003205.96875
2.22,1708003205.984375
0.42,1708003206.0
-1.18,1708003206.015625
-2.63,1708003206.03125
-4.06,1708003206.046875
-5.57,1708003206.0625
-7.25,1708003206.078125
-9.05,1708003206.09375
-10.91,1708003206.109375
-12.7,1708003206.125
-14.34,1708003206.140625
-15.82,1708003206.15625
-17.15,1708003206.171875
-18.46,1708003206.1875
-19.93,1708003206.203125
-21.78,1708003206.21875
-24.21,1708003206.234375
-27.24,1708003206.25
-30.6,1708003206.265625
-33.71,1708003206.28125
-35.77,1708003206.296875
-35.98,1708003206.3125
-33.81,1708003206.328125
-29.19,1708003206.34375
-22.54,1708003206.359375
-14.65,1708003206.375
-6.45,1708003206.390625
1.2,1708003206.40625
7.67,1708003206.421875
12.64,1708003206.4375
16.09,1708003206.453125
18.24,1708003206.46875
19.43,1708003206.484375
20.0,1708003206.5
20.16,1708003206.515625
19.98,1708003206.53125
19.44,1708003206.546875
18.51,1708003206.5625
17.28,1708003206.578125
15.97,1708003206.59375
14.84,1708003206.609375
14.13,1708003206.625
13.94,1708003206.640625
14.25,1708003206.65625
14.99,1708003206.671875
16.08,1708003206.6875
17.45,1708003206.703125
18.95,1708003206.71875
20.38,1708003206.734375
21.44,1708003206.75
21.9,1708003206.765625
21.64,1708003206.78125
20.74,1708003206.796875
19.44,1708003206.8125
18.02,1708003206.828125
16.68,1708003206.84375
15.5,1708003206.859375
14.41,1708003206.875
13.28,1708003206.890625
11.93,1708003206.90625
10.27,1708003206.921875
8.27,1708003206.9375
6.04,1708003206.953125
3.81,1708003206.96875
1.85,1708003206.984375
0.35,1708003207.0
-0.66,1708003207.015625
-1.38,1708003207.03125
-2.14,1708003207.046875
-3.29,1708003207.0625
-5.02,1708003207.078125
-7.25,1708003207.09375
-9.66,1708003207.109375
-11.89,1708003207.125
-13.64,1708003207.140625
-14.89,1708003207.15625
-15.83,1708003207.171875
-16.81,1708003207.1875
-18.14,1708003207.203125
-19.98,1708003207.21875
-22.26,1708003207.234375
-24.74,1708003207.25
-27.04,1708003207.265625
-28.73,1708003207.28125
-29.38,1708003207.296875
-28.59,1708003207.3125
-26.03,1708003207.328125
-21.6,1708003207.34375
-15.52,1708003207.359375
-8.42,1708003207.375
-1.15,1708003207.390625
5.45,1708003207.40625
10.86,1708003207.421875
14.95,1708003207.4375
17.96,1708003207.453125
20.21,1708003207.46875
21.91,1708003207.484375
23.03,1708003207.5
23.4,1708003207.515625
22.85,1708003207.53125
21.45,1708003207.546875
19.46,1708003207.5625
17.26,1708003207.578125
15.26,1708003207.59375
13.69,1708003207.609375
12.63,1708003207.625
12.05,1708003207.640625
11.89,1708003207.65625
12.08,1708003207.671875
12.53,1708003207.6875
13.1,1708003207.703125
13.53,1708003207.71875
13.53,1708003207.734375
12.82,1708003207.75
11.31,1708003207.765625
9.18,1708003207.78125
6.8,1708003207.796875
4.62,1708003207.8125
2.94,1708003207.828125
1.81,1708003207.84375
1.04,1708003207.859375
0.28,1708003207.875
-0.73,1708003207.890625
-2.1,1708003207.90625
-3.75,1708003207.921875
-5.49,1708003207.9375
-7.1,1708003207.953125
-8.47,1708003207.96875
-9.58,1708003207.984375
-10.49,1708003208.0
-11.32,1708003208.015625
-12.12,1708003208.03125
-12.94,1708003208.046875
-13.75,1708003208.0625
-14.52,1708003208.078125
-15.2,1708003208.09375
-15.84,1708003208.109375
-16.6,1708003208.125
-17.67,1708003208.140625
-19.23,1708003208.15625
-21.34,1708003208.171875
-23.87,1708003208.1875
-26.56,1708003208.203125
-29.06,1708003208.21875
-30.92,1708003208.234375
-31.72,1708003208.25
-31.1,1708003208.265625
-28.77,1708003208.28125
-24.64,1708003208.296875
-18.89,1708003208.3125
-11.97,1708003208.328125
-4.53,1708003208.34375
2.71,1708003208.359375
9.14,1708003208.375
14.33,1708003208.390625
18.13,1708003208.40625
20.54,1708003208.421875
21.72,1708003208.4375
21.86,1708003208.453125
21.18,1708003208.46875
19.9,1708003208.484375
18.23,1708003208.5
16.35,1708003208.515625
14.49,1708003208.53125
12.88,1708003208.546875
11.78,1708003208.5625
11.38,1708003208.578125
11.71,1708003208.59375
12.66,1708003208.609375
13.94,1708003208.625
15.26,1708003208.640625
16.42,1708003208.65625
17.27,1708003208.671875
17.82,1708003208.6875
18.03,1708003208.703125
17.84,1708003208.71875
17.18,1708003208.734375
16.02,1708003208.75
14.46,1708003208.765625
12.69,1708003208.78125
10.96,1708003208.796875
9.42,1708003208.8125
8.07,1708003208.828125
6.77,1708003208.84375
5.36,1708003208.859375
3.74,1708003208.875
1.96,1708003208.890625
0.18,1708003208.90625
-1.42,1708003208.921875
-2.75,1708003208.9375
-3.88,1708003208.953125
-4.99,1708003208.96875
-6.3,1708003208.984375
-7.99,1708003209.0
-10.07,1708003209.015625
-12.42,1708003209.03125
-14.85,1708003209.046875
-17.15,1708003209.0625
-19.21,1708003209.078125
-20.98,1708003209.09375
-22.53,1708003209.109375
-23.97,1708003209.125
-25.44,1708003209.140625
-27.09,1708003209.15625
-29.06,1708003209.171875
-31.42,1708003209.1875
-34.13,1708003209.203125
-36.93,1708003209.21875
-39.32,1708003209.234375
-40.6,1708003209.25
-40.07,1708003209.265625
-37.28,1708003209.28125
-32.16,1708003209.296875
-25.15,1708003209.3125
-17.07,1708003209.328125
-8.86,1708003209.34375
-1.35,1708003209.359375
4.92,1708003209.375
9.76,1708003209.390625
13.18,1708003209.40625
15.32,1708003209.421875
16.34,1708003209.4375
16.39,1708003209.453125
15.69,1708003209.46875
14.54,1708003209.484375
13.28,1708003209.5
12.21,1708003209.515625
11.56,1708003209.53125
11.33,1708003209.546875
11.44,1708003209.5625
11.77,1708003209.578125
12.24,1708003209.59375
12.85,1708003209.609375
13.62,1708003209.625
14.6,1708003209.640625
15.71,1708003209.65625
16.83,1708003209.671875
17.8,1708003209.6875
18.46,1708003209.703125
18.72,1708003209.71875
18.54,1708003209.734375
17.99,1708003209.75
17.11,1708003209.765625
16.02,1708003209.78125
14.77,1708003209.796875
13.43,1708003209.8125
12.05,1708003209.828125
10.66,1708003209.84375
9.28,1708003209.859375
7.81,1708003209.875
6.18,1708003209.890625
4.28,1708003209.90625
2.08,1708003209.921875
-0.33,1708003209.9375
-2.69,1708003209.953125
-4.75,1708003209.96875
-6.32,1708003209.984375
-7.4,1708003210.0
-8.2,1708003210.015625
-8.99,1708003210.03125
-9.99,1708003210.046875
-11.3,1708003210.0625
-12.91,1708003210.078125
-14.75,1708003210.09375
-16.75,1708003210.109375
-18.84,1708003210.125
-20.93,1708003210.140625
-22.9,1708003210.15625
-24.63,1708003210.171875
-26.12,1708003210.1875
-27.49,1708003210.203125
-28.97,1708003210.21875
-30.82,1708003210.234375
-33.21,1708003210.25
-36.05,1708003210.265625
-39.04,1708003210.28125
-41.62,1708003210.296875
-43.13,1708003210.3125
-42.96,1708003210.328125
-40.71,1708003210.34375
-36.31,1708003210.359375
-30.06,1708003210.375
-22.56,1708003210.390625
-14.51,1708003210.40625
-6.6,1708003210.421875
0.68,1708003210.4375
6.98,1708003210.453125
12.13,1708003210.46875
16.05,1708003210.484375
18.71,1708003210.5
20.18,1708003210.515625
20.63,1708003210.53125
20.31,1708003210.546875
19.53,1708003210.5625
18.56,1708003210.578125
17.65,1708003210.59375
16.91,1708003210.609375
16.44,1708003210.625
16.31,1708003210.640625
16.59,1708003210.65625
17.34,1708003210.671875
18.63,1708003210.6875
20.39,1708003210.703125
22.49,1708003210.71875
24.68,1708003210.734375
26.7,1708003210.75
28.3,1708003210.765625
29.39,1708003210.78125
30.0,1708003210.796875
30.17,1708003210.8125
29.98,1708003210.828125
29.4,1708003210.84375
28.37,1708003210.859375
26.84,1708003210.875
24.89,1708003210.890625
22.66,1708003210.90625
20.4,1708003210.921875
18.26,1708003210.9375
16.3,1708003210.953125
14.43,1708003210.96875
12.51,1708003210.984375
10.42,1708003211.0
8.13,1708003211.015625
5.75,1708003211.03125
3.45,1708003211.046875
1.39,1708003211.0625
-0.31,1708003211.078125
-1.67,1708003211.09375
-2.8,1708003211.109375
-3.89,1708003211.125
-5.17,1708003211.140625
-6.8,1708003211.15625
-8.81,1708003211.171875
-11.12,1708003211.1875
-13.59,1708003211.203125
-16.08,1708003211.21875
-18.53,1708003211.234375
-20.95,1708003211.25
-23.45,1708003211.265625
-26.14,1708003211.28125
-29.11,1708003211.296875
-32.4,1708003211.3125
-35.94,1708003211.328125
-39.52,1708003211.34375
-42.82,1708003211.359375
-45.39,1708003211.375
-46.73,1708003211.390625
-46.45,1708003211.40625
-44.3,1708003211.421875
-40.31,1708003211.4375
-34.78,1708003211.453125
-28.19,1708003211.46875
-21.17,1708003211.484375
-14.39,1708003211.5
-8.51,1708003211.515625
-4.01,1708003211.53125
-1.15,1708003211.546875
0.13,1708003211.5625
0.16,1708003211.578125
-0.65,1708003211.59375
-1.91,1708003211.609375
-3.43,1708003211.625
-5.18,1708003211.640625
-7.24,1708003211.65625
-9.61,1708003211.671875
-12.17,1708003211.6875
-14.71,1708003211.703125
-16.95,1708003211.71875
-18.79,1708003211.734375
-20.25,1708003211.75
-21.52,1708003211.765625
-22.74,1708003211.78125
-23.94,1708003211.796875
-25.02,1708003211.8125
-25.8,1708003211.828125
-26.15,1708003211.84375
-26.15,1708003211.859375
-26.04,1708003211.875
-26.17,1708003211.890625
-26.75,1708003211.90625
-27.73,1708003211.921875
-28.79,1708003211.9375
-29.48,1708003211.953125
-29.38,1708003211.96875
-28.35,1708003211.984375
-26.46,1708003212.0
-23.98,1708003212.015625
-21.2,1708003212.03125
-18.31,1708003212.046875
-15.41,1708003212.0625
-12.57,1708003212.078125
-9.86,1708003212.09375
-7.43,1708003212.109375
-5.41,1708003212.125
-3.85,1708003212.140625
-2.64,1708003212.15625
-1.5,1708003212.171875
-0.02,1708003212.1875
2.19,1708003212.203125
5.32,1708003212.21875
9.31,1708003212.234375
13.78,1708003212.25
18.18,1708003212.265625
22.02,1708003212.28125
25.09,1708003212.296875
27.47,1708003212.3125
29.64,1708003212.328125
32.15,1708003212.34375
35.42,1708003212.359375
39.61,1708003212.375
44.52,1708003212.390625
49.74,1708003212.40625
54.91,1708003212.421875
59.81,1708003212.4375
64.54,1708003212.453125
69.33,1708003212.46875
74.38,1708003212.484375
79.66,1708003212.5
84.76,1708003212.515625
89.03,1708003212.53125
91.84,1708003212.546875
92.91,1708003212.5625
92.37,1708003212.578125
90.8,1708003212.59375
88.9,1708003212.609375
87.13,1708003212.625
85.57,1708003212.640625
83.83,1708003212.65625
81.35,1708003212.671875
77.62,1708003212.6875
72.37,1708003212.703125
65.57,1708003212.71875
57.36,1708003212.734375
48.04,1708003212.75
38.15,1708003212.765625
28.61,1708003212.78125
20.58,1708003212.796875
15.14,1708003212.8125
12.63,1708003212.828125
12.35,1708003212.84375
12.59,1708003212.859375
11.32,1708003212.875
7.16,1708003212.890625
0.02,1708003212.90625
-8.77,1708003212.921875
-17.25,1708003212.9375
-23.74,1708003212.953125
-27.68,1708003212.96875
-29.64,1708003212.984375
-30.86,1708003213.0
-32.41,1708003213.015625
-34.7,1708003213.03125
-37.47,1708003213.046875
-40.1,1708003213.0625
-42.14,1708003213.078125
-43.55,1708003213.09375
-44.64,1708003213.109375
-45.8,1708003213.125
-47.2,1708003213.140625
-48.65,1708003213.15625
-49.72,1708003213.171875
-50.06,1708003213.1875
-49.53,1708003213.203125
-48.42,1708003213.21875
-47.27,1708003213.234375
-46.63,1708003213.25
-46.82,1708003213.265625
-47.76,1708003213.28125
-49.06,1708003213.296875
-50.23,1708003213.3125
-50.95,1708003213.328125
-51.25,1708003213.34375
-51.42,1708003213.359375
-51.89,1708003213.375
-52.85,1708003213.390625
-54.03,1708003213.40625
-54.7,1708003213.421875
-53.91,1708003213.4375
-50.82,1708003213.453125
-45.11,1708003213.46875
-37.06,1708003213.484375
-27.53,1708003213.5
-17.62,1708003213.515625
-8.33,1708003213.53125
-0.3,1708003213.546875
6.21,1708003213.5625
11.25,1708003213.578125
14.97,1708003213.59375
17.53,1708003213.609375
19.08,1708003213.625
19.82,1708003213.640625
19.99,1708003213.65625
19.85,1708003213.671875
19.58,1708003213.6875
19.28,1708003213.703125
18.92,1708003213.71875
18.49,1708003213.734375
18.06,1708003213.75
17.81,1708003213.765625
17.97,1708003213.78125
18.7,1708003213.796875
19.99,1708003213.8125
21.69,1708003213.828125
23.52,1708003213.84375
25.2,1708003213.859375
26.49,1708003213.875
27.21,1708003213.890625
27.25,1708003213.90625
26.55,1708003213.921875
25.15,1708003213.9375
23.17,1708003213.953125
20.89,1708003213.96875
18.66,1708003213.984375
16.75,1708003214.0
15.28,1708003214.015625
14.16,1708003214.03125
13.15,1708003214.046875
11.96,1708003214.0625
10.41,1708003214.078125
8.48,1708003214.09375
6.27,1708003214.109375
3.9,1708003214.125
1.49,1708003214.140625
-0.93,1708003214.15625
-3.34,1708003214.171875
-5.71,1708003214.1875
-7.98,1708003214.203125
-10.13,1708003214.21875
-12.14,1708003214.234375
-14.07,1708003214.25
-16.02,1708003214.265625
-18.05,1708003214.28125
-20.16,1708003214.296875
-22.3,1708003214.3125
-24.38,1708003214.328125
-26.41,1708003214.34375
-28.48,1708003214.359375
-30.73,1708003214.375
-33.1,1708003214.390625
-35.3,1708003214.40625
-36.74,1708003214.421875
-36.69,1708003214.4375
-34.52,1708003214.453125
-30.02,1708003214.46875
-23.45,1708003214.484375
-15.56,1708003214.5
-7.31,1708003214.515625
0.42,1708003214.53125
6.97,1708003214.546875
12.08,1708003214.5625
15.75,1708003214.578125
18.17,1708003214.59375
19.61,1708003214.609375
20.31,1708003214.625
20.52,1708003214.640625
20.45,1708003214.65625
20.29,1708003214.671875
20.14,1708003214.6875
20.04,1708003214.703125
19.95,1708003214.71875
19.82,1708003214.734375
19.6,1708003214.75
19.33,1708003214.765625
19.13,1708003214.78125
19.15,1708003214.796875
19.53,1708003214.8125
20.25,1708003214.828125
21.18,1708003214.84375
22.05,1708003214.859375
22.52,1708003214.875
22.33,1708003214.890625
21.33,1708003214.90625
19.58,1708003214.921875
17.29,1708003214.9375
14.73,1708003214.953125
12.12,1708003214.96875
9.56,1708003214.984375
7.06,1708003215.0
4.53,1708003215.015625
1.99,1708003215.03125
-0.46,1708003215.046875
-2.7,1708003215.0625
-4.58,1708003215.078125
-6.07,1708003215.09375
-7.23,1708003215.109375
-8.11,1708003215.125
-8.73,1708003215.140625
-9.08,1708003215.15625
-9.17,1708003215.171875
-9.11,1708003215.1875
-9.11,1708003215.203125
-9.34,1708003215.21875
-9.82,1708003215.234375
-10.41,1708003215.25
-10.89,1708003215.265625
-11.14,1708003215.28125
-11.29,1708003215.296875
-11.63,1708003215.3125
-12.52,1708003215.328125
-14.09,1708003215.34375
-16.15,1708003215.359375
-18.19,1708003215.375
-19.56,1708003215.390625
-19.69,1708003215.40625
-18.25,1708003215.421875
-15.21,1708003215.4375
-10.82,1708003215.453125
-5.52,1708003215.46875
0.19,1708003215.484375
5.81,1708003215.5
10.97,1708003215.515625
15.42,1708003215.53125
19.02,1708003215.546875
21.72,1708003215.5625
23.53,1708003215.578125
24.45,1708003215.59375
24.47,1708003215.609375
23.62,1708003215.625
22.01,1708003215.640625
19.88,1708003215.65625
17.64,1708003215.671875
15.81,1708003215.6875
14.92,1708003215.703125
15.35,1708003215.71875
17.13,1708003215.734375
20.0,1708003215.75
23.43,1708003215.765625
26.83,1708003215.78125
29.72,1708003215.796875
31.85,1708003215.8125
33.16,1708003215.828125
33.72,1708003215.84375
33.63,1708003215.859375
33.01,1708003215.875
31.95,1708003215.890625
30.57,1708003215.90625
29.03,1708003215.921875
27.42,1708003215.9375
25.73,1708003215.953125
23.83,1708003215.96875
21.48,1708003215.984375
18.5,1708003216.0
14.93,1708003216.015625
11.14,1708003216.03125
7.74,1708003216.046875
5.47,1708003216.0625
4.81,1708003216.078125
5.77,1708003216.09375
7.67,1708003216.109375
9.36,1708003216.125
9.46,1708003216.140625
6.86,1708003216.15625
1.15,1708003216.171875
-7.17,1708003216.1875
-16.74,1708003216.203125
-25.83,1708003216.21875
-32.87,1708003216.234375
-36.95,1708003216.25
-38.03,1708003216.265625
-36.69,1708003216.28125
-33.86,1708003216.296875
-30.37,1708003216.3125
-26.89,1708003216.328125
-23.92,1708003216.34375
-21.82,1708003216.359375
-20.8,1708003216.375
-20.82,1708003216.390625
-21.45,1708003216.40625
-21.93,1708003216.421875
-21.42,1708003216.4375
-19.39,1708003216.453125
-15.76,1708003216.46875
-10.98,1708003216.484375
-5.76,1708003216.5
-0.79,1708003216.515625
3.46,1708003216.53125
6.74,1708003216.546875
8.93,1708003216.5625
10.02,1708003216.578125
10.03,1708003216.59375
9.12,1708003216.609375
7.54,1708003216.625
5.64,1708003216.640625
3.69,1708003216.65625
1.9,1708003216.671875
0.38,1708003216.6875
-0.77,1708003216.703125
-1.48,1708003216.71875
-1.67,1708003216.734375
-1.3,1708003216.75
-0.46,1708003216.765625
0.72,1708003216.78125
2.06,1708003216.796875
3.4,1708003216.8125
4.62,1708003216.828125
5.64,1708003216.84375
6.36,1708003216.859375
6.68,1708003216.875
6.56,1708003216.890625
6.01,1708003216.90625
5.15,1708003216.921875
4.2,1708003216.9375
3.32,1708003216.953125
2.63,1708003216.96875
2.11,1708003216.984375
1.69,1708003217.0
1.2,1708003217.015625
0.46,1708003217.03125
-0.65,1708003217.046875
-2.2,1708003217.0625
-4.08,1708003217.078125
-6.11,1708003217.09375
-8.01,1708003217.109375
-9.59,1708003217.125
-10.82,1708003217.140625
-11.87,1708003217.15625
-13.0,1708003217.171875
-14.46,1708003217.1875
-16.32,1708003217.203125
-18.45,1708003217.21875
-20.58,1708003217.234375
-22.51,1708003217.25
-24.16,1708003217.265625
-25.69,1708003217.28125
-27.35,1708003217.296875
-29.38,1708003217.3125
-31.89,1708003217.328125
-34.78,1708003217.34375
-37.76,1708003217.359375
-40.43,1708003217.375
-42.37,1708003217.390625
-43.14,1708003217.40625
-42.38,1708003217.421875
-39.83,1708003217.4375
-35.38,1708003217.453125
-29.2,1708003217.46875
-21.76,1708003217.484375
-13.79,1708003217.5
-6.11,1708003217.515625
0.58,1708003217.53125
5.93,1708003217.546875
9.96,1708003217.5625
12.97,1708003217.578125
15.31,1708003217.59375
17.15,1708003217.609375
18.48,1708003217.625
19.15,1708003217.640625
19.06,1708003217.65625
18.31,1708003217.671875
17.16,1708003217.6875
16.0,1708003217.703125
15.12,1708003217.71875
14.71,1708003217.734375
14.8,1708003217.75
15.32,1708003217.765625
16.21,1708003217.78125
17.4,1708003217.796875
18.79,1708003217.8125
20.24,1708003217.828125
21.57,1708003217.84375
22.59,1708003217.859375
23.17,1708003217.875
23.25,1708003217.890625
22.85,1708003217.90625
22.07,1708003217.921875
21.04,1708003217.9375
19.84,1708003217.953125
18.59,1708003217.96875
17.34,1708003217.984375
16.14,1708003218.0
14.99,1708003218.015625
13.8,1708003218.03125
12.45,1708003218.046875
10.84,1708003218.0625
8.97,1708003218.078125
7.03,1708003218.09375
5.28,1708003218.109375
3.98,1708003218.125
3.17,1708003218.140625
2.66,1708003218.15625
2.03,1708003218.171875
0.93,1708003218.1875
-0.8,1708003218.203125
-3.03,1708003218.21875
-5.4,1708003218.234375
-7.6,1708003218.25
-9.54,1708003218.265625
-11.37,1708003218.28125
-13.34,1708003218.296875
-15.61,1708003218.3125
-18.18,1708003218.328125
-20.88,1708003218.34375
-23.57,1708003218.359375
-26.19,1708003218.375
-28.73,1708003218.390625
-31.14,1708003218.40625
-33.14,1708003218.421875
-34.18,1708003218.4375
-33.56,1708003218.453125
-30.79,1708003218.46875
-25.81,1708003218.484375
-19.1,1708003218.5
-11.57,1708003218.515625
-4.22,1708003218.53125
2.19,1708003218.546875
7.29,1708003218.5625
11.07,1708003218.578125
13.7,1708003218.59375
15.37,1708003218.609375
16.16,1708003218.625
16.1,1708003218.640625
15.3,1708003218.65625
14.0,1708003218.671875
12.54,1708003218.6875
11.3,1708003218.703125
10.58,1708003218.71875
10.48,1708003218.734375
10.94,1708003218.75
11.75,1708003218.765625
12.71,1708003218.78125
13.63,1708003218.796875
14.43,1708003218.8125
15.08,1708003218.828125
15.64,1708003218.84375
16.15,1708003218.859375
16.57,1708003218.875
16.86,1708003218.890625
16.91,1708003218.90625
16.64,1708003218.921875
16.08,1708003218.9375
15.27,1708003218.953125
14.33,1708003218.96875
13.27,1708003218.984375
12.02,1708003219.0
10.44,1708003219.015625
8.4,1708003219.03125
5.9,1708003219.046875
3.16,1708003219.0625
0.52,1708003219.078125
-1.71,1708003219.09375
-3.37,1708003219.109375
-4.6,1708003219.125
-5.68,1708003219.140625
-6.95,1708003219.15625
-8.58,1708003219.171875
-10.56,1708003219.1875
-12.71,1708003219.203125
-14.84,1708003219.21875
-16.83,1708003219.234375
-18.71,1708003219.25
-20.65,1708003219.265625
-22.83,1708003219.28125
-25.39,1708003219.296875
-28.34,1708003219.3125
-31.57,1708003219.328125
-34.82,1708003219.34375
-37.65,1708003219.359375
-39.5,1708003219.375
-39.85,1708003219.390625
-38.32,1708003219.40625
-34.83,1708003219.421875
-29.65,1708003219.4375
-23.28,1708003219.453125
-16.37,1708003219.46875
-9.52,1708003219.484375
-3.2,1708003219.5
2.27,1708003219.515625
6.7,1708003219.53125
9.96,1708003219.546875
12.0,1708003219.5625
12.86,1708003219.578125
12.68,1708003219.59375
11.74,1708003219.609375
10.4,1708003219.625
9.01,1708003219.640625
7.85,1708003219.65625
7.08,1708003219.671875
6.75,1708003219.6875
6.9,1708003219.703125
7.6,1708003219.71875
8.84,1708003219.734375
10.6,1708003219.75
12.66,1708003219.765625
14.7,1708003219.78125
16.36,1708003219.796875
17.44,1708003219.8125
17.95,1708003219.828125
18.02,1708003219.84375
17.83,1708003219.859375
17.46,1708003219.875
16.91,1708003219.890625
16.09,1708003219.90625
15.01,1708003219.921875
13.7,1708003219.9375
12.29,1708003219.953125
10.82,1708003219.96875
9.22,1708003219.984375
7.37,1708003220.0
5.16,1708003220.015625
2.68,1708003220.03125
0.16,1708003220.046875
-2.07,1708003220.0625
-3.73,1708003220.078125
-4.81,1708003220.09375
-5.49,1708003220.109375
-6.12,1708003220.125
-7.02,1708003220.140625
-8.38,1708003220.15625
-10.17,1708003220.171875
-12.23,1708003220.1875
-14.32,1708003220.203125
-16.28,1708003220.21875
-18.07,1708003220.234375
-19.83,1708003220.25
-21.75,1708003220.265625
-24.06,1708003220.28125
-26.92,1708003220.296875
-30.33,1708003220.3125
-34.04,1708003220.328125
-37.57,1708003220.34375
-40.22,1708003220.359375
-41.26,1708003220.375
-40.13,1708003220.390625
-36.64,1708003220.40625
-31.05,1708003220.421875
-24.01,1708003220.4375
-16.37,1708003220.453125
-8.92,1708003220.46875
-2.23,1708003220.484375
3.4,1708003220.5
7.97,1708003220.515625
11.56,1708003220.53125
14.32,1708003220.546875
16.39,1708003220.5625
17.86,1708003220.578125
18.79,1708003220.59375
19.2,1708003220.609375
19.12,1708003220.625
18.56,1708003220.640625
17.65,1708003220.65625
16.59,1708003220.671875
15.66,1708003220.6875
15.16,1708003220.703125
15.31,1708003220.71875
16.19,1708003220.734375
17.71,1708003220.75
19.68,1708003220.765625
21.75,1708003220.78125
23.61,1708003220.796875
24.97,1708003220.8125
25.68,1708003220.828125
25.73,1708003220.84375
25.25,1708003220.859375
24.4,1708003220.875
23.3,1708003220.890625
22.0,1708003220.90625
20.51,1708003220.921875
18.87,1708003220.9375
17.15,1708003220.953125
15.43,1708003220.96875
13.73,1708003220.984375
11.99,1708003221.0
10.06,1708003221.015625
7.9,1708003221.03125
5.57,1708003221.046875
3.32,1708003221.0625
1.38,1708003221.078125
-0.1,1708003221.09375
-1.22,1708003221.109375
-2.21,1708003221.125
-3.36,1708003221.140625
-4.87,1708003221.15625
-6.72,1708003221.171875
-8.8,1708003221.1875
-10.91,1708003221.203125
-12.86,1708003221.21875
-14.51,1708003221.234375
-15.81,1708003221.25
-16.82,1708003221.265625
-17.78,1708003221.28125
-19.1,1708003221.296875
-21.18,1708003221.3125
-24.29,1708003221.328125
-28.33,1708003221.34375
-32.82,1708003221.359375
-36.91,1708003221.375
-39.68,1708003221.390625
-40.36,1708003221.40625
-38.55,1708003221.421875
-34.32,1708003221.4375
-28.05,1708003221.453125
-20.41,1708003221.46875
-12.15,1708003221.484375
-3.98,1708003221.5
3.5,1708003221.515625
9.94,1708003221.53125
15.21,1708003221.546875
19.43,1708003221.5625
22.81,1708003221.578125
25.51,1708003221.59375
27.59,1708003221.609375
28.98,1708003221.625
29.64,1708003221.640625
29.6,1708003221.65625
29.09,1708003221.671875
28.43,1708003221.6875
27.98,1708003221.703125
27.95,1708003221.71875
28.38,1708003221.734375
29.17,1708003221.75
30.19,1708003221.765625
31.32,1708003221.78125
32.52,1708003221.796875
33.7,1708003221.8125
34.75,1708003221.828125
35.48,1708003221.84375
35.68,1708003221.859375
35.23,1708003221.875
34.09,1708003221.890625
32.41,1708003221.90625
30.37,1708003221.921875
28.16,1708003221.9375
25.87,1708003221.953125
23.51,1708003221.96875
21.09,1708003221.984375
18.62,1708003222.0
16.13,1708003222.015625
13.64,1708003222.03125
11.1,1708003222.046875
8.46,1708003222.0625
5.65,1708003222.078125
2.76,1708003222.09375
-0.04,1708003222.109375
-2.53,1708003222.125
-4.58,1708003222.140625
-6.28,1708003222.15625
-7.89,1708003222.171875
-9.75,1708003222.1875
-12.04,1708003222.203125
-14.67,1708003222.21875
-17.36,1708003222.234375
-19.79,1708003222.25
-21.78,1708003222.265625
-23.38,1708003222.28125
-24.82,1708003222.296875
-26.32,1708003222.3125
-28.0,1708003222.328125
-29.86,1708003222.34375
-31.87,1708003222.359375
-34.03,1708003222.375
-36.41,1708003222.390625
-38.98,1708003222.40625
-41.44,1708003222.421875
-43.26,1708003222.4375
-43.68,1708003222.453125
-42.08,1708003222.46875
-38.18,1708003222.484375
-32.23,1708003222.5
-24.9,1708003222.515625
-17.13,1708003222.53125
-9.76,1708003222.546875
-3.41,1708003222.5625
1.63,1708003222.578125
5.3,1708003222.59375
7.69,1708003222.609375
8.98,1708003222.625
9.34,1708003222.640625
8.98,1708003222.65625
8.05,1708003222.671875
6.74,1708003222.6875
5.23,1708003222.703125
3.7,1708003222.71875
2.37,1708003222.734375
1.4,1708003222.75
0.88,1708003222.765625
0.81,1708003222.78125
1.11,1708003222.796875
1.66,1708003222.8125
2.38,1708003222.828125
3.2,1708003222.84375
4.08,1708003222.859375
4.92,1708003222.875
5.51,1708003222.890625
5.63,1708003222.90625
5.11,1708003222.921875
3.93,1708003222.9375
2.27,1708003222.953125
0.42,1708003222.96875
-1.31,1708003222.984375
-2.78,1708003223.0
-4.02,1708003223.015625
-5.21,1708003223.03125
-6.58,1708003223.046875
-8.26,1708003223.0625
-10.29,1708003223.078125
-12.58,1708003223.09375
-15.0,1708003223.109375
-17.44,1708003223.125
-19.88,1708003223.140625
-22.37,1708003223.15625
-25.0,1708003223.171875
-27.86,1708003223.1875
-30.99,1708003223.203125
-34.3,1708003223.21875
-37.63,1708003223.234375
-40.8,1708003223.25
-43.68,1708003223.265625
-46.3,1708003223.28125
-48.85,1708003223.296875
-51.61,1708003223.3125
-54.8,1708003223.328125
-58.47,1708003223.34375
-62.47,1708003223.359375
-66.53,1708003223.375
-70.3,1708003223.390625
-73.47,1708003223.40625
-75.66,1708003223.421875
-76.39,1708003223.4375
-75.04,1708003223.453125
-70.98,1708003223.46875
-63.92,1708003223.484375
-54.07,1708003223.5
