bvp,time
-31.34,1534404948.234375
-28.71,1534404948.25
-25.51,1534404948.265625
-22.35,1534404948.28125
-19.71,1534404948.296875
-17.71,1534404948.3125
-16.17,1534404948.328125
-14.8,1534404948.34375
-13.52,1534404948.359375
-12.48,1534404948.375
-12.04,1534404948.390625
-12.5,1534404948.40625
-13.97,1534404948.421875
-16.29,1534404948.4375
-19.23,1534404948.453125
-22.56,1534404948.46875
-26.17,1534404948.484375
-30.04,1534404948.5
-34.16,1534404948.515625
-38.48,1534404948.53125
-42.91,1534404948.546875
-47.33,1534404948.5625
-51.7,1534404948.578125
-56.07,1534404948.59375
-60.58,1534404948.609375
-65.47,1534404948.625
-70.94,1534404948.640625
-77.01,1534404948.65625
-83.42,1534404948.671875
-89.48,1534404948.6875
-94.15,1534404948.703125
-96.28,1534404948.71875
-94.95,1534404948.734375
-89.8,1534404948.75
-81.19,1534404948.765625
-70.04,1534404948.78125
-57.58,1534404948.796875
-44.96,1534404948.8125
-32.95,1534404948.828125
-21.96,1534404948.84375
-12.12,1534404948.859375
-3.4,1534404948.875
4.25,1534404948.890625
10.9,1534404948.90625
16.75,1534404948.921875
22.01,1534404948.9375
26.96,1534404948.953125
31.86,1534404948.96875
36.8,1534404948.984375
41.74,1534404949.0
46.45,1534404949.015625
50.67,1534404949.03125
54.2,1534404949.046875
57.04,1534404949.0625
59.39,1534404949.078125
61.55,1534404949.09375
63.75,1534404949.109375
66.04,1534404949.125
68.33,1534404949.140625
70.51,1534404949.15625
72.67,1534404949.171875
75.17,1534404949.1875
78.5,1534404949.203125
82.96,1534404949.21875
88.38,1534404949.234375
94.05,1534404949.25
98.94,1534404949.265625
102.1,1534404949.28125
103.02,1534404949.296875
101.68,1534404949.3125
98.43,1534404949.328125
93.75,1534404949.34375
88.13,1534404949.359375
82.09,1534404949.375
76.27,1534404949.390625
71.35,1534404949.40625
67.86,1534404949.421875
65.89,1534404949.4375
64.98,1534404949.453125
64.32,1534404949.46875
63.04,1534404949.484375
60.52,1534404949.5
56.4,1534404949.515625
50.4,1534404949.53125
42.1,1534404949.546875
30.93,1534404949.5625
16.21,1534404949.578125
-2.75,1534404949.59375
-26.79,1534404949.609375
-56.71,1534404949.625
-93.23,1534404949.640625
-136.4,1534404949.65625
-184.94,1534404949.671875
-235.84,1534404949.6875
-284.58,1534404949.703125
-326.05,1534404949.71875
-355.87,1534404949.734375
-371.51,1534404949.75
-372.78,1534404949.765625
-361.73,1534404949.78125
-341.96,1534404949.796875
-317.85,1534404949.8125
-293.81,1534404949.828125
-273.49,1534404949.84375
-259.06,1534404949.859375
-250.66,1534404949.875
-246.46,1534404949.890625
-243.46,1534404949.90625
-238.77,1534404949.921875
-230.88,1534404949.9375
-220.14,1534404949.953125
-208.39,1534404949.96875
-197.79,1534404949.984375
-189.74,1534404950.0
-184.3,1534404950.015625
-180.63,1534404950.03125
-177.88,1534404950.046875
-175.81,1534404950.0625
-174.73,1534404950.078125
-174.98,1534404950.09375
-176.02,1534404950.109375
-176.17,1534404950.125
-173.07,1534404950.140625
-164.78,1534404950.15625
-150.75,1534404950.171875
-132.35,1534404950.1875
-112.24,1534404950.203125
-93.21,1534404950.21875
-76.89,1534404950.234375
-63.12,1534404950.25
-50.3,1534404950.265625
-36.56,1534404950.28125
-20.92,1534404950.296875
-3.92,1534404950.3125
12.62,1534404950.328125
26.65,1534404950.34375
36.97,1534404950.359375
43.81,1534404950.375
48.59,1534404950.390625
53.07,1534404950.40625
58.33,1534404950.421875
64.32,1534404950.4375
70.07,1534404950.453125
74.43,1534404950.46875
76.86,1534404950.484375
77.73,1534404950.5
78.02,1534404950.515625
78.54,1534404950.53125
79.28,1534404950.546875
79.26,1534404950.5625
76.99,1534404950.578125
71.26,1534404950.59375
61.88,1534404950.609375
49.79,1534404950.625
36.56,1534404950.640625
23.55,1534404950.65625
11.34,1534404950.671875
-0.35,1534404950.6875
-12.01,1534404950.703125
-23.6,1534404950.71875
-34.31,1534404950.734375
-42.69,1534404950.75
-47.34,1534404950.765625
-47.51,1534404950.78125
-43.22,1534404950.796875
-35.08,1534404950.8125
-23.9,1534404950.828125
-10.5,1534404950.84375
4.1,1534404950.859375
18.41,1534404950.875
30.48,1534404950.890625
38.33,1534404950.90625
40.54,1534404950.921875
36.91,1534404950.9375
28.6,1534404950.953125
17.58,1534404950.96875
5.9,1534404950.984375
-5.1,1534404951.0
-15.06,1534404951.015625
-24.41,1534404951.03125
-33.89,1534404951.046875
-44.01,1534404951.0625
-54.61,1534404951.078125
-64.79,1534404951.09375
-72.98,1534404951.109375
-77.42,1534404951.125
-76.73,1534404951.140625
-70.62,1534404951.15625
-60.19,1534404951.171875
-47.82,1534404951.1875
-36.48,1534404951.203125
-28.59,1534404951.21875
-25.21,1534404951.234375
-25.68,1534404951.25
-28.12,1534404951.265625
-30.39,1534404951.28125
-30.97,1534404951.296875
-29.39,1534404951.3125
-26.03,1534404951.328125
-21.52,1534404951.34375
-16.31,1534404951.359375
-10.6,1534404951.375
-4.58,1534404951.390625
1.2,1534404951.40625
5.8,1534404951.421875
8.32,1534404951.4375
8.46,1534404951.453125
6.96,1534404951.46875
5.45,1534404951.484375
5.98,1534404951.5
10.2,1534404951.515625
18.83,1534404951.53125
31.43,1534404951.546875
46.71,1534404951.5625
62.96,1534404951.578125
78.6,1534404951.59375
92.4,1534404951.609375
103.65,1534404951.625
111.99,1534404951.640625
117.31,1534404951.65625
119.65,1534404951.671875
119.22,1534404951.6875
116.47,1534404951.703125
112.13,1534404951.71875
107.1,1534404951.734375
102.39,1534404951.75
98.78,1534404951.765625
96.69,1534404951.78125
95.99,1534404951.796875
96.08,1534404951.8125
96.1,1534404951.828125
95.27,1534404951.84375
93.09,1534404951.859375
89.51,1534404951.875
84.84,1534404951.890625
79.6,1534404951.90625
74.3,1534404951.921875
69.34,1534404951.9375
64.84,1534404951.953125
60.68,1534404951.96875
56.41,1534404951.984375
51.43,1534404952.0
44.99,1534404952.015625
36.58,1534404952.03125
26.11,1534404952.046875
14.18,1534404952.0625
2.03,1534404952.078125
-8.65,1534404952.09375
-16.24,1534404952.109375
-19.61,1534404952.125
-18.42,1534404952.140625
-13.09,1534404952.15625
-4.52,1534404952.171875
6.23,1534404952.1875
18.14,1534404952.203125
30.32,1534404952.21875
41.9,1534404952.234375
52.0,1534404952.25
59.71,1534404952.265625
64.36,1534404952.28125
65.65,1534404952.296875
63.88,1534404952.3125
59.9,1534404952.328125
54.88,1534404952.34375
50.08,1534404952.359375
46.42,1534404952.375
44.34,1534404952.390625
43.7,1534404952.40625
43.91,1534404952.421875
44.24,1534404952.4375
44.06,1534404952.453125
43.1,1534404952.46875
41.46,1534404952.484375
39.47,1534404952.5
37.36,1534404952.515625
35.13,1534404952.53125
32.45,1534404952.546875
28.79,1534404952.5625
23.66,1534404952.578125
16.79,1534404952.59375
8.3,1534404952.609375
-1.28,1534404952.625
-10.9,1534404952.640625
-19.16,1534404952.65625
-24.49,1534404952.671875
-25.52,1534404952.6875
-21.52,1534404952.703125
-12.73,1534404952.71875
-0.25,1534404952.734375
14.2,1534404952.75
28.85,1534404952.765625
42.37,1534404952.78125
54.02,1534404952.796875
63.55,1534404952.8125
70.97,1534404952.828125
76.23,1534404952.84375
79.26,1534404952.859375
80.09,1534404952.875
78.98,1534404952.890625
76.47,1534404952.90625
73.23,1534404952.921875
69.89,1534404952.9375
66.77,1534404952.953125
63.9,1534404952.96875
61.09,1534404952.984375
58.06,1534404953.0
54.63,1534404953.015625
50.71,1534404953.03125
46.33,1534404953.046875
41.5,1534404953.0625
36.23,1534404953.078125
30.54,1534404953.09375
24.41,1534404953.109375
17.76,1534404953.125
10.48,1534404953.140625
2.35,1534404953.15625
-6.86,1534404953.171875
-17.34,1534404953.1875
-28.98,1534404953.203125
-41.25,1534404953.21875
-53.06,1534404953.234375
-62.86,1534404953.25
-68.98,1534404953.265625
-70.01,1534404953.28125
-65.28,1534404953.296875
-55.02,1534404953.3125
-40.35,1534404953.328125
-22.92,1534404953.34375
-4.47,1534404953.359375
13.55,1534404953.375
30.17,1534404953.390625
44.9,1534404953.40625
57.55,1534404953.421875
68.1,1534404953.4375
76.51,1534404953.453125
82.77,1534404953.46875
86.86,1534404953.484375
88.9,1534404953.5
89.08,1534404953.515625
87.8,1534404953.53125
85.51,1534404953.546875
82.71,1534404953.5625
79.79,1534404953.578125
76.94,1534404953.59375
74.16,1534404953.609375
71.27,1534404953.625
68.01,1534404953.640625
64.14,1534404953.65625
59.43,1534404953.671875
53.75,1534404953.6875
47.07,1534404953.703125
39.5,1534404953.71875
31.36,1534404953.734375
23.1,1534404953.75
15.22,1534404953.765625
7.97,1534404953.78125
1.31,1534404953.796875
-5.22,1534404953.8125
-12.34,1534404953.828125
-20.7,1534404953.84375
-30.56,1534404953.859375
-41.53,1534404953.875
-52.45,1534404953.890625
-61.66,1534404953.90625
-67.39,1534404953.921875
-68.25,1534404953.9375
-63.65,1534404953.953125
-54.02,1534404953.96875
-40.61,1534404953.984375
-25.14,1534404954.0
-9.26,1534404954.015625
5.83,1534404954.03125
19.59,1534404954.046875
31.96,1534404954.0625
43.06,1534404954.078125
52.87,1534404954.09375
61.07,1534404954.109375
67.27,1534404954.125
71.12,1534404954.140625
72.66,1534404954.15625
72.31,1534404954.171875
70.71,1534404954.1875
68.55,1534404954.203125
66.24,1534404954.21875
63.91,1534404954.234375
61.51,1534404954.25
58.93,1534404954.265625
56.18,1534404954.28125
53.35,1534404954.296875
50.53,1534404954.3125
47.69,1534404954.328125
44.66,1534404954.34375
41.12,1534404954.359375
36.8,1534404954.375
31.53,1534404954.390625
25.36,1534404954.40625
18.54,1534404954.421875
11.41,1534404954.4375
4.34,1534404954.453125
-2.4,1534404954.46875
-8.65,1534404954.484375
-14.39,1534404954.5
-19.73,1534404954.515625
-24.91,1534404954.53125
-30.26,1534404954.546875
-36.17,1534404954.5625
-43.05,1534404954.578125
-51.14,1534404954.59375
-60.24,1534404954.609375
-69.58,1534404954.625
-77.82,1534404954.640625
-83.31,1534404954.65625
-84.58,1534404954.671875
-80.79,1534404954.6875
-72.0,1534404954.703125
-59.12,1534404954.71875
-43.63,1534404954.734375
-27.15,1534404954.75
-11.05,1534404954.765625
3.72,1534404954.78125
16.61,1534404954.796875
27.38,1534404954.8125
35.96,1534404954.828125
42.34,1534404954.84375
46.65,1534404954.859375
49.1,1534404954.875
50.08,1534404954.890625
50.04,1534404954.90625
49.48,1534404954.921875
48.8,1534404954.9375
48.24,1534404954.953125
47.77,1534404954.96875
47.15,1534404954.984375
46.09,1534404955.0
44.36,1534404955.015625
41.95,1534404955.03125
39.01,1534404955.046875
35.81,1534404955.0625
32.53,1534404955.078125
29.19,1534404955.09375
25.63,1534404955.109375
21.56,1534404955.125
16.8,1534404955.140625
11.33,1534404955.15625
5.35,1534404955.171875
-0.77,1534404955.1875
-6.62,1534404955.203125
-11.88,1534404955.21875
-16.46,1534404955.234375
-20.46,1534404955.25
-24.2,1534404955.265625
-28.16,1534404955.28125
-32.81,1534404955.296875
-38.55,1534404955.3125
-45.43,1534404955.328125
-53.07,1534404955.34375
-60.54,1534404955.359375
-66.5,1534404955.375
-69.52,1534404955.390625
-68.49,1534404955.40625
-63.0,1534404955.421875
-53.47,1534404955.4375
-41.11,1534404955.453125
-27.43,1534404955.46875
-13.89,1534404955.484375
-1.53,1534404955.5
9.13,1534404955.515625
17.93,1534404955.53125
24.91,1534404955.546875
30.1,1534404955.5625
33.54,1534404955.578125
35.35,1534404955.59375
35.8,1534404955.609375
35.4,1534404955.625
34.76,1534404955.640625
34.43,1534404955.65625
34.73,1534404955.671875
35.54,1534404955.6875
36.44,1534404955.703125
36.84,1534404955.71875
36.25,1534404955.734375
34.48,1534404955.75
31.72,1534404955.765625
28.41,1534404955.78125
25.09,1534404955.796875
22.1,1534404955.8125
19.45,1534404955.828125
16.82,1534404955.84375
13.76,1534404955.859375
9.93,1534404955.875
5.31,1534404955.890625
0.19,1534404955.90625
-4.96,1534404955.921875
-9.69,1534404955.9375
-13.8,1534404955.953125
-17.3,1534404955.96875
-20.4,1534404955.984375
-23.36,1534404956.0
-26.42,1534404956.015625
-29.85,1534404956.03125
-33.88,1534404956.046875
-38.65,1534404956.0625
-43.96,1534404956.078125
-49.15,1534404956.09375
-53.12,1534404956.109375
-54.57,1534404956.125
-52.52,1534404956.140625
-46.66,1534404956.15625
-37.53,1534404956.171875
-26.38,1534404956.1875
-14.71,1534404956.203125
-3.82,1534404956.21875
5.49,1534404956.234375
12.93,1534404956.25
18.58,1534404956.265625
22.64,1534404956.28125
25.23,1534404956.296875
26.47,1534404956.3125
26.54,1534404956.328125
25.75,1534404956.34375
24.62,1534404956.359375
23.71,1534404956.375
23.44,1534404956.390625
23.89,1534404956.40625
24.76,1534404956.421875
25.53,1534404956.4375
25.68,1534404956.453125
24.9,1534404956.46875
23.26,1534404956.484375
21.13,1534404956.5
18.91,1534404956.515625
16.88,1534404956.53125
14.98,1534404956.546875
12.92,1534404956.5625
10.34,1534404956.578125
7.06,1534404956.59375
3.22,1534404956.609375
-0.85,1534404956.625
-4.73,1534404956.640625
-8.14,1534404956.65625
-11.08,1534404956.671875
-13.71,1534404956.6875
-16.29,1534404956.703125
-18.99,1534404956.71875
-21.92,1534404956.734375
-25.18,1534404956.75
-28.9,1534404956.765625
-33.15,1534404956.78125
-37.74,1534404956.796875
-42.13,1534404956.8125
-45.36,1534404956.828125
-46.36,1534404956.84375
-44.3,1534404956.859375
-39.0,1534404956.875
-30.98,1534404956.890625
-21.39,1534404956.90625
-11.54,1534404956.921875
-2.55,1534404956.9375
4.88,1534404956.953125
10.48,1534404956.96875
14.25,1534404956.984375
16.31,1534404957.0
16.82,1534404957.015625
16.01,1534404957.03125
14.31,1534404957.046875
12.3,1534404957.0625
10.59,1534404957.078125
9.59,1534404957.09375
9.41,1534404957.109375
9.77,1534404957.125
10.24,1534404957.140625
10.39,1534404957.15625
9.98,1534404957.171875
9.05,1534404957.1875
7.78,1534404957.203125
6.42,1534404957.21875
5.1,1534404957.234375
3.83,1534404957.25
2.46,1534404957.265625
0.79,1534404957.28125
-1.38,1534404957.296875
-4.11,1534404957.3125
-7.3,1534404957.328125
-10.75,1534404957.34375
-14.15,1534404957.359375
-17.29,1534404957.375
-20.07,1534404957.390625
-22.61,1534404957.40625
-25.22,1534404957.421875
-28.26,1534404957.4375
-32.0,1534404957.453125
-36.55,1534404957.46875
-41.65,1534404957.484375
-46.7,1534404957.5
-50.82,1534404957.515625
-53.02,1534404957.53125
-52.47,1534404957.546875
-48.79,1534404957.5625
-42.22,1534404957.578125
-33.54,1534404957.59375
-23.91,1534404957.609375
-14.53,1534404957.625
-6.34,1534404957.640625
0.12,1534404957.65625
4.69,1534404957.671875
7.47,1534404957.6875
8.74,1534404957.703125
8.87,1534404957.71875
8.24,1534404957.734375
7.28,1534404957.75
6.4,1534404957.765625
5.87,1534404957.78125
5.75,1534404957.796875
5.91,1534404957.8125
6.05,1534404957.828125
5.86,1534404957.84375
5.11,1534404957.859375
3.78,1534404957.875
2.06,1534404957.890625
0.26,1534404957.90625
-1.35,1534404957.921875
-2.71,1534404957.9375
-3.99,1534404957.953125
-5.53,1534404957.96875
-7.65,1534404957.984375
-10.47,1534404958.0
-13.79,1534404958.015625
-17.19,1534404958.03125
-20.26,1534404958.046875
-22.78,1534404958.0625
-24.84,1534404958.078125
-26.77,1534404958.09375
-28.98,1534404958.109375
-31.76,1534404958.125
-35.26,1534404958.140625
-39.46,1534404958.15625
-44.16,1534404958.171875
-48.93,1534404958.1875
-53.03,1534404958.203125
-55.49,1534404958.21875
-55.29,1534404958.234375
-51.78,1534404958.25
-44.98,1534404958.265625
-35.64,1534404958.28125
-25.07,1534404958.296875
-14.65,1534404958.3125
-5.41,1534404958.328125
2.19,1534404958.34375
8.14,1534404958.359375
12.66,1534404958.375
15.94,1534404958.390625
18.09,1534404958.40625
19.22,1534404958.421875
19.54,1534404958.4375
19.41,1534404958.453125
19.17,1534404958.46875
19.07,1534404958.484375
19.1,1534404958.5
19.09,1534404958.515625
18.79,1534404958.53125
18.05,1534404958.546875
16.92,1534404958.5625
15.58,1534404958.578125
14.24,1534404958.59375
13.03,1534404958.609375
11.9,1534404958.625
10.68,1534404958.640625
9.15,1534404958.65625
7.11,1534404958.671875
4.47,1534404958.6875
1.3,1534404958.703125
-2.23,1534404958.71875
-5.85,1534404958.734375
-9.33,1534404958.75
-12.51,1534404958.765625
-15.43,1534404958.78125
-18.32,1534404958.796875
-21.56,1534404958.8125
-25.52,1534404958.828125
-30.35,1534404958.84375
-35.82,1534404958.859375
-41.23,1534404958.875
-45.57,1534404958.890625
-47.82,1534404958.90625
-47.2,1534404958.921875
-43.52,1534404958.9375
-37.15,1534404958.953125
-28.89,1534404958.96875
-19.73,1534404958.984375
-10.54,1534404959.0
-1.95,1534404959.015625
5.67,1534404959.03125
12.08,1534404959.046875
17.13,1534404959.0625
20.71,1534404959.078125
22.82,1534404959.09375
23.6,1534404959.109375
23.4,1534404959.125
22.69,1534404959.140625
21.93,1534404959.15625
21.46,1534404959.171875
21.37,1534404959.1875
21.51,1534404959.203125
21.61,1534404959.21875
21.33,1534404959.234375
20.48,1534404959.25
19.09,1534404959.265625
17.35,1534404959.28125
15.56,1534404959.296875
13.91,1534404959.3125
12.41,1534404959.328125
10.84,1534404959.34375
8.93,1534404959.359375
6.43,1534404959.375
3.33,1534404959.390625
-0.2,1534404959.40625
-3.81,1534404959.421875
-7.18,1534404959.4375
-10.11,1534404959.453125
-12.64,1534404959.46875
-14.98,1534404959.484375
-17.5,1534404959.5
-20.61,1534404959.515625
-24.6,1534404959.53125
-29.5,1534404959.546875
-35.01,1534404959.5625
-40.35,1534404959.578125
-44.48,1534404959.59375
-46.33,1534404959.609375
-45.15,1534404959.625
-40.82,1534404959.640625
-33.9,1534404959.65625
-25.42,1534404959.671875
-16.53,1534404959.6875
-8.13,1534404959.703125
-0.68,1534404959.71875
5.75,1534404959.734375
11.21,1534404959.75
15.7,1534404959.765625
19.09,1534404959.78125
21.24,1534404959.796875
22.19,1534404959.8125
22.26,1534404959.828125
21.97,1534404959.84375
21.82,1534404959.859375
22.07,1534404959.875
22.64,1534404959.890625
23.18,1534404959.90625
23.3,1534404959.921875
22.7,1534404959.9375
21.39,1534404959.953125
19.57,1534404959.96875
17.57,1534404959.984375
15.7,1534404960.0
14.12,1534404960.015625
12.8,1534404960.03125
11.5,1534404960.046875
9.85,1534404960.0625
7.54,1534404960.078125
4.44,1534404960.09375
0.72,1534404960.109375
-3.22,1534404960.125
-6.87,1534404960.140625
-9.89,1534404960.15625
-12.2,1534404960.171875
-14.08,1534404960.1875
-16.01,1534404960.203125
-18.55,1534404960.21875
-22.06,1534404960.234375
-26.63,1534404960.25
-31.95,1534404960.265625
-37.34,1534404960.28125
-41.84,1534404960.296875
-44.36,1534404960.3125
-44.05,1534404960.328125
-40.53,1534404960.34375
-34.03,1534404960.359375
-25.41,1534404960.375
-15.87,1534404960.390625
-6.59,1534404960.40625
1.58,1534404960.421875
8.21,1534404960.4375
13.21,1534404960.453125
16.74,1534404960.46875
18.99,1534404960.484375
20.15,1534404960.5
20.42,1534404960.515625
20.13,1534404960.53125
19.66,1534404960.546875
19.37,1534404960.5625
19.53,1534404960.578125
20.14,1534404960.59375
20.96,1534404960.609375
21.63,1534404960.625
21.83,1534404960.640625
21.46,1534404960.65625
20.64,1534404960.671875
19.6,1534404960.6875
18.54,1534404960.703125
17.48,1534404960.71875
16.26,1534404960.734375
14.65,1534404960.75
12.47,1534404960.765625
9.65,1534404960.78125
6.29,1534404960.796875
2.59,1534404960.8125
-1.22,1534404960.828125
-4.88,1534404960.84375
-8.16,1534404960.859375
-10.92,1534404960.875
-13.16,1534404960.890625
-15.16,1534404960.90625
-17.39,1534404960.921875
-20.37,1534404960.9375
-24.4,1534404960.953125
-29.35,1534404960.96875
-34.58,1534404960.984375
-39.07,1534404961.0
-41.71,1534404961.015625
-41.66,1534404961.03125
-38.54,1534404961.046875
-32.59,1534404961.0625
-24.52,1534404961.078125
-15.32,1534404961.09375
-6.0,1534404961.109375
2.6,1534404961.125
9.92,1534404961.140625
15.69,1534404961.15625
19.83,1534404961.171875
22.4,1534404961.1875
23.56,1534404961.203125
23.6,1534404961.21875
22.92,1534404961.234375
21.98,1534404961.25
21.25,1534404961.265625
21.02,1534404961.28125
21.35,1534404961.296875
22.0,1534404961.3125
22.62,1534404961.328125
22.85,1534404961.34375
22.49,1534404961.359375
21.61,1534404961.375
20.46,1534404961.390625
19.3,1534404961.40625
18.26,1534404961.421875
17.28,1534404961.4375
16.07,1534404961.453125
14.32,1534404961.46875
11.87,1534404961.484375
8.79,1534404961.5
5.4,1534404961.515625
2.14,1534404961.53125
-0.66,1534404961.546875
-2.9,1534404961.5625
-4.8,1534404961.578125
-6.72,1534404961.59375
-9.1,1534404961.609375
-12.22,1534404961.625
-16.22,1534404961.640625
-20.93,1534404961.65625
-25.94,1534404961.671875
-30.55,1534404961.6875
-33.9,1534404961.703125
-35.1,1534404961.71875
-33.52,1534404961.734375
-29.04,1534404961.75
-22.15,1534404961.765625
-13.81,1534404961.78125
-5.23,1534404961.796875
2.55,1534404961.8125
8.86,1534404961.828125
13.46,1534404961.84375
16.43,1534404961.859375
17.99,1534404961.875
18.36,1534404961.890625
17.79,1534404961.90625
16.58,1534404961.921875
15.11,1534404961.9375
13.77,1534404961.953125
12.89,1534404961.96875
12.54,1534404961.984375
12.65,1534404962.0
12.95,1534404962.015625
13.18,1534404962.03125
13.16,1534404962.046875
12.79,1534404962.0625
12.03,1534404962.078125
10.85,1534404962.09375
9.21,1534404962.109375
7.11,1534404962.125
4.59,1534404962.140625
1.74,1534404962.15625
-1.29,1534404962.171875
-4.43,1534404962.1875
-7.61,1534404962.203125
-10.8,1534404962.21875
-14.0,1534404962.234375
-17.22,1534404962.25
-20.58,1534404962.265625
-24.25,1534404962.28125
-28.43,1534404962.296875
-33.13,1534404962.3125
-38.03,1534404962.328125
-42.35,1534404962.34375
-45.02,1534404962.359375
-45.05,1534404962.375
-41.91,1534404962.390625
-35.77,1534404962.40625
-27.51,1534404962.421875
-18.38,1534404962.4375
-9.53,1534404962.453125
-1.8,1534404962.46875
4.49,1534404962.484375
9.31,1534404962.5
12.79,1534404962.515625
15.0,1534404962.53125
16.04,1534404962.546875
16.06,1534404962.5625
15.35,1534404962.578125
14.3,1534404962.59375
13.34,1534404962.609375
12.72,1534404962.625
12.51,1534404962.640625
12.55,1534404962.65625
12.59,1534404962.671875
12.42,1534404962.6875
11.9,1534404962.703125
11.0,1534404962.71875
9.72,1534404962.734375
8.08,1534404962.75
6.08,1534404962.765625
3.71,1534404962.78125
0.98,1534404962.796875
-2.05,1534404962.8125
-5.31,1534404962.828125
-8.67,1534404962.84375
-12.0,1534404962.859375
-15.21,1534404962.875
-18.37,1534404962.890625
-21.69,1534404962.90625
-25.55,1534404962.921875
-30.28,1534404962.9375
-35.89,1534404962.953125
-41.89,1534404962.96875
-47.24,1534404962.984375
-50.69,1534404963.0
-51.1,1534404963.015625
-47.98,1534404963.03125
-41.58,1534404963.046875
-32.81,1534404963.0625
-22.89,1534404963.078125
-12.96,1534404963.09375
-3.82,1534404963.109375
4.08,1534404963.125
10.61,1534404963.140625
15.8,1534404963.15625
19.75,1534404963.171875
22.59,1534404963.1875
24.5,1534404963.203125
25.66,1534404963.21875
26.21,1534404963.234375
26.27,1534404963.25
25.94,1534404963.265625
25.33,1534404963.28125
24.6,1534404963.296875
23.91,1534404963.3125
23.32,1534404963.328125
22.79,1534404963.34375
22.12,1534404963.359375
21.09,1534404963.375
19.5,1534404963.390625
17.31,1534404963.40625
14.54,1534404963.421875
11.38,1534404963.4375
7.95,1534404963.453125
4.36,1534404963.46875
0.64,1534404963.484375
-3.2,1534404963.5
-7.14,1534404963.515625
-11.19,1534404963.53125
-15.46,1534404963.546875
-20.1,1534404963.5625
-25.26,1534404963.578125
-30.93,1534404963.59375
-36.69,1534404963.609375
-41.75,1534404963.625
-45.02,1534404963.640625
-45.52,1534404963.65625
-42.71,1534404963.671875
-36.7,1534404963.6875
-28.25,1534404963.703125
-18.47,1534404963.71875
-8.51,1534404963.734375
0.78,1534404963.75
8.88,1534404963.765625
15.57,1534404963.78125
20.81,1534404963.796875
24.63,1534404963.8125
27.15,1534404963.828125
28.53,1534404963.84375
29.04,1534404963.859375
28.95,1534404963.875
28.56,1534404963.890625
28.06,1534404963.90625
27.55,1534404963.921875
27.03,1534404963.9375
26.44,1534404963.953125
25.68,1534404963.96875
24.68,1534404963.984375
23.36,1534404964.0
21.68,1534404964.015625
19.64,1534404964.03125
17.25,1534404964.046875
14.55,1534404964.0625
11.6,1534404964.078125
8.48,1534404964.09375
5.27,1534404964.109375
2.05,1534404964.125
-1.12,1534404964.140625
-4.25,1534404964.15625
-7.46,1534404964.171875
-11.01,1534404964.1875
-15.18,1534404964.203125
-20.14,1534404964.21875
-25.83,1534404964.234375
-31.77,1534404964.25
-37.08,1534404964.265625
-40.74,1534404964.28125
-41.85,1534404964.296875
-39.9,1534404964.3125
-34.96,1534404964.328125
-27.64,1534404964.34375
-18.82,1534404964.359375
-9.46,1534404964.375
-0.39,1534404964.390625
7.8,1534404964.40625
14.71,1534404964.421875
20.15,1534404964.4375
24.04,1534404964.453125
26.48,1534404964.46875
27.68,1534404964.484375
28.01,1534404964.5
27.86,1534404964.515625
27.6,1534404964.53125
27.46,1534404964.546875
27.49,1534404964.5625
27.52,1534404964.578125
27.3,1534404964.59375
26.59,1534404964.609375
25.34,1534404964.625
23.67,1534404964.640625
21.89,1534404964.65625
20.25,1534404964.671875
18.81,1534404964.6875
17.39,1534404964.703125
15.67,1534404964.71875
13.35,1534404964.734375
10.35,1534404964.75
6.9,1534404964.765625
3.38,1534404964.78125
0.16,1534404964.796875
-2.61,1534404964.8125
-5.11,1534404964.828125
-7.73,1534404964.84375
-10.95,1534404964.859375
-15.08,1534404964.875
-20.16,1534404964.890625
-25.8,1534404964.90625
-31.25,1534404964.921875
-35.5,1534404964.9375
-37.5,1534404964.953125
-36.46,1534404964.96875
-32.11,1534404964.984375
-24.89,1534404965.0
-15.85,1534404965.015625
-6.37,1534404965.03125
2.32,1534404965.046875
9.41,1534404965.0625
14.69,1534404965.078125
18.38,1534404965.09375
20.84,1534404965.109375
22.34,1534404965.125
22.97,1534404965.140625
22.8,1534404965.15625
22.01,1534404965.171875
20.95,1534404965.1875
20.08,1534404965.203125
19.76,1534404965.21875
20.06,1534404965.234375
20.72,1534404965.25
21.3,1534404965.265625
21.4,1534404965.28125
20.76,1534404965.296875
19.43,1534404965.3125
17.6,1534404965.328125
15.51,1534404965.34375
13.3,1534404965.359375
11.01,1534404965.375
8.55,1534404965.390625
5.84,1534404965.40625
2.84,1534404965.421875
-0.39,1534404965.4375
-3.75,1534404965.453125
-7.13,1534404965.46875
-10.56,1534404965.484375
-14.2,1534404965.5
-18.25,1534404965.515625
-22.78,1534404965.53125
-27.45,1534404965.546875
-31.53,1534404965.5625
-33.98,1534404965.578125
-33.87,1534404965.59375
-30.73,1534404965.609375
-24.81,1534404965.625
-16.99,1534404965.640625
-8.5,1534404965.65625
-0.46,1534404965.671875
6.36,1534404965.6875
11.61,1534404965.703125
15.28,1534404965.71875
17.48,1534404965.734375
18.39,1534404965.75
18.22,1534404965.765625
17.26,1534404965.78125
15.89,1534404965.796875
14.5,1534404965.8125
13.39,1534404965.828125
12.7,1534404965.84375
12.36,1534404965.859375
12.16,1534404965.875
11.81,1534404965.890625
11.1,1534404965.90625
9.9,1534404965.921875
8.17,1534404965.9375
6.0,1534404965.953125
3.52,1534404965.96875
0.84,1534404965.984375
-1.94,1534404966.0
-4.78,1534404966.015625
-7.69,1534404966.03125
-10.68,1534404966.046875
-13.8,1534404966.0625
-17.09,1534404966.078125
-20.64,1534404966.09375
-24.56,1534404966.109375
-28.95,1534404966.125
-33.82,1534404966.140625
-38.97,1534404966.15625
-43.94,1534404966.171875
-47.96,1534404966.1875
-50.13,1534404966.203125
-49.68,1534404966.21875
-46.22,1534404966.234375
-39.96,1534404966.25
-31.64,1534404966.265625
-22.35,1534404966.28125
-13.11,1534404966.296875
-4.63,1534404966.3125
2.8,1534404966.328125
9.22,1534404966.34375
14.74,1534404966.359375
19.36,1534404966.375
22.93,1534404966.390625
25.29,1534404966.40625
26.35,1534404966.421875
26.28,1534404966.4375
25.45,1534404966.453125
24.27,1534404966.46875
23.14,1534404966.484375
22.25,1534404966.5
21.63,1534404966.515625
21.21,1534404966.53125
20.8,1534404966.546875
20.19,1534404966.5625
19.18,1534404966.578125
17.57,1534404966.59375
15.28,1534404966.609375
12.37,1534404966.625
9.05,1534404966.640625
5.59,1534404966.65625
2.17,1534404966.671875
-1.17,1534404966.6875
-4.55,1534404966.703125
-8.19,1534404966.71875
-12.27,1534404966.734375
-16.89,1534404966.75
-22.03,1534404966.765625
-27.5,1534404966.78125
-32.92,1534404966.796875
-37.63,1534404966.8125
-40.81,1534404966.828125
-41.59,1534404966.84375
-39.33,1534404966.859375
-33.97,1534404966.875
-26.01,1534404966.890625
-16.52,1534404966.90625
-6.72,1534404966.921875
2.34,1534404966.9375
10.06,1534404966.953125
16.28,1534404966.96875
21.12,1534404966.984375
24.76,1534404967.0
27.32,1534404967.015625
28.9,1534404967.03125
29.59,1534404967.046875
29.62,1534404967.0625
29.3,1534404967.078125
28.95,1534404967.09375
28.74,1534404967.109375
28.64,1534404967.125
28.46,1534404967.140625
27.92,1534404967.15625
26.88,1534404967.171875
25.28,1534404967.1875
23.24,1534404967.203125
20.86,1534404967.21875
18.25,1534404967.234375
15.43,1534404967.25
12.42,1534404967.265625
9.25,1534404967.28125
5.97,1534404967.296875
2.67,1534404967.3125
-0.63,1534404967.328125
-4.0,1534404967.34375
-7.62,1534404967.359375
-11.7,1534404967.375
-16.45,1534404967.390625
-21.88,1534404967.40625
-27.77,1534404967.421875
-33.53,1534404967.4375
-38.31,1534404967.453125
-41.1,1534404967.46875
-41.06,1534404967.484375
-37.75,1534404967.5
-31.37,1534404967.515625
-22.71,1534404967.53125
-12.97,1534404967.546875
-3.41,1534404967.5625
5.02,1534404967.578125
11.81,1534404967.59375
16.91,1534404967.609375
20.53,1534404967.625
23.02,1534404967.640625
24.67,1534404967.65625
25.68,1534404967.671875
26.25,1534404967.6875
26.55,1534404967.703125
26.71,1534404967.71875
26.81,1534404967.734375
26.79,1534404967.75
26.55,1534404967.765625
25.98,1534404967.78125
25.12,1534404967.796875
24.06,1534404967.8125
22.96,1534404967.828125
21.87,1534404967.84375
20.69,1534404967.859375
19.18,1534404967.875
17.16,1534404967.890625
14.5,1534404967.90625
11.27,1534404967.921875
7.61,1534404967.9375
3.72,1534404967.953125
-0.23,1534404967.96875
-4.14,1534404967.984375
-7.91,1534404968.0
-11.52,1534404968.015625
-15.04,1534404968.03125
-18.64,1534404968.046875
-22.58,1534404968.0625
-27.02,1534404968.078125
-31.8,1534404968.09375
-36.36,1534404968.109375
-39.77,1534404968.125
-41.01,1534404968.140625
-39.36,1534404968.15625
-34.64,1534404968.171875
-27.38,1534404968.1875
-18.58,1534404968.203125
-9.41,1534404968.21875
-0.86,1534404968.234375
6.47,1534404968.25
12.33,1534404968.265625
16.75,1534404968.28125
19.84,1534404968.296875
21.75,1534404968.3125
22.65,1534404968.328125
22.78,1534404968.34375
22.51,1534404968.359375
22.17,1534404968.375
22.01,1534404968.390625
22.02,1534404968.40625
22.03,1534404968.421875
21.78,1534404968.4375
21.11,1534404968.453125
20.1,1534404968.46875
18.95,1534404968.484375
17.91,1534404968.5
17.08,1534404968.515625
16.31,1534404968.53125
15.27,1534404968.546875
13.61,1534404968.5625
11.13,1534404968.578125
7.92,1534404968.59375
4.25,1534404968.609375
0.53,1534404968.625
-2.92,1534404968.640625
-5.91,1534404968.65625
-8.48,1534404968.671875
-10.77,1534404968.6875
-13.08,1534404968.703125
-15.73,1534404968.71875
-18.99,1534404968.734375
-22.96,1534404968.75
-27.42,1534404968.765625
-31.81,1534404968.78125
-35.27,1534404968.796875
-36.9,1534404968.8125
-35.98,1534404968.828125
-32.3,1534404968.84375
-26.25,1534404968.859375
-18.61,1534404968.875
-10.45,1534404968.890625
-2.75,1534404968.90625
3.83,1534404968.921875
9.0,1534404968.9375
12.79,1534404968.953125
15.4,1534404968.96875
17.05,1534404968.984375
17.93,1534404969.0
18.21,1534404969.015625
18.02,1534404969.03125
17.57,1534404969.046875
17.03,1534404969.0625
16.6,1534404969.078125
16.34,1534404969.09375
16.24,1534404969.109375
16.21,1534404969.125
16.07,1534404969.140625
15.72,1534404969.15625
15.03,1534404969.171875
13.97,1534404969.1875
12.51,1534404969.203125
10.64,1534404969.21875
8.41,1534404969.234375
5.86,1534404969.25
3.06,1534404969.265625
0.12,1534404969.28125
-2.9,1534404969.296875
-5.91,1534404969.3125
-8.89,1534404969.328125
-11.85,1534404969.34375
-14.92,1534404969.359375
-18.28,1534404969.375
-22.03,1534404969.390625
-26.14,1534404969.40625
-30.26,1534404969.421875
-33.82,1534404969.4375
-36.11,1534404969.453125
-36.5,1534404969.46875
-34.7,1534404969.484375
-30.78,1534404969.5
-25.16,1534404969.515625
-18.46,1534404969.53125
-11.3,1534404969.546875
-4.27,1534404969.5625
2.2,1534404969.578125
7.76,1534404969.59375
12.13,1534404969.609375
15.16,1534404969.625
16.85,1534404969.640625
17.39,1534404969.65625
17.14,1534404969.671875
16.53,1534404969.6875
15.98,1534404969.703125
15.75,1534404969.71875
15.89,1534404969.734375
16.26,1534404969.75
16.63,1534404969.765625
16.79,1534404969.78125
16.64,1534404969.796875
16.23,1534404969.8125
15.63,1534404969.828125
14.88,1534404969.84375
13.91,1534404969.859375
12.62,1534404969.875
10.95,1534404969.890625
8.92,1534404969.90625
6.67,1534404969.921875
4.38,1534404969.9375
2.17,1534404969.953125
0.05,1534404969.96875
-2.03,1534404969.984375
-4.16,1534404970.0
-6.45,1534404970.015625
-9.0,1534404970.03125
-11.96,1534404970.046875
-15.45,1534404970.0625
-19.43,1534404970.078125
-23.55,1534404970.09375
-27.07,1534404970.109375
-28.99,1534404970.125
-28.43,1534404970.140625
-24.99,1534404970.15625
-19.01,1534404970.171875
-11.52,1534404970.1875
-3.84,1534404970.203125
2.9,1534404970.21875
8.06,1534404970.234375
11.63,1534404970.25
13.91,1534404970.265625
15.33,1534404970.28125
16.13,1534404970.296875
16.44,1534404970.3125
16.3,1534404970.328125
15.78,1534404970.34375
15.08,1534404970.359375
14.38,1534404970.375
13.78,1534404970.390625
13.27,1534404970.40625
12.74,1534404970.421875
12.05,1534404970.4375
11.15,1534404970.453125
10.03,1534404970.46875
8.71,1534404970.484375
7.25,1534404970.5
5.64,1534404970.515625
3.88,1534404970.53125
1.94,1534404970.546875
-0.2,1534404970.5625
-2.55,1534404970.578125
-5.05,1534404970.59375
-7.62,1534404970.609375
-10.16,1534404970.625
-12.64,1534404970.640625
-15.14,1534404970.65625
-17.85,1534404970.671875
-20.98,1534404970.6875
-24.55,1534404970.703125
-28.26,1534404970.71875
-31.47,1534404970.734375
-33.31,1534404970.75
-33.05,1534404970.765625
-30.32,1534404970.78125
-25.34,1534404970.796875
-18.83,1534404970.8125
-11.76,1534404970.828125
-5.04,1534404970.84375
0.71,1534404970.859375
5.17,1534404970.875
8.32,1534404970.890625
10.25,1534404970.90625
11.1,1534404970.921875
11.05,1534404970.9375
10.32,1534404970.953125
9.2,1534404970.96875
7.98,1534404970.984375
6.92,1534404971.0
6.21,1534404971.015625
5.89,1534404971.03125
5.85,1534404971.046875
5.83,1534404971.0625
5.55,1534404971.078125
4.82,1534404971.09375
3.54,1534404971.109375
1.8,1534404971.125
-0.28,1534404971.140625
-2.52,1534404971.15625
-4.85,1534404971.171875
-7.27,1534404971.1875
-9.83,1534404971.203125
-12.58,1534404971.21875
-15.56,1534404971.234375
-18.76,1534404971.25
-22.17,1534404971.265625
-25.82,1534404971.28125
-29.73,1534404971.296875
-33.85,1534404971.3125
-37.91,1534404971.328125
-41.37,1534404971.34375
-43.5,1534404971.359375
-43.57,1534404971.375
-41.08,1534404971.390625
-35.99,1534404971.40625
-28.79,1534404971.421875
-20.39,1534404971.4375
-11.87,1534404971.453125
-4.15,1534404971.46875
2.25,1534404971.484375
7.17,1534404971.5
10.73,1534404971.515625
13.17,1534404971.53125
14.67,1534404971.546875
15.38,1534404971.5625
15.39,1534404971.578125
14.88,1534404971.59375
14.11,1534404971.609375
13.32,1534404971.625
12.75,1534404971.640625
12.43,1534404971.65625
12.25,1534404971.671875
12.0,1534404971.6875
11.47,1534404971.703125
10.53,1534404971.71875
9.18,1534404971.734375
7.48,1534404971.75
5.57,1534404971.765625
3.52,1534404971.78125
1.42,1534404971.796875
-0.77,1534404971.8125
-3.11,1534404971.828125
-5.7,1534404971.84375
-8.66,1534404971.859375
-12.14,1534404971.875
-16.22,1534404971.890625
-20.94,1534404971.90625
-26.16,1534404971.921875
-31.5,1534404971.9375
-36.26,1534404971.953125
-39.55,1534404971.96875
-40.51,1534404971.984375
-38.6,1534404972.0
-33.86,1534404972.015625
-26.94,1534404972.03125
-18.9,1534404972.046875
-10.83,1534404972.0625
-3.55,1534404972.078125
2.58,1534404972.09375
7.57,1534404972.109375
11.6,1534404972.125
14.76,1534404972.140625
17.01,1534404972.15625
18.27,1534404972.171875
18.55,1534404972.1875
18.08,1534404972.203125
17.28,1534404972.21875
16.65,1534404972.234375
16.5,1534404972.25
16.82,1534404972.265625
17.33,1534404972.28125
17.6,1534404972.296875
17.24,1534404972.3125
16.11,1534404972.328125
14.33,1534404972.34375
12.17,1534404972.359375
9.85,1534404972.375
7.49,1534404972.390625
5.03,1534404972.40625
2.38,1534404972.421875
-0.55,1534404972.4375
-3.74,1534404972.453125
-7.17,1534404972.46875
-10.87,1534404972.484375
-14.94,1534404972.5
-19.53,1534404972.515625
-24.59,1534404972.53125
-29.75,1534404972.546875
-34.3,1534404972.5625
-37.31,1534404972.578125
-37.9,1534404972.59375
-35.6,1534404972.609375
-30.49,1534404972.625
-23.2,1534404972.640625
-14.72,1534404972.65625
-6.08,1534404972.671875
1.9,1534404972.6875
8.71,1534404972.703125
14.21,1534404972.71875
18.44,1534404972.734375
21.54,1534404972.75
23.65,1534404972.765625
24.89,1534404972.78125
25.34,1534404972.796875
25.12,1534404972.8125
24.4,1534404972.828125
23.41,1534404972.84375
22.43,1534404972.859375
21.7,1534404972.875
21.31,1534404972.890625
21.15,1534404972.90625
20.9,1534404972.921875
20.19,1534404972.9375
18.75,1534404972.953125
16.52,1534404972.96875
13.7,1534404972.984375
10.58,1534404973.0
7.42,1534404973.015625
4.35,1534404973.03125
1.33,1534404973.046875
-1.75,1534404973.0625
-4.97,1534404973.078125
-8.37,1534404973.09375
-11.98,1534404973.109375
-15.87,1534404973.125
-20.14,1534404973.140625
-24.81,1534404973.15625
-29.61,1534404973.171875
-33.91,1534404973.1875
-36.77,1534404973.203125
-37.21,1534404973.21875
-34.61,1534404973.234375
-28.98,1534404973.25
-21.05,1534404973.265625
-11.98,1534404973.28125
-3.02,1534404973.296875
4.9,1534404973.3125
11.36,1534404973.328125
16.38,1534404973.34375
20.21,1534404973.359375
23.12,1534404973.375
25.25,1534404973.390625
26.64,1534404973.40625
27.36,1534404973.421875
27.54,1534404973.4375
27.42,1534404973.453125
27.24,1534404973.46875
27.17,1534404973.484375
27.21,1534404973.5
27.24,1534404973.515625
27.1,1534404973.53125
26.66,1534404973.546875
25.87,1534404973.5625
24.75,1534404973.578125
23.25,1534404973.59375
21.29,1534404973.609375
18.77,1534404973.625
15.64,1534404973.640625
12.01,1534404973.65625
8.15,1534404973.671875
4.38,1534404973.6875
0.95,1534404973.703125
-2.07,1534404973.71875
-4.84,1534404973.734375
-7.71,1534404973.75
-11.06,1534404973.765625
-15.14,1534404973.78125
-19.86,1534404973.796875
-24.72,1534404973.8125
-28.83,1534404973.828125
-31.14,1534404973.84375
-30.82,1534404973.859375
-27.5,1534404973.875
-21.46,1534404973.890625
-13.55,1534404973.90625
-4.89,1534404973.921875
3.49,1534404973.9375
10.89,1534404973.953125
17.0,1534404973.96875
21.75,1534404973.984375
25.18,1534404974.0
27.29,1534404974.015625
28.08,1534404974.03125
27.62,1534404974.046875
26.25,1534404974.0625
24.45,1534404974.078125
22.82,1534404974.09375
21.78,1534404974.109375
21.47,1534404974.125
21.65,1534404974.140625
21.87,1534404974.15625
21.66,1534404974.171875
20.74,1534404974.1875
19.12,1534404974.203125
17.04,1534404974.21875
14.81,1534404974.234375
12.61,1534404974.25
10.43,1534404974.265625
8.11,1534404974.28125
5.5,1534404974.296875
2.55,1534404974.3125
-0.68,1534404974.328125
-4.03,1534404974.34375
-7.44,1534404974.359375
-10.97,1534404974.375
-14.8,1534404974.390625
-19.05,1534404974.40625
-23.66,1534404974.421875
-28.26,1534404974.4375
-32.2,1534404974.453125
-34.71,1534404974.46875
-35.1,1534404974.484375
-33.01,1534404974.5
-28.43,1534404974.515625
-21.82,1534404974.53125
-13.94,1534404974.546875
-5.7,1534404974.5625
2.04,1534404974.578125
8.64,1534404974.59375
13.77,1534404974.609375
17.37,1534404974.625
19.58,1534404974.640625
20.63,1534404974.65625
20.74,1534404974.671875
20.16,1534404974.6875
19.17,1534404974.703125
18.06,1534404974.71875
17.1,1534404974.734375
16.49,1534404974.75
16.22,1534404974.765625
16.09,1534404974.78125
15.8,1534404974.796875
15.09,1534404974.8125
13.82,1534404974.828125
12.01,1534404974.84375
9.79,1534404974.859375
7.27,1534404974.875
4.49,1534404974.890625
1.4,1534404974.90625
-2.03,1534404974.921875
-5.69,1534404974.9375
-9.38,1534404974.953125
-12.83,1534404974.96875
-15.86,1534404974.984375
-18.51,1534404975.0
-21.05,1534404975.015625
-23.95,1534404975.03125
-27.62,1534404975.046875
-32.24,1534404975.0625
-37.59,1534404975.078125
-43.03,1534404975.09375
-47.61,1534404975.109375
-50.29,1534404975.125
-50.24,1534404975.140625
-47.04,1534404975.15625
-40.83,1534404975.171875
-32.27,1534404975.1875
-22.35,1534404975.203125
-12.17,1534404975.21875
-2.65,1534404975.234375
5.57,1534404975.25
12.15,1534404975.265625
17.04,1534404975.28125
20.35,1534404975.296875
22.34,1534404975.3125
23.35,1534404975.328125
23.8,1534404975.34375
24.06,1534404975.359375
24.36,1534404975.375
24.73,1534404975.390625
25.02,1534404975.40625
24.99,1534404975.421875
24.53,1534404975.4375
23.66,1534404975.453125
22.52,1534404975.46875
21.22,1534404975.484375
19.76,1534404975.5
18.03,1534404975.515625
15.88,1534404975.53125
13.28,1534404975.546875
10.4,1534404975.5625
7.43,1534404975.578125
4.51,1534404975.59375
1.63,1534404975.609375
-1.33,1534404975.625
-4.48,1534404975.640625
-7.8,1534404975.65625
-11.2,1534404975.671875
-14.64,1534404975.6875
-18.25,1534404975.703125
-22.32,1534404975.71875
-27.01,1534404975.734375
-32.1,1534404975.75
-36.86,1534404975.765625
-40.14,1534404975.78125
-40.87,1534404975.796875
-38.45,1534404975.8125
-33.03,1534404975.828125
-25.43,1534404975.84375
-16.8,1534404975.859375
-8.24,1534404975.875
-0.41,1534404975.890625
6.38,1534404975.90625
12.11,1534404975.921875
16.82,1534404975.9375
20.49,1534404975.953125
23.06,1534404975.96875
24.56,1534404975.984375
25.14,1534404976.0
25.13,1534404976.015625
24.86,1534404976.03125
24.62,1534404976.046875
24.52,1534404976.0625
24.55,1534404976.078125
24.57,1534404976.09375
24.44,1534404976.109375
24.03,1534404976.125
23.29,1534404976.140625
22.25,1534404976.15625
20.98,1534404976.171875
19.52,1534404976.1875
17.85,1534404976.203125
15.87,1534404976.21875
13.39,1534404976.234375
10.3,1534404976.25
6.61,1534404976.265625
2.55,1534404976.28125
-1.48,1534404976.296875
-5.09,1534404976.3125
-8.05,1534404976.328125
-10.48,1534404976.34375
-12.72,1534404976.359375
-15.32,1534404976.375
-18.74,1534404976.390625
-23.2,1534404976.40625
-28.54,1534404976.421875
-34.23,1534404976.4375
-39.36,1534404976.453125
-42.92,1534404976.46875
-44.02,1534404976.484375
-42.11,1534404976.5
-37.28,1534404976.515625
-30.15,1534404976.53125
-21.74,1534404976.546875
-13.11,1534404976.5625
-5.08,1534404976.578125
1.87,1534404976.59375
7.64,1534404976.609375
12.25,1534404976.625
15.78,1534404976.640625
18.27,1534404976.65625
19.79,1534404976.671875
20.5,1534404976.6875
20.7,1534404976.703125
20.74,1534404976.71875
20.95,1534404976.734375
21.45,1534404976.75
22.13,1534404976.765625
22.73,1534404976.78125
22.92,1534404976.796875
22.52,1534404976.8125
21.53,1534404976.828125
20.2,1534404976.84375
18.78,1534404976.859375
17.49,1534404976.875
16.34,1534404976.890625
15.15,1534404976.90625
13.64,1534404976.921875
11.56,1534404976.9375
8.83,1534404976.953125
5.54,1534404976.96875
1.91,1534404976.984375
-1.76,1534404977.0
-5.19,1534404977.015625
-8.18,1534404977.03125
-10.68,1534404977.046875
-12.8,1534404977.0625
-14.82,1534404977.078125
-17.13,1534404977.09375
-20.05,1534404977.109375
-23.75,1534404977.125
-28.07,1534404977.140625
-32.44,1534404977.15625
-35.96,1534404977.171875
-37.65,1534404977.1875
-36.7,1534404977.203125
-32.79,1534404977.21875
-26.28,1534404977.234375
-18.03,1534404977.25
-9.19,1534404977.265625
-0.88,1534404977.28125
6.18,1534404977.296875
11.68,1534404977.3125
15.69,1534404977.328125
18.43,1534404977.34375
20.15,1534404977.359375
21.0,1534404977.375
21.15,1534404977.390625
20.83,1534404977.40625
20.35,1534404977.421875
20.07,1534404977.4375
20.18,1534404977.453125
20.69,1534404977.46875
21.31,1534404977.484375
21.71,1534404977.5
21.61,1534404977.515625
20.93,1534404977.53125
19.78,1534404977.546875
18.4,1534404977.5625
16.95,1534404977.578125
15.47,1534404977.59375
13.83,1534404977.609375
11.88,1534404977.625
9.52,1534404977.640625
6.78,1534404977.65625
3.81,1534404977.671875
0.75,1534404977.6875
-2.28,1534404977.703125
-5.26,1534404977.71875
-8.28,1534404977.734375
-11.46,1534404977.75
-14.92,1534404977.765625
-18.7,1534404977.78125
-22.72,1534404977.796875
-26.72,1534404977.8125
-30.2,1534404977.828125
-32.57,1534404977.84375
-33.21,1534404977.859375
-31.71,1534404977.875
-28.01,1534404977.890625
-22.45,1534404977.90625
-15.7,1534404977.921875
-8.6,1534404977.9375
-1.91,1534404977.953125
3.85,1534404977.96875
8.4,1534404977.984375
11.69,1534404978.0
13.77,1534404978.015625
14.81,1534404978.03125
14.96,1534404978.046875
14.49,1534404978.0625
13.68,1534404978.078125
12.83,1534404978.09375
12.13,1534404978.109375
11.67,1534404978.125
11.43,1534404978.140625
11.31,1534404978.15625
11.17,1534404978.171875
10.84,1534404978.1875
10.2,1534404978.203125
9.12,1534404978.21875
7.54,1534404978.234375
5.39,1534404978.25
2.76,1534404978.265625
-0.25,1534404978.28125
-3.46,1534404978.296875
-6.68,1534404978.3125
-9.75,1534404978.328125
-12.57,1534404978.34375
-15.15,1534404978.359375
-17.54,1534404978.375
-19.88,1534404978.390625
-22.33,1534404978.40625
-25.1,1534404978.421875
-28.4,1534404978.4375
-32.36,1534404978.453125
-36.95,1534404978.46875
-41.79,1534404978.484375
-46.15,1534404978.5
-49.04,1534404978.515625
-49.51,1534404978.53125
-46.96,1534404978.546875
-41.41,1534404978.5625
-33.54,1534404978.578125
-24.42,1534404978.59375
-15.22,1534404978.609375
-6.85,1534404978.625
0.19,1534404978.640625
5.8,1534404978.65625
10.09,1534404978.671875
13.23,1534404978.6875
15.44,1534404978.703125
16.92,1534404978.71875
17.93,1534404978.734375
18.69,1534404978.75
19.38,1534404978.765625
20.05,1534404978.78125
20.63,1534404978.796875
20.98,1534404978.8125
20.93,1534404978.828125
20.46,1534404978.84375
19.62,1534404978.859375
18.51,1534404978.875
17.25,1534404978.890625
15.82,1534404978.90625
14.14,1534404978.921875
12.05,1534404978.9375
9.5,1534404978.953125
6.54,1534404978.96875
3.36,1534404978.984375
0.19,1534404979.0
-2.8,1534404979.015625
-5.61,1534404979.03125
-8.36,1534404979.046875
-11.3,1534404979.0625
-14.72,1534404979.078125
-18.82,1534404979.09375
-23.67,1534404979.109375
-29.09,1534404979.125
-34.57,1534404979.140625
-39.33,1534404979.15625
-42.47,1534404979.171875
-43.19,1534404979.1875
-41.08,1534404979.203125
-36.26,1534404979.21875
-29.34,1534404979.234375
-21.24,1534404979.25
-12.85,1534404979.265625
-4.88,1534404979.28125
2.28,1534404979.296875
8.52,1534404979.3125
13.79,1534404979.328125
18.08,1534404979.34375
21.34,1534404979.359375
23.55,1534404979.375
24.81,1534404979.390625
25.32,1534404979.40625
25.38,1534404979.421875
25.25,1534404979.4375
25.13,1534404979.453125
25.03,1534404979.46875
24.86,1534404979.484375
24.45,1534404979.5
23.71,1534404979.515625
22.64,1534404979.53125
21.31,1534404979.546875
19.8,1534404979.5625
18.13,1534404979.578125
16.2,1534404979.59375
13.85,1534404979.609375
10.97,1534404979.625
7.6,1534404979.640625
3.95,1534404979.65625
0.32,1534404979.671875
-3.07,1534404979.6875
-6.17,1534404979.703125
-9.13,1534404979.71875
-12.24,1534404979.734375
-15.76,1534404979.75
-19.86,1534404979.765625
-24.58,1534404979.78125
-29.72,1534404979.796875
-34.81,1534404979.8125
-39.13,1534404979.828125
-41.75,1534404979.84375
-41.84,1534404979.859375
-38.98,1534404979.875
-33.34,1534404979.890625
-25.75,1534404979.90625
-17.33,1534404979.921875
-9.17,1534404979.9375
-1.92,1534404979.953125
4.23,1534404979.96875
9.38,1534404979.984375
13.68,1534404980.0
17.17,1534404980.015625
19.78,1534404980.03125
21.47,1534404980.046875
22.38,1534404980.0625
22.82,1534404980.078125
23.17,1534404980.09375
23.67,1534404980.109375
24.31,1534404980.125
24.89,1534404980.140625
25.12,1534404980.15625
24.83,1534404980.171875
24.0,1534404980.1875
22.8,1534404980.203125
21.4,1534404980.21875
19.92,1534404980.234375
18.28,1534404980.25
16.28,1534404980.265625
13.76,1534404980.28125
10.7,1534404980.296875
7.26,1534404980.3125
3.79,1534404980.328125
0.61,1534404980.34375
-2.12,1534404980.359375
-4.48,1534404980.375
-6.76,1534404980.390625
-9.35,1534404980.40625
-12.65,1534404980.421875
-16.87,1534404980.4375
-21.99,1534404980.453125
-27.67,1534404980.46875
-33.26,1534404980.484375
-37.92,1534404980.5
-40.77,1534404980.515625
-41.13,1534404980.53125
-38.7,1534404980.546875
-33.66,1534404980.5625
-26.6,1534404980.578125
-18.31,1534404980.59375
-9.67,1534404980.609375
-1.44,1534404980.625
5.8,1534404980.640625
11.68,1534404980.65625
16.04,1534404980.671875
18.91,1534404980.6875
20.51,1534404980.703125
21.16,1534404980.71875
21.27,1534404980.734375
21.18,1534404980.75
21.12,1534404980.765625
21.21,1534404980.78125
21.47,1534404980.796875
21.8,1534404980.8125
22.06,1534404980.828125
22.09,1534404980.84375
21.78,1534404980.859375
21.07,1534404980.875
19.99,1534404980.890625
18.58,1534404980.90625
16.9,1534404980.921875
14.91,1534404980.9375
12.57,1534404980.953125
9.84,1534404980.96875
6.75,1534404980.984375
3.45,1534404981.0
0.11,1534404981.015625
-3.12,1534404981.03125
-6.22,1534404981.046875
-9.28,1534404981.0625
-12.56,1534404981.078125
-16.22,1534404981.09375
-20.42,1534404981.109375
-25.1,1534404981.125
-29.9,1534404981.140625
-34.19,1534404981.15625
-37.08,1534404981.171875
-37.73,1534404981.1875
-35.53,1534404981.203125
-30.44,1534404981.21875
-23.01,1534404981.234375
-14.31,1534404981.25
-5.5,1534404981.265625
2.45,1534404981.28125
9.0,1534404981.296875
14.04,1534404981.3125
17.73,1534404981.328125
20.28,1534404981.34375
21.83,1534404981.359375
22.51,1534404981.375
22.46,1534404981.390625
21.95,1534404981.40625
21.35,1534404981.421875
20.94,1534404981.4375
20.86,1534404981.453125
21.02,1534404981.46875
21.15,1534404981.484375
20.97,1534404981.5
20.31,1534404981.515625
19.14,1534404981.53125
17.57,1534404981.546875
15.72,1534404981.5625
13.64,1534404981.578125
11.33,1534404981.59375
8.76,1534404981.609375
5.99,1534404981.625
3.18,1534404981.640625
0.52,1534404981.65625
-1.89,1534404981.671875
-4.1,1534404981.6875
-6.33,1534404981.703125
-8.95,1534404981.71875
-12.25,1534404981.734375
-16.36,1534404981.75
-21.14,1534404981.765625
-26.1,1534404981.78125
-30.52,1534404981.796875
-33.56,1534404981.8125
-34.47,1534404981.828125
-32.78,1534404981.84375
-28.5,1534404981.859375
-22.09,1534404981.875
-14.4,1534404981.890625
-6.41,1534404981.90625
1.09,1534404981.921875
7.58,1534404981.9375
12.9,1534404981.953125
17.06,1534404981.96875
20.15,1534404981.984375
22.19,1534404982.0
23.19,1534404982.015625
23.29,1534404982.03125
22.78,1534404982.046875
22.07,1534404982.0625
21.56,1534404982.078125
21.44,1534404982.09375
21.61,1534404982.109375
21.79,1534404982.125
21.64,1534404982.140625
21.0,1534404982.15625
19.88,1534404982.171875
18.46,1534404982.1875
16.91,1534404982.203125
15.21,1534404982.21875
13.28,1534404982.234375
10.94,1534404982.25
8.14,1534404982.265625
4.98,1534404982.28125
1.71,1534404982.296875
-1.44,1534404982.3125
-4.31,1534404982.328125
-6.92,1534404982.34375
-9.47,1534404982.359375
-12.24,1534404982.375
-15.5,1534404982.390625
-19.34,1534404982.40625
-23.57,1534404982.421875
-27.65,1534404982.4375
-30.75,1534404982.453125
-31.96,1534404982.46875
-30.66,1534404982.484375
-26.75,1534404982.5
-20.69,1534404982.515625
-13.41,1534404982.53125
-5.92,1534404982.546875
0.96,1534404982.5625
6.83,1534404982.578125
11.61,1534404982.59375
15.34,1534404982.609375
18.05,1534404982.625
19.72,1534404982.640625
20.37,1534404982.65625
20.2,1534404982.671875
19.59,1534404982.6875
18.96,1534404982.703125
18.64,1534404982.71875
18.67,1534404982.734375
18.92,1534404982.75
19.12,1534404982.765625
19.06,1534404982.78125
18.62,1534404982.796875
17.77,1534404982.8125
16.52,1534404982.828125
14.92,1534404982.84375
13.03,1534404982.859375
10.92,1534404982.875
8.68,1534404982.890625
6.38,1534404982.90625
4.01,1534404982.921875
1.56,1534404982.9375
-1.0,1534404982.953125
-3.68,1534404982.96875
-6.52,1534404982.984375
-9.65,1534404983.0
-13.27,1534404983.015625
-17.5,1534404983.03125
-22.13,1534404983.046875
-26.6,1534404983.0625
-29.97,1534404983.078125
-31.27,1534404983.09375
-29.84,1534404983.109375
-25.67,1534404983.125
-19.42,1534404983.140625
-12.16,1534404983.15625
-4.99,1534404983.171875
1.32,1534404983.1875
6.49,1534404983.203125
10.58,1534404983.21875
13.78,1534404983.234375
16.22,1534404983.25
17.87,1534404983.265625
18.65,1534404983.28125
18.57,1534404983.296875
17.85,1534404983.3125
16.85,1534404983.328125
15.94,1534404983.34375
15.35,1534404983.359375
15.03,1534404983.375
14.77,1534404983.390625
14.31,1534404983.40625
13.48,1534404983.421875
12.23,1534404983.4375
10.58,1534404983.453125
8.54,1534404983.46875
6.14,1534404983.484375
3.34,1534404983.5
0.21,1534404983.515625
-3.16,1534404983.53125
-6.58,1534404983.546875
-9.96,1534404983.5625
-13.23,1534404983.578125
-16.41,1534404983.59375
-19.6,1534404983.609375
-22.93,1534404983.625
-26.61,1534404983.640625
-30.75,1534404983.65625
-35.35,1534404983.671875
-40.01,1534404983.6875
-43.95,1534404983.703125
-46.19,1534404983.71875
-45.82,1534404983.734375
-42.47,1534404983.75
-36.46,1534404983.765625
-28.67,1534404983.78125
-20.23,1534404983.796875
-12.04,1534404983.8125
-4.59,1534404983.828125
1.99,1534404983.84375
7.76,1534404983.859375
12.7,1534404983.875
16.69,1534404983.890625
19.59,1534404983.90625
21.4,1534404983.921875
22.32,1534404983.9375
22.67,1534404983.953125
22.77,1534404983.96875
22.79,1534404983.984375
22.78,1534404984.0
22.69,1534404984.015625
22.45,1534404984.03125
22.0,1534404984.046875
21.28,1534404984.0625
20.21,1534404984.078125
18.71,1534404984.09375
16.72,1534404984.109375
14.26,1534404984.125
11.44,1534404984.140625
8.44,1534404984.15625
5.38,1534404984.171875
2.34,1534404984.1875
-0.7,1534404984.203125
-3.83,1534404984.21875
-7.12,1534404984.234375
-10.63,1534404984.25
-14.41,1534404984.265625
-18.55,1534404984.28125
-23.12,1534404984.296875
-28.09,1534404984.3125
-33.21,1534404984.328125
-37.91,1534404984.34375
-41.38,1534404984.359375
-42.79,1534404984.375
-41.52,1534404984.390625
-37.46,1534404984.40625
-31.03,1534404984.421875
-23.07,1534404984.4375
-14.5,1534404984.453125
-6.14,1534404984.46875
1.54,1534404984.484375
8.32,1534404984.5
14.17,1534404984.515625
19.08,1534404984.53125
23.05,1534404984.546875
26.03,1534404984.5625
28.04,1534404984.578125
29.18,1534404984.59375
29.65,1534404984.609375
29.71,1534404984.625
29.56,1534404984.640625
29.34,1534404984.65625
29.03,1534404984.671875
28.52,1534404984.6875
27.74,1534404984.703125
26.64,1534404984.71875
25.35,1534404984.734375
23.97,1534404984.75
22.59,1534404984.765625
21.13,1534404984.78125
19.38,1534404984.796875
17.09,1534404984.8125
14.11,1534404984.828125
10.53,1534404984.84375
6.6,1534404984.859375
2.66,1534404984.875
-1.02,1534404984.890625
-4.29,1534404984.90625
-7.15,1534404984.921875
-9.74,1534404984.9375
-12.33,1534404984.953125
-15.24,1534404984.96875
-18.82,1534404984.984375
-23.31,1534404985.0
-28.6,1534404985.015625
-34.15,1534404985.03125
-38.99,1534404985.046875
-42.02,1534404985.0625
-42.36,1534404985.078125
-39.74,1534404985.09375
-34.51,1534404985.109375
-27.52,1534404985.125
-19.75,1534404985.140625
-11.94,1534404985.15625
-4.48,1534404985.171875
2.55,1534404985.1875
9.06,1534404985.203125
14.88,1534404985.21875
19.68,1534404985.234375
23.14,1534404985.25
25.13,1534404985.265625
25.88,1534404985.28125
25.9,1534404985.296875
25.76,1534404985.3125
25.88,1534404985.328125
26.35,1534404985.34375
26.97,1534404985.359375
27.42,1534404985.375
27.4,1534404985.390625
26.75,1534404985.40625
25.57,1534404985.421875
24.03,1534404985.4375
22.35,1534404985.453125
20.67,1534404985.46875
19.02,1534404985.484375
17.3,1534404985.5
15.32,1534404985.515625
12.89,1534404985.53125
9.84,1534404985.546875
6.21,1534404985.5625
2.22,1534404985.578125
-1.77,1534404985.59375
-5.39,1534404985.609375
-8.46,1534404985.625
-11.02,1534404985.640625
-13.36,1534404985.65625
-15.79,1534404985.671875
-18.61,1534404985.6875
-21.99,1534404985.703125
-26.02,1534404985.71875
-30.6,1534404985.734375
-35.48,1534404985.75
-40.12,1534404985.765625
-43.72,1534404985.78125
-45.36,1534404985.796875
-44.34,1534404985.8125
-40.42,1534404985.828125
-34.06,1534404985.84375
-26.18,1534404985.859375
-17.87,1534404985.875
-10.0,1534404985.890625
-2.98,1534404985.90625
3.16,1534404985.921875
8.54,1534404985.9375
13.22,1534404985.953125
17.03,1534404985.96875
19.79,1534404985.984375
21.39,1534404986.0
21.99,1534404986.015625
22.0,1534404986.03125
21.93,1534404986.046875
22.23,1534404986.0625
23.13,1534404986.078125
24.55,1534404986.09375
26.14,1534404986.109375
27.4,1534404986.125
27.91,1534404986.140625
27.44,1534404986.15625
26.1,1534404986.171875
24.24,1534404986.1875
22.3,1534404986.203125
20.58,1534404986.21875
19.06,1534404986.234375
17.45,1534404986.25
15.4,1534404986.265625
12.67,1534404986.28125
9.35,1534404986.296875
5.76,1534404986.3125
2.36,1534404986.328125
-0.58,1534404986.34375
-3.04,1534404986.359375
-5.26,1534404986.375
-7.56,1534404986.390625
-10.14,1534404986.40625
-13.03,1534404986.421875
-16.13,1534404986.4375
-19.4,1534404986.453125
-22.85,1534404986.46875
-26.51,1534404986.484375
-30.18,1534404986.5
-33.38,1534404986.515625
-35.31,1534404986.53125
-35.14,1534404986.546875
-32.39,1534404986.5625
-27.17,1534404986.578125
-20.18,1534404986.59375
-12.46,1534404986.609375
-4.95,1534404986.625
1.74,1534404986.640625
7.38,1534404986.65625
12.0,1534404986.671875
15.62,1534404986.6875
18.19,1534404986.703125
19.65,1534404986.71875
20.09,1534404986.734375
19.79,1534404986.75
19.23,1534404986.765625
18.91,1534404986.78125
19.13,1534404986.796875
19.89,1534404986.8125
20.9,1534404986.828125
21.67,1534404986.84375
21.79,1534404986.859375
21.05,1534404986.875
19.53,1534404986.890625
17.58,1534404986.90625
15.59,1534404986.921875
13.84,1534404986.9375
12.37,1534404986.953125
10.96,1534404986.96875
9.27,1534404986.984375
7.07,1534404987.0
4.31,1534404987.015625
1.17,1534404987.03125
-2.06,1534404987.046875
-5.17,1534404987.0625
-8.05,1534404987.078125
-10.77,1534404987.09375
-13.47,1534404987.109375
-16.3,1534404987.125
-19.36,1534404987.140625
-22.76,1534404987.15625
-26.54,1534404987.171875
-30.67,1534404987.1875
-34.97,1534404987.203125
-38.99,1534404987.21875
-42.06,1534404987.234375
-43.48,1534404987.25
-42.68,1534404987.265625
-39.53,1534404987.28125
-34.3,1534404987.296875
-27.67,1534404987.3125
-20.41,1534404987.328125
-13.2,1534404987.34375
-6.43,1534404987.359375
-0.34,1534404987.375
5.0,1534404987.390625
9.43,1534404987.40625
12.77,1534404987.421875
14.86,1534404987.4375
15.73,1534404987.453125
15.66,1534404987.46875
15.1,1534404987.484375
14.53,1534404987.5
14.26,1534404987.515625
14.42,1534404987.53125
14.87,1534404987.546875
15.36,1534404987.5625
15.64,1534404987.578125
15.57,1534404987.59375
15.08,1534404987.609375
14.21,1534404987.625
13.03,1534404987.640625
11.62,1534404987.65625
10.04,1534404987.671875
8.28,1534404987.6875
6.24,1534404987.703125
3.83,1534404987.71875
1.01,1534404987.734375
-2.15,1534404987.75
-5.42,1534404987.765625
-8.53,1534404987.78125
-11.24,1534404987.796875
-13.52,1534404987.8125
-15.53,1534404987.828125
-17.58,1534404987.84375
-20.06,1534404987.859375
-23.27,1534404987.875
-27.37,1534404987.890625
-32.31,1534404987.90625
-37.72,1534404987.921875
-42.98,1534404987.9375
-47.19,1534404987.953125
-49.44,1534404987.96875
-48.98,1534404987.984375
-45.59,1534404988.0
-39.62,1534404988.015625
-31.96,1534404988.03125
-23.66,1534404988.046875
-15.63,1534404988.0625
-8.4,1534404988.078125
-2.06,1534404988.09375
3.52,1534404988.109375
8.46,1534404988.125
12.7,1534404988.140625
16.04,1534404988.15625
18.32,1534404988.171875
19.57,1534404988.1875
20.11,1534404988.203125
20.36,1534404988.21875
20.73,1534404988.234375
21.35,1534404988.25
22.05,1534404988.265625
22.49,1534404988.28125
22.42,1534404988.296875
21.73,1534404988.3125
20.6,1534404988.328125
19.3,1534404988.34375
18.06,1534404988.359375
16.97,1534404988.375
15.86,1534404988.390625
14.5,1534404988.40625
12.61,1534404988.421875
10.05,1534404988.4375
6.87,1534404988.453125
3.25,1534404988.46875
-0.5,1534404988.484375
-4.05,1534404988.5
-7.16,1534404988.515625
-9.77,1534404988.53125
-12.02,1534404988.546875
-14.23,1534404988.5625
-16.87,1534404988.578125
-20.31,1534404988.59375
-24.78,1534404988.609375
-30.12,1534404988.625
-35.8,1534404988.640625
-40.95,1534404988.65625
-44.51,1534404988.671875
-45.58,1534404988.6875
-43.64,1534404988.703125
-38.76,1534404988.71875
-31.61,1534404988.734375
-23.17,1534404988.75
-14.55,1534404988.765625
-6.55,1534404988.78125
0.35,1534404988.796875
6.05,1534404988.8125
10.66,1534404988.828125
14.31,1534404988.84375
17.06,1534404988.859375
18.95,1534404988.875
20.05,1534404988.890625
20.56,1534404988.90625
20.75,1534404988.921875
20.91,1534404988.9375
21.19,1534404988.953125
21.56,1534404988.96875
21.81,1534404988.984375
21.71,1534404989.0
21.13,1534404989.015625
20.16,1534404989.03125
18.98,1534404989.046875
17.74,1534404989.0625
16.48,1534404989.078125
15.1,1534404989.09375
13.43,1534404989.109375
11.38,1534404989.125
9.02,1534404989.140625
6.47,1534404989.15625
3.9,1534404989.171875
1.42,1534404989.1875
-0.93,1534404989.203125
-3.19,1534404989.21875
-5.36,1534404989.234375
-7.53,1534404989.25
-9.9,1534404989.265625
-12.77,1534404989.28125
-16.46,1534404989.296875
-21.16,1534404989.3125
-26.66,1534404989.328125
-32.29,1534404989.34375
-37.08,1534404989.359375
-40.0,1534404989.375
-40.3,1534404989.390625
-37.73,1534404989.40625
-32.59,1534404989.421875
-25.6,1534404989.4375
-17.64,1534404989.453125
-9.52,1534404989.46875
-1.91,1534404989.484375
4.83,1534404989.5
10.48,1534404989.515625
14.99,1534404989.53125
18.36,1534404989.546875
20.66,1534404989.5625
22.0,1534404989.578125
22.58,1534404989.59375
22.69,1534404989.609375
22.67,1534404989.625
22.78,1534404989.640625
23.16,1534404989.65625
23.71,1534404989.671875
24.21,1534404989.6875
24.38,1534404989.703125
24.06,1534404989.71875
23.31,1534404989.734375
22.27,1534404989.75
21.11,1534404989.765625
19.85,1534404989.78125
18.4,1534404989.796875
16.56,1534404989.8125
14.18,1534404989.828125
11.25,1534404989.84375
7.92,1534404989.859375
4.43,1534404989.875
1.01,1534404989.890625
-2.2,1534404989.90625
-5.13,1534404989.921875
-7.81,1534404989.9375
-10.37,1534404989.953125
-13.0,1534404989.96875
-16.0,1534404989.984375
-19.68,1534404990.0
-24.21,1534404990.015625
-29.43,1534404990.03125
-34.75,1534404990.046875
-39.2,1534404990.0625
-41.7,1534404990.078125
-41.4,1534404990.09375
-38.03,1534404990.109375
-32.02,1534404990.125
-24.27,1534404990.140625
-15.94,1534404990.15625
-7.95,1534404990.171875
-0.88,1534404990.1875
5.11,1534404990.203125
10.05,1534404990.21875
14.03,1534404990.234375
17.05,1534404990.25
19.13,1534404990.265625
20.35,1534404990.28125
20.98,1534404990.296875
21.36,1534404990.3125
21.81,1534404990.328125
22.46,1534404990.34375
23.19,1534404990.359375
23.75,1534404990.375
23.82,1534404990.390625
23.29,1534404990.40625
22.2,1534404990.421875
20.71,1534404990.4375
19.07,1534404990.453125
17.42,1534404990.46875
15.8,1534404990.484375
14.06,1534404990.5
12.01,1534404990.515625
9.44,1534404990.53125
6.31,1534404990.546875
2.78,1534404990.5625
-0.78,1534404990.578125
-3.97,1534404990.59375
-6.59,1534404990.609375
-8.74,1534404990.625
-10.82,1534404990.640625
-13.38,1534404990.65625
-16.79,1534404990.671875
-21.12,1534404990.6875
-26.08,1534404990.703125
-31.05,1534404990.71875
-35.33,1534404990.734375
-38.19,1534404990.75
-38.98,1534404990.765625
-37.26,1534404990.78125
-32.92,1534404990.796875
-26.29,1534404990.8125
-18.1,1534404990.828125
-9.41,1534404990.84375
-1.24,1534404990.859375
5.66,1534404990.875
10.94,1534404990.890625
14.66,1534404990.90625
17.13,1534404990.921875
18.7,1534404990.9375
19.67,1534404990.953125
20.29,1534404990.96875
20.73,1534404990.984375
21.14,1534404991.0
21.63,1534404991.015625
22.22,1534404991.03125
22.8,1534404991.046875
23.22,1534404991.0625
23.31,1534404991.078125
23.02,1534404991.09375
22.39,1534404991.109375
21.58,1534404991.125
20.65,1534404991.140625
19.59,1534404991.15625
18.24,1534404991.171875
16.45,1534404991.1875
14.13,1534404991.203125
11.37,1534404991.21875
8.39,1534404991.234375
5.38,1534404991.25
2.47,1534404991.265625
-0.35,1534404991.28125
-3.13,1534404991.296875
-5.97,1534404991.3125
-8.97,1534404991.328125
-12.29,1534404991.34375
-16.07,1534404991.359375
-20.39,1534404991.375
-25.02,1534404991.390625
-29.33,1534404991.40625
-32.34,1534404991.421875
-33.08,1534404991.4375
-30.93,1534404991.453125
-25.94,1534404991.46875
-18.85,1534404991.484375
-10.78,1534404991.5
-2.83,1534404991.515625
4.22,1534404991.53125
9.99,1534404991.546875
14.41,1534404991.5625
17.54,1534404991.578125
19.43,1534404991.59375
20.19,1534404991.609375
20.01,1534404991.625
19.23,1534404991.640625
18.27,1534404991.65625
17.51,1534404991.671875
17.23,1534404991.6875
17.45,1534404991.703125
18.0,1534404991.71875
18.59,1534404991.734375
18.94,1534404991.75
18.84,1534404991.765625
18.19,1534404991.78125
17.05,1534404991.796875
15.52,1534404991.8125
13.76,1534404991.828125
11.89,1534404991.84375
9.98,1534404991.859375
8.01,1534404991.875
5.92,1534404991.890625
3.65,1534404991.90625
1.19,1534404991.921875
-1.44,1534404991.9375
-4.25,1534404991.953125
-7.31,1534404991.96875
-10.83,1534404991.984375
-15.01,1534404992.0
-19.88,1534404992.015625
-25.08,1534404992.03125
-29.85,1534404992.046875
-33.16,1534404992.0625
-34.05,1534404992.078125
-32.04,1534404992.09375
-27.28,1534404992.109375
-20.53,1534404992.125
-12.83,1534404992.140625
-5.16,1534404992.15625
1.77,1534404992.171875
7.6,1534404992.1875
12.22,1534404992.203125
15.62,1534404992.21875
17.86,1534404992.234375
19.05,1534404992.25
19.3,1534404992.265625
18.87,1534404992.28125
18.01,1534404992.296875
17.0,1534404992.3125
16.06,1534404992.328125
15.4,1534404992.34375
15.06,1534404992.359375
15.02,1534404992.375
15.05,1534404992.390625
14.88,1534404992.40625
14.2,1534404992.421875
12.83,1534404992.4375
10.74,1534404992.453125
8.06,1534404992.46875
5.0,1534404992.484375
1.77,1534404992.5
-1.48,1534404992.515625
-4.64,1534404992.53125
-7.69,1534404992.546875
-10.64,1534404992.5625
-13.61,1534404992.578125
-16.8,1534404992.59375
-20.47,1534404992.609375
-24.86,1534404992.625
-30.03,1534404992.640625
-35.66,1534404992.65625
-41.06,1534404992.671875
-45.19,1534404992.6875
-47.0,1534404992.703125
-45.73,1534404992.71875
-41.25,1534404992.734375
-34.12,1534404992.75
-25.43,1534404992.765625
-16.4,1534404992.78125
-8.05,1534404992.796875
-0.87,1534404992.8125
5.07,1534404992.828125
10.0,1534404992.84375
14.13,1534404992.859375
17.49,1534404992.875
19.97,1534404992.890625
21.45,1534404992.90625
21.93,1534404992.921875
21.61,1534404992.9375
20.84,1534404992.953125
19.96,1534404992.96875
19.23,1534404992.984375
18.72,1534404993.0
18.35,1534404993.015625
17.97,1534404993.03125
17.4,1534404993.046875
16.45,1534404993.0625
14.99,1534404993.078125
12.96,1534404993.09375
10.34,1534404993.109375
7.2,1534404993.125
3.65,1534404993.140625
-0.2,1534404993.15625
-4.14,1534404993.171875
-8.01,1534404993.1875
-11.62,1534404993.203125
-14.9,1534404993.21875
-17.97,1534404993.234375
-21.22,1534404993.25
-25.11,1534404993.265625
-30.03,1534404993.28125
-35.89,1534404993.296875
-42.04,1534404993.3125
-47.29,1534404993.328125
-50.31,1534404993.34375
-50.13,1534404993.359375
-46.39,1534404993.375
-39.59,1534404993.390625
-30.73,1534404993.40625
-21.04,1534404993.421875
-11.54,1534404993.4375
-2.92,1534404993.453125
4.58,1534404993.46875
10.96,1534404993.484375
16.35,1534404993.5
20.82,1534404993.515625
24.37,1534404993.53125
26.99,1534404993.546875
28.7,1534404993.5625
29.62,1534404993.578125
29.98,1534404993.59375
30.03,1534404993.609375
29.95,1534404993.625
29.78,1534404993.640625
29.44,1534404993.65625
28.8,1534404993.671875
27.8,1534404993.6875
26.51,1534404993.703125
25.04,1534404993.71875
23.46,1534404993.734375
21.7,1534404993.75
19.56,1534404993.765625
16.85,1534404993.78125
13.45,1534404993.796875
9.43,1534404993.8125
5.04,1534404993.828125
0.6,1534404993.84375
-3.65,1534404993.859375
-7.57,1534404993.875
-11.28,1534404993.890625
-15.11,1534404993.90625
-19.43,1534404993.921875
-24.56,1534404993.9375
-30.47,1534404993.953125
-36.72,1534404993.96875
-42.45,1534404993.984375
-46.54,1534404994.0
-47.99,1534404994.015625
-46.25,1534404994.03125
-41.4,1534404994.046875
-34.14,1534404994.0625
-25.45,1534404994.078125
-16.34,1534404994.09375
-7.53,1534404994.109375
0.64,1534404994.125
8.05,1534404994.140625
14.64,1534404994.15625
20.32,1534404994.171875
24.95,1534404994.1875
28.43,1534404994.203125
30.83,1534404994.21875
32.38,1534404994.234375
33.36,1534404994.25
34.06,1534404994.265625
34.61,1534404994.28125
34.94,1534404994.296875
34.97,1534404994.3125
34.55,1534404994.328125
33.66,1534404994.34375
32.34,1534404994.359375
30.74,1534404994.375
28.99,1534404994.390625
27.19,1534404994.40625
25.37,1534404994.421875
23.45,1534404994.4375
21.31,1534404994.453125
18.78,1534404994.46875
15.79,1534404994.484375
12.37,1534404994.5
8.67,1534404994.515625
4.95,1534404994.53125
1.44,1534404994.546875
-1.73,1534404994.5625
-4.59,1534404994.578125
-7.35,1534404994.59375
-10.33,1534404994.609375
-13.86,1534404994.625
-18.25,1534404994.640625
-23.57,1534404994.65625
-29.61,1534404994.671875
-35.85,1534404994.6875
-41.47,1534404994.703125
-45.54,1534404994.71875
-47.2,1534404994.734375
-45.93,1534404994.75
-41.71,1534404994.765625
-35.05,1534404994.78125
-26.81,1534404994.796875
-17.99,1534404994.8125
-9.41,1534404994.828125
-1.56,1534404994.84375
5.36,1534404994.859375
11.39,1534404994.875
16.56,1534404994.890625
20.87,1534404994.90625
24.2,1534404994.921875
26.53,1534404994.9375
27.96,1534404994.953125
28.77,1534404994.96875
29.35,1534404994.984375
29.98,1534404995.0
30.72,1534404995.015625
31.4,1534404995.03125
31.76,1534404995.046875
31.58,1534404995.0625
30.86,1534404995.078125
29.73,1534404995.09375
28.41,1534404995.109375
27.07,1534404995.125
25.74,1534404995.140625
24.38,1534404995.15625
22.91,1534404995.171875
21.26,1534404995.1875
19.37,1534404995.203125
17.14,1534404995.21875
14.5,1534404995.234375
11.41,1534404995.25
7.99,1534404995.265625
4.37,1534404995.28125
0.83,1534404995.296875
-2.47,1534404995.3125
-5.49,1534404995.328125
-8.31,1534404995.34375
-11.13,1534404995.359375
-14.19,1534404995.375
-17.75,1534404995.390625
-21.98,1534404995.40625
-26.9,1534404995.421875
-32.19,1534404995.4375
-37.2,1534404995.453125
-41.02,1534404995.46875
-42.67,1534404995.484375
-41.52,1534404995.5
-37.45,1534404995.515625
-31.01,1534404995.53125
-23.13,1534404995.546875
-14.89,1534404995.5625
-7.15,1534404995.578125
-0.34,1534404995.59375
5.43,1534404995.609375
10.29,1534404995.625
14.33,1534404995.640625
17.49,1534404995.65625
19.72,1534404995.671875
20.96,1534404995.6875
21.37,1534404995.703125
21.26,1534404995.71875
21.03,1534404995.734375
20.98,1534404995.75
21.21,1534404995.765625
21.58,1534404995.78125
21.85,1534404995.796875
21.82,1534404995.8125
21.38,1534404995.828125
20.56,1534404995.84375
19.42,1534404995.859375
18.08,1534404995.875
16.6,1534404995.890625
15.0,1534404995.90625
13.31,1534404995.921875
11.48,1534404995.9375
9.46,1534404995.953125
7.17,1534404995.96875
4.64,1534404995.984375
1.93,1534404996.0
-0.78,1534404996.015625
-3.3,1534404996.03125
-5.52,1534404996.046875
-7.46,1534404996.0625
-9.24,1534404996.078125
-11.04,1534404996.09375
-13.01,1534404996.109375
-15.34,1534404996.125
-18.21,1534404996.140625
-21.84,1534404996.15625
-26.23,1534404996.171875
-31.05,1534404996.1875
-35.49,1534404996.203125
-38.45,1534404996.21875
-38.87,1534404996.234375
-36.21,1534404996.25
-30.69,1534404996.265625
-23.21,1534404996.28125
-15.02,1534404996.296875
-7.17,1534404996.3125
-0.29,1534404996.328125
5.5,1534404996.34375
10.29,1534404996.359375
14.22,1534404996.375
17.22,1534404996.390625
19.15,1534404996.40625
19.98,1534404996.421875
19.87,1534404996.4375
19.27,1534404996.453125
18.67,1534404996.46875
18.44,1534404996.484375
18.69,1534404996.5
19.25,1534404996.515625
19.79,1534404996.53125
20.02,1534404996.546875
19.86,1534404996.5625
19.35,1534404996.578125
18.68,1534404996.59375
17.96,1534404996.609375
17.21,1534404996.625
16.32,1534404996.640625
15.15,1534404996.65625
13.55,1534404996.671875
11.51,1534404996.6875
9.12,1534404996.703125
6.58,1534404996.71875
4.12,1534404996.734375
1.9,1534404996.75
-0.0,1534404996.765625
-1.71,1534404996.78125
-3.41,1534404996.796875
-5.3,1534404996.8125
-7.52,1534404996.828125
-10.11,1534404996.84375
-13.05,1534404996.859375
-16.3,1534404996.875
-19.82,1534404996.890625
-23.4,1534404996.90625
-26.63,1534404996.921875
-28.88,1534404996.9375
-29.42,1534404996.953125
-27.77,1534404996.96875
-23.9,1534404996.984375
-18.32,1534404997.0
-11.88,1534404997.015625
-5.47,1534404997.03125
0.29,1534404997.046875
5.12,1534404997.0625
8.98,1534404997.078125
11.89,1534404997.09375
13.76,1534404997.109375
14.54,1534404997.125
14.29,1534404997.140625
13.31,1534404997.15625
12.11,1534404997.171875
11.18,1534404997.1875
10.8,1534404997.203125
10.94,1534404997.21875
11.32,1534404997.234375
11.55,1534404997.25
11.39,1534404997.265625
10.74,1534404997.28125
9.7,1534404997.296875
8.41,1534404997.3125
7.0,1534404997.328125
5.52,1534404997.34375
3.97,1534404997.359375
2.27,1534404997.375
0.32,1534404997.390625
-1.95,1534404997.40625
-4.55,1534404997.421875
-7.37,1534404997.4375
-10.19,1534404997.453125
-12.81,1534404997.46875
-15.1,1534404997.484375
-17.05,1534404997.5
-18.81,1534404997.515625
-20.6,1534404997.53125
-22.66,1534404997.546875
-25.21,1534404997.5625
-28.38,1534404997.578125
-32.14,1534404997.59375
-36.17,1534404997.609375
-39.88,1534404997.625
-42.48,1534404997.640625
-43.22,1534404997.65625
-41.61,1534404997.671875
-37.68,1534404997.6875
-31.91,1534404997.703125
-25.12,1534404997.71875
-18.17,1534404997.734375
-11.65,1534404997.75
-5.89,1534404997.765625
-0.96,1534404997.78125
3.08,1534404997.796875
6.19,1534404997.8125
8.26,1534404997.828125
9.36,1534404997.84375
9.71,1534404997.859375
9.77,1534404997.875
10.01,1534404997.890625
10.75,1534404997.90625
11.97,1534404997.921875
13.37,1534404997.9375
14.48,1534404997.953125
14.91,1534404997.96875
14.51,1534404997.984375
13.36,1534404998.0
11.75,1534404998.015625
9.95,1534404998.03125
8.2,1534404998.046875
6.59,1534404998.0625
5.13,1534404998.078125
3.78,1534404998.09375
2.46,1534404998.109375
1.08,1534404998.125
-0.44,1534404998.140625
-2.15,1534404998.15625
-4.07,1534404998.171875
-6.16,1534404998.1875
-8.36,1534404998.203125
-10.62,1534404998.21875
-13.0,1534404998.234375
-15.67,1534404998.25
-18.85,1534404998.265625
-22.71,1534404998.28125
-27.12,1534404998.296875
-31.64,1534404998.3125
-35.48,1534404998.328125
-37.75,1534404998.34375
-37.72,1534404998.359375
-35.15,1534404998.375
-30.31,1534404998.390625
-23.98,1534404998.40625
-17.08,1534404998.421875
-10.41,1534404998.4375
-4.47,1534404998.453125
0.57,1534404998.46875
4.71,1534404998.484375
8.0,1534404998.5
10.47,1534404998.515625
12.15,1534404998.53125
13.15,1534404998.546875
13.69,1534404998.5625
14.0,1534404998.578125
14.3,1534404998.59375
14.69,1534404998.609375
15.13,1534404998.625
15.48,1534404998.640625
15.59,1534404998.65625
15.4,1534404998.671875
14.88,1534404998.6875
14.1,1534404998.703125
13.14,1534404998.71875
12.06,1534404998.734375
10.82,1534404998.75
9.38,1534404998.765625
7.61,1534404998.78125
5.46,1534404998.796875
3.01,1534404998.8125
0.44,1534404998.828125
-2.05,1534404998.84375
-4.31,1534404998.859375
-6.37,1534404998.875
-8.4,1534404998.890625
-10.63,1534404998.90625
-13.3,1534404998.921875
-16.55,1534404998.9375
-20.4,1534404998.953125
-24.7,1534404998.96875
-29.09,1534404998.984375
-32.98,1534404999.0
-35.61,1534404999.015625
-36.21,1534404999.03125
-34.34,1534404999.046875
-30.01,1534404999.0625
-23.81,1534404999.078125
-16.69,1534404999.09375
-9.58,1534404999.109375
-3.21,1534404999.125
2.11,1534404999.140625
6.31,1534404999.15625
9.49,1534404999.171875
11.72,1534404999.1875
13.09,1534404999.203125
13.76,1534404999.21875
14.06,1534404999.234375
14.36,1534404999.25
14.97,1534404999.265625
15.96,1534404999.28125
17.16,1534404999.296875
18.26,1534404999.3125
18.99,1534404999.328125
19.26,1534404999.34375
19.14,1534404999.359375
18.74,1534404999.375
18.08,1534404999.390625
17.05,1534404999.40625
15.49,1534404999.421875
13.34,1534404999.4375
10.69,1534404999.453125
7.81,1534404999.46875
4.99,1534404999.484375
2.42,1534404999.5
0.17,1534404999.515625
-1.87,1534404999.53125
-3.88,1534404999.546875
-5.98,1534404999.5625
-8.32,1534404999.578125
-11.06,1534404999.59375
-14.32,1534404999.609375
-18.14,1534404999.625
-22.25,1534404999.640625
-26.09,1534404999.65625
-28.79,1534404999.671875
-29.54,1534404999.6875
-27.83,1534404999.703125
-23.74,1534404999.71875
-17.87,1534404999.734375
-11.11,1534404999.75
-4.34,1534404999.765625
1.79,1534404999.78125
6.98,1534404999.796875
11.15,1534404999.8125
14.28,1534404999.828125
16.38,1534404999.84375
17.52,1534404999.859375
17.85,1534404999.875
17.62,1534404999.890625
17.12,1534404999.90625
16.61,1534404999.921875
16.27,1534404999.9375
16.18,1534404999.953125
16.34,1534404999.96875
16.71,1534404999.984375
17.14,1534405000.0
17.46,1534405000.015625
17.45,1534405000.03125
16.96,1534405000.046875
15.96,1534405000.0625
14.56,1534405000.078125
12.91,1534405000.09375
11.17,1534405000.109375
9.39,1534405000.125
7.51,1534405000.140625
5.46,1534405000.15625
3.14,1534405000.171875
0.5,1534405000.1875
-2.52,1534405000.203125
-6.02,1534405000.21875
-10.03,1534405000.234375
-14.45,1534405000.25
-18.89,1534405000.265625
-22.71,1534405000.28125
-25.1,1534405000.296875
-25.39,1534405000.3125
-23.3,1534405000.328125
-19.02,1534405000.34375
-13.23,1534405000.359375
-6.84,1534405000.375
-0.74,1534405000.390625
4.47,1534405000.40625
8.5,1534405000.421875
11.37,1534405000.4375
13.27,1534405000.453125
14.41,1534405000.46875
14.95,1534405000.484375
15.03,1534405000.5
14.74,1534405000.515625
14.15,1534405000.53125
13.36,1534405000.546875
12.47,1534405000.5625
11.6,1534405000.578125
10.87,1534405000.59375
10.34,1534405000.609375
9.97,1534405000.625
9.55,1534405000.640625
8.79,1534405000.65625
7.41,1534405000.671875
5.31,1534405000.6875
2.59,1534405000.703125
-0.46,1534405000.71875
-3.49,1534405000.734375
-6.28,1534405000.75
-8.82,1534405000.765625
-11.27,1534405000.78125
-13.87,1534405000.796875
-16.82,1534405000.8125
-20.25,1534405000.828125
-24.19,1534405000.84375
-28.6,1534405000.859375
-33.32,1534405000.875
-37.96,1534405000.890625
-41.87,1534405000.90625
-44.23,1534405000.921875
-44.32,1534405000.9375
-41.71,1534405000.953125
-36.55,1534405000.96875
-29.46,1534405000.984375
-21.42,1534405001.0
-13.39,1534405001.015625
-6.08,1534405001.03125
0.15,1534405001.046875
5.25,1534405001.0625
9.34,1534405001.078125
12.54,1534405001.09375
14.97,1534405001.109375
16.72,1534405001.125
17.92,1534405001.140625
18.66,1534405001.15625
19.05,1534405001.171875
19.18,1534405001.1875
19.1,1534405001.203125
18.89,1534405001.21875
18.61,1534405001.234375
18.25,1534405001.25
17.74,1534405001.265625
16.94,1534405001.28125
15.67,1534405001.296875
13.85,1534405001.3125
11.49,1534405001.328125
8.75,1534405001.34375
5.84,1534405001.359375
2.88,1534405001.375
-0.08,1534405001.390625
-3.12,1534405001.40625
-6.3,1534405001.421875
-9.65,1534405001.4375
-13.18,1534405001.453125
-16.93,1534405001.46875
-21.01,1534405001.484375
-25.5,1534405001.5
-30.3,1534405001.515625
-34.98,1534405001.53125
-38.77,1534405001.546875
-40.77,1534405001.5625
-40.26,1534405001.578125
-36.95,1534405001.59375
-31.12,1534405001.609375
-23.52,1534405001.625
-15.09,1534405001.640625
-6.7,1534405001.65625
1.02,1534405001.671875
7.68,1534405001.6875
13.15,1534405001.703125
17.42,1534405001.71875
20.57,1534405001.734375
22.8,1534405001.75
24.35,1534405001.765625
25.45,1534405001.78125
26.27,1534405001.796875
26.94,1534405001.8125
27.48,1534405001.828125
27.86,1534405001.84375
28.05,1534405001.859375
27.97,1534405001.875
27.59,1534405001.890625
26.85,1534405001.90625
25.75,1534405001.921875
24.32,1534405001.9375
22.56,1534405001.953125
20.48,1534405001.96875
18.05,1534405001.984375
15.23,1534405002.0
12.0,1534405002.015625
8.49,1534405002.03125
4.86,1534405002.046875
1.31,1534405002.0625
-2.02,1534405002.078125
-5.21,1534405002.09375
-8.53,1534405002.109375
-12.31,1534405002.125
-16.82,1534405002.140625
-22.09,1534405002.15625
-27.75,1534405002.171875
-33.11,1534405002.1875
-37.19,1534405002.203125
-39.08,1534405002.21875
-38.14,1534405002.234375
-34.23,1534405002.25
-27.78,1534405002.265625
-19.68,1534405002.28125
-10.95,1534405002.296875
-2.5,1534405002.3125
5.08,1534405002.328125
11.58,1534405002.34375
16.99,1534405002.359375
21.36,1534405002.375
24.69,1534405002.390625
26.96,1534405002.40625
28.23,1534405002.421875
28.73,1534405002.4375
28.85,1534405002.453125
29.01,1534405002.46875
29.47,1534405002.484375
30.24,1534405002.5
31.07,1534405002.515625
31.59,1534405002.53125
31.48,1534405002.546875
30.62,1534405002.5625
29.08,1534405002.578125
27.11,1534405002.59375
24.96,1534405002.609375
22.85,1534405002.625
20.85,1534405002.640625
18.88,1534405002.65625
16.78,1534405002.671875
14.36,1534405002.6875
11.52,1534405002.703125
8.34,1534405002.71875
5.01,1534405002.734375
1.8,1534405002.75
-1.1,1534405002.765625
-3.73,1534405002.78125
-6.34,1534405002.796875
-9.36,1534405002.8125
-13.16,1534405002.828125
-17.86,1534405002.84375
-23.23,1534405002.859375
-28.66,1534405002.875
-33.31,1534405002.890625
-36.26,1534405002.90625
-36.85,1534405002.921875
-34.75,1534405002.9375
-30.09,1534405002.953125
-23.42,1534405002.96875
-15.54,1534405002.984375
-7.32,1534405003.0
0.5,1534405003.015625
7.4,1534405003.03125
13.11,1534405003.046875
17.55,1534405003.0625
20.77,1534405003.078125
22.93,1534405003.09375
24.24,1534405003.109375
25.01,1534405003.125
25.5,1534405003.140625
25.97,1534405003.15625
26.55,1534405003.171875
27.26,1534405003.1875
27.96,1534405003.203125
28.44,1534405003.21875
28.54,1534405003.234375
28.16,1534405003.25
27.39,1534405003.265625
26.37,1534405003.28125
25.27,1534405003.296875
24.16,1534405003.3125
22.94,1534405003.328125
21.39,1534405003.34375
19.29,1534405003.359375
16.59,1534405003.375
13.44,1534405003.390625
10.18,1534405003.40625
7.09,1534405003.421875
4.35,1534405003.4375
1.87,1534405003.453125
-0.58,1534405003.46875
-3.27,1534405003.484375
-6.39,1534405003.5
-10.09,1534405003.515625
-14.37,1534405003.53125
-19.11,1534405003.546875
-23.99,1534405003.5625
-28.43,1534405003.578125
-31.63,1534405003.59375
-32.87,1534405003.609375
-31.61,1534405003.625
-27.86,1534405003.640625
-22.12,1534405003.65625
-15.23,1534405003.671875
-8.12,1534405003.6875
-1.5,1534405003.703125
4.21,1534405003.71875
8.83,1534405003.734375
12.35,1534405003.75
14.79,1534405003.765625
16.2,1534405003.78125
16.71,1534405003.796875
16.57,1534405003.8125
16.12,1534405003.828125
15.75,1534405003.84375
15.68,1534405003.859375
15.95,1534405003.875
16.36,1534405003.890625
16.6,1534405003.90625
16.37,1534405003.921875
15.49,1534405003.9375
14.05,1534405003.953125
12.26,1534405003.96875
10.37,1534405003.984375
8.61,1534405004.0
6.99,1534405004.015625
5.4,1534405004.03125
3.59,1534405004.046875
1.37,1534405004.0625
-1.36,1534405004.078125
-4.45,1534405004.09375
-7.64,1534405004.109375
-10.61,1534405004.125
-13.16,1534405004.140625
-15.3,1534405004.15625
-17.23,1534405004.171875
-19.25,1534405004.1875
-21.67,1534405004.203125
-24.69,1534405004.21875
-28.38,1534405004.234375
-32.62,1534405004.25
-37.09,1534405004.265625
-41.24,1534405004.28125
-44.35,1534405004.296875
-45.63,1534405004.3125
-44.52,1534405004.328125
-40.79,1534405004.34375
-34.78,1534405004.359375
-27.24,1534405004.375
-19.14,1534405004.390625
-11.34,1534405004.40625
-4.42,1534405004.421875
1.42,1534405004.4375
6.27,1534405004.453125
10.28,1534405004.46875
13.57,1534405004.484375
16.14,1534405004.5
17.99,1534405004.515625
19.14,1534405004.53125
19.77,1534405004.546875
20.15,1534405004.5625
20.52,1534405004.578125
21.01,1534405004.59375
21.52,1534405004.609375
21.82,1534405004.625
21.65,1534405004.640625
20.93,1534405004.65625
19.74,1534405004.671875
18.37,1534405004.6875
17.07,1534405004.703125
15.96,1534405004.71875
14.95,1534405004.734375
13.77,1534405004.75
12.13,1534405004.765625
9.81,1534405004.78125
6.73,1534405004.796875
3.08,1534405004.8125
-0.82,1534405004.828125
-4.56,1534405004.84375
-7.8,1534405004.859375
-10.4,1534405004.875
-12.53,1534405004.890625
-14.6,1534405004.90625
-17.14,1534405004.921875
-20.49,1534405004.9375
-24.66,1534405004.953125
-29.21,1534405004.96875
-33.36,1534405004.984375
-36.26,1534405005.0
-37.23,1534405005.015625
-35.97,1534405005.03125
-32.55,1534405005.046875
-27.42,1534405005.0625
-21.19,1534405005.078125
-14.49,1534405005.09375
-7.89,1534405005.109375
-1.78,1534405005.125
3.54,1534405005.140625
7.94,1534405005.15625
11.37,1534405005.171875
13.82,1534405005.1875
15.37,1534405005.203125
16.16,1534405005.21875
16.42,1534405005.234375
16.45,1534405005.25
16.59,1534405005.265625
17.02,1534405005.28125
17.77,1534405005.296875
18.63,1534405005.3125
19.25,1534405005.328125
19.32,1534405005.34375
18.72,1534405005.359375
17.6,1534405005.375
16.28,1534405005.390625
15.05,1534405005.40625
13.98,1534405005.421875
12.92,1534405005.4375
11.51,1534405005.453125
9.52,1534405005.46875
6.93,1534405005.484375
4.01,1534405005.5
1.16,1534405005.515625
-1.34,1534405005.53125
-3.43,1534405005.546875
-5.3,1534405005.5625
-7.24,1534405005.578125
-9.45,1534405005.59375
-12.01,1534405005.609375
-14.88,1534405005.625
-18.07,1534405005.640625
-21.51,1534405005.65625
-25.13,1534405005.671875
-28.57,1534405005.6875
-31.25,1534405005.703125
-32.45,1534405005.71875
-31.59,1534405005.734375
-28.52,1534405005.75
-23.55,1534405005.765625
-17.37,1534405005.78125
-10.75,1534405005.796875
-4.32,1534405005.8125
1.57,1534405005.828125
6.75,1534405005.84375
11.11,1534405005.859375
14.55,1534405005.875
16.97,1534405005.890625
18.37,1534405005.90625
18.88,1534405005.921875
18.76,1534405005.9375
18.33,1534405005.953125
17.83,1534405005.96875
17.44,1534405005.984375
17.26,1534405006.0
17.28,1534405006.015625
17.46,1534405006.03125
17.68,1534405006.046875
17.79,1534405006.0625
17.63,1534405006.078125
17.14,1534405006.09375
16.34,1534405006.109375
15.28,1534405006.125
13.99,1534405006.140625
12.42,1534405006.15625
10.49,1534405006.171875
8.14,1534405006.1875
5.48,1534405006.203125
2.75,1534405006.21875
0.28,1534405006.234375
-1.69,1534405006.25
-3.17,1534405006.265625
-4.44,1534405006.28125
-5.97,1534405006.296875
-8.22,1534405006.3125
-11.45,1534405006.328125
-15.55,1534405006.34375
-20.08,1534405006.359375
-24.3,1534405006.375
-27.45,1534405006.390625
-28.9,1534405006.40625
-28.29,1534405006.421875
-25.62,1534405006.4375
-21.26,1534405006.453125
-15.74,1534405006.46875
-9.72,1534405006.484375
-3.8,1534405006.5
1.57,1534405006.515625
6.04,1534405006.53125
9.39,1534405006.546875
11.54,1534405006.5625
12.53,1534405006.578125
12.54,1534405006.59375
11.93,1534405006.609375
11.1,1534405006.625
10.42,1534405006.640625
10.14,1534405006.65625
10.23,1534405006.671875
10.51,1534405006.6875
10.69,1534405006.703125
10.57,1534405006.71875
10.09,1534405006.734375
9.35,1534405006.75
8.5,1534405006.765625
7.64,1534405006.78125
6.72,1534405006.796875
5.58,1534405006.8125
4.06,1534405006.828125
2.11,1534405006.84375
-0.22,1534405006.859375
-2.78,1534405006.875
-5.43,1534405006.890625
-8.06,1534405006.90625
-10.61,1534405006.921875
-13.03,1534405006.9375
-15.3,1534405006.953125
-17.46,1534405006.96875
-19.68,1534405006.984375
-22.25,1534405007.0
-25.43,1534405007.015625
-29.31,1534405007.03125
-33.55,1534405007.046875
-37.42,1534405007.0625
-39.95,1534405007.078125
-40.24,1534405007.09375
-37.88,1534405007.109375
-33.07,1534405007.125
-26.56,1534405007.140625
-19.35,1534405007.15625
-12.35,1534405007.171875
-6.14,1534405007.1875
-0.95,1534405007.203125
3.24,1534405007.21875
6.53,1534405007.234375
8.94,1534405007.25
10.47,1534405007.265625
11.19,1534405007.28125
11.25,1534405007.296875
11.0,1534405007.3125
10.75,1534405007.328125
10.75,1534405007.34375
11.04,1534405007.359375
11.46,1534405007.375
11.74,1534405007.390625
11.67,1534405007.40625
11.11,1534405007.421875
10.08,1534405007.4375
8.72,1534405007.453125
7.19,1534405007.46875
5.54,1534405007.484375
3.75,1534405007.5
1.7,1534405007.515625
-0.69,1534405007.53125
-3.45,1534405007.546875
-6.41,1534405007.5625
-9.34,1534405007.578125
-11.96,1534405007.59375
-14.19,1534405007.609375
-16.12,1534405007.625
-18.1,1534405007.640625
-20.59,1534405007.65625
-23.94,1534405007.671875
-28.24,1534405007.6875
-33.12,1534405007.703125
-37.91,1534405007.71875
-41.67,1534405007.734375
-43.54,1534405007.75
-42.97,1534405007.765625
-39.86,1534405007.78125
-34.52,1534405007.796875
-27.64,1534405007.8125
-19.97,1534405007.828125
-12.26,1534405007.84375
-5.06,1534405007.859375
1.25,1534405007.875
6.5,1534405007.890625
10.65,1534405007.90625
13.79,1534405007.921875
16.07,1534405007.9375
17.67,1534405007.953125
18.76,1534405007.96875
19.53,1534405007.984375
20.14,1534405008.0
20.72,1534405008.015625
21.32,1534405008.03125
21.92,1534405008.046875
22.4,1534405008.0625
22.6,1534405008.078125
22.41,1534405008.09375
21.82,1534405008.109375
20.9,1534405008.125
19.74,1534405008.140625
18.4,1534405008.15625
16.78,1534405008.171875
14.75,1534405008.1875
12.2,1534405008.203125
9.17,1534405008.21875
5.84,1534405008.234375
2.45,1534405008.25
-0.77,1534405008.265625
-3.74,1534405008.28125
-6.51,1534405008.296875
-9.28,1534405008.3125
-12.28,1534405008.328125
-15.76,1534405008.34375
-19.82,1534405008.359375
-24.35,1534405008.375
-28.96,1534405008.390625
-32.97,1534405008.40625
-35.59,1534405008.421875
-36.13,1534405008.4375
-34.27,1534405008.453125
-30.15,1534405008.46875
-24.3,1534405008.484375
-17.42,1534405008.5
-10.16,1534405008.515625
-2.98,1534405008.53125
3.81,1534405008.546875
9.97,1534405008.5625
15.17,1534405008.578125
19.14,1534405008.59375
21.68,1534405008.609375
22.9,1534405008.625
23.15,1534405008.640625
23.02,1534405008.65625
23.01,1534405008.671875
23.45,1534405008.6875
24.32,1534405008.703125
25.37,1534405008.71875
26.24,1534405008.734375
26.64,1534405008.75
26.44,1534405008.765625
25.7,1534405008.78125
24.56,1534405008.796875
23.22,1534405008.8125
21.78,1534405008.828125
20.23,1534405008.84375
18.52,1534405008.859375
16.55,1534405008.875
14.25,1534405008.890625
11.6,1534405008.90625
8.67,1534405008.921875
5.54,1534405008.9375
2.38,1534405008.953125
-0.67,1534405008.96875
-3.48,1534405008.984375
-6.04,1534405009.0
-8.46,1534405009.015625
-11.0,1534405009.03125
-14.04,1534405009.046875
-17.88,1534405009.0625
-22.56,1534405009.078125
-27.7,1534405009.09375
-32.46,1534405009.109375
-35.75,1534405009.125
-36.61,1534405009.140625
-34.54,1534405009.15625
-29.74,1534405009.171875
-22.97,1534405009.1875
-15.26,1534405009.203125
-7.55,1534405009.21875
-0.41,1534405009.234375
5.93,1534405009.25
11.46,1534405009.265625
16.13,1534405009.28125
19.81,1534405009.296875
22.34,1534405009.3125
23.68,1534405009.328125
24.08,1534405009.34375
24.0,1534405009.359375
23.95,1534405009.375
24.3,1534405009.390625
25.12,1534405009.40625
26.19,1534405009.421875
27.17,1534405009.4375
27.74,1534405009.453125
27.77,1534405009.46875
27.3,1534405009.484375
26.48,1534405009.5
25.43,1534405009.515625
24.21,1534405009.53125
22.75,1534405009.546875
20.94,1534405009.5625
18.7,1534405009.578125
16.07,1534405009.59375
13.16,1534405009.609375
10.19,1534405009.625
7.38,1534405009.640625
4.88,1534405009.65625
2.7,1534405009.671875
0.7,1534405009.6875
-1.35,1534405009.703125
-3.65,1534405009.71875
-6.37,1534405009.734375
-9.61,1534405009.75
-13.36,1534405009.765625
-17.59,1534405009.78125
-22.07,1534405009.796875
-26.37,1534405009.8125
-29.84,1534405009.828125
-31.66,1534405009.84375
-31.18,1534405009.859375
-28.14,1534405009.875
-22.82,1534405009.890625
-16.01,1534405009.90625
-8.76,1534405009.921875
-1.96,1534405009.9375
3.86,1534405009.953125
8.54,1534405009.96875
12.16,1534405009.984375
14.84,1534405010.0
16.65,1534405010.015625
17.56,1534405010.03125
17.64,1534405010.046875
17.14,1534405010.0625
16.44,1534405010.078125
15.98,1534405010.09375
16.04,1534405010.109375
16.64,1534405010.125
17.5,1534405010.140625
18.25,1534405010.15625
18.58,1534405010.171875
18.36,1534405010.1875
17.71,1534405010.203125
16.83,1534405010.21875
15.86,1534405010.234375
14.81,1534405010.25
13.52,1534405010.265625
11.82,1534405010.28125
9.62,1534405010.296875
7.0,1534405010.3125
4.17,1534405010.328125
1.38,1534405010.34375
-1.15,1534405010.359375
-3.34,1534405010.375
-5.26,1534405010.390625
-7.18,1534405010.40625
-9.46,1534405010.421875
-12.51,1534405010.4375
-16.57,1534405010.453125
-21.48,1534405010.46875
-26.58,1534405010.484375
-30.87,1534405010.5
-33.24,1534405010.515625
-33.0,1534405010.53125
-30.06,1534405010.546875
-24.98,1534405010.5625
-18.71,1534405010.578125
-12.17,1534405010.59375
-6.04,1534405010.609375
-0.64,1534405010.625
3.94,1534405010.640625
7.66,1534405010.65625
10.47,1534405010.671875
12.33,1534405010.6875
13.31,1534405010.703125
13.65,1534405010.71875
13.66,1534405010.734375
13.63,1534405010.75
13.75,1534405010.765625
13.99,1534405010.78125
14.27,1534405010.796875
14.41,1534405010.8125
14.3,1534405010.828125
13.86,1534405010.84375
13.08,1534405010.859375
12.0,1534405010.875
10.74,1534405010.890625
9.4,1534405010.90625
8.02,1534405010.921875
6.57,1534405010.9375
4.93,1534405010.953125
2.96,1534405010.96875
0.63,1534405010.984375
-1.99,1534405011.0
-4.71,1534405011.015625
-7.34,1534405011.03125
-9.86,1534405011.046875
-12.39,1534405011.0625
-15.24,1534405011.078125
-18.69,1534405011.09375
-22.87,1534405011.109375
-27.62,1534405011.125
-32.51,1534405011.140625
-36.86,1534405011.15625
-39.97,1534405011.171875
-41.16,1534405011.1875
-40.06,1534405011.203125
-36.68,1534405011.21875
-31.41,1534405011.234375
-24.94,1534405011.25
-18.08,1534405011.265625
-11.47,1534405011.28125
-5.48,1534405011.296875
-0.19,1534405011.3125
4.44,1534405011.328125
8.43,1534405011.34375
11.68,1534405011.359375
14.05,1534405011.375
15.48,1534405011.390625
16.08,1534405011.40625
16.17,1534405011.421875
16.13,1534405011.4375
16.19,1534405011.453125
16.37,1534405011.46875
16.5,1534405011.484375
16.34,1534405011.5
15.74,1534405011.515625
14.73,1534405011.53125
13.45,1534405011.546875
12.05,1534405011.5625
10.62,1534405011.578125
9.1,1534405011.59375
7.34,1534405011.609375
5.24,1534405011.625
2.78,1534405011.640625
0.04,1534405011.65625
-2.88,1534405011.671875
-5.89,1534405011.6875
-8.98,1534405011.703125
-12.17,1534405011.71875
-15.47,1534405011.734375
-18.85,1534405011.75
-22.28,1534405011.765625
-25.79,1534405011.78125
-29.4,1534405011.796875
-33.11,1534405011.8125
-36.74,1534405011.828125
-39.81,1534405011.84375
-41.57,1534405011.859375
-41.3,1534405011.875
-38.57,1534405011.890625
-33.5,1534405011.90625
-26.75,1534405011.921875
-19.27,1534405011.9375
-11.96,1534405011.953125
-5.4,1534405011.96875
0.25,1534405011.984375
5.08,1534405012.0
9.29,1534405012.015625
12.95,1534405012.03125
16.06,1534405012.046875
18.55,1534405012.0625
20.42,1534405012.078125
21.75,1534405012.09375
22.64,1534405012.109375
23.21,1534405012.125
23.55,1534405012.140625
23.71,1534405012.15625
23.66,1534405012.171875
23.35,1534405012.1875
22.7,1534405012.203125
21.65,1534405012.21875
20.27,1534405012.234375
18.73,1534405012.25
17.2,1534405012.265625
15.77,1534405012.28125
14.31,1534405012.296875
12.58,1534405012.3125
10.32,1534405012.328125
7.42,1534405012.34375
4.11,1534405012.359375
0.78,1534405012.375
-2.21,1534405012.390625
-4.68,1534405012.40625
-6.83,1534405012.421875
-9.06,1534405012.4375
-11.84,1534405012.453125
-15.48,1534405012.46875
-20.02,1534405012.484375
-25.14,1534405012.5
-30.25,1534405012.515625
-34.6,1534405012.53125
-37.38,1534405012.546875
-37.97,1534405012.5625
-36.11,1534405012.578125
-31.98,1534405012.59375
-26.08,1534405012.609375
-19.17,1534405012.625
-11.91,1534405012.640625
-4.84,1534405012.65625
1.67,1534405012.671875
7.36,1534405012.6875
12.0,1534405012.703125
15.47,1534405012.71875
17.78,1534405012.734375
19.14,1534405012.75
19.94,1534405012.765625
20.55,1534405012.78125
21.22,1534405012.796875
21.95,1534405012.8125
22.64,1534405012.828125
23.12,1534405012.84375
23.31,1534405012.859375
23.21,1534405012.875
22.93,1534405012.890625
22.51,1534405012.90625
21.93,1534405012.921875
21.1,1534405012.9375
19.93,1534405012.953125
18.38,1534405012.96875
16.52,1534405012.984375
14.38,1534405013.0
12.0,1534405013.015625
9.35,1534405013.03125
6.4,1534405013.046875
3.19,1534405013.0625
-0.16,1534405013.078125
-3.42,1534405013.09375
-6.39,1534405013.109375
-9.04,1534405013.125
-11.54,1534405013.140625
-14.25,1534405013.15625
-17.55,1534405013.171875
-21.64,1534405013.1875
-26.34,1534405013.203125
-31.07,1534405013.21875
-35.01,1534405013.234375
-37.29,1534405013.25
-37.3,1534405013.265625
-34.83,1534405013.28125
-30.12,1534405013.296875
-23.78,1534405013.3125
-16.61,1534405013.328125
-9.39,1534405013.34375
-2.7,1534405013.359375
3.14,1534405013.375
8.02,1534405013.390625
11.99,1534405013.40625
15.12,1534405013.421875
17.46,1534405013.4375
19.03,1534405013.453125
19.93,1534405013.46875
20.33,1534405013.484375
20.49,1534405013.5
20.7,1534405013.515625
21.14,1534405013.53125
21.82,1534405013.546875
22.51,1534405013.5625
22.93,1534405013.578125
22.84,1534405013.59375
22.17,1534405013.609375
21.03,1534405013.625
19.65,1534405013.640625
18.22,1534405013.65625
16.8,1534405013.671875
15.27,1534405013.6875
13.46,1534405013.703125
11.23,1534405013.71875
8.62,1534405013.734375
5.82,1534405013.75
3.09,1534405013.765625
0.64,1534405013.78125
-1.44,1534405013.796875
-3.25,1534405013.8125
-4.98,1534405013.828125
-6.86,1534405013.84375
-9.11,1534405013.859375
-11.89,1534405013.875
-15.3,1534405013.890625
-19.33,1534405013.90625
-23.76,1534405013.921875
-28.05,1534405013.9375
-31.44,1534405013.953125
-33.08,1534405013.96875
-32.36,1534405013.984375
-29.14,1534405014.0
-23.84,1534405014.015625
-17.27,1534405014.03125
-10.35,1534405014.046875
-3.81,1534405014.0625
1.95,1534405014.078125
6.76,1534405014.09375
10.59,1534405014.109375
13.39,1534405014.125
15.21,1534405014.140625
16.13,1534405014.15625
16.42,1534405014.171875
16.42,1534405014.1875
16.44,1534405014.203125
16.67,1534405014.21875
17.11,1534405014.234375
17.66,1534405014.25
18.16,1534405014.265625
18.5,1534405014.28125
18.62,1534405014.296875
18.48,1534405014.3125
18.13,1534405014.328125
17.67,1534405014.34375
17.16,1534405014.359375
16.64,1534405014.375
16.0,1534405014.390625
15.07,1534405014.40625
13.64,1534405014.421875
11.65,1534405014.4375
9.21,1534405014.453125
6.59,1534405014.46875
4.08,1534405014.484375
1.83,1534405014.5
-0.17,1534405014.515625
-2.11,1534405014.53125
-4.21,1534405014.546875
-6.67,1534405014.5625
-9.63,1534405014.578125
-13.12,1534405014.59375
-17.03,1534405014.609375
-21.04,1534405014.625
-24.6,1534405014.640625
-26.98,1534405014.65625
-27.51,1534405014.671875
-25.77,1534405014.6875
-21.82,1534405014.703125
-16.21,1534405014.71875
-9.78,1534405014.734375
-3.41,1534405014.75
2.21,1534405014.765625
6.74,1534405014.78125
10.1,1534405014.796875
12.37,1534405014.8125
13.64,1534405014.828125
14.06,1534405014.84375
13.77,1534405014.859375
13.04,1534405014.875
12.2,1534405014.890625
11.55,1534405014.90625
11.3,1534405014.921875
11.47,1534405014.9375
11.9,1534405014.953125
12.33,1534405014.96875
12.56,1534405014.984375
12.45,1534405015.0
12.01,1534405015.015625
11.28,1534405015.03125
10.32,1534405015.046875
9.13,1534405015.0625
7.68,1534405015.078125
5.96,1534405015.09375
3.97,1534405015.109375
1.77,1534405015.125
-0.53,1534405015.140625
-2.81,1534405015.15625
-5.0,1534405015.171875
-7.07,1534405015.1875
-9.08,1534405015.203125
-11.21,1534405015.21875
-13.69,1534405015.234375
-16.79,1534405015.25
-20.56,1534405015.265625
-24.78,1534405015.28125
-28.87,1534405015.296875
-31.96,1534405015.3125
-33.19,1534405015.328125
-32.01,1534405015.34375
-28.39,1534405015.359375
-22.9,1534405015.375
-16.46,1534405015.390625
-10.0,1534405015.40625
-4.27,1534405015.421875
0.45,1534405015.4375
4.16,1534405015.453125
7.04,1534405015.46875
9.26,1534405015.484375
10.93,1534405015.5
12.08,1534405015.515625
12.74,1534405015.53125
13.01,1534405015.546875
12.96,1534405015.5625
12.72,1534405015.578125
12.32,1534405015.59375
11.82,1534405015.609375
11.23,1534405015.625
10.56,1534405015.640625
9.81,1534405015.65625
8.96,1534405015.671875
7.97,1534405015.6875
6.8,1534405015.703125
5.48,1534405015.71875
4.01,1534405015.734375
2.41,1534405015.75
0.65,1534405015.765625
-1.38,1534405015.78125
-3.73,1534405015.796875
-6.4,1534405015.8125
-9.24,1534405015.828125
-12.09,1534405015.84375
-14.83,1534405015.859375
-17.59,1534405015.875
-20.64,1534405015.890625
-24.3,1534405015.90625
-28.62,1534405015.921875
-33.22,1534405015.9375
-37.3,1534405015.953125
-39.88,1534405015.96875
-40.22,1534405015.984375
-38.06,1534405016.0
-33.72,1534405016.015625
-27.93,1534405016.03125
-21.5,1534405016.046875
-15.13,1534405016.0625
-9.28,1534405016.078125
-4.18,1534405016.09375
0.09,1534405016.109375
3.58,1534405016.125
6.41,1534405016.140625
8.72,1534405016.15625
10.64,1534405016.171875
12.21,1534405016.1875
13.38,1534405016.203125
14.1,1534405016.21875
14.37,1534405016.234375
14.3,1534405016.25
14.1,1534405016.265625
13.94,1534405016.28125
13.88,1534405016.296875
13.85,1534405016.3125
13.69,1534405016.328125
13.21,1534405016.34375
12.25,1534405016.359375
10.76,1534405016.375
8.77,1534405016.390625
6.36,1534405016.40625
3.64,1534405016.421875
0.74,1534405016.4375
-2.21,1534405016.453125
-5.09,1534405016.46875
-7.81,1534405016.484375
-10.35,1534405016.5
-12.81,1534405016.515625
-15.45,1534405016.53125
-18.62,1534405016.546875
-22.63,1534405016.5625
-27.45,1534405016.578125
-32.61,1534405016.59375
-37.18,1534405016.609375
-40.08,1534405016.625
-40.42,1534405016.640625
-37.88,1534405016.65625
-32.79,1534405016.671875
-26.01,1534405016.6875
-18.49,1534405016.703125
-11.08,1534405016.71875
-4.28,1534405016.734375
1.71,1534405016.75
6.85,1534405016.765625
11.14,1534405016.78125
14.54,1534405016.796875
17.04,1534405016.8125
18.72,1534405016.828125
19.77,1534405016.84375
20.43,1534405016.859375
20.93,1534405016.875
21.42,1534405016.890625
21.86,1534405016.90625
22.13,1534405016.921875
22.11,1534405016.9375
21.76,1534405016.953125
21.17,1534405016.96875
20.46,1534405016.984375
19.68,1534405017.0
18.77,1534405017.015625
17.51,1534405017.03125
15.69,1534405017.046875
13.2,1534405017.0625
10.15,1534405017.078125
6.79,1534405017.09375
3.45,1534405017.109375
0.36,1534405017.125
-2.46,1534405017.140625
-5.19,1534405017.15625
-8.11,1534405017.171875
-11.55,1534405017.1875
-15.73,1534405017.203125
-20.65,1534405017.21875
-26.02,1534405017.234375
-31.26,1534405017.25
-35.51,1534405017.265625
-37.92,1534405017.28125
-37.81,1534405017.296875
-34.97,1534405017.3125
-29.71,1534405017.328125
-22.81,1534405017.34375
-15.23,1534405017.359375
-7.82,1534405017.375
-1.18,1534405017.390625
4.48,1534405017.40625
9.16,1534405017.421875
12.95,1534405017.4375
15.97,1534405017.453125
18.34,1534405017.46875
20.2,1534405017.484375
21.73,1534405017.5
23.07,1534405017.515625
24.23,1534405017.53125
25.13,1534405017.546875
25.61,1534405017.5625
25.54,1534405017.578125
24.97,1534405017.59375
24.04,1534405017.609375
22.98,1534405017.625
21.9,1534405017.640625
20.79,1534405017.65625
19.55,1534405017.671875
18.06,1534405017.6875
16.29,1534405017.703125
14.3,1534405017.71875
12.19,1534405017.734375
10.02,1534405017.75
7.77,1534405017.765625
5.36,1534405017.78125
2.74,1534405017.796875
-0.08,1534405017.8125
-3.0,1534405017.828125
-5.97,1534405017.84375
-9.05,1534405017.859375
-12.43,1534405017.875
-16.34,1534405017.890625
-20.82,1534405017.90625
-25.56,1534405017.921875
-29.87,1534405017.9375
-32.86,1534405017.953125
-33.78,1534405017.96875
-32.31,1534405017.984375
-28.63,1534405018.0
-23.29,1534405018.015625
-17.01,1534405018.03125
-10.35,1534405018.046875
-3.71,1534405018.0625
2.62,1534405018.078125
8.37,1534405018.09375
13.22,1534405018.109375
16.87,1534405018.125
19.23,1534405018.140625
20.44,1534405018.15625
20.89,1534405018.171875
21.08,1534405018.1875
21.42,1534405018.203125
22.12,1534405018.21875
23.13,1534405018.234375
24.17,1534405018.25
24.92,1534405018.265625
25.1,1534405018.28125
24.63,1534405018.296875
23.62,1534405018.3125
22.27,1534405018.328125
20.76,1534405018.34375
19.18,1534405018.359375
17.51,1534405018.375
15.7,1534405018.390625
13.72,1534405018.40625
11.59,1534405018.421875
9.38,1534405018.4375
7.16,1534405018.453125
4.96,1534405018.46875
2.77,1534405018.484375
0.54,1534405018.5
-1.75,1534405018.515625
-4.19,1534405018.53125
-6.92,1534405018.546875
-10.09,1534405018.5625
-13.83,1534405018.578125
-18.08,1534405018.59375
-22.52,1534405018.609375
-26.53,1534405018.625
-29.36,1534405018.640625
-30.31,1534405018.65625
-28.97,1534405018.671875
-25.33,1534405018.6875
-19.84,1534405018.703125
-13.21,1534405018.71875
-6.27,1534405018.734375
0.31,1534405018.75
6.06,1534405018.765625
10.75,1534405018.78125
14.32,1534405018.796875
16.8,1534405018.8125
18.32,1534405018.828125
19.05,1534405018.84375
19.19,1534405018.859375
19.0,1534405018.875
18.71,1534405018.890625
18.46,1534405018.90625
18.36,1534405018.921875
18.44,1534405018.9375
18.67,1534405018.953125
19.0,1534405018.96875
19.26,1534405018.984375
19.24,1534405019.0
18.77,1534405019.015625
17.74,1534405019.03125
16.22,1534405019.046875
14.4,1534405019.0625
12.49,1534405019.078125
10.58,1534405019.09375
8.67,1534405019.109375
6.63,1534405019.125
4.41,1534405019.140625
2.05,1534405019.15625
-0.29,1534405019.171875
-2.46,1534405019.1875
-4.5,1534405019.203125
-6.66,1534405019.21875
-9.32,1534405019.234375
-12.72,1534405019.25
-16.71,1534405019.265625
-20.68,1534405019.28125
-23.66,1534405019.296875
-24.72,1534405019.3125
-23.32,1534405019.328125
-19.51,1534405019.34375
-13.89,1534405019.359375
-7.44,1534405019.375
-1.07,1534405019.390625
4.54,1534405019.40625
9.07,1534405019.421875
12.47,1534405019.4375
14.84,1534405019.453125
16.39,1534405019.46875
17.36,1534405019.484375
18.06,1534405019.5
18.72,1534405019.515625
19.54,1534405019.53125
20.51,1534405019.546875
21.44,1534405019.5625
22.03,1534405019.578125
21.94,1534405019.59375
20.95,1534405019.609375
19.0,1534405019.625
16.23,1534405019.640625
12.91,1534405019.65625
9.35,1534405019.671875
5.85,1534405019.6875
2.61,1534405019.703125
-0.28,1534405019.71875
-2.86,1534405019.734375
-5.22,1534405019.75
-7.45,1534405019.765625
-9.64,1534405019.78125
-11.85,1534405019.796875
-14.12,1534405019.8125
-16.52,1534405019.828125
-19.12,1534405019.84375
-22.07,1534405019.859375
-25.46,1534405019.875
-29.29,1534405019.890625
-33.33,1534405019.90625
-37.05,1534405019.921875
-39.71,1534405019.9375
-40.59,1534405019.953125
-39.21,1534405019.96875
-35.56,1534405019.984375
-30.07,1534405020.0
-23.5,1534405020.015625
-16.62,1534405020.03125
-10.06,1534405020.046875
-4.2,1534405020.0625
0.83,1534405020.078125
5.0,1534405020.09375
8.3,1534405020.109375
10.78,1534405020.125
12.48,1534405020.140625
13.51,1534405020.15625
14.03,1534405020.171875
14.23,1534405020.1875
14.28,1534405020.203125
14.29,1534405020.21875
14.29,1534405020.234375
14.21,1534405020.25
13.95,1534405020.265625
13.41,1534405020.28125
12.53,1534405020.296875
11.37,1534405020.3125
10.02,1534405020.328125
8.54,1534405020.34375
6.92,1534405020.359375
5.04,1534405020.375
2.72,1534405020.390625
-0.1,1534405020.40625
-3.3,1534405020.421875
-6.6,1534405020.4375
-9.67,1534405020.453125
-12.3,1534405020.46875
-14.55,1534405020.484375
-16.79,1534405020.5
-19.51,1534405020.515625
-23.1,1534405020.53125
-27.56,1534405020.546875
-32.47,1534405020.5625
-37.01,1534405020.578125
-40.23,1534405020.59375
-41.35,1534405020.609375
-39.94,1534405020.625
-36.06,1534405020.640625
-30.14,1534405020.65625
-22.88,1534405020.671875
-15.05,1534405020.6875
-7.28,1534405020.703125
-0.11,1534405020.71875
6.12,1534405020.734375
11.23,1534405020.75
15.15,1534405020.765625
17.92,1534405020.78125
19.74,1534405020.796875
20.85,1534405020.8125
21.55,1534405020.828125
22.05,1534405020.84375
22.45,1534405020.859375
22.74,1534405020.875
22.84,1534405020.890625
22.66,1534405020.90625
22.23,1534405020.921875
21.63,1534405020.9375
20.96,1534405020.953125
20.27,1534405020.96875
19.51,1534405020.984375
18.5,1534405021.0
17.09,1534405021.015625
15.15,1534405021.03125
12.66,1534405021.046875
9.73,1534405021.0625
6.52,1534405021.078125
3.22,1534405021.09375
-0.01,1534405021.109375
-3.03,1534405021.125
-5.85,1534405021.140625
-8.59,1534405021.15625
-11.5,1534405021.171875
-14.91,1534405021.1875
-19.03,1534405021.203125
-23.81,1534405021.21875
-28.83,1534405021.234375
-33.31,1534405021.25
-36.33,1534405021.265625
-37.19,1534405021.28125
-35.57,1534405021.296875
-31.71,1534405021.3125
-26.26,1534405021.328125
-19.95,1534405021.34375
-13.39,1534405021.359375
-6.91,1534405021.375
-0.68,1534405021.390625
5.16,1534405021.40625
10.38,1534405021.421875
14.66,1534405021.4375
17.76,1534405021.453125
19.66,1534405021.46875
20.65,1534405021.484375
21.21,1534405021.5
21.73,1534405021.515625
22.4,1534405021.53125
23.1,1534405021.546875
23.56,1534405021.5625
23.58,1534405021.578125
23.15,1534405021.59375
22.46,1534405021.609375
21.74,1534405021.625
21.1,1534405021.640625
20.46,1534405021.65625
19.61,1534405021.671875
18.28,1534405021.6875
16.35,1534405021.703125
13.82,1534405021.71875
10.88,1534405021.734375
7.73,1534405021.75
4.63,1534405021.765625
1.76,1534405021.78125
-0.76,1534405021.796875
-2.91,1534405021.8125
-4.83,1534405021.828125
-6.81,1534405021.84375
-9.24,1534405021.859375
-12.45,1534405021.875
-16.57,1534405021.890625
-21.38,1534405021.90625
-26.3,1534405021.921875
-30.44,1534405021.9375
-32.88,1534405021.953125
-32.92,1534405021.96875
-30.3,1534405021.984375
-25.34,1534405022.0
-18.79,1534405022.015625
-11.64,1534405022.03125
-4.77,1534405022.046875
1.18,1534405022.0625
5.95,1534405022.078125
9.61,1534405022.09375
12.39,1534405022.109375
14.6,1534405022.125
16.41,1534405022.140625
17.91,1534405022.15625
19.03,1534405022.171875
19.7,1534405022.1875
19.9,1534405022.203125
19.75,1534405022.21875
19.46,1534405022.234375
19.18,1534405022.25
18.99,1534405022.265625
18.8,1534405022.28125
18.44,1534405022.296875
17.72,1534405022.3125
16.54,1534405022.328125
14.94,1534405022.34375
13.05,1534405022.359375
11.05,1534405022.375
9.06,1534405022.390625
7.14,1534405022.40625
5.24,1534405022.421875
3.29,1534405022.4375
1.19,1534405022.453125
-1.16,1534405022.46875
-3.77,1534405022.484375
-6.65,1534405022.5
-9.77,1534405022.515625
-13.12,1534405022.53125
-16.66,1534405022.546875
-20.23,1534405022.5625
-23.47,1534405022.578125
-25.79,1534405022.59375
-26.55,1534405022.609375
-25.3,1534405022.625
-21.95,1534405022.640625
-16.94,1534405022.65625
-11.02,1534405022.671875
-4.99,1534405022.6875
0.53,1534405022.703125
5.34,1534405022.71875
9.46,1534405022.734375
12.98,1534405022.75
15.88,1534405022.765625
18.0,1534405022.78125
19.13,1534405022.796875
19.23,1534405022.8125
18.5,1534405022.828125
17.35,1534405022.84375
16.22,1534405022.859375
15.46,1534405022.875
15.16,1534405022.890625
15.22,1534405022.90625
15.39,1534405022.921875
15.41,1534405022.9375
15.03,1534405022.953125
14.13,1534405022.96875
12.64,1534405022.984375
10.61,1534405023.0
8.19,1534405023.015625
5.58,1534405023.03125
2.99,1534405023.046875
0.55,1534405023.0625
-1.72,1534405023.078125
-3.94,1534405023.09375
-6.3,1534405023.109375
-8.99,1534405023.125
-12.19,1534405023.140625
-16.0,1534405023.15625
-20.37,1534405023.171875
-25.1,1534405023.1875
-29.72,1534405023.203125
-33.54,1534405023.21875
-35.78,1534405023.234375
-35.81,1534405023.25
-33.34,1534405023.265625
-28.63,1534405023.28125
-22.33,1534405023.296875
-15.34,1534405023.3125
-8.47,1534405023.328125
-2.33,1534405023.34375
2.78,1534405023.359375
6.79,1534405023.375
9.73,1534405023.390625
11.65,1534405023.40625
12.67,1534405023.421875
13.0,1534405023.4375
12.94,1534405023.453125
12.8,1534405023.46875
12.8,1534405023.484375
12.98,1534405023.5
13.2,1534405023.515625
13.23,1534405023.53125
12.91,1534405023.546875
12.22,1534405023.5625
11.26,1534405023.578125
10.18,1534405023.59375
9.05,1534405023.609375
7.8,1534405023.625
6.28,1534405023.640625
4.34,1534405023.65625
1.93,1534405023.671875
-0.85,1534405023.6875
-3.82,1534405023.703125
-6.79,1534405023.71875
-9.66,1534405023.734375
-12.44,1534405023.75
-15.2,1534405023.765625
-18.1,1534405023.78125
-21.31,1534405023.796875
-25.02,1534405023.8125
-29.3,1534405023.828125
-34.04,1534405023.84375
-38.75,1534405023.859375
-42.61,1534405023.875
-44.66,1534405023.890625
-44.11,1534405023.90625
-40.69,1534405023.921875
-34.8,1534405023.9375
-27.39,1534405023.953125
-19.6,1534405023.96875
-12.37,1534405023.984375
-6.21,1534405024.0
-1.13,1534405024.015625
3.14,1534405024.03125
6.88,1534405024.046875
10.27,1534405024.0625
13.29,1534405024.078125
15.86,1534405024.09375
17.9,1534405024.109375
19.4,1534405024.125
20.4,1534405024.140625
20.95,1534405024.15625
21.07,1534405024.171875
20.77,1534405024.1875
20.11,1534405024.203125
19.2,1534405024.21875
18.14,1534405024.234375
16.95,1534405024.25
15.59,1534405024.265625
13.92,1534405024.28125
11.82,1534405024.296875
9.23,1534405024.3125
6.26,1534405024.328125
3.08,1534405024.34375
-0.16,1534405024.359375
-3.4,1534405024.375
-6.66,1534405024.390625
-10.03,1534405024.40625
-13.56,1534405024.421875
-17.26,1534405024.4375
-21.17,1534405024.453125
-25.3,1534405024.46875
-29.62,1534405024.484375
-33.93,1534405024.5
-37.75,1534405024.515625
-40.38,1534405024.53125
-41.07,1534405024.546875
-39.35,1534405024.5625
-35.17,1534405024.578125
-29.02,1534405024.59375
-21.74,1534405024.609375
-14.19,1534405024.625
-7.09,1534405024.640625
-0.8,1534405024.65625
4.53,1534405024.671875
8.99,1534405024.6875
12.65,1534405024.703125
15.63,1534405024.71875
18.02,1534405024.734375
19.89,1534405024.75
21.33,1534405024.765625
22.4,1534405024.78125
23.2,1534405024.796875
23.78,1534405024.8125
24.22,1534405024.828125
24.56,1534405024.84375
24.81,1534405024.859375
24.96,1534405024.875
24.96,1534405024.890625
24.78,1534405024.90625
24.39,1534405024.921875
23.72,1534405024.9375
22.69,1534405024.953125
21.18,1534405024.96875
19.1,1534405024.984375
16.41,1534405025.0
13.21,1534405025.015625
9.74,1534405025.03125
6.26,1534405025.046875
3.0,1534405025.0625
0.01,1534405025.078125
-2.87,1534405025.09375
-6.0,1534405025.109375
-9.71,1534405025.125
-14.15,1534405025.140625
-19.08,1534405025.15625
-23.84,1534405025.171875
-27.51,1534405025.1875
-29.24,1534405025.203125
-28.46,1534405025.21875
-25.18,1534405025.234375
-19.86,1534405025.25
-13.27,1534405025.265625
-6.24,1534405025.28125
0.55,1534405025.296875
6.64,1534405025.3125
11.73,1534405025.328125
15.7,1534405025.34375
18.53,1534405025.359375
20.35,1534405025.375
21.38,1534405025.390625
21.89,1534405025.40625
22.15,1534405025.421875
22.32,1534405025.4375
22.5,1534405025.453125
22.7,1534405025.46875
22.9,1534405025.484375
23.08,1534405025.5
23.17,1534405025.515625
23.1,1534405025.53125
22.81,1534405025.546875
22.19,1534405025.5625
21.17,1534405025.578125
19.68,1534405025.59375
17.7,1534405025.609375
15.24,1534405025.625
12.41,1534405025.640625
9.4,1534405025.65625
6.46,1534405025.671875
3.86,1534405025.6875
1.69,1534405025.703125
-0.13,1534405025.71875
-1.9,1534405025.734375
-4.05,1534405025.75
-6.97,1534405025.765625
-10.87,1534405025.78125
-15.68,1534405025.796875
-21.04,1534405025.8125
-26.29,1534405025.828125
-30.67,1534405025.84375
-33.44,1534405025.859375
-34.1,1534405025.875
-32.49,1534405025.890625
-28.82,1534405025.90625
