PPG GREEN,time
1538643.0,1534404948.269
1538135.0,1534404948.351
1538444.0,1534404948.313
1537945.0,1534404948.391
1537943.0,1534404948.43
1537991.0,1534404948.471
1538146.0,1534404948.511
1538469.0,1534404948.551
1538817.0,1534404948.593
1539221.0,1534404948.631
1539599.0,1534404948.672
1540300.0,1534404948.749
1540265.0,1534404948.713
1539979.0,1534404948.784
1539555.0,1534404948.824
1539364.0,1534404948.863
1538697.0,1534404948.903
1538457.0,1534404948.945
1538082.0,1534404948.984
1538163.0,1534404949.024
1538014.0,1534404949.065
1538314.0,1534404949.104
1538369.0,1534404949.144
1538934.0,1534404949.186
1539295.0,1534404949.224
1539583.0,1534404949.264
1540250.0,1534404949.305
1540727.0,1534404949.344
1540867.0,1534404949.385
1541296.0,1534404949.425
1541409.0,1534404949.465
1541122.0,1534404949.506
1540541.0,1534404949.544
1540223.0,1534404949.584
1539821.0,1534404949.62
1539636.0,1534404949.662
1539719.0,1534404949.693
1539895.0,1534404949.73
1539938.0,1534404949.772
1540117.0,1534404949.81
1540564.0,1534404949.851
1540954.0,1534404949.892
1541386.0,1534404949.931
1542000.0,1534404949.97
1542440.0,1534404950.005
1543649.0,1534404950.044
1544068.0,1534404950.084
1543973.0,1534404950.125
1543440.0,1534404950.165
1542405.0,1534404950.204
1541314.0,1534404950.245
1539855.0,1534404950.284
1538653.0,1534404950.324
1537330.0,1534404950.366
1535490.0,1534404950.404
1532054.0,1534404950.444
1529253.0,1534404950.485
1527133.0,1534404950.525
1525986.0,1534404950.565
1525009.0,1534404950.606
1524670.0,1534404950.645
1523932.0,1534404950.686
1522764.0,1534404950.725
1522746.0,1534404950.76
1522915.0,1534404950.799
1522686.0,1534404950.834
1521902.0,1534404950.872
1520995.0,1534404950.912
1520808.0,1534404950.954
1519897.0,1534404950.992
1519176.0,1534404951.033
1518129.0,1534404951.074
1518197.0,1534404951.113
1518046.0,1534404951.154
1518410.0,1534404951.196
1518409.0,1534404951.235
1518011.0,1534404951.275
1515329.0,1534404951.317
1512639.0,1534404951.356
1510938.0,1534404951.396
1510915.0,1534404951.437
1511524.0,1534404951.476
1510619.0,1534404951.516
1509767.0,1534404951.558
1508499.0,1534404951.596
1507270.0,1534404951.636
1506515.0,1534404951.677
1505755.0,1534404951.716
1504905.0,1534404951.757
1503809.0,1534404951.797
1502982.0,1534404951.836
1502550.0,1534404951.876
1502914.0,1534404951.918
1502953.0,1534404951.955
1503217.0,1534404951.992
1502470.0,1534404952.033
1502001.0,1534404952.073
1500688.0,1534404952.113
1499464.0,1534404952.155
1498244.0,1534404952.193
1497204.0,1534404952.234
1496472.0,1534404952.279
1496048.0,1534404952.312
1495644.0,1534404952.353
1495380.0,1534404952.394
1495181.0,1534404952.433
1495301.0,1534404952.473
1495199.0,1534404952.515
1494910.0,1534404952.544
1494910.0,1534404952.584
1494788.0,1534404952.625
1494268.0,1534404952.664
1493660.0,1534404952.704
1492828.0,1534404952.746
1491459.0,1534404952.784
1490641.0,1534404952.824
1490092.0,1534404952.865
1489412.0,1534404952.904
1489140.0,1534404952.945
1488401.0,1534404952.985
1487975.0,1534404953.025
1487712.0,1534404953.065
1487502.0,1534404953.106
1487444.0,1534404953.146
1487546.0,1534404953.185
1487742.0,1534404953.226
1487764.0,1534404953.261
1487211.0,1534404953.295
1485735.0,1534404953.334
1484270.0,1534404953.372
1483067.0,1534404953.412
1482251.0,1534404953.454
1481731.0,1534404953.493
1481666.0,1534404953.534
1481635.0,1534404953.574
1481819.0,1534404953.614
1482308.0,1534404953.654
1482599.0,1534404953.692
1483182.0,1534404953.732
1483385.0,1534404953.771
1483861.0,1534404953.812
1484262.0,1534404953.852
1484765.0,1534404953.892
1484662.0,1534404953.933
1484311.0,1534404953.972
1483636.0,1534404954.012
1482870.0,1534404954.053
1482402.0,1534404954.092
1482022.0,1534404954.133
1481799.0,1534404954.173
1481988.0,1534404954.212
1482055.0,1534404954.252
1482292.0,1534404954.293
1482386.0,1534404954.333
1482571.0,1534404954.373
1483175.0,1534404954.414
1483688.0,1534404954.453
1483777.0,1534404954.493
1484427.0,1534404954.535
1484717.0,1534404954.574
1485531.0,1534404954.614
1485538.0,1534404954.655
1485566.0,1534404954.695
1485106.0,1534404954.733
1484508.0,1534404954.774
1483870.0,1534404954.813
1483730.0,1534404954.854
1483471.0,1534404954.895
1483489.0,1534404954.935
1483600.0,1534404954.974
1484058.0,1534404955.009
1484029.0,1534404955.048
1484687.0,1534404955.088
1484921.0,1534404955.13
1485492.0,1534404955.169
1485681.0,1534404955.209
1486007.0,1534404955.25
1486507.0,1534404955.289
1486963.0,1534404955.33
1487486.0,1534404955.37
1487647.0,1534404955.409
1487280.0,1534404955.449
1487095.0,1534404955.486
1487003.0,1534404955.526
1486956.0,1534404955.565
1486749.0,1534404955.606
1487177.0,1534404955.645
1487214.0,1534404955.685
1487466.0,1534404955.727
1487828.0,1534404955.766
1488320.0,1534404955.847
1488865.0,1534404955.886
1489233.0,1534404955.928
1489653.0,1534404955.968
1489910.0,1534404956.008
1488068.0,1534404955.806
1490654.0,1534404956.048
1490814.0,1534404956.089
1491350.0,1534404956.128
1491275.0,1534404956.168
1491596.0,1534404956.209
1491404.0,1534404956.248
1491710.0,1534404956.288
1491740.0,1534404956.33
1491703.0,1534404956.368
1491994.0,1534404956.408
1492480.0,1534404956.449
1492564.0,1534404956.488
1493344.0,1534404956.529
1493536.0,1534404956.569
1494052.0,1534404956.609
1494245.0,1534404956.649
1494471.0,1534404956.69
1495094.0,1534404956.729
1495553.0,1534404956.81
1495423.0,1534404956.769
1495868.0,1534404956.849
1495745.0,1534404956.889
1496177.0,1534404956.932
1496070.0,1534404956.97
1496402.0,1534404957.011
1496619.0,1534404957.051
1496738.0,1534404957.09
1496932.0,1534404957.131
1497578.0,1534404957.172
1497643.0,1534404957.211
1497972.0,1534404957.251
1498287.0,1534404957.292
1498857.0,1534404957.332
1499170.0,1534404957.371
1499661.0,1534404957.412
1500073.0,1534404957.451
1500690.0,1534404957.533
1501030.0,1534404957.571
1500517.0,1534404957.491
1500891.0,1534404957.611
1501186.0,1534404957.652
1501200.0,1534404957.691
1501085.0,1534404957.732
1501526.0,1534404957.773
1501981.0,1534404957.812
1502912.0,1534404957.933
1502670.0,1534404957.893
1502139.0,1534404957.852
1503659.0,1534404958.053
1503845.0,1534404958.093
1504227.0,1534404958.132
1503313.0,1534404958.013
1504886.0,1534404958.171
1502883.0,1534404957.972
1504966.0,1534404958.253
1504870.0,1534404958.33
1504783.0,1534404958.211
1504589.0,1534404958.371
1504807.0,1534404958.41
1504797.0,1534404958.45
1504860.0,1534404958.491
1504739.0,1534404958.53
1505000.0,1534404958.57
1504716.0,1534404958.29
1504854.0,1534404958.611
1505263.0,1534404958.69
1505095.0,1534404958.65
1505177.0,1534404958.732
1505552.0,1534404958.77
1505530.0,1534404958.81
1506041.0,1534404958.851
1505926.0,1534404958.89
1505733.0,1534404958.931
1505476.0,1534404959.011
1505416.0,1534404959.052
1505726.0,1534404958.971
1505202.0,1534404959.092
1504859.0,1534404959.172
1504958.0,1534404959.132
1504652.0,1534404959.213
1504563.0,1534404959.252
1504667.0,1534404959.292
1504582.0,1534404959.334
1504546.0,1534404959.373
1504479.0,1534404959.413
1504622.0,1534404959.454
1504711.0,1534404959.491
1504831.0,1534404959.526
1504914.0,1534404959.567
1504740.0,1534404959.606
1504623.0,1534404959.646
1504414.0,1534404959.687
1504148.0,1534404959.727
1503587.0,1534404959.766
1503553.0,1534404959.807
1503306.0,1534404959.846
1503229.0,1534404959.886
1502946.0,1534404959.928
1502665.0,1534404959.966
1502935.0,1534404960.006
1502683.0,1534404960.047
1502757.0,1534404960.086
1502731.0,1534404960.127
1502901.0,1534404960.168
1503222.0,1534404960.207
1503034.0,1534404960.248
1502978.0,1534404960.286
1503180.0,1534404960.321
1502604.0,1534404960.355
1501927.0,1534404960.394
1501687.0,1534404960.433
1501386.0,1534404960.474
1501234.0,1534404960.516
1500761.0,1534404960.553
1500761.0,1534404960.589
1500474.0,1534404960.63
1500598.0,1534404960.669
1500409.0,1534404960.71
1500167.0,1534404960.751
1500320.0,1534404960.79
1500342.0,1534404960.83
1500494.0,1534404960.871
1500422.0,1534404960.91
1500642.0,1534404960.95
1500700.0,1534404960.991
1500642.0,1534404961.03
1500461.0,1534404961.07
1499801.0,1534404961.112
1499338.0,1534404961.15
1499127.0,1534404961.19
1498634.0,1534404961.231
1498408.0,1534404961.27
1498264.0,1534404961.311
1498302.0,1534404961.351
1498163.0,1534404961.39
1497944.0,1534404961.431
1497983.0,1534404961.472
1498030.0,1534404961.512
1497882.0,1534404961.552
1497963.0,1534404961.593
1498012.0,1534404961.629
1498301.0,1534404961.669
1498069.0,1534404961.71
1497742.0,1534404961.749
1497321.0,1534404961.789
1497008.0,1534404961.83
1496586.0,1534404961.869
1496442.0,1534404961.91
1496182.0,1534404961.95
1496185.0,1534404961.989
1496165.0,1534404962.029
1495996.0,1534404962.07
1496033.0,1534404962.11
1495915.0,1534404962.149
1496182.0,1534404962.19
1496388.0,1534404962.229
1496400.0,1534404962.269
1496767.0,1534404962.305
1496731.0,1534404962.344
1496636.0,1534404962.377
1496291.0,1534404962.417
1495681.0,1534404962.453
1495207.0,1534404962.494
1494606.0,1534404962.535
1494270.0,1534404962.574
1494150.0,1534404962.614
1493955.0,1534404962.656
1493734.0,1534404962.696
1493657.0,1534404962.735
1493544.0,1534404962.776
1493612.0,1534404962.811
1493641.0,1534404962.851
1493674.0,1534404962.893
1493860.0,1534404962.932
1493761.0,1534404962.972
1493539.0,1534404963.013
1493288.0,1534404963.052
1492185.0,1534404963.093
1491655.0,1534404963.133
1490951.0,1534404963.172
1490530.0,1534404963.212
1489955.0,1534404963.253
1490075.0,1534404963.293
1489586.0,1534404963.332
1489711.0,1534404963.373
1489390.0,1534404963.412
1489503.0,1534404963.452
1489401.0,1534404963.494
1489703.0,1534404963.534
1489678.0,1534404963.574
1489548.0,1534404963.654
1489555.0,1534404963.616
1489014.0,1534404963.695
1488227.0,1534404963.736
1487357.0,1534404963.775
1486698.0,1534404963.815
1486232.0,1534404963.856
1486138.0,1534404963.896
1485953.0,1534404963.935
1485825.0,1534404963.976
1485619.0,1534404964.015
1485498.0,1534404964.055
1485669.0,1534404964.097
1485564.0,1534404964.136
1486113.0,1534404964.176
1486152.0,1534404964.217
1486324.0,1534404964.256
1486320.0,1534404964.297
1485844.0,1534404964.337
1484910.0,1534404964.376
1484551.0,1534404964.416
1483963.0,1534404964.457
1483517.0,1534404964.497
1483107.0,1534404964.536
1483098.0,1534404964.577
1483019.0,1534404964.617
1483029.0,1534404964.655
1483138.0,1534404964.697
1483272.0,1534404964.735
1483440.0,1534404964.775
1483660.0,1534404964.817
1483978.0,1534404964.856
1484465.0,1534404964.897
1484404.0,1534404964.937
1484521.0,1534404964.977
1483917.0,1534404965.017
1483359.0,1534404965.055
1482979.0,1534404965.095
1482767.0,1534404965.134
1482613.0,1534404965.175
1482864.0,1534404965.214
1482792.0,1534404965.254
1482840.0,1534404965.296
1483057.0,1534404965.334
1483415.0,1534404965.374
1483800.0,1534404965.415
1483995.0,1534404965.454
1484544.0,1534404965.495
1484882.0,1534404965.536
1485195.0,1534404965.575
1484932.0,1534404965.615
1484531.0,1534404965.656
1484125.0,1534404965.695
1484381.0,1534404965.735
1484054.0,1534404965.776
1483922.0,1534404965.816
1484072.0,1534404965.855
1484351.0,1534404965.897
1484346.0,1534404965.936
1484737.0,1534404965.976
1484960.0,1534404966.017
1485242.0,1534404966.056
1485536.0,1534404966.088
1486034.0,1534404966.129
1486543.0,1534404966.168
1486680.0,1534404966.208
1486102.0,1534404966.249
1485631.0,1534404966.289
1485120.0,1534404966.328
1484846.0,1534404966.369
1484545.0,1534404966.408
1484623.0,1534404966.448
1484448.0,1534404966.49
1484721.0,1534404966.528
1484832.0,1534404966.569
1485179.0,1534404966.61
1485172.0,1534404966.649
1485794.0,1534404966.69
1485877.0,1534404966.73
1486422.0,1534404966.769
1486618.0,1534404966.802
1486816.0,1534404966.84
1486444.0,1534404966.878
1486116.0,1534404966.917
1485604.0,1534404966.958
1485377.0,1534404966.997
1485358.0,1534404967.037
1485309.0,1534404967.079
1485354.0,1534404967.117
1485653.0,1534404967.158
1485726.0,1534404967.193
1485726.0,1534404967.232
1486192.0,1534404967.273
1486498.0,1534404967.313
1487138.0,1534404967.352
1487527.0,1534404967.392
1487729.0,1534404967.481
1488066.0,1534404967.52
1488273.0,1534404967.56
1487995.0,1534404967.601
1487548.0,1534404967.64
1487531.0,1534404967.68
1487145.0,1534404967.722
1487415.0,1534404967.76
1487341.0,1534404967.8
1487284.0,1534404967.841
1487482.0,1534404967.88
1487983.0,1534404967.921
1488376.0,1534404967.962
1488691.0,1534404968.002
1489127.0,1534404968.042
1489468.0,1534404968.084
1489995.0,1534404968.124
1490650.0,1534404968.164
1490808.0,1534404968.205
1490837.0,1534404968.244
1490573.0,1534404968.285
1490549.0,1534404968.326
1490133.0,1534404968.364
1490280.0,1534404968.404
1490123.0,1534404968.445
1490334.0,1534404968.476
1490577.0,1534404968.517
1491159.0,1534404968.557
1491443.0,1534404968.596
1491554.0,1534404968.636
1491992.0,1534404968.678
1492429.0,1534404968.717
1492764.0,1534404968.757
1493124.0,1534404968.798
1493804.0,1534404968.837
1493881.0,1534404968.877
1494145.0,1534404968.919
1493680.0,1534404968.957
1493490.0,1534404968.997
1493749.0,1534404969.038
1493724.0,1534404969.077
1493933.0,1534404969.118
1493816.0,1534404969.158
1494190.0,1534404969.193
1494482.0,1534404969.227
1494748.0,1534404969.265
1495115.0,1534404969.305
1495616.0,1534404969.345
1495794.0,1534404969.386
1496340.0,1534404969.425
1496884.0,1534404969.465
1497170.0,1534404969.507
1497234.0,1534404969.545
1497315.0,1534404969.586
1497193.0,1534404969.627
1497105.0,1534404969.666
1497200.0,1534404969.707
1497300.0,1534404969.747
1497309.0,1534404969.786
1497495.0,1534404969.826
1497557.0,1534404969.867
1497915.0,1534404969.907
1498236.0,1534404969.947
1498446.0,1534404969.988
1498798.0,1534404970.027
1499233.0,1534404970.067
1499710.0,1534404970.108
1499940.0,1534404970.147
1500304.0,1534404970.187
1500022.0,1534404970.228
1500050.0,1534404970.267
1499918.0,1534404970.308
1499761.0,1534404970.348
1500156.0,1534404970.387
1500217.0,1534404970.425
1500580.0,1534404970.466
1500900.0,1534404970.506
1501074.0,1534404970.546
1501512.0,1534404970.587
1501932.0,1534404970.626
1501990.0,1534404970.667
1502521.0,1534404970.709
1502846.0,1534404970.747
1503448.0,1534404970.785
1503429.0,1534404970.827
1503499.0,1534404970.866
1503231.0,1534404970.907
1503153.0,1534404970.939
1502989.0,1534404970.978
1503284.0,1534404971.018
1503491.0,1534404971.059
1503405.0,1534404971.099
1503870.0,1534404971.139
1503763.0,1534404971.18
1504176.0,1534404971.219
1504182.0,1534404971.259
1504551.0,1534404971.3
1505035.0,1534404971.339
1505356.0,1534404971.379
1505183.0,1534404971.42
1505212.0,1534404971.459
1504862.0,1534404971.5
1504789.0,1534404971.54
1504307.0,1534404971.579
1504167.0,1534404971.62
1504264.0,1534404971.662
1504060.0,1534404971.702
1504390.0,1534404971.737
1504509.0,1534404971.779
1504548.0,1534404971.812
1504696.0,1534404971.849
1504937.0,1534404971.889
1505103.0,1534404971.927
1505290.0,1534404971.968
1505646.0,1534404972.009
1505127.0,1534404972.048
1504959.0,1534404972.089
1504551.0,1534404972.129
1504324.0,1534404972.168
1503987.0,1534404972.208
1503904.0,1534404972.249
1503799.0,1534404972.289
1503842.0,1534404972.328
1503790.0,1534404972.369
1503937.0,1534404972.408
1504008.0,1534404972.448
1504328.0,1534404972.49
1504467.0,1534404972.528
1504807.0,1534404972.568
1504595.0,1534404972.61
1504429.0,1534404972.649
1504048.0,1534404972.689
1503425.0,1534404972.73
1503099.0,1534404972.769
1502780.0,1534404972.809
1502534.0,1534404972.851
1502437.0,1534404972.888
1502457.0,1534404972.928
1502338.0,1534404972.969
1502466.0,1534404973.007
1502515.0,1534404973.048
1502501.0,1534404973.09
1502636.0,1534404973.128
1502982.0,1534404973.168
1503046.0,1534404973.21
1502941.0,1534404973.249
1502490.0,1534404973.29
1501842.0,1534404973.33
1501428.0,1534404973.369
1501428.0,1534404973.403
1500967.0,1534404973.444
1500440.0,1534404973.484
1500482.0,1534404973.523
1500092.0,1534404973.564
1500230.0,1534404973.603
1500097.0,1534404973.643
1500435.0,1534404973.685
1500268.0,1534404973.723
1500666.0,1534404973.764
1500802.0,1534404973.805
1500929.0,1534404973.844
1501092.0,1534404973.884
1500947.0,1534404973.925
1500580.0,1534404973.964
1499961.0,1534404974.004
1499757.0,1534404974.045
1499468.0,1534404974.084
1499113.0,1534404974.121
1499047.0,1534404974.157
1499265.0,1534404974.196
1499333.0,1534404974.23
1499502.0,1534404974.269
1499422.0,1534404974.308
1499765.0,1534404974.348
1499994.0,1534404974.389
1500350.0,1534404974.429
1500552.0,1534404974.47
1500805.0,1534404974.51
1500898.0,1534404974.549
1500593.0,1534404974.59
1499856.0,1534404974.626
1499585.0,1534404974.665
1499264.0,1534404974.705
1499294.0,1534404974.746
1499083.0,1534404974.785
1499221.0,1534404974.825
1499369.0,1534404974.867
1499382.0,1534404974.905
1499601.0,1534404974.945
1499762.0,1534404974.986
1500083.0,1534404975.025
1500388.0,1534404975.066
1500691.0,1534404975.107
1501264.0,1534404975.146
1501064.0,1534404975.186
1500694.0,1534404975.227
1500015.0,1534404975.267
1499522.0,1534404975.306
1499067.0,1534404975.347
1498863.0,1534404975.387
1498543.0,1534404975.427
1498538.0,1534404975.468
1498422.0,1534404975.508
1498772.0,1534404975.549
1498981.0,1534404975.59
1499222.0,1534404975.628
1499491.0,1534404975.669
1500088.0,1534404975.71
1500232.0,1534404975.749
1500810.0,1534404975.789
1500646.0,1534404975.87
1500831.0,1534404975.831
1500251.0,1534404975.91
1500017.0,1534404975.951
1499055.0,1534404975.99
1498968.0,1534404976.03
1499058.0,1534404976.072
1499269.0,1534404976.11
1499274.0,1534404976.15
1499299.0,1534404976.191
1499811.0,1534404976.23
1499942.0,1534404976.271
1500436.0,1534404976.311
1500909.0,1534404976.35
1501361.0,1534404976.39
1501550.0,1534404976.431
1502298.0,1534404976.471
1502531.0,1534404976.51
1502487.0,1534404976.552
1502360.0,1534404976.591
1501688.0,1534404976.629
1501290.0,1534404976.671
1501234.0,1534404976.709
1501015.0,1534404976.75
1501097.0,1534404976.791
1501137.0,1534404976.83
1501370.0,1534404976.871
1501625.0,1534404976.912
1501879.0,1534404976.951
1502299.0,1534404976.991
1502545.0,1534404977.03
1502694.0,1534404977.064
1503313.0,1534404977.104
1503544.0,1534404977.145
1504122.0,1534404977.184
1504486.0,1534404977.224
1504113.0,1534404977.266
1503948.0,1534404977.304
1503648.0,1534404977.344
1503579.0,1534404977.385
1503674.0,1534404977.424
1503306.0,1534404977.465
1503822.0,1534404977.506
1503887.0,1534404977.545
1504043.0,1534404977.585
1504336.0,1534404977.626
1504758.0,1534404977.666
1504985.0,1534404977.705
1505403.0,1534404977.746
1505955.0,1534404977.779
1506506.0,1534404977.813
1506782.0,1534404977.852
1507220.0,1534404977.891
1507079.0,1534404977.931
1506746.0,1534404977.972
1506477.0,1534404978.012
1506468.0,1534404978.053
1506832.0,1534404978.093
1506563.0,1534404978.132
1506693.0,1534404978.173
1506921.0,1534404978.212
1507094.0,1534404978.252
1507366.0,1534404978.291
1507516.0,1534404978.332
1507804.0,1534404978.371
1508272.0,1534404978.411
1508351.0,1534404978.453
1508996.0,1534404978.491
1509143.0,1534404978.531
1508933.0,1534404978.573
1508866.0,1534404978.612
1508488.0,1534404978.652
1508107.0,1534404978.693
1507512.0,1534404978.732
1507441.0,1534404978.772
1507427.0,1534404978.813
1507372.0,1534404978.853
1507256.0,1534404978.892
1507794.0,1534404978.933
1507906.0,1534404978.972
1507939.0,1534404979.013
1508454.0,1534404979.053
1508763.0,1534404979.092
1508734.0,1534404979.132
1509326.0,1534404979.173
1509411.0,1534404979.212
1508891.0,1534404979.253
1508554.0,1534404979.294
1508090.0,1534404979.333
1507764.0,1534404979.374
1507301.0,1534404979.413
1507301.0,1534404979.453
1507277.0,1534404979.492
1506946.0,1534404979.533
1507093.0,1534404979.572
1507051.0,1534404979.612
1507522.0,1534404979.654
1507377.0,1534404979.692
1507558.0,1534404979.732
1507773.0,1534404979.774
1507984.0,1534404979.813
1508486.0,1534404979.853
1508793.0,1534404979.894
1508750.0,1534404979.933
1508275.0,1534404979.973
1507698.0,1534404980.014
1507145.0,1534404980.054
1506648.0,1534404980.093
1506368.0,1534404980.134
1506156.0,1534404980.174
1506197.0,1534404980.214
1506262.0,1534404980.256
1506146.0,1534404980.295
1506360.0,1534404980.335
1506442.0,1534404980.376
1506585.0,1534404980.416
1506794.0,1534404980.457
1507156.0,1534404980.497
1507384.0,1534404980.536
1507618.0,1534404980.577
1507630.0,1534404980.618
1506921.0,1534404980.656
1506407.0,1534404980.696
1505828.0,1534404980.736
1505367.0,1534404980.77
1505403.0,1534404980.811
1505283.0,1534404980.852
1505028.0,1534404980.891
1505227.0,1534404980.931
1505055.0,1534404980.972
1505303.0,1534404981.011
1505373.0,1534404981.052
1505553.0,1534404981.092
1505731.0,1534404981.131
1506028.0,1534404981.171
1506184.0,1534404981.212
1506453.0,1534404981.252
1505779.0,1534404981.291
1505255.0,1534404981.332
1504541.0,1534404981.372
1504328.0,1534404981.412
1504009.0,1534404981.453
1504030.0,1534404981.493
1503615.0,1534404981.533
1503811.0,1534404981.575
1503824.0,1534404981.614
1504116.0,1534404981.655
1504390.0,1534404981.696
1504468.0,1534404981.735
1504600.0,1534404981.776
1504983.0,1534404981.817
1505029.0,1534404981.857
1505396.0,1534404981.897
1505186.0,1534404981.938
1504436.0,1534404981.976
1503196.0,1534404982.091
1503820.0,1534404982.011
1503235.0,1534404982.053
1503206.0,1534404982.173
1503055.0,1534404982.131
1503509.0,1534404982.252
1503201.0,1534404982.212
1503839.0,1534404982.332
1503519.0,1534404982.293
1504016.0,1534404982.372
1504336.0,1534404982.413
1504549.0,1534404982.492
1504493.0,1534404982.453
1504937.0,1534404982.533
1504685.0,1534404982.572
1504064.0,1534404982.612
1503429.0,1534404982.654
1503255.0,1534404982.693
1503293.0,1534404982.734
1503044.0,1534404982.775
1503197.0,1534404982.815
1503389.0,1534404982.856
1503046.0,1534404982.896
1503521.0,1534404982.936
1503680.0,1534404982.976
1504074.0,1534404983.018
1504376.0,1534404983.058
1504817.0,1534404983.097
1505195.0,1534404983.138
1505254.0,1534404983.178
1504801.0,1534404983.21
1504455.0,1534404983.252
1504146.0,1534404983.29
1503810.0,1534404983.33
1503960.0,1534404983.372
1504044.0,1534404983.411
1504139.0,1534404983.451
1504412.0,1534404983.492
1504727.0,1534404983.531
1504950.0,1534404983.571
1505220.0,1534404983.612
1505469.0,1534404983.652
1506012.0,1534404983.691
1506424.0,1534404983.732
1506672.0,1534404983.771
1506362.0,1534404983.811
1506037.0,1534404983.853
1505807.0,1534404983.891
1505212.0,1534404983.931
1504529.0,1534404983.967
1504691.0,1534404983.997
1504311.0,1534404984.038
1504649.0,1534404984.078
1504789.0,1534404984.117
1504898.0,1534404984.158
1505297.0,1534404984.199
1505488.0,1534404984.239
1505702.0,1534404984.278
1506178.0,1534404984.319
1506667.0,1534404984.358
1507212.0,1534404984.398
1507039.0,1534404984.44
1506588.0,1534404984.478
1506153.0,1534404984.518
1505678.0,1534404984.559
1505257.0,1534404984.598
1504868.0,1534404984.639
1505153.0,1534404984.68
1504971.0,1534404984.719
1505274.0,1534404984.759
1505404.0,1534404984.8
1505613.0,1534404984.84
1505954.0,1534404984.879
1506108.0,1534404984.92
1506715.0,1534404984.959
1507078.0,1534404984.999
1507563.0,1534404985.041
1507962.0,1534404985.079
1508192.0,1534404985.119
1507899.0,1534404985.158
1507459.0,1534404985.197
1506871.0,1534404985.238
1506702.0,1534404985.278
1506362.0,1534404985.317
1506419.0,1534404985.358
1506505.0,1534404985.399
1506475.0,1534404985.439
1506931.0,1534404985.478
1507084.0,1534404985.52
1507154.0,1534404985.559
1507561.0,1534404985.599
1507995.0,1534404985.641
1508602.0,1534404985.673
1508855.0,1534404985.713
1509092.0,1534404985.755
1509555.0,1534404985.794
1509917.0,1534404985.834
1509692.0,1534404985.875
1509450.0,1534404985.914
1508860.0,1534404985.954
1508627.0,1534404985.995
1508293.0,1534404986.035
1508414.0,1534404986.074
1508367.0,1534404986.115
1508567.0,1534404986.154
1508629.0,1534404986.194
1508945.0,1534404986.236
1509384.0,1534404986.275
1509588.0,1534404986.315
1509821.0,1534404986.356
1510354.0,1534404986.393
1510624.0,1534404986.43
1511021.0,1534404986.462
1511480.0,1534404986.502
1511762.0,1534404986.541
1511737.0,1534404986.58
1511814.0,1534404986.62
1511234.0,1534404986.66
1511199.0,1534404986.701
1510943.0,1534404986.74
1511233.0,1534404986.78
1511391.0,1534404986.822
1511498.0,1534404986.861
1511626.0,1534404986.895
1511626.0,1534404986.936
1511888.0,1534404986.975
1512399.0,1534404987.015
1512665.0,1534404987.056
1512929.0,1534404987.095
1513249.0,1534404987.135
1513705.0,1534404987.176
1514156.0,1534404987.216
1514779.0,1534404987.255
1514896.0,1534404987.296
1515144.0,1534404987.335
1514939.0,1534404987.375
1514604.0,1534404987.417
1514225.0,1534404987.455
1514358.0,1534404987.496
1514116.0,1534404987.537
1514236.0,1534404987.576
1514300.0,1534404987.618
1514456.0,1534404987.658
1514501.0,1534404987.698
1514895.0,1534404987.738
1515403.0,1534404987.779
1515672.0,1534404987.82
1515725.0,1534404987.859
1516177.0,1534404987.901
1516611.0,1534404987.94
1516946.0,1534404987.98
1517189.0,1534404988.022
1517272.0,1534404988.061
1516920.0,1534404988.101
1516483.0,1534404988.137
1516184.0,1534404988.176
1515971.0,1534404988.217
1515666.0,1534404988.257
1515712.0,1534404988.297
1515610.0,1534404988.337
1515817.0,1534404988.378
1515827.0,1534404988.417
1516110.0,1534404988.457
1516239.0,1534404988.498
1516534.0,1534404988.537
1516595.0,1534404988.577
1517016.0,1534404988.619
1517199.0,1534404988.657
1517624.0,1534404988.697
1517630.0,1534404988.738
1517441.0,1534404988.777
1517198.0,1534404988.818
1516600.0,1534404988.859
1516172.0,1534404988.898
1516051.0,1534404988.938
1515522.0,1534404988.98
1515254.0,1534404989.02
1515422.0,1534404989.06
1515338.0,1534404989.101
1515426.0,1534404989.14
1515526.0,1534404989.181
1515448.0,1534404989.222
1515756.0,1534404989.261
1515971.0,1534404989.301
1516173.0,1534404989.342
1516543.0,1534404989.372
1516483.0,1534404989.413
1516649.0,1534404989.453
1516150.0,1534404989.492
1515661.0,1534404989.532
1515148.0,1534404989.574
1514671.0,1534404989.613
1514248.0,1534404989.653
1514155.0,1534404989.694
1513931.0,1534404989.733
1514037.0,1534404989.773
1513723.0,1534404989.815
1514036.0,1534404989.853
1514047.0,1534404989.893
1513945.0,1534404989.934
1514025.0,1534404989.973
1514264.0,1534404990.014
1514664.0,1534404990.048
1514519.0,1534404990.087
1514572.0,1534404990.123
1514224.0,1534404990.161
1513824.0,1534404990.201
1513124.0,1534404990.241
1512678.0,1534404990.281
1511839.0,1534404990.32
1511797.0,1534404990.361
1511485.0,1534404990.402
1511469.0,1534404990.441
1511207.0,1534404990.481
1511147.0,1534404990.523
1511164.0,1534404990.563
1511186.0,1534404990.603
1511681.0,1534404990.644
1511594.0,1534404990.683
1511772.0,1534404990.723
1511827.0,1534404990.804
1511827.0,1534404990.764
1511371.0,1534404990.843
1510880.0,1534404990.884
1509877.0,1534404990.923
1509399.0,1534404990.963
1508968.0,1534404991.005
1508778.0,1534404991.043
1508586.0,1534404991.083
1508694.0,1534404991.124
1508590.0,1534404991.163
1508353.0,1534404991.204
1508321.0,1534404991.245
1508303.0,1534404991.283
1508370.0,1534404991.324
1508532.0,1534404991.363
1508861.0,1534404991.402
1509066.0,1534404991.441
1508552.0,1534404991.48
1507910.0,1534404991.519
1507466.0,1534404991.558
1506629.0,1534404991.597
1506383.0,1534404991.636
1505835.0,1534404991.675
1505845.0,1534404991.714
1505468.0,1534404991.753
1505581.0,1534404991.792
1505374.0,1534404991.831
1505340.0,1534404991.87
1505189.0,1534404991.909
1505622.0,1534404991.948
1505439.0,1534404991.987
1506035.0,1534404992.026
1506062.0,1534404992.065
1505862.0,1534404992.104
1505375.0,1534404992.143
1504828.0,1534404992.182
1504040.0,1534404992.221
1503745.0,1534404992.26
1503375.0,1534404992.299
1503384.0,1534404992.377
1503239.0,1534404992.416
1503281.0,1534404992.494
1503450.0,1534404992.533
1503548.0,1534404992.572
1503879.0,1534404992.611
1503984.0,1534404992.65
1504676.0,1534404992.689
1504086.0,1534404992.728
1503547.0,1534404992.767
1502420.0,1534404992.806
1501609.0,1534404992.845
1501108.0,1534404992.884
1500657.0,1534404992.923
1503295.0,1534404992.455
1500149.0,1534404992.962
1503195.0,1534404992.338
1499633.0,1534404993.079
1499602.0,1534404993.118
1500136.0,1534404993.001
1500068.0,1534404993.157
1499714.0,1534404993.04
1499659.0,1534404993.196
1500198.0,1534404993.235
1500324.0,1534404993.274
1500444.0,1534404993.313
1500069.0,1534404993.352
1499245.0,1534404993.391
1498103.0,1534404993.43
1495872.0,1534404993.508
1494989.0,1534404993.547
1494602.0,1534404993.586
1494142.0,1534404993.625
1494123.0,1534404993.664
1493830.0,1534404993.703
1493864.0,1534404993.742
1493992.0,1534404993.782
1494028.0,1534404993.822
1496960.0,1534404993.469
1494090.0,1534404993.862
1494369.0,1534404993.902
1494726.0,1534404993.942
1494748.0,1534404993.982
1494428.0,1534404994.022
1493424.0,1534404994.062
1492186.0,1534404994.102
1491067.0,1534404994.142
1490116.0,1534404994.182
1489694.0,1534404994.222
1489206.0,1534404994.262
1488873.0,1534404994.302
1488900.0,1534404994.342
1488770.0,1534404994.382
1489163.0,1534404994.422
1489317.0,1534404994.462
1489591.0,1534404994.502
1489823.0,1534404994.542
1490031.0,1534404994.582
1490713.0,1534404994.622
1490881.0,1534404994.662
1491282.0,1534404994.702
1490604.0,1534404994.742
1489847.0,1534404994.782
1488938.0,1534404994.822
1488094.0,1534404994.862
1487370.0,1534404994.902
1487165.0,1534404994.942
1486813.0,1534404994.982
1486676.0,1534404995.062
1486710.0,1534404995.022
1486941.0,1534404995.142
1487113.0,1534404995.102
1487334.0,1534404995.182
1487485.0,1534404995.222
1487734.0,1534404995.262
1488182.0,1534404995.302
1488451.0,1534404995.342
1488979.0,1534404995.382
1489453.0,1534404995.422
1489431.0,1534404995.462
1489217.0,1534404995.502
1488607.0,1534404995.542
1487905.0,1534404995.582
1487249.0,1534404995.622
1486708.0,1534404995.662
1486484.0,1534404995.702
1486516.0,1534404995.742
1486566.0,1534404995.782
1486717.0,1534404995.822
1486996.0,1534404995.862
1487289.0,1534404995.902
1487563.0,1534404995.942
1487758.0,1534404995.982
1488253.0,1534404996.022
1488627.0,1534404996.062
1489054.0,1534404996.102
1489487.0,1534404996.142
1489819.0,1534404996.182
1489731.0,1534404996.222
1489328.0,1534404996.262
1488682.0,1534404996.302
1488184.0,1534404996.342
1488067.0,1534404996.382
1487928.0,1534404996.422
1487868.0,1534404996.462
1487924.0,1534404996.502
1488301.0,1534404996.542
1488508.0,1534404996.582
1488541.0,1534404996.622
1489037.0,1534404996.662
1489117.0,1534404996.702
1489635.0,1534404996.742
1489924.0,1534404996.782
1490480.0,1534404996.822
1490625.0,1534404996.862
1491276.0,1534404996.902
1491367.0,1534404996.942
1491389.0,1534404996.982
1490876.0,1534404997.022
1490738.0,1534404997.062
1490549.0,1534404997.102
1490829.0,1534404997.142
1490975.0,1534404997.182
1491226.0,1534404997.222
1491698.0,1534404997.262
1491760.0,1534404997.302
1491956.0,1534404997.342
1492538.0,1534404997.382
1492649.0,1534404997.422
1493180.0,1534404997.462
1493610.0,1534404997.502
1493908.0,1534404997.542
1494433.0,1534404997.582
1494824.0,1534404997.622
1494622.0,1534404997.662
1494503.0,1534404997.702
1493992.0,1534404997.742
1493676.0,1534404997.782
1493273.0,1534404997.822
1493395.0,1534404997.862
1493356.0,1534404997.902
1493389.0,1534404997.942
1493659.0,1534404997.982
1493592.0,1534404998.022
1494099.0,1534404998.062
1494224.0,1534404998.102
1494523.0,1534404998.142
1494829.0,1534404998.182
1495379.0,1534404998.222
1495545.0,1534404998.262
1495978.0,1534404998.302
1496201.0,1534404998.342
1495836.0,1534404998.382
1495134.0,1534404998.422
1494990.0,1534404998.462
1494592.0,1534404998.502
1494355.0,1534404998.542
1494169.0,1534404998.582
1494339.0,1534404998.622
1494502.0,1534404998.662
1494530.0,1534404998.702
1494579.0,1534404998.742
1494816.0,1534404998.782
1495234.0,1534404998.822
1495223.0,1534404998.862
1495451.0,1534404998.902
1495952.0,1534404998.942
1496105.0,1534404998.982
1496160.0,1534404999.022
1495450.0,1534404999.062
1495102.0,1534404999.102
1494822.0,1534404999.142
1494478.0,1534404999.182
1494132.0,1534404999.222
1493967.0,1534404999.262
1493768.0,1534404999.302
1493940.0,1534404999.342
1493751.0,1534404999.382
1493985.0,1534404999.422
1494050.0,1534404999.462
1494462.0,1534404999.502
1494341.0,1534404999.542
1494950.0,1534404999.582
1495069.0,1534404999.622
1494978.0,1534404999.662
1494428.0,1534404999.702
1494035.0,1534404999.742
1493377.0,1534404999.782
1493060.0,1534404999.822
1492803.0,1534404999.862
1492638.0,1534404999.902
1492614.0,1534404999.942
1492472.0,1534404999.982
1492526.0,1534405000.022
1492331.0,1534405000.062
1492431.0,1534405000.102
1492634.0,1534405000.142
1492958.0,1534405000.182
1493220.0,1534405000.222
1493419.0,1534405000.262
1493397.0,1534405000.302
1493038.0,1534405000.342
1492393.0,1534405000.382
1492004.0,1534405000.422
1491952.0,1534405000.462
1491780.0,1534405000.502
1491936.0,1534405000.542
1491864.0,1534405000.582
1492020.0,1534405000.622
1492115.0,1534405000.662
1492320.0,1534405000.702
1492792.0,1534405000.742
1493179.0,1534405000.782
1493080.0,1534405000.822
1493319.0,1534405000.862
1493383.0,1534405000.902
1492978.0,1534405000.942
1492387.0,1534405000.982
1491873.0,1534405001.022
1491312.0,1534405001.062
1490923.0,1534405001.102
1490373.0,1534405001.142
1490398.0,1534405001.182
1490517.0,1534405001.222
1490367.0,1534405001.262
1490410.0,1534405001.302
1490644.0,1534405001.342
1490590.0,1534405001.382
1490899.0,1534405001.422
1491117.0,1534405001.462
1491479.0,1534405001.502
1491664.0,1534405001.542
1491038.0,1534405001.582
1490312.0,1534405001.622
1489389.0,1534405001.662
1488944.0,1534405001.702
1488294.0,1534405001.742
1487980.0,1534405001.782
1488124.0,1534405001.822
1487782.0,1534405001.862
1487638.0,1534405001.902
1487919.0,1534405001.942
1488143.0,1534405001.982
1488267.0,1534405002.022
1488374.0,1534405002.062
1488812.0,1534405002.102
1489120.0,1534405002.142
1489203.0,1534405002.182
1488885.0,1534405002.222
1488305.0,1534405002.262
1487605.0,1534405002.302
1486947.0,1534405002.342
1486302.0,1534405002.382
1486197.0,1534405002.422
1486003.0,1534405002.462
1485981.0,1534405002.502
1485831.0,1534405002.542
1486042.0,1534405002.582
1486069.0,1534405002.622
1486290.0,1534405002.662
1486405.0,1534405002.702
1486743.0,1534405002.742
1487108.0,1534405002.782
1487407.0,1534405002.822
1487970.0,1534405002.862
1487802.0,1534405002.902
1487238.0,1534405002.942
1486587.0,1534405002.982
1486297.0,1534405003.022
1485657.0,1534405003.062
1485521.0,1534405003.102
1485478.0,1534405003.142
1485592.0,1534405003.182
1485424.0,1534405003.222
1485805.0,1534405003.262
1485918.0,1534405003.359
1485987.0,1534405003.399
1486487.0,1534405003.438
1486680.0,1534405003.479
1487009.0,1534405003.518
1487665.0,1534405003.558
1488066.0,1534405003.6
1488416.0,1534405003.638
1488178.0,1534405003.679
1487901.0,1534405003.72
1487430.0,1534405003.759
1487469.0,1534405003.799
1487392.0,1534405003.84
1487381.0,1534405003.879
1487514.0,1534405003.92
1487791.0,1534405003.961
1488026.0,1534405004.001
1488302.0,1534405004.039
1488446.0,1534405004.08
1488779.0,1534405004.11
1488779.0,1534405004.15
1489382.0,1534405004.192
1489771.0,1534405004.23
1490074.0,1534405004.27
1490588.0,1534405004.312
1491217.0,1534405004.351
1491062.0,1534405004.391
1490774.0,1534405004.432
1490129.0,1534405004.471
1490001.0,1534405004.511
1489368.0,1534405004.552
1489399.0,1534405004.592
1489270.0,1534405004.631
1489324.0,1534405004.672
1489480.0,1534405004.712
1489628.0,1534405004.752
1489910.0,1534405004.793
1490027.0,1534405004.833
1490526.0,1534405004.87
1490865.0,1534405004.905
1491382.0,1534405004.944
1491796.0,1534405004.982
1492264.0,1534405005.019
1492396.0,1534405005.058
1492496.0,1534405005.099
1492055.0,1534405005.141
1491697.0,1534405005.18
1491196.0,1534405005.22
1491130.0,1534405005.261
1491184.0,1534405005.3
1491167.0,1534405005.34
1491332.0,1534405005.382
1491509.0,1534405005.42
1491791.0,1534405005.46
1491959.0,1534405005.501
1492261.0,1534405005.54
1492376.0,1534405005.581
1492867.0,1534405005.621
1493121.0,1534405005.66
1493768.0,1534405005.701
1494011.0,1534405005.742
1494152.0,1534405005.781
1493772.0,1534405005.821
1493638.0,1534405005.86
1493173.0,1534405005.899
1492587.0,1534405005.939
1492797.0,1534405005.981
1492645.0,1534405006.02
1492809.0,1534405006.06
1492872.0,1534405006.101
1493013.0,1534405006.14
1493226.0,1534405006.181
1493558.0,1534405006.221
1493649.0,1534405006.257
1493922.0,1534405006.297
1494117.0,1534405006.339
1494705.0,1534405006.378
1494844.0,1534405006.418
1495120.0,1534405006.459
1495015.0,1534405006.498
1494522.0,1534405006.538
1494147.0,1534405006.58
1494018.0,1534405006.618
1494118.0,1534405006.658
1494027.0,1534405006.699
1494367.0,1534405006.738
1494292.0,1534405006.779
1494586.0,1534405006.819
1494729.0,1534405006.858
1495109.0,1534405006.898
1495320.0,1534405006.939
1495893.0,1534405006.98
1496018.0,1534405007.019
1496506.0,1534405007.06
1496888.0,1534405007.1
1496876.0,1534405007.14
1496572.0,1534405007.182
1496067.0,1534405007.22
1495758.0,1534405007.261
1495403.0,1534405007.302
1495116.0,1534405007.341
1495053.0,1534405007.382
1495048.0,1534405007.423
1495155.0,1534405007.46
1495218.0,1534405007.495
1495282.0,1534405007.536
1495399.0,1534405007.576
1495488.0,1534405007.615
1495758.0,1534405007.656
1496124.0,1534405007.695
1496488.0,1534405007.735
1496603.0,1534405007.777
1496439.0,1534405007.816
1496321.0,1534405007.856
1495601.0,1534405007.897
1494723.0,1534405007.936
1494394.0,1534405007.977
1493991.0,1534405008.017
1493934.0,1534405008.056
1493806.0,1534405008.096
1493708.0,1534405008.137
1493820.0,1534405008.177
1493674.0,1534405008.209
1493815.0,1534405008.244
1494191.0,1534405008.281
1494260.0,1534405008.321
1494450.0,1534405008.363
1494772.0,1534405008.402
1495002.0,1534405008.442
1494970.0,1534405008.483
1494490.0,1534405008.522
1493839.0,1534405008.563
1493146.0,1534405008.603
1492758.0,1534405008.642
1492288.0,1534405008.682
1491886.0,1534405008.723
1491888.0,1534405008.763
1491832.0,1534405008.802
1491959.0,1534405008.843
1491801.0,1534405008.883
1492034.0,1534405008.923
1492448.0,1534405008.964
1492559.0,1534405009.003
1492923.0,1534405009.043
1492960.0,1534405009.084
1493448.0,1534405009.123
1493448.0,1534405009.164
1493218.0,1534405009.204
1492462.0,1534405009.244
1491883.0,1534405009.282
1491241.0,1534405009.325
1490893.0,1534405009.362
1490679.0,1534405009.402
1490847.0,1534405009.443
1490677.0,1534405009.482
1490888.0,1534405009.523
1490765.0,1534405009.564
1491062.0,1534405009.603
1490927.0,1534405009.643
1491350.0,1534405009.684
1491370.0,1534405009.723
1491840.0,1534405009.761
1491907.0,1534405009.801
1492335.0,1534405009.84
1492376.0,1534405009.88
1492173.0,1534405009.921
1491512.0,1534405009.961
1490844.0,1534405010.001
1490545.0,1534405010.042
1490379.0,1534405010.081
1490320.0,1534405010.121
1490499.0,1534405010.163
1490395.0,1534405010.201
1490637.0,1534405010.241
1490665.0,1534405010.282
1491105.0,1534405010.321
1491184.0,1534405010.362
1491430.0,1534405010.402
1491842.0,1534405010.442
1492221.0,1534405010.482
1492674.0,1534405010.524
1492663.0,1534405010.564
1492372.0,1534405010.603
1492113.0,1534405010.644
1491543.0,1534405010.683
1491240.0,1534405010.723
1491205.0,1534405010.765
1491487.0,1534405010.804
1491437.0,1534405010.844
1491884.0,1534405010.885
1491817.0,1534405010.924
1492186.0,1534405010.965
1492548.0,1534405011.005
1492815.0,1534405011.044
1493281.0,1534405011.084
1493691.0,1534405011.125
1494133.0,1534405011.165
1494475.0,1534405011.204
1494513.0,1534405011.245
1493842.0,1534405011.285
1493427.0,1534405011.325
1493098.0,1534405011.366
1492605.0,1534405011.405
1492287.0,1534405011.445
1492418.0,1534405011.486
1492275.0,1534405011.526
1492712.0,1534405011.567
1492545.0,1534405011.606
1493012.0,1534405011.643
1493241.0,1534405011.683
1493613.0,1534405011.725
1493738.0,1534405011.765
1494221.0,1534405011.804
1494817.0,1534405011.845
1494991.0,1534405011.883
1494637.0,1534405011.924
1494389.0,1534405011.966
1493574.0,1534405012.004
1493183.0,1534405012.044
1492738.0,1534405012.085
1492437.0,1534405012.124
1492375.0,1534405012.164
1492485.0,1534405012.205
1492692.0,1534405012.244
1492866.0,1534405012.284
1493053.0,1534405012.325
1492984.0,1534405012.365
1493557.0,1534405012.404
1493810.0,1534405012.445
1494034.0,1534405012.484
1494487.0,1534405012.525
1494894.0,1534405012.566
1494799.0,1534405012.605
1494361.0,1534405012.645
1493977.0,1534405012.686
1493348.0,1534405012.725
1492901.0,1534405012.766
1492776.0,1534405012.807
1492631.0,1534405012.844
1492585.0,1534405012.884
1492714.0,1534405012.925
1492872.0,1534405012.965
1492984.0,1534405013.005
1493109.0,1534405013.046
1493660.0,1534405013.085
1493790.0,1534405013.126
1494326.0,1534405013.158
1494326.0,1534405013.196
1494612.0,1534405013.236
1495065.0,1534405013.277
1495170.0,1534405013.317
1494896.0,1534405013.357
1494531.0,1534405013.398
1493969.0,1534405013.437
1493542.0,1534405013.477
1493103.0,1534405013.518
1492970.0,1534405013.558
1493027.0,1534405013.597
1493181.0,1534405013.639
1493473.0,1534405013.678
1493612.0,1534405013.718
1494090.0,1534405013.76
1494001.0,1534405013.798
1494269.0,1534405013.838
1494568.0,1534405013.876
1495035.0,1534405013.915
1495238.0,1534405013.95
1495587.0,1534405013.987
1495787.0,1534405014.024
1495555.0,1534405014.064
1495069.0,1534405014.105
1494609.0,1534405014.145
1494298.0,1534405014.185
1494291.0,1534405014.225
1494183.0,1534405014.264
1494320.0,1534405014.304
1494287.0,1534405014.346
1494445.0,1534405014.384
1494675.0,1534405014.424
1494750.0,1534405014.465
1494911.0,1534405014.504
1495229.0,1534405014.545
1495820.0,1534405014.586
1496055.0,1534405014.625
1496297.0,1534405014.665
1496625.0,1534405014.706
1496408.0,1534405014.746
1496118.0,1534405014.785
1495489.0,1534405014.826
1495473.0,1534405014.865
1495366.0,1534405014.905
1495715.0,1534405014.947
1495789.0,1534405014.986
1495818.0,1534405015.026
1495972.0,1534405015.067
1496542.0,1534405015.104
1496662.0,1534405015.145
1497250.0,1534405015.185
1497334.0,1534405015.224
1497707.0,1534405015.265
1498373.0,1534405015.292
1498865.0,1534405015.332
1498965.0,1534405015.371
1498958.0,1534405015.412
1498581.0,1534405015.451
1498220.0,1534405015.491
1497921.0,1534405015.533
1497860.0,1534405015.571
1498099.0,1534405015.612
1498267.0,1534405015.653
1498625.0,1534405015.692
1498676.0,1534405015.733
1499080.0,1534405015.773
1499020.0,1534405015.812
1499429.0,1534405015.852
1499615.0,1534405015.893
1500130.0,1534405015.933
1500639.0,1534405015.973
1500619.0,1534405016.014
1500595.0,1534405016.054
1500162.0,1534405016.094
1499338.0,1534405016.136
1498920.0,1534405016.174
1498619.0,1534405016.214
1498189.0,1534405016.256
1498315.0,1534405016.295
1498438.0,1534405016.336
1498365.0,1534405016.374
1498339.0,1534405016.405
1498561.0,1534405016.445
1498621.0,1534405016.486
1499111.0,1534405016.526
1499197.0,1534405016.565
1499684.0,1534405016.606
1499792.0,1534405016.646
1499750.0,1534405016.686
1499078.0,1534405016.727
1498481.0,1534405016.766
1497631.0,1534405016.806
1497149.0,1534405016.847
1496682.0,1534405016.886
1496695.0,1534405016.927
1496479.0,1534405016.967
1496209.0,1534405017.006
1496346.0,1534405017.046
1496372.0,1534405017.088
1496557.0,1534405017.124
1496837.0,1534405017.157
1497135.0,1534405017.197
1497171.0,1534405017.236
1497502.0,1534405017.276
1497386.0,1534405017.318
1496979.0,1534405017.357
1496093.0,1534405017.397
1495138.0,1534405017.438
1494481.0,1534405017.478
1494030.0,1534405017.517
1493969.0,1534405017.557
1493592.0,1534405017.596
1493613.0,1534405017.637
1493461.0,1534405017.678
1493566.0,1534405017.718
1493752.0,1534405017.757
1494041.0,1534405017.798
1494206.0,1534405017.838
1494398.0,1534405017.878
1494444.0,1534405017.919
1494754.0,1534405017.958
1494723.0,1534405017.998
1494003.0,1534405018.039
1493137.0,1534405018.078
1492777.0,1534405018.119
1492034.0,1534405018.159
1491518.0,1534405018.198
1491449.0,1534405018.238
1491041.0,1534405018.279
1491174.0,1534405018.319
1491074.0,1534405018.358
1491292.0,1534405018.4
1491231.0,1534405018.439
1491267.0,1534405018.48
1491537.0,1534405018.52
1491838.0,1534405018.556
1492108.0,1534405018.597
1492425.0,1534405018.638
1492457.0,1534405018.677
1491924.0,1534405018.718
1491153.0,1534405018.759
1490780.0,1534405018.798
1490114.0,1534405018.838
1489929.0,1534405018.879
1489639.0,1534405018.917
1489849.0,1534405018.95
1489849.0,1534405018.991
1489677.0,1534405019.03
1489945.0,1534405019.07
1490005.0,1534405019.15
1490337.0,1534405019.232
1489906.0,1534405019.19
1489679.0,1534405019.112
1490430.0,1534405019.271
1491081.0,1534405019.311
1491075.0,1534405019.352
1491045.0,1534405019.391
1490523.0,1534405019.431
1489961.0,1534405019.472
1489771.0,1534405019.512
1489455.0,1534405019.551
1489830.0,1534405019.592
1489751.0,1534405019.631
1490010.0,1534405019.71
1490473.0,1534405019.742
1489811.0,1534405019.671
1490620.0,1534405019.776
1491498.0,1534405019.857
1492044.0,1534405019.897
1491267.0,1534405019.817
1492272.0,1534405019.937
1492671.0,1534405019.976
1492437.0,1534405020.017
1492195.0,1534405020.058
1490944.0,1534405020.137
1491503.0,1534405020.098
1490559.0,1534405020.174
1490407.0,1534405020.213
1490498.0,1534405020.253
1490497.0,1534405020.295
1490285.0,1534405020.333
1490812.0,1534405020.374
1490954.0,1534405020.415
1491196.0,1534405020.454
1491969.0,1534405020.535
1492588.0,1534405020.614
1491750.0,1534405020.494
1492524.0,1534405020.655
1492281.0,1534405020.574
1491995.0,1534405020.695
1490652.0,1534405020.775
1491233.0,1534405020.734
1489647.0,1534405020.855
1489692.0,1534405020.896
1489575.0,1534405020.975
1490182.0,1534405020.815
1489591.0,1534405021.016
1489852.0,1534405021.055
1489415.0,1534405020.935
1490300.0,1534405021.136
1490205.0,1534405021.096
1490708.0,1534405021.175
1491162.0,1534405021.215
1491406.0,1534405021.258
1491787.0,1534405021.298
1490869.0,1534405021.378
1491639.0,1534405021.338
1490289.0,1534405021.412
1489779.0,1534405021.452
1489230.0,1534405021.494
1488672.0,1534405021.532
1488662.0,1534405021.572
1488668.0,1534405021.613
1488869.0,1534405021.652
1488798.0,1534405021.693
1489141.0,1534405021.734
1489276.0,1534405021.773
1489528.0,1534405021.813
1489697.0,1534405021.854
1490101.0,1534405021.894
1490329.0,1534405021.933
1490790.0,1534405021.974
1490524.0,1534405022.013
1489972.0,1534405022.053
1489358.0,1534405022.095
1488898.0,1534405022.133
1488515.0,1534405022.174
1488378.0,1534405022.216
1488132.0,1534405022.255
1488524.0,1534405022.296
1488333.0,1534405022.336
1488791.0,1534405022.376
1488857.0,1534405022.416
1489036.0,1534405022.458
1489202.0,1534405022.498
1489685.0,1534405022.538
1489989.0,1534405022.579
1490362.0,1534405022.618
1490182.0,1534405022.658
1489687.0,1534405022.7
1489000.0,1534405022.738
1488647.0,1534405022.778
1488483.0,1534405022.819
1488642.0,1534405022.858
1488828.0,1534405022.899
1489014.0,1534405022.939
1489117.0,1534405022.978
1489259.0,1534405023.018
1489717.0,1534405023.06
1490125.0,1534405023.099
1490434.0,1534405023.139
1491696.0,1534405023.219
1491092.0,1534405023.18
1491842.0,1534405023.259
1492063.0,1534405023.301
1491745.0,1534405023.339
1491271.0,1534405023.379
1490669.0,1534405023.421
1490682.0,1534405023.46
1490772.0,1534405023.501
1490586.0,1534405023.539
1490949.0,1534405023.579
1490901.0,1534405023.619
1491051.0,1534405023.66
1491502.0,1534405023.691
1491745.0,1534405023.73
1492281.0,1534405023.771
1492332.0,1534405023.81
1493003.0,1534405023.85
1493593.0,1534405023.892
1493365.0,1534405023.931
1493219.0,1534405023.971
1492425.0,1534405024.012
1492075.0,1534405024.051
1491567.0,1534405024.092
1491661.0,1534405024.132
1491462.0,1534405024.171
1491555.0,1534405024.211
1491742.0,1534405024.252
1491891.0,1534405024.292
1492385.0,1534405024.331
1492464.0,1534405024.372
1492878.0,1534405024.407
1493281.0,1534405024.443
1493781.0,1534405024.483
1494372.0,1534405024.52
1494325.0,1534405024.56
1494388.0,1534405024.601
1494298.0,1534405024.641
1494487.0,1534405024.681
1494797.0,1534405024.721
1495097.0,1534405024.758
1496050.0,1534405024.798
1496915.0,1534405024.839
1497749.0,1534405024.88
1498908.0,1534405024.92
1499345.0,1534405024.961
1499764.0,1534405024.993
1499764.0,1534405025.033
1500024.0,1534405025.075
1499775.0,1534405025.114
1499577.0,1534405025.154
1498971.0,1534405025.195
1498681.0,1534405025.234
1498274.0,1534405025.275
1497481.0,1534405025.315
1496394.0,1534405025.354
1495663.0,1534405025.394
1495085.0,1534405025.436
1495081.0,1534405025.475
1495030.0,1534405025.515
1495345.0,1534405025.556
1495553.0,1534405025.595
1495609.0,1534405025.635
1495737.0,1534405025.677
1496291.0,1534405025.713
1496555.0,1534405025.754
1497034.0,1534405025.79
1497560.0,1534405025.83
1498038.0,1534405025.861
1497990.0,1534405025.901
1498159.0,1534405025.94
1497693.0,1534405025.981
1497349.0,1534405026.022
1497009.0,1534405026.062
1497045.0,1534405026.099
1496790.0,1534405026.14
1496855.0,1534405026.18
1496751.0,1534405026.22
1496852.0,1534405026.261
1497401.0,1534405026.3
1497622.0,1534405026.34
1497616.0,1534405026.381
1497597.0,1534405026.42
1498152.0,1534405026.461
1498484.0,1534405026.501
1498425.0,1534405026.54
1498457.0,1534405026.58
1497985.0,1534405026.621
1497273.0,1534405026.661
1497011.0,1534405026.7
1496594.0,1534405026.741
1496718.0,1534405026.78
1496780.0,1534405026.821
1496719.0,1534405026.862
1496890.0,1534405026.901
1497217.0,1534405026.941
1497653.0,1534405026.983
1497825.0,1534405027.022
1498309.0,1534405027.063
1498582.0,1534405027.102
1498907.0,1534405027.182
1498504.0,1534405027.142
1498526.0,1534405027.221
1498183.0,1534405027.26
1497695.0,1534405027.299
1497781.0,1534405027.338
1497768.0,1534405027.377
1497912.0,1534405027.416
1497873.0,1534405027.455
1498189.0,1534405027.494
1498302.0,1534405027.533
1498443.0,1534405027.572
1498734.0,1534405027.611
1499067.0,1534405027.65
1498992.0,1534405027.689
1499484.0,1534405027.728
1499453.0,1534405027.767
1499188.0,1534405027.806
1498781.0,1534405027.845
1498296.0,1534405027.884
1498216.0,1534405027.923
1497984.0,1534405027.962
1498313.0,1534405028.001
1498232.0,1534405028.04
1498154.0,1534405028.079
1498547.0,1534405028.118
1498636.0,1534405028.157
1499034.0,1534405028.196
1499301.0,1534405028.235
1499762.0,1534405028.274
1499652.0,1534405028.313
1499576.0,1534405028.352
1499288.0,1534405028.391
1499215.0,1534405028.43
1499207.0,1534405028.469
1499150.0,1534405028.508
1499508.0,1534405028.547
1499546.0,1534405028.586
1499807.0,1534405028.625
1500058.0,1534405028.664
1500456.0,1534405028.703
1500780.0,1534405028.742
1501159.0,1534405028.781
1501711.0,1534405028.82
1501898.0,1534405028.859
1501522.0,1534405028.898
1501023.0,1534405028.937
1500841.0,1534405028.976
1500392.0,1534405029.015
1500360.0,1534405029.054
1500092.0,1534405029.093
1500458.0,1534405029.132
1500175.0,1534405029.171
1500746.0,1534405029.21
1500641.0,1534405029.249
1500916.0,1534405029.288
1500937.0,1534405029.327
1501896.0,1534405029.366
1501840.0,1534405029.405
1501993.0,1534405029.444
1501961.0,1534405029.483
1501670.0,1534405029.522
1501193.0,1534405029.561
1501282.0,1534405029.6
1501220.0,1534405029.639
1501220.0,1534405029.678
1502104.0,1534405029.717
1502397.0,1534405029.756
1502883.0,1534405029.795
1503391.0,1534405029.834
1504061.0,1534405029.873
1504280.0,1534405029.912
1504892.0,1534405029.951
1505517.0,1534405029.99
1505959.0,1534405030.029
1505756.0,1534405030.068
1505278.0,1534405030.107
1504690.0,1534405030.146
1504512.0,1534405030.185
1504255.0,1534405030.224
1504009.0,1534405030.263
1504634.0,1534405030.302
1504642.0,1534405030.341
1504763.0,1534405030.38
1505131.0,1534405030.419
1505393.0,1534405030.458
1505549.0,1534405030.497
1505966.0,1534405030.536
1505971.0,1534405030.575
1506136.0,1534405030.614
1506087.0,1534405030.653
1506430.0,1534405030.692
1505968.0,1534405030.731
1505180.0,1534405030.77
1504148.0,1534405030.809
1503324.0,1534405030.848
1502807.0,1534405030.887
1502077.0,1534405030.926
1501996.0,1534405030.965
1501476.0,1534405031.004
1501607.0,1534405031.043
1501576.0,1534405031.082
1502272.0,1534405031.121
1502951.0,1534405031.16
1503393.0,1534405031.199
1504061.0,1534405031.238
1504475.0,1534405031.277
1505076.0,1534405031.316
1505381.0,1534405031.355
1505137.0,1534405031.394
1504850.0,1534405031.433
1504122.0,1534405031.472
1503941.0,1534405031.511
1503576.0,1534405031.55
1503511.0,1534405031.589
1503347.0,1534405031.628
1503849.0,1534405031.667
1503788.0,1534405031.706
1503974.0,1534405031.745
1504341.0,1534405031.784
1504403.0,1534405031.823
1504736.0,1534405031.862
1504912.0,1534405031.901
1505441.0,1534405031.94
1505679.0,1534405031.979
1506238.0,1534405032.018
1506336.0,1534405032.057
1506390.0,1534405032.096
1506068.0,1534405032.135
1505842.0,1534405032.175
1505812.0,1534405032.215
1505930.0,1534405032.255
1505877.0,1534405032.295
1505963.0,1534405032.335
1506156.0,1534405032.375
1506581.0,1534405032.415
1506889.0,1534405032.455
1507213.0,1534405032.495
1507714.0,1534405032.535
1507949.0,1534405032.575
1508456.0,1534405032.615
1508832.0,1534405032.655
1509117.0,1534405032.695
1509152.0,1534405032.735
1508964.0,1534405032.775
1508769.0,1534405032.815
1508702.0,1534405032.855
1508744.0,1534405032.895
1508922.0,1534405032.935
1509064.0,1534405032.975
1509329.0,1534405033.015
1509537.0,1534405033.055
1509807.0,1534405033.095
1510253.0,1534405033.135
1510553.0,1534405033.175
1510864.0,1534405033.215
1511401.0,1534405033.255
1512126.0,1534405033.295
1512398.0,1534405033.335
1512754.0,1534405033.375
1512508.0,1534405033.415
1512420.0,1534405033.455
1512438.0,1534405033.495
1512228.0,1534405033.535
1512186.0,1534405033.575
1512357.0,1534405033.615
1512573.0,1534405033.655
1512772.0,1534405033.695
1513061.0,1534405033.735
1513117.0,1534405033.775
1513151.0,1534405033.815
1513375.0,1534405033.855
1513955.0,1534405033.895
1513892.0,1534405033.935
1514408.0,1534405033.975
1514489.0,1534405034.015
1514311.0,1534405034.055
1514118.0,1534405034.095
1513627.0,1534405034.135
1513090.0,1534405034.175
1512911.0,1534405034.215
1512850.0,1534405034.255
1512769.0,1534405034.295
1512813.0,1534405034.335
1512998.0,1534405034.375
1513017.0,1534405034.415
1513096.0,1534405034.455
1513323.0,1534405034.495
1513612.0,1534405034.535
1513736.0,1534405034.575
1514150.0,1534405034.615
1514281.0,1534405034.655
1514236.0,1534405034.695
1513953.0,1534405034.735
1513549.0,1534405034.775
1512986.0,1534405034.815
1512553.0,1534405034.855
1512499.0,1534405034.895
1512232.0,1534405034.935
1512116.0,1534405034.975
1512086.0,1534405035.015
1512296.0,1534405035.055
1512228.0,1534405035.095
1512214.0,1534405035.135
1512701.0,1534405035.175
1512678.0,1534405035.215
1512844.0,1534405035.255
1513029.0,1534405035.295
1513598.0,1534405035.335
1513087.0,1534405035.375
1512980.0,1534405035.415
1512214.0,1534405035.455
1511827.0,1534405035.495
1511494.0,1534405035.535
1511345.0,1534405035.575
1511489.0,1534405035.615
1511597.0,1534405035.655
1511598.0,1534405035.695
1511478.0,1534405035.735
1511678.0,1534405035.775
1511759.0,1534405035.815
1511887.0,1534405035.855
1511809.0,1534405035.895
1512287.0,1534405035.935
1512348.0,1534405035.975
1512649.0,1534405036.015
1512478.0,1534405036.055
1512131.0,1534405036.095
1511575.0,1534405036.135
1511349.0,1534405036.175
1511349.0,1534405036.215
1511199.0,1534405036.255
1511012.0,1534405036.295
1511058.0,1534405036.335
1511002.0,1534405036.375
1511202.0,1534405036.415
1511459.0,1534405036.455
1511665.0,1534405036.495
1511927.0,1534405036.535
1511972.0,1534405036.575
1512657.0,1534405036.615
1513038.0,1534405036.655
1513221.0,1534405036.695
1513001.0,1534405036.735
1512950.0,1534405036.775
1512450.0,1534405036.815
1512366.0,1534405036.855
1512061.0,1534405036.895
1512062.0,1534405036.935
1511910.0,1534405036.975
1511944.0,1534405037.015
1511904.0,1534405037.055
1511981.0,1534405037.095
1512054.0,1534405037.135
1512159.0,1534405037.175
1512174.0,1534405037.215
1512578.0,1534405037.255
1512765.0,1534405037.295
1512854.0,1534405037.335
1512440.0,1534405037.375
1512133.0,1534405037.415
1511560.0,1534405037.455
1510874.0,1534405037.495
1510369.0,1534405037.535
1509876.0,1534405037.575
1509840.0,1534405037.615
1509529.0,1534405037.655
1509419.0,1534405037.695
1509366.0,1534405037.735
1509642.0,1534405037.775
1509238.0,1534405037.815
1509533.0,1534405037.855
1509612.0,1534405037.895
1509739.0,1534405037.935
1509765.0,1534405037.975
1509412.0,1534405038.015
1508580.0,1534405038.055
1508070.0,1534405038.095
1507065.0,1534405038.135
1506681.0,1534405038.175
1506292.0,1534405038.215
1506224.0,1534405038.255
1505970.0,1534405038.295
1505910.0,1534405038.335
1505819.0,1534405038.375
1505932.0,1534405038.415
1505952.0,1534405038.455
1506088.0,1534405038.495
1506361.0,1534405038.535
1506698.0,1534405038.575
1506211.0,1534405038.615
1505748.0,1534405038.655
1504991.0,1534405038.695
1504277.0,1534405038.735
1503760.0,1534405038.775
1503246.0,1534405038.815
1502873.0,1534405038.855
1502971.0,1534405038.895
1502884.0,1534405038.935
1502580.0,1534405038.975
1502959.0,1534405039.015
1502608.0,1534405039.055
1502977.0,1534405039.095
1502917.0,1534405039.135
1503210.0,1534405039.175
1503175.0,1534405039.215
1502896.0,1534405039.255
1502065.0,1534405039.295
1501189.0,1534405039.335
1500802.0,1534405039.375
1500187.0,1534405039.415
1500044.0,1534405039.455
1499771.0,1534405039.495
1499775.0,1534405039.535
1499571.0,1534405039.575
1499590.0,1534405039.615
1499837.0,1534405039.655
1499803.0,1534405039.695
1500068.0,1534405039.735
1500616.0,1534405039.775
1500652.0,1534405039.815
1500300.0,1534405039.855
1499638.0,1534405039.895
1498939.0,1534405039.935
1498488.0,1534405039.975
1498083.0,1534405040.015
1498160.0,1534405040.055
1497974.0,1534405040.095
1497949.0,1534405040.135
1498120.0,1534405040.175
1498517.0,1534405040.215
1498608.0,1534405040.255
1498819.0,1534405040.295
1499289.0,1534405040.335
1499821.0,1534405040.375
1499816.0,1534405040.415
1499805.0,1534405040.455
1499013.0,1534405040.495
1498530.0,1534405040.535
1498049.0,1534405040.575
1497811.0,1534405040.615
1497544.0,1534405040.655
1497616.0,1534405040.695
1497473.0,1534405040.735
1497392.0,1534405040.775
1497642.0,1534405040.815
1497837.0,1534405040.855
1498109.0,1534405040.895
1498304.0,1534405040.935
1498663.0,1534405040.975
1498932.0,1534405041.015
1498711.0,1534405041.055
1497866.0,1534405041.095
1497003.0,1534405041.135
1496173.0,1534405041.175
1495577.0,1534405041.215
1495025.0,1534405041.255
1494795.0,1534405041.295
1494868.0,1534405041.335
1494945.0,1534405041.375
1494734.0,1534405041.415
1495148.0,1534405041.455
1495435.0,1534405041.495
1495575.0,1534405041.535
1496134.0,1534405041.575
1496374.0,1534405041.615
1496533.0,1534405041.655
1496670.0,1534405041.695
1496016.0,1534405041.735
1495098.0,1534405041.775
1494398.0,1534405041.815
1493617.0,1534405041.855
1493664.0,1534405041.895
1493443.0,1534405041.935
1493680.0,1534405041.975
1493578.0,1534405042.015
1493919.0,1534405042.055
1493966.0,1534405042.095
1494078.0,1534405042.135
1494616.0,1534405042.175
1494866.0,1534405042.215
1495265.0,1534405042.255
1495936.0,1534405042.295
1496449.0,1534405042.335
1496569.0,1534405042.375
1496329.0,1534405042.415
1495869.0,1534405042.455
1494996.0,1534405042.495
1494513.0,1534405042.535
1494150.0,1534405042.575
1494469.0,1534405042.615
1494567.0,1534405042.655
1494710.0,1534405042.695
1495282.0,1534405042.775
1494821.0,1534405042.735
1495701.0,1534405042.815
1495938.0,1534405042.855
1496247.0,1534405042.895
1496929.0,1534405042.935
1497241.0,1534405042.975
1497926.0,1534405043.015
1498403.0,1534405043.055
1498847.0,1534405043.095
1498867.0,1534405043.135
1498258.0,1534405043.175
1498040.0,1534405043.215
1497699.0,1534405043.255
1497478.0,1534405043.295
1497552.0,1534405043.335
1497450.0,1534405043.375
1497722.0,1534405043.415
1498290.0,1534405043.455
1498334.0,1534405043.495
1498449.0,1534405043.535
1498847.0,1534405043.575
1499438.0,1534405043.615
1499932.0,1534405043.655
1500420.0,1534405043.695
1500897.0,1534405043.735
1501401.0,1534405043.775
1501401.0,1534405043.815
1501817.0,1534405043.855
1502219.0,1534405043.895
1501845.0,1534405043.935
1501869.0,1534405043.975
1501391.0,1534405044.015
1501313.0,1534405044.055
1501298.0,1534405044.095
1501609.0,1534405044.135
1501588.0,1534405044.175
1501851.0,1534405044.215
1502142.0,1534405044.255
1502606.0,1534405044.295
1502621.0,1534405044.335
1503097.0,1534405044.375
1503455.0,1534405044.415
1503794.0,1534405044.455
1504051.0,1534405044.495
1504835.0,1534405044.535
1504923.0,1534405044.575
1505025.0,1534405044.615
1505099.0,1534405044.655
1504908.0,1534405044.695
1504501.0,1534405044.735
1504380.0,1534405044.775
1504497.0,1534405044.815
1504362.0,1534405044.855
1504763.0,1534405044.895
1504913.0,1534405044.935
1505004.0,1534405044.975
1505201.0,1534405045.015
1506115.0,1534405045.095
1505684.0,1534405045.055
1507185.0,1534405045.215
1506929.0,1534405045.175
1507480.0,1534405045.255
1507911.0,1534405045.295
1506592.0,1534405045.135
1508058.0,1534405045.335
1507957.0,1534405045.375
1507573.0,1534405045.415
1507493.0,1534405045.455
1507559.0,1534405045.495
1507402.0,1534405045.535
1507806.0,1534405045.575
1507899.0,1534405045.615
1508140.0,1534405045.655
1508296.0,1534405045.695
1508660.0,1534405045.735
1509125.0,1534405045.775
1509365.0,1534405045.815
1509587.0,1534405045.855
1510161.0,1534405045.895
1510568.0,1534405045.935
1510915.0,1534405046.015
1510874.0,1534405045.975
1510127.0,1534405046.095
1510789.0,1534405046.055
1509190.0,1534405046.175
1508940.0,1534405046.215
1509859.0,1534405046.135
1508835.0,1534405046.295
1508832.0,1534405046.255
1508805.0,1534405046.335
1508734.0,1534405046.375
1508836.0,1534405046.455
1508794.0,1534405046.415
1509396.0,1534405046.535
1508930.0,1534405046.495
1509492.0,1534405046.575
1509821.0,1534405046.615
1510138.0,1534405046.655
1510131.0,1534405046.695
1509736.0,1534405046.735
1509047.0,1534405046.775
1508340.0,1534405046.815
1507808.0,1534405046.855
1507210.0,1534405046.895
1506758.0,1534405046.935
1506575.0,1534405046.975
1506620.0,1534405047.015
1506450.0,1534405047.055
1506609.0,1534405047.095
1506428.0,1534405047.135
1506690.0,1534405047.175
1506887.0,1534405047.215
1507185.0,1534405047.255
1507162.0,1534405047.295
1507559.0,1534405047.335
1507033.0,1534405047.375
1506598.0,1534405047.415
1505913.0,1534405047.455
1505218.0,1534405047.495
1504726.0,1534405047.535
1503987.0,1534405047.575
1503935.0,1534405047.615
1503481.0,1534405047.655
1503474.0,1534405047.695
1503461.0,1534405047.735
1503319.0,1534405047.775
1503306.0,1534405047.815
1503591.0,1534405047.855
1503605.0,1534405047.895
1504190.0,1534405047.935
1504330.0,1534405047.975
1504061.0,1534405048.015
1503221.0,1534405048.055
1502593.0,1534405048.095
1501650.0,1534405048.135
1501152.0,1534405048.175
1500786.0,1534405048.215
1500327.0,1534405048.255
1499963.0,1534405048.295
1500002.0,1534405048.335
1499942.0,1534405048.375
1499933.0,1534405048.415
1499771.0,1534405048.455
1500085.0,1534405048.495
1500175.0,1534405048.535
1500350.0,1534405048.575
1500838.0,1534405048.615
1500869.0,1534405048.655
1500301.0,1534405048.695
1499604.0,1534405048.735
1498704.0,1534405048.775
1498133.0,1534405048.815
1497466.0,1534405048.855
1497166.0,1534405048.895
1497052.0,1534405048.935
1496568.0,1534405048.975
1496642.0,1534405049.015
1496421.0,1534405049.055
1496883.0,1534405049.095
1496697.0,1534405049.135
1496919.0,1534405049.175
1497020.0,1534405049.215
1497430.0,1534405049.255
1497441.0,1534405049.295
1497686.0,1534405049.335
1497072.0,1534405049.375
1496381.0,1534405049.415
1495396.0,1534405049.455
1494854.0,1534405049.495
1494543.0,1534405049.535
1494309.0,1534405049.575
1494206.0,1534405049.615
1494161.0,1534405049.655
1494313.0,1534405049.695
1494328.0,1534405049.735
1494303.0,1534405049.775
1494675.0,1534405049.815
1494864.0,1534405049.855
1494864.0,1534405049.895
1495079.0,1534405049.935
1495539.0,1534405049.975
1495712.0,1534405050.015
1495244.0,1534405050.055
1494682.0,1534405050.095
1493958.0,1534405050.135
1493519.0,1534405050.175
1493262.0,1534405050.215
1493363.0,1534405050.255
1493225.0,1534405050.295
1493336.0,1534405050.335
1493506.0,1534405050.375
1494186.0,1534405050.415
1494057.0,1534405050.455
1494710.0,1534405050.495
1494761.0,1534405050.535
1495439.0,1534405050.575
1495665.0,1534405050.615
1496173.0,1534405050.655
1495887.0,1534405050.696
1495541.0,1534405050.737
1494773.0,1534405050.778
1494751.0,1534405050.819
1494813.0,1534405050.86
1494846.0,1534405050.901
1495053.0,1534405050.942
1495177.0,1534405050.983
1495509.0,1534405051.024
1495665.0,1534405051.065
1495986.0,1534405051.084
1496227.0,1534405051.124
1496953.0,1534405051.163
1497085.0,1534405051.204
1497643.0,1534405051.243
1497991.0,1534405051.284
1497657.0,1534405051.325
1496997.0,1534405051.364
1496185.0,1534405051.404
1495618.0,1534405051.445
1495444.0,1534405051.484
1495289.0,1534405051.525
1495004.0,1534405051.565
1495168.0,1534405051.604
1495104.0,1534405051.644
1495320.0,1534405051.686
1495529.0,1534405051.725
1495859.0,1534405051.765
1496396.0,1534405051.807
1496593.0,1534405051.846
1497151.0,1534405051.887
1497206.0,1534405051.929
1496837.0,1534405051.967
1496087.0,1534405052.008
1495259.0,1534405052.048
1494650.0,1534405052.087
1494242.0,1534405052.128
1493865.0,1534405052.169
1493644.0,1534405052.208
1493909.0,1534405052.248
1493585.0,1534405052.29
1493853.0,1534405052.318
1493895.0,1534405052.358
1494161.0,1534405052.399
1494715.0,1534405052.438
1494860.0,1534405052.478
1495207.0,1534405052.52
1495587.0,1534405052.558
1495769.0,1534405052.598
1495072.0,1534405052.639
1494269.0,1534405052.679
1493672.0,1534405052.719
1492929.0,1534405052.76
1492459.0,1534405052.799
1492151.0,1534405052.839
1492150.0,1534405052.88
1492220.0,1534405052.92
1492093.0,1534405052.959
1492316.0,1534405053.0
1492860.0,1534405053.034
1492891.0,1534405053.07
1493282.0,1534405053.109
1493601.0,1534405053.148
1493769.0,1534405053.188
1494139.0,1534405053.229
1494530.0,1534405053.269
1494318.0,1534405053.309
1493855.0,1534405053.35
1492938.0,1534405053.389
1492133.0,1534405053.43
1491473.0,1534405053.469
1491288.0,1534405053.509
1491026.0,1534405053.549
1491222.0,1534405053.59
1490895.0,1534405053.629
1490971.0,1534405053.669
1491279.0,1534405053.711
1491220.0,1534405053.749
1491628.0,1534405053.79
1491936.0,1534405053.831
1492154.0,1534405053.87
1492401.0,1534405053.91
1492833.0,1534405053.951
1493123.0,1534405053.99
1493141.0,1534405054.03
1492550.0,1534405054.071
1491713.0,1534405054.111
1490786.0,1534405054.15
1490525.0,1534405054.191
1490109.0,1534405054.23
1490216.0,1534405054.268
1489830.0,1534405054.31
1489919.0,1534405054.349
1489975.0,1534405054.389
1490319.0,1534405054.43
1490472.0,1534405054.469
1490808.0,1534405054.51
1490877.0,1534405054.551
1490985.0,1534405054.59
1491425.0,1534405054.631
1491729.0,1534405054.672
1491842.0,1534405054.712
1491562.0,1534405054.751
1491011.0,1534405054.792
1490378.0,1534405054.831
1489998.0,1534405054.871
1489397.0,1534405054.913
1489391.0,1534405054.951
1489551.0,1534405054.991
1489457.0,1534405055.032
1489523.0,1534405055.072
1489441.0,1534405055.112
1489741.0,1534405055.153
1490062.0,1534405055.192
1490333.0,1534405055.232
1490658.0,1534405055.273
1490939.0,1534405055.312
1491490.0,1534405055.349
1491839.0,1534405055.39
1491853.0,1534405055.429
1491675.0,1534405055.469
1491036.0,1534405055.511
1490885.0,1534405055.549
1490607.0,1534405055.589
1490385.0,1534405055.631
1490232.0,1534405055.67
1490550.0,1534405055.703
1490660.0,1534405055.744
1490839.0,1534405055.783
1491188.0,1534405055.823
1491512.0,1534405055.864
1491663.0,1534405055.904
1492221.0,1534405055.943
1492586.0,1534405055.984
1493121.0,1534405056.023
1493502.0,1534405056.063
1493917.0,1534405056.105
1493958.0,1534405056.144
1493012.0,1534405056.184
1492563.0,1534405056.225
1491613.0,1534405056.264
1491220.0,1534405056.305
1491223.0,1534405056.345
1490761.0,1534405056.384
1490909.0,1534405056.418
1490784.0,1534405056.453
1490923.0,1534405056.491
1491595.0,1534405056.611
1492490.0,1534405056.732
1491809.0,1534405056.652
1492235.0,1534405056.693
1491262.0,1534405056.572
1491159.0,1534405056.531
1493105.0,1534405056.772
1493181.0,1534405056.813
1492767.0,1534405056.852
1491979.0,1534405056.893
1491104.0,1534405056.933
1490297.0,1534405056.973
1489378.0,1534405057.054
1489840.0,1534405057.013
1489089.0,1534405057.133
1489247.0,1534405057.093
1488900.0,1534405057.174
1488997.0,1534405057.213
1489101.0,1534405057.253
1489375.0,1534405057.295
1489718.0,1534405057.333
1490361.0,1534405057.414
1491085.0,1534405057.494
1491038.0,1534405057.532
1490583.0,1534405057.571
1490681.0,1534405057.453
1489931.0,1534405057.373
1489746.0,1534405057.612
1488722.0,1534405057.653
1487582.0,1534405057.732
1488068.0,1534405057.693
1487160.0,1534405057.813
1487070.0,1534405057.853
1487118.0,1534405057.893
1487301.0,1534405057.931
1487301.0,1534405057.966
1487219.0,1534405058.007
1487375.0,1534405057.773
1487401.0,1534405058.046
1487668.0,1534405058.087
1488198.0,1534405058.127
1488698.0,1534405058.206
1488316.0,1534405058.166
1489203.0,1534405058.248
1488906.0,1534405058.287
1488503.0,1534405058.327
1487638.0,1534405058.368
1486763.0,1534405058.407
1486117.0,1534405058.447
1485704.0,1534405058.489
1485259.0,1534405058.527
1485234.0,1534405058.567
1485230.0,1534405058.608
1485116.0,1534405058.646
1485273.0,1534405058.685
1485472.0,1534405058.718
1485556.0,1534405058.757
1485708.0,1534405058.794
1486162.0,1534405058.832
1486365.0,1534405058.872
1486659.0,1534405058.911
1486835.0,1534405058.952
1486729.0,1534405058.991
1485624.0,1534405059.031
1484869.0,1534405059.073
1483595.0,1534405059.112
1483562.0,1534405059.152
1483035.0,1534405059.186
1482871.0,1534405059.225
1482818.0,1534405059.266
1482638.0,1534405059.306
1482903.0,1534405059.345
1482895.0,1534405059.386
1482773.0,1534405059.427
1482974.0,1534405059.466
1483305.0,1534405059.506
1483360.0,1534405059.547
1483619.0,1534405059.586
1484021.0,1534405059.626
1483962.0,1534405059.668
1483302.0,1534405059.706
1482588.0,1534405059.746
1481790.0,1534405059.787
1481095.0,1534405059.826
1480755.0,1534405059.867
1480678.0,1534405059.908
1480771.0,1534405059.946
1480812.0,1534405059.981
1481024.0,1534405060.015
1481527.0,1534405060.053
1481372.0,1534405060.093
1481735.0,1534405060.134
1482209.0,1534405060.173
1482464.0,1534405060.214
1482589.0,1534405060.256
1483066.0,1534405060.294
1483043.0,1534405060.334
1482378.0,1534405060.374
1481517.0,1534405060.408
1481517.0,1534405060.449
1480941.0,1534405060.49
1480131.0,1534405060.529
1479672.0,1534405060.569
1479475.0,1534405060.61
1479197.0,1534405060.65
1479071.0,1534405060.689
1479172.0,1534405060.73
1479153.0,1534405060.769
1479717.0,1534405060.809
1479940.0,1534405060.851
1480424.0,1534405060.889
1480758.0,1534405060.93
1481323.0,1534405060.971
1481624.0,1534405061.01
1481796.0,1534405061.051
1481015.0,1534405061.091
1480198.0,1534405061.13
1479257.0,1534405061.17
1478508.0,1534405061.211
1478132.0,1534405061.249
1478074.0,1534405061.287
1477832.0,1534405061.328
1477808.0,1534405061.364
1477809.0,1534405061.396
1478095.0,1534405061.437
1478432.0,1534405061.475
1478582.0,1534405061.512
1479062.0,1534405061.554
1479188.0,1534405061.593
1479457.0,1534405061.634
1479871.0,1534405061.674
1479965.0,1534405061.714
1479331.0,1534405061.751
1478229.0,1534405061.792
1477205.0,1534405061.832
1476161.0,1534405061.871
1475670.0,1534405061.912
1475208.0,1534405061.951
1475143.0,1534405061.991
1474931.0,1534405062.033
1475016.0,1534405062.072
1474887.0,1534405062.112
1475124.0,1534405062.153
1475429.0,1534405062.192
1475632.0,1534405062.232
1475716.0,1534405062.273
1476160.0,1534405062.312
1476447.0,1534405062.352
1476698.0,1534405062.393
1476210.0,1534405062.433
1475248.0,1534405062.473
1474227.0,1534405062.514
1473394.0,1534405062.553
1472543.0,1534405062.593
1472232.0,1534405062.635
1472092.0,1534405062.674
1472203.0,1534405062.714
1472185.0,1534405062.755
1472115.0,1534405062.794
1472177.0,1534405062.835
1472554.0,1534405062.875
1472721.0,1534405062.914
1473054.0,1534405062.952
1472984.0,1534405062.999
1473582.0,1534405063.039
1474094.0,1534405063.078
1473641.0,1534405063.12
1472235.0,1534405063.159
1471525.0,1534405063.199
1470753.0,1534405063.24
1470522.0,1534405063.279
1470518.0,1534405063.319
1470786.0,1534405063.36
1470750.0,1534405063.399
1470850.0,1534405063.44
1470966.0,1534405063.48
1471489.0,1534405063.519
1471806.0,1534405063.56
1472401.0,1534405063.601
1472612.0,1534405063.64
1473385.0,1534405063.68
1473739.0,1534405063.72
1473843.0,1534405063.756
1473600.0,1534405063.797
1472331.0,1534405063.833
1471542.0,1534405063.867
1470827.0,1534405063.905
1470255.0,1534405063.946
1469983.0,1534405063.985
1469895.0,1534405064.026
1469858.0,1534405064.067
1470051.0,1534405064.106
1470191.0,1534405064.146
1470509.0,1534405064.19
1471030.0,1534405064.23
1471260.0,1534405064.269
1471521.0,1534405064.31
1472208.0,1534405064.349
1472585.0,1534405064.389
1472727.0,1534405064.431
1472269.0,1534405064.469
1471345.0,1534405064.51
1469883.0,1534405064.551
1468978.0,1534405064.59
1468382.0,1534405064.63
1467835.0,1534405064.671
1467674.0,1534405064.71
1467623.0,1534405064.75
1467602.0,1534405064.791
1467791.0,1534405064.831
1467815.0,1534405064.87
1468267.0,1534405064.911
1468497.0,1534405064.947
1468926.0,1534405064.987
1469248.0,1534405065.029
1469659.0,1534405065.065
1470118.0,1534405065.106
1470000.0,1534405065.147
1469156.0,1534405065.186
1468234.0,1534405065.228
1466954.0,1534405065.265
1466236.0,1534405065.304
1465736.0,1534405065.344
1465431.0,1534405065.385
1465356.0,1534405065.425
1465316.0,1534405065.505
1465195.0,1534405065.464
1465623.0,1534405065.544
1466261.0,1534405065.626
1466917.0,1534405065.704
1465776.0,1534405065.584
1467820.0,1534405065.784
1467542.0,1534405065.745
1467667.0,1534405065.866
1468203.0,1534405065.825
1466647.0,1534405065.905
1465502.0,1534405065.945
1464585.0,1534405065.987
1464025.0,1534405066.027
1463667.0,1534405066.066
1463510.0,1534405066.108
1466689.0,1534405065.664
1463328.0,1534405066.187
1463471.0,1534405066.147
1463655.0,1534405066.229
1463925.0,1534405066.268
1464182.0,1534405066.308
1464410.0,1534405066.349
1464800.0,1534405066.386
1465312.0,1534405066.427
1465653.0,1534405066.461
1465653.0,1534405066.5
1466039.0,1534405066.541
1466229.0,1534405066.582
1465641.0,1534405066.621
1464540.0,1534405066.661
1463444.0,1534405066.702
1462716.0,1534405066.741
1462003.0,1534405066.781
1462131.0,1534405066.823
1461870.0,1534405066.861
1461903.0,1534405066.901
1462076.0,1534405066.942
1462079.0,1534405066.982
1462270.0,1534405067.022
1462704.0,1534405067.063
1462821.0,1534405067.102
1463311.0,1534405067.142
1463648.0,1534405067.181
1464124.0,1534405067.221
1464417.0,1534405067.258
1464490.0,1534405067.291
1463458.0,1534405067.331
1462456.0,1534405067.369
1461458.0,1534405067.408
1461214.0,1534405067.446
1460707.0,1534405067.487
1460743.0,1534405067.528
1460779.0,1534405067.567
1460559.0,1534405067.608
1460542.0,1534405067.649
1460872.0,1534405067.69
1461086.0,1534405067.73
1461625.0,1534405067.771
1461655.0,1534405067.811
1462039.0,1534405067.85
1462583.0,1534405067.891
1463241.0,1534405067.93
1463181.0,1534405067.97
1462563.0,1534405068.012
1461425.0,1534405068.05
1460757.0,1534405068.09
1459996.0,1534405068.132
1460000.0,1534405068.171
1460023.0,1534405068.211
1460084.0,1534405068.252
1460182.0,1534405068.291
1460227.0,1534405068.331
1460471.0,1534405068.372
1460854.0,1534405068.41
1461167.0,1534405068.447
1461759.0,1534405068.488
1462323.0,1534405068.527
1462802.0,1534405068.567
1463209.0,1534405068.609
1463153.0,1534405068.648
1462360.0,1534405068.688
1461473.0,1534405068.729
1460721.0,1534405068.769
1460638.0,1534405068.808
1460629.0,1534405068.848
1460831.0,1534405068.887
1461183.0,1534405068.918
1461057.0,1534405068.959
1461337.0,1534405068.999
1461891.0,1534405069.038
1462287.0,1534405069.079
1462777.0,1534405069.118
1463329.0,1534405069.158
1463986.0,1534405069.2
1464209.0,1534405069.238
1463966.0,1534405069.278
1463014.0,1534405069.319
1461832.0,1534405069.358
1460624.0,1534405069.399
1459991.0,1534405069.44
1459647.0,1534405069.479
1459822.0,1534405069.519
1459829.0,1534405069.56
1459976.0,1534405069.6
1460024.0,1534405069.632
1460231.0,1534405069.671
1460634.0,1534405069.708
1461006.0,1534405069.749
1461459.0,1534405069.791
1461900.0,1534405069.829
1462355.0,1534405069.869
1461543.0,1534405069.911
1460488.0,1534405069.95
1458897.0,1534405069.991
1457767.0,1534405070.031
1456998.0,1534405070.068
1456383.0,1534405070.109
1456271.0,1534405070.149
1456259.0,1534405070.189
1456253.0,1534405070.228
1456657.0,1534405070.269
1456672.0,1534405070.308
1457350.0,1534405070.349
1457759.0,1534405070.39
1458200.0,1534405070.429
1458587.0,1534405070.469
1458925.0,1534405070.51
1458699.0,1534405070.549
1457392.0,1534405070.59
1455920.0,1534405070.63
1454674.0,1534405070.669
1453731.0,1534405070.709
1453106.0,1534405070.75
1452967.0,1534405070.79
1453009.0,1534405070.829
1453042.0,1534405070.871
1453258.0,1534405070.911
1453573.0,1534405070.951
1453882.0,1534405070.991
1454154.0,1534405071.029
1454758.0,1534405071.07
1455184.0,1534405071.111
1455956.0,1534405071.15
1456186.0,1534405071.191
1456206.0,1534405071.232
1455040.0,1534405071.271
1453588.0,1534405071.309
1452374.0,1534405071.35
1451473.0,1534405071.383
1451473.0,1534405071.423
1450864.0,1534405071.464
1450723.0,1534405071.503
1450954.0,1534405071.543
1450938.0,1534405071.585
1451265.0,1534405071.623
1451742.0,1534405071.664
1452115.0,1534405071.706
1452552.0,1534405071.744
1453351.0,1534405071.785
1453935.0,1534405071.825
1454324.0,1534405071.864
1454961.0,1534405071.904
1455880.0,1534405071.945
1456174.0,1534405071.985
1455322.0,1534405072.024
1454179.0,1534405072.063
1453197.0,1534405072.098
1452017.0,1534405072.132
1451645.0,1534405072.171
1451528.0,1534405072.209
1451608.0,1534405072.249
1451574.0,1534405072.291
1452242.0,1534405072.33
1452529.0,1534405072.371
1453008.0,1534405072.411
1453552.0,1534405072.451
1454105.0,1534405072.491
1454798.0,1534405072.53
1455333.0,1534405072.57
1455919.0,1534405072.604
1456728.0,1534405072.646
1457466.0,1534405072.685
1457805.0,1534405072.725
1457248.0,1534405072.766
1456390.0,1534405072.805
1455502.0,1534405072.845
1455084.0,1534405072.886
1454890.0,1534405072.925
1455441.0,1534405073.007
1455099.0,1534405072.966
1455797.0,1534405073.086
1455753.0,1534405073.046
1456589.0,1534405073.127
1457102.0,1534405073.167
1457740.0,1534405073.206
1458529.0,1534405073.247
1460146.0,1534405073.326
1459333.0,1534405073.286
1461165.0,1534405073.366
1462665.0,1534405073.443
1462090.0,1534405073.512
1461372.0,1534405073.551
1461163.0,1534405073.592
1461026.0,1534405073.631
1461485.0,1534405073.671
1462524.0,1534405073.478
1461810.0,1534405073.402
1461615.0,1534405073.713
1462170.0,1534405073.753
1462560.0,1534405073.792
1462985.0,1534405073.832
1463545.0,1534405073.871
1464358.0,1534405073.912
1465035.0,1534405073.953
1465841.0,1534405073.992
1466422.0,1534405074.032
1467122.0,1534405074.073
1468395.0,1534405074.153
1468325.0,1534405074.232
1467589.0,1534405074.272
1466909.0,1534405074.313
1466292.0,1534405074.353
1468834.0,1534405074.193
1467771.0,1534405074.112
1466098.0,1534405074.392
1465912.0,1534405074.434
1466393.0,1534405074.473
1466517.0,1534405074.513
1467063.0,1534405074.554
1467468.0,1534405074.592
1468168.0,1534405074.633
1468503.0,1534405074.674
1469358.0,1534405074.711
1469827.0,1534405074.752
1470893.0,1534405074.793
1471455.0,1534405074.832
1472319.0,1534405074.872
1472740.0,1534405074.911
1472740.0,1534405074.95
1472982.0,1534405074.989
1472570.0,1534405075.028
1471921.0,1534405075.067
1471337.0,1534405075.106
1470795.0,1534405075.145
1470437.0,1534405075.184
1470676.0,1534405075.223
1470761.0,1534405075.262
1471394.0,1534405075.301
1471371.0,1534405075.34
1471997.0,1534405075.379
1472563.0,1534405075.418
1472934.0,1534405075.457
1473519.0,1534405075.496
1474337.0,1534405075.535
1474790.0,1534405075.574
1475339.0,1534405075.613
1476361.0,1534405075.652
1476787.0,1534405075.691
1476909.0,1534405075.73
1476708.0,1534405075.769
1475876.0,1534405075.808
1475358.0,1534405075.847
1474782.0,1534405075.886
1474771.0,1534405075.925
1474768.0,1534405075.964
1475003.0,1534405076.003
1475226.0,1534405076.042
1475304.0,1534405076.081
1475815.0,1534405076.12
1476046.0,1534405076.159
1476589.0,1534405076.198
1477233.0,1534405076.237
1477724.0,1534405076.276
1478335.0,1534405076.315
1478758.0,1534405076.354
1479253.0,1534405076.393
1479674.0,1534405076.432
1479870.0,1534405076.471
1479217.0,1534405076.51
1478503.0,1534405076.549
1477715.0,1534405076.588
1477561.0,1534405076.627
1477314.0,1534405076.666
1477316.0,1534405076.705
1477264.0,1534405076.744
1477612.0,1534405076.783
1477826.0,1534405076.822
1478292.0,1534405076.861
1478429.0,1534405076.9
1478841.0,1534405076.939
1479064.0,1534405076.978
1479643.0,1534405077.017
1479798.0,1534405077.056
1480422.0,1534405077.095
1480719.0,1534405077.134
1480617.0,1534405077.173
1480134.0,1534405077.212
1479372.0,1534405077.251
1478850.0,1534405077.29
1478352.0,1534405077.329
1478137.0,1534405077.368
1478397.0,1534405077.407
1478401.0,1534405077.446
1478345.0,1534405077.485
1478677.0,1534405077.524
1478788.0,1534405077.563
1479363.0,1534405077.602
1479633.0,1534405077.641
1480009.0,1534405077.68
1480496.0,1534405077.719
1481181.0,1534405077.758
1481387.0,1534405077.797
1481672.0,1534405077.836
1480906.0,1534405077.875
1480101.0,1534405077.914
1479560.0,1534405077.953
1479422.0,1534405077.992
1479154.0,1534405078.031
1479079.0,1534405078.07
1479315.0,1534405078.109
1479235.0,1534405078.148
1479601.0,1534405078.187
1479945.0,1534405078.226
1479939.0,1534405078.265
1480328.0,1534405078.305
1480730.0,1534405078.345
1480968.0,1534405078.385
1481483.0,1534405078.425
1481160.0,1534405078.465
1480105.0,1534405078.505
1479044.0,1534405078.545
1477975.0,1534405078.585
1476944.0,1534405078.625
1476858.0,1534405078.665
1476221.0,1534405078.705
1476156.0,1534405078.745
1476219.0,1534405078.785
1476282.0,1534405078.825
1476438.0,1534405078.865
1476665.0,1534405078.905
1476651.0,1534405078.945
1476947.0,1534405078.985
1477460.0,1534405079.025
1477525.0,1534405079.065
1476842.0,1534405079.105
1475535.0,1534405079.145
1474053.0,1534405079.185
1472978.0,1534405079.225
1471900.0,1534405079.265
1471710.0,1534405079.305
1471134.0,1534405079.345
1471324.0,1534405079.385
1471208.0,1534405079.425
1471406.0,1534405079.465
1471402.0,1534405079.505
1471784.0,1534405079.545
1472029.0,1534405079.585
1472420.0,1534405079.625
1472788.0,1534405079.665
1473277.0,1534405079.705
1472941.0,1534405079.745
1471983.0,1534405079.785
1470596.0,1534405079.825
1469141.0,1534405079.865
1468188.0,1534405079.905
1467585.0,1534405079.945
1467154.0,1534405079.985
1467343.0,1534405080.025
1467144.0,1534405080.065
1467342.0,1534405080.105
1467437.0,1534405080.145
1467700.0,1534405080.185
1467992.0,1534405080.225
1468446.0,1534405080.265
1468940.0,1534405080.305
1469271.0,1534405080.345
1469958.0,1534405080.385
1470054.0,1534405080.425
1469655.0,1534405080.465
1468414.0,1534405080.505
1467146.0,1534405080.545
1466130.0,1534405080.585
1465539.0,1534405080.625
1465105.0,1534405080.665
1464902.0,1534405080.705
1465070.0,1534405080.745
1465368.0,1534405080.785
1465413.0,1534405080.825
1465558.0,1534405080.865
1465957.0,1534405080.905
1466272.0,1534405080.945
1466803.0,1534405080.985
1467065.0,1534405081.025
1467464.0,1534405081.065
1467952.0,1534405081.105
1468490.0,1534405081.145
1467998.0,1534405081.185
1467014.0,1534405081.225
1465786.0,1534405081.265
1465127.0,1534405081.305
1464510.0,1534405081.345
1464445.0,1534405081.385
1464469.0,1534405081.425
1464745.0,1534405081.465
1464754.0,1534405081.505
1464969.0,1534405081.545
1465376.0,1534405081.585
1465777.0,1534405081.625
1466107.0,1534405081.665
1466750.0,1534405081.705
1467308.0,1534405081.745
1467803.0,1534405081.785
1468109.0,1534405081.825
1468345.0,1534405081.865
1467931.0,1534405081.905
1467120.0,1534405081.945
1466232.0,1534405081.985
1465546.0,1534405082.025
1465551.0,1534405082.065
1465715.0,1534405082.105
1466091.0,1534405082.145
1466231.0,1534405082.185
1466836.0,1534405082.225
1467076.0,1534405082.265
1467631.0,1534405082.305
1468263.0,1534405082.345
1469019.0,1534405082.385
1469407.0,1534405082.425
1470177.0,1534405082.465
1470864.0,1534405082.505
1471521.0,1534405082.545
1470873.0,1534405082.625
1471502.0,1534405082.585
1470145.0,1534405082.665
1469491.0,1534405082.705
1469304.0,1534405082.745
1469310.0,1534405082.785
1469966.0,1534405082.865
1469475.0,1534405082.825
1470216.0,1534405082.905
1470760.0,1534405082.945
1471241.0,1534405082.985
1471587.0,1534405083.025
1472283.0,1534405083.065
1472724.0,1534405083.105
1473339.0,1534405083.145
1474253.0,1534405083.185
1474929.0,1534405083.225
1475068.0,1534405083.265
1474444.0,1534405083.305
1473685.0,1534405083.345
1472641.0,1534405083.385
1472179.0,1534405083.425
1471800.0,1534405083.465
1471901.0,1534405083.505
1472261.0,1534405083.545
1472081.0,1534405083.585
1472722.0,1534405083.625
1472999.0,1534405083.665
1473426.0,1534405083.705
1473879.0,1534405083.745
1474410.0,1534405083.785
1474871.0,1534405083.825
1475699.0,1534405083.865
1476096.0,1534405083.905
1476647.0,1534405083.945
1476903.0,1534405083.985
1476344.0,1534405084.025
1475458.0,1534405084.065
1474342.0,1534405084.105
1473964.0,1534405084.145
1473409.0,1534405084.185
1473369.0,1534405084.225
1473366.0,1534405084.265
1473763.0,1534405084.305
1473883.0,1534405084.345
1474325.0,1534405084.385
1474783.0,1534405084.425
1475268.0,1534405084.465
1475593.0,1534405084.505
1476242.0,1534405084.545
1476724.0,1534405084.585
1477428.0,1534405084.625
1477823.0,1534405084.665
1477928.0,1534405084.705
1477438.0,1534405084.745
1476619.0,1534405084.785
1475703.0,1534405084.825
1474989.0,1534405084.865
1474798.0,1534405084.905
1474818.0,1534405084.945
1474899.0,1534405084.985
1475318.0,1534405085.025
1475351.0,1534405085.065
1475933.0,1534405085.105
1476195.0,1534405085.145
1476497.0,1534405085.185
1477111.0,1534405085.225
1477534.0,1534405085.265
1478161.0,1534405085.305
1478468.0,1534405085.345
1478754.0,1534405085.385
1478465.0,1534405085.425
1477576.0,1534405085.465
1476815.0,1534405085.505
1475949.0,1534405085.545
1475339.0,1534405085.585
1475193.0,1534405085.625
1475227.0,1534405085.665
1475547.0,1534405085.705
1475492.0,1534405085.745
1475761.0,1534405085.785
1476154.0,1534405085.825
1476579.0,1534405085.865
1477237.0,1534405085.905
1477396.0,1534405085.945
1477850.0,1534405085.985
1478038.0,1534405086.025
1478269.0,1534405086.065
1478158.0,1534405086.105
1477027.0,1534405086.145
1476569.0,1534405086.185
1475753.0,1534405086.225
1475613.0,1534405086.265
1475520.0,1534405086.305
1475649.0,1534405086.345
1475733.0,1534405086.385
1475983.0,1534405086.425
1476370.0,1534405086.465
1476599.0,1534405086.505
1476850.0,1534405086.545
1477681.0,1534405086.585
1478177.0,1534405086.625
1478738.0,1534405086.665
1479182.0,1534405086.705
1479182.0,1534405086.745
1479168.0,1534405086.785
1477221.0,1534405086.902
1478460.0,1534405086.822
1477706.0,1534405086.862
1477397.0,1534405086.943
1477392.0,1534405086.982
1477634.0,1534405087.022
1477685.0,1534405087.064
1478233.0,1534405087.102
1478777.0,1534405087.183
1479048.0,1534405087.222
1479427.0,1534405087.263
1480147.0,1534405087.304
1480516.0,1534405087.343
1480946.0,1534405087.383
1481037.0,1534405087.421
1478331.0,1534405087.142
1480442.0,1534405087.455
1479389.0,1534405087.49
1477788.0,1534405087.567
1477410.0,1534405087.608
1477356.0,1534405087.65
1477575.0,1534405087.688
1477487.0,1534405087.728
1478512.0,1534405087.528
1477814.0,1534405087.77
1478323.0,1534405087.809
1478484.0,1534405087.85
1478877.0,1534405087.89
1479455.0,1534405087.929
1479856.0,1534405087.969
1480448.0,1534405088.01
1480675.0,1534405088.05
1478725.0,1534405088.169
1477859.0,1534405088.209
1477005.0,1534405088.251
1476588.0,1534405088.29
1476681.0,1534405088.33
1476791.0,1534405088.371
1477028.0,1534405088.41
1477374.0,1534405088.451
1479445.0,1534405088.13
1480471.0,1534405088.089
1477665.0,1534405088.491
1478038.0,1534405088.529
1478583.0,1534405088.569
1479193.0,1534405088.608
1479657.0,1534405088.647
1480096.0,1534405088.687
1480595.0,1534405088.728
1480691.0,1534405088.768
1479827.0,1534405088.808
1478819.0,1534405088.85
1478007.0,1534405088.888
1477428.0,1534405088.928
1477090.0,1534405088.97
1477179.0,1534405089.009
1477295.0,1534405089.05
1477661.0,1534405089.09
1477993.0,1534405089.127
1480728.0,1534405089.367
1481239.0,1534405089.407
1481803.0,1534405089.449
1481558.0,1534405089.488
1480325.0,1534405089.328
1479012.0,1534405089.248
1479487.0,1534405089.287
1478132.0,1534405089.167
1478644.0,1534405089.208
1480056.0,1534405089.569
1479275.0,1534405089.608
1481073.0,1534405089.528
1478941.0,1534405089.689
1479018.0,1534405089.649
1479025.0,1534405089.728
1479231.0,1534405089.768
1479303.0,1534405089.809
1479797.0,1534405089.888
1479583.0,1534405089.849
1480207.0,1534405089.93
1480558.0,1534405089.969
1481251.0,1534405090.009
1481508.0,1534405090.05
1482162.0,1534405090.089
1482748.0,1534405090.129
1483389.0,1534405090.17
1483269.0,1534405090.209
1482782.0,1534405090.25
1482089.0,1534405090.291
1481636.0,1534405090.33
1480874.0,1534405090.37
1480943.0,1534405090.411
1481029.0,1534405090.451
1481217.0,1534405090.485
1481549.0,1534405090.526
1481546.0,1534405090.565
1482062.0,1534405090.605
1482438.0,1534405090.647
1482782.0,1534405090.685
1483176.0,1534405090.725
1483697.0,1534405090.767
1483984.0,1534405090.806
1485012.0,1534405090.846
1485198.0,1534405090.887
1484911.0,1534405090.926
1484707.0,1534405090.966
1484110.0,1534405091.007
1484129.0,1534405091.047
1484211.0,1534405091.086
1484764.0,1534405091.128
1485320.0,1534405091.167
1485651.0,1534405091.204
1486272.0,1534405091.241
1486817.0,1534405091.273
1487273.0,1534405091.31
1487773.0,1534405091.351
1488264.0,1534405091.39
1488811.0,1534405091.431
1489509.0,1534405091.472
1490001.0,1534405091.51
1490001.0,1534405091.547
1490625.0,1534405091.588
1490505.0,1534405091.628
1489933.0,1534405091.667
1488880.0,1534405091.708
1488106.0,1534405091.748
1487393.0,1534405091.788
1487700.0,1534405091.83
1487511.0,1534405091.868
1487858.0,1534405091.908
1487813.0,1534405091.949
1488247.0,1534405091.988
1488436.0,1534405092.029
1489232.0,1534405092.069
1489179.0,1534405092.109
1490004.0,1534405092.149
1490523.0,1534405092.19
1491078.0,1534405092.23
1491429.0,1534405092.27
1491495.0,1534405092.311
1490953.0,1534405092.351
1490401.0,1534405092.391
1489271.0,1534405092.433
1488635.0,1534405092.471
1488214.0,1534405092.512
1488203.0,1534405092.553
1488243.0,1534405092.592
1488389.0,1534405092.633
1488706.0,1534405092.674
1488997.0,1534405092.713
1489280.0,1534405092.751
1489791.0,1534405092.792
1490046.0,1534405092.829
1490481.0,1534405092.869
1491351.0,1534405092.91
1491420.0,1534405092.949
1492113.0,1534405092.989
1491814.0,1534405093.031
1491045.0,1534405093.069
1490142.0,1534405093.109
1489231.0,1534405093.15
1488999.0,1534405093.189
1488613.0,1534405093.23
1488816.0,1534405093.27
1488852.0,1534405093.309
1489088.0,1534405093.35
1489407.0,1534405093.391
1489616.0,1534405093.43
1490131.0,1534405093.47
1490397.0,1534405093.511
1490868.0,1534405093.551
1491019.0,1534405093.591
1491669.0,1534405093.633
1492049.0,1534405093.672
1492289.0,1534405093.712
1491509.0,1534405093.752
1490880.0,1534405093.792
1490379.0,1534405093.833
1489645.0,1534405093.873
1489212.0,1534405093.91
1489529.0,1534405093.95
1489430.0,1534405093.991
1489890.0,1534405094.031
1489979.0,1534405094.07
1490357.0,1534405094.111
1490753.0,1534405094.15
1491552.0,1534405094.19
1491970.0,1534405094.232
1492685.0,1534405094.27
1493272.0,1534405094.31
1493882.0,1534405094.352
1493836.0,1534405094.391
1493368.0,1534405094.431
1492701.0,1534405094.472
1492119.0,1534405094.511
1491869.0,1534405094.551
1491648.0,1534405094.593
1491610.0,1534405094.633
1491670.0,1534405094.672
1491751.0,1534405094.714
1492157.0,1534405094.753
1492427.0,1534405094.793
1492651.0,1534405094.835
1493219.0,1534405094.874
1493416.0,1534405094.914
1494043.0,1534405094.955
1494360.0,1534405094.983
1494762.0,1534405095.024
1494431.0,1534405095.064
1493531.0,1534405095.103
1492379.0,1534405095.143
1491502.0,1534405095.185
1490696.0,1534405095.224
1490648.0,1534405095.264
1490517.0,1534405095.305
1490506.0,1534405095.344
1490764.0,1534405095.384
1491021.0,1534405095.426
1491073.0,1534405095.464
1491478.0,1534405095.504
1491734.0,1534405095.545
1492283.0,1534405095.584
1492525.0,1534405095.625
1492913.0,1534405095.666
1492911.0,1534405095.706
1492397.0,1534405095.742
1491698.0,1534405095.776
1490578.0,1534405095.813
1489881.0,1534405095.852
1489413.0,1534405095.894
1489313.0,1534405095.933
1489093.0,1534405095.973
1489344.0,1534405096.015
1489515.0,1534405096.094
1490182.0,1534405096.172
1490839.0,1534405096.254
1491061.0,1534405096.293
1491435.0,1534405096.327
1491407.0,1534405096.368
1489835.0,1534405096.133
1490490.0,1534405096.213
1489415.0,1534405096.054
1490761.0,1534405096.408
1489682.0,1534405096.447
1488999.0,1534405096.489
1488558.0,1534405096.528
1488466.0,1534405096.568
1488328.0,1534405096.61
1488456.0,1534405096.648
1488686.0,1534405096.688
1488886.0,1534405096.729
1489001.0,1534405096.768
1489429.0,1534405096.809
1489766.0,1534405096.85
1490330.0,1534405096.889
1490576.0,1534405096.929
1491043.0,1534405096.97
1490906.0,1534405097.01
1490428.0,1534405097.05
1489499.0,1534405097.09
1489017.0,1534405097.127
1488806.0,1534405097.162
1489090.0,1534405097.205
1489295.0,1534405097.235
1489514.0,1534405097.276
1490052.0,1534405097.315
1490364.0,1534405097.354
1490758.0,1534405097.395
1491328.0,1534405097.436
1491758.0,1534405097.475
1492433.0,1534405097.515
1492901.0,1534405097.552
1492901.0,1534405097.592
1493085.0,1534405097.632
1492729.0,1534405097.673
1492394.0,1534405097.712
1491348.0,1534405097.752
1490934.0,1534405097.794
1490504.0,1534405097.832
1490592.0,1534405097.872
1490579.0,1534405097.913
1490798.0,1534405097.952
1490857.0,1534405097.993
1491122.0,1534405098.033
1491599.0,1534405098.072
1491769.0,1534405098.112
1492329.0,1534405098.154
1493247.0,1534405098.234
1492689.0,1534405098.193
1493221.0,1534405098.275
1492514.0,1534405098.314
1491544.0,1534405098.355
1490718.0,1534405098.397
1490344.0,1534405098.435
1489947.0,1534405098.469
1489669.0,1534405098.511
1489772.0,1534405098.55
1490072.0,1534405098.59
1490194.0,1534405098.631
1490430.0,1534405098.67
1490824.0,1534405098.71
1491498.0,1534405098.75
1491711.0,1534405098.79
1492138.0,1534405098.829
1492614.0,1534405098.87
1492031.0,1534405098.909
1491310.0,1534405098.95
1490282.0,1534405098.991
1489693.0,1534405099.03
1489159.0,1534405099.07
1488957.0,1534405099.111
1488978.0,1534405099.15
1488868.0,1534405099.191
1489036.0,1534405099.227
1489308.0,1534405099.262
1489646.0,1534405099.296
1489835.0,1534405099.334
1490440.0,1534405099.374
1490548.0,1534405099.414
1491074.0,1534405099.455
1491283.0,1534405099.494
1490902.0,1534405099.534
1489833.0,1534405099.576
1489083.0,1534405099.615
1488249.0,1534405099.655
1487582.0,1534405099.689
1487553.0,1534405099.728
1487649.0,1534405099.768
1487688.0,1534405099.809
1488051.0,1534405099.848
1488213.0,1534405099.888
1488693.0,1534405099.929
1488876.0,1534405099.969
1489307.0,1534405100.008
1489701.0,1534405100.049
1490328.0,1534405100.088
1490510.0,1534405100.129
1489983.0,1534405100.17
1489399.0,1534405100.209
1488608.0,1534405100.249
1487967.0,1534405100.29
1487928.0,1534405100.329
1487767.0,1534405100.37
1488015.0,1534405100.404
1487879.0,1534405100.436
1488221.0,1534405100.475
1488368.0,1534405100.516
1488878.0,1534405100.556
1489485.0,1534405100.595
1489918.0,1534405100.637
1490435.0,1534405100.676
1491170.0,1534405100.716
1491250.0,1534405100.758
1491098.0,1534405100.797
1490450.0,1534405100.835
1490055.0,1534405100.876
1489867.0,1534405100.915
1489867.0,1534405100.951
1490105.0,1534405100.992
1490164.0,1534405101.031
1490630.0,1534405101.071
1490641.0,1534405101.112
1491226.0,1534405101.152
1491332.0,1534405101.191
1491578.0,1534405101.232
1492259.0,1534405101.271
1492944.0,1534405101.312
1493095.0,1534405101.353
1493702.0,1534405101.392
1493697.0,1534405101.432
1493074.0,1534405101.474
1492279.0,1534405101.512
1491530.0,1534405101.553
1491015.0,1534405101.593
1490797.0,1534405101.633
1490902.0,1534405101.674
1490803.0,1534405101.715
1490885.0,1534405101.755
1490993.0,1534405101.795
1491206.0,1534405101.836
1491941.0,1534405101.875
1492032.0,1534405101.916
1492727.0,1534405101.958
1493125.0,1534405101.996
1493571.0,1534405102.037
1493843.0,1534405102.078
1493158.0,1534405102.117
1492292.0,1534405102.146
1491364.0,1534405102.187
1490600.0,1534405102.226
1490432.0,1534405102.266
1490153.0,1534405102.307
1490236.0,1534405102.347
1490393.0,1534405102.386
1490601.0,1534405102.427
1491165.0,1534405102.466
1491489.0,1534405102.506
1491728.0,1534405102.548
1492284.0,1534405102.586
1492529.0,1534405102.627
1492998.0,1534405102.668
1493375.0,1534405102.707
1493201.0,1534405102.748
1492423.0,1534405102.788
1491652.0,1534405102.823
1490923.0,1534405102.858
1490405.0,1534405102.896
1490224.0,1534405102.936
1490688.0,1534405102.976
1490693.0,1534405103.017
1490885.0,1534405103.056
1491156.0,1534405103.096
1491373.0,1534405103.138
1491663.0,1534405103.177
1492000.0,1534405103.217
1492291.0,1534405103.256
1493143.0,1534405103.296
1493219.0,1534405103.337
1493209.0,1534405103.377
1492685.0,1534405103.416
1492041.0,1534405103.456
1491270.0,1534405103.497
1490881.0,1534405103.537
1490771.0,1534405103.576
1490892.0,1534405103.618
1490945.0,1534405103.657
1491004.0,1534405103.697
1491341.0,1534405103.738
1491798.0,1534405103.777
1491847.0,1534405103.817
1492532.0,1534405103.858
1492684.0,1534405103.897
1492961.0,1534405103.938
1493334.0,1534405103.978
1493369.0,1534405104.017
1492979.0,1534405104.057
1492242.0,1534405104.098
1491898.0,1534405104.138
1491403.0,1534405104.177
1491308.0,1534405104.219
1491337.0,1534405104.258
1491522.0,1534405104.298
1491748.0,1534405104.339
1492116.0,1534405104.378
1492644.0,1534405104.418
1493051.0,1534405104.459
1493569.0,1534405104.498
1494147.0,1534405104.539
1494612.0,1534405104.579
1495042.0,1534405104.618
1494908.0,1534405104.658
1494565.0,1534405104.699
1493742.0,1534405104.739
1493525.0,1534405104.779
1493324.0,1534405104.82
1493461.0,1534405104.859
1493640.0,1534405104.899
1493767.0,1534405104.941
1494055.0,1534405104.979
1494157.0,1534405105.019
1494717.0,1534405105.06
1494998.0,1534405105.099
1495463.0,1534405105.14
1495679.0,1534405105.18
1496258.0,1534405105.219
1496174.0,1534405105.257
1495478.0,1534405105.298
1494711.0,1534405105.338
1493716.0,1534405105.377
1493014.0,1534405105.419
1492663.0,1534405105.458
1492754.0,1534405105.498
1492430.0,1534405105.54
1492492.0,1534405105.578
1492705.0,1534405105.618
1493123.0,1534405105.659
1493153.0,1534405105.698
1493616.0,1534405105.739
1493894.0,1534405105.779
1494462.0,1534405105.818
1494522.0,1534405105.859
1493947.0,1534405105.9
1493003.0,1534405105.939
1492116.0,1534405105.979
1491158.0,1534405106.02
1490791.0,1534405106.059
1490228.0,1534405106.099
1490312.0,1534405106.141
1490270.0,1534405106.179
1490477.0,1534405106.219
1490498.0,1534405106.26
1491072.0,1534405106.299
1491537.0,1534405106.34
1491510.0,1534405106.381
1491896.0,1534405106.42
1492445.0,1534405106.46
1492586.0,1534405106.501
1491691.0,1534405106.541
1490809.0,1534405106.58
1489660.0,1534405106.621
1488872.0,1534405106.66
1488221.0,1534405106.7
1488313.0,1534405106.742
1488282.0,1534405106.78
1488133.0,1534405106.817
1488506.0,1534405106.859
1488640.0,1534405106.898
1489116.0,1534405106.938
1489304.0,1534405106.979
1489674.0,1534405107.018
1489975.0,1534405107.058
1490682.0,1534405107.099
1491001.0,1534405107.139
1491007.0,1534405107.178
1490106.0,1534405107.219
1489315.0,1534405107.258
1488522.0,1534405107.298
1488037.0,1534405107.34
1487971.0,1534405107.379
1488015.0,1534405107.419
1488373.0,1534405107.46
1488361.0,1534405107.499
1488659.0,1534405107.54
1488843.0,1534405107.579
1489508.0,1534405107.619
1490085.0,1534405107.659
1490562.0,1534405107.7
1491321.0,1534405107.74
1492044.0,1534405107.78
1492322.0,1534405107.821
1491869.0,1534405107.86
1490921.0,1534405107.898
1490345.0,1534405107.94
1489584.0,1534405107.979
1489441.0,1534405108.019
1489444.0,1534405108.06
1489598.0,1534405108.093
1489475.0,1534405108.134
1489534.0,1534405108.174
1489833.0,1534405108.213
1490231.0,1534405108.254
1490485.0,1534405108.295
1490941.0,1534405108.334
1491294.0,1534405108.374
1491838.0,1534405108.415
1492073.0,1534405108.454
1492221.0,1534405108.494
1491416.0,1534405108.536
1490335.0,1534405108.574
1489303.0,1534405108.614
1488808.0,1534405108.656
1488238.0,1534405108.695
1488186.0,1534405108.735
1487809.0,1534405108.776
1488110.0,1534405108.809
1488012.0,1534405108.84
1488277.0,1534405108.882
1488656.0,1534405108.922
1488788.0,1534405108.961
1489329.0,1534405109.002
1489395.0,1534405109.042
1490102.0,1534405109.079
1490377.0,1534405109.121
1490328.0,1534405109.16
1489330.0,1534405109.201
1488505.0,1534405109.242
1487736.0,1534405109.281
1487242.0,1534405109.322
1486929.0,1534405109.363
1486888.0,1534405109.399
1486888.0,1534405109.436
1486885.0,1534405109.477
1487327.0,1534405109.517
1487470.0,1534405109.556
1487845.0,1534405109.598
1487904.0,1534405109.637
1488516.0,1534405109.677
1488864.0,1534405109.719
1489388.0,1534405109.757
1489940.0,1534405109.797
1490335.0,1534405109.838
1490119.0,1534405109.877
1489526.0,1534405109.918
1489036.0,1534405109.959
1488284.0,1534405109.998
1487852.0,1534405110.038
1488089.0,1534405110.079
1488026.0,1534405110.119
1488255.0,1534405110.159
1488514.0,1534405110.201
1488764.0,1534405110.24
1489226.0,1534405110.28
1489478.0,1534405110.322
1489991.0,1534405110.361
1490497.0,1534405110.401
1491020.0,1534405110.442
1491484.0,1534405110.472
1491283.0,1534405110.512
1491204.0,1534405110.553
1490576.0,1534405110.592
1490074.0,1534405110.632
1490056.0,1534405110.729
1490397.0,1534405110.769
1490157.0,1534405110.808
1490488.0,1534405110.849
1491053.0,1534405110.888
1491429.0,1534405110.928
1491831.0,1534405110.97
1492350.0,1534405111.009
1492670.0,1534405111.049
1493380.0,1534405111.09
1494059.0,1534405111.129
1494342.0,1534405111.17
1494364.0,1534405111.21
1493640.0,1534405111.245
1492965.0,1534405111.279
1492051.0,1534405111.317
1491699.0,1534405111.357
1491345.0,1534405111.397
1491378.0,1534405111.438
1491336.0,1534405111.477
1491460.0,1534405111.517
1491725.0,1534405111.557
1491990.0,1534405111.591
1491835.0,1534405111.631
1492259.0,1534405111.672
1492740.0,1534405111.712
1493053.0,1534405111.752
1493291.0,1534405111.793
1493191.0,1534405111.832
1492184.0,1534405111.872
1491458.0,1534405111.913
1490302.0,1534405111.953
1489917.0,1534405111.992
1489447.0,1534405112.033
1489408.0,1534405112.072
1489247.0,1534405112.112
1489236.0,1534405112.154
1489355.0,1534405112.193
1489524.0,1534405112.233
1490015.0,1534405112.275
1490134.0,1534405112.314
1490513.0,1534405112.353
1490756.0,1534405112.391
1491133.0,1534405112.425
1490857.0,1534405112.466
1490320.0,1534405112.5
1489245.0,1534405112.538
1488426.0,1534405112.578
1487646.0,1534405112.619
1487241.0,1534405112.658
1486904.0,1534405112.699
1486887.0,1534405112.74
1486815.0,1534405112.779
1486958.0,1534405112.819
1487081.0,1534405112.86
1487439.0,1534405112.899
1487687.0,1534405112.94
1487984.0,1534405112.98
1488349.0,1534405113.019
1488821.0,1534405113.059
1488926.0,1534405113.1
1488643.0,1534405113.14
1487950.0,1534405113.18
1487010.0,1534405113.221
1486017.0,1534405113.26
1485654.0,1534405113.3
1485236.0,1534405113.341
1485599.0,1534405113.377
1485492.0,1534405113.418
1485436.0,1534405113.459
1485776.0,1534405113.498
1486100.0,1534405113.539
1486457.0,1534405113.58
1486626.0,1534405113.619
1486949.0,1534405113.66
1487390.0,1534405113.701
1488116.0,1534405113.741
1487745.0,1534405113.78
1487508.0,1534405113.821
1486659.0,1534405113.86
1485918.0,1534405113.9
1485300.0,1534405113.942
1485245.0,1534405113.981
1485079.0,1534405114.021
1485291.0,1534405114.062
1485374.0,1534405114.101
1485561.0,1534405114.141
1486127.0,1534405114.182
1486294.0,1534405114.221
1486947.0,1534405114.261
1487524.0,1534405114.302
1488077.0,1534405114.342
1488747.0,1534405114.381
1488840.0,1534405114.42
1488481.0,1534405114.459
1487894.0,1534405114.499
1487103.0,1534405114.541
1486562.0,1534405114.58
1486609.0,1534405114.62
1486792.0,1534405114.661
1486820.0,1534405114.701
1486920.0,1534405114.739
1486920.0,1534405114.776
1486954.0,1534405114.815
1487375.0,1534405114.855
1487538.0,1534405114.896
1487816.0,1534405114.936
1488259.0,1534405114.975
1488700.0,1534405115.016
1489017.0,1534405115.055
1488991.0,1534405115.095
1488285.0,1534405115.137
1487338.0,1534405115.176
1486453.0,1534405115.216
1485451.0,1534405115.257
1484850.0,1534405115.296
1485001.0,1534405115.337
1484790.0,1534405115.377
1484958.0,1534405115.416
1484825.0,1534405115.456
1484946.0,1534405115.498
1485266.0,1534405115.538
1485345.0,1534405115.578
1485926.0,1534405115.62
1486080.0,1534405115.659
1486785.0,1534405115.699
1486492.0,1534405115.78
1486788.0,1534405115.741
1485429.0,1534405115.811
1484524.0,1534405115.852
1482952.0,1534405115.932
1483514.0,1534405115.891
1482386.0,1534405115.973
1482453.0,1534405116.012
1482423.0,1534405116.052
1482441.0,1534405116.093
1482706.0,1534405116.133
1482889.0,1534405116.172
1483051.0,1534405116.213
1483344.0,1534405116.252
1483904.0,1534405116.292
1484220.0,1534405116.334
1484702.0,1534405116.373
1485082.0,1534405116.413
1484691.0,1534405116.454
1483802.0,1534405116.493
1482517.0,1534405116.535
1481898.0,1534405116.57
1481369.0,1534405116.602
1481213.0,1534405116.639
1480919.0,1534405116.68
1480997.0,1534405116.72
1481004.0,1534405116.76
1481356.0,1534405116.801
1481477.0,1534405116.842
1481820.0,1534405116.878
1482062.0,1534405116.92
1482495.0,1534405116.958
1482858.0,1534405116.998
1483186.0,1534405117.039
1483689.0,1534405117.078
1483506.0,1534405117.119
1483003.0,1534405117.16
1481590.0,1534405117.199
1481124.0,1534405117.239
1480133.0,1534405117.28
1479970.0,1534405117.319
1480079.0,1534405117.359
1480067.0,1534405117.4
1480100.0,1534405117.439
1480710.0,1534405117.479
1481002.0,1534405117.521
1481314.0,1534405117.56
1481941.0,1534405117.6
1482731.0,1534405117.641
1483590.0,1534405117.68
1484431.0,1534405117.721
1484971.0,1534405117.762
1485084.0,1534405117.801
1484835.0,1534405117.841
1484333.0,1534405117.882
1484295.0,1534405117.922
1484195.0,1534405117.96
1484548.0,1534405118.001
1484786.0,1534405118.04
1484996.0,1534405118.075
1484830.0,1534405118.117
1484900.0,1534405118.155
1484943.0,1534405118.195
1484815.0,1534405118.237
1485002.0,1534405118.276
1485277.0,1534405118.317
1485011.0,1534405118.357
1484916.0,1534405118.396
1484881.0,1534405118.436
1484436.0,1534405118.477
1483057.0,1534405118.517
1481354.0,1534405118.556
1480368.0,1534405118.598
1479927.0,1534405118.637
1479699.0,1534405118.677
1479498.0,1534405118.719
1479583.0,1534405118.757
1479140.0,1534405118.791
1479294.0,1534405118.824
1478964.0,1534405118.861
1479169.0,1534405118.902
1479183.0,1534405118.943
1479570.0,1534405118.982
1479569.0,1534405119.023
1479871.0,1534405119.064
1480297.0,1534405119.104
1479524.0,1534405119.143
1478761.0,1534405119.184
1477766.0,1534405119.223
1476748.0,1534405119.263
1476291.0,1534405119.305
1476170.0,1534405119.343
1476087.0,1534405119.383
1476618.0,1534405119.424
1476897.0,1534405119.463
1476844.0,1534405119.504
1476910.0,1534405119.544
1477486.0,1534405119.583
1477684.0,1534405119.623
1477785.0,1534405119.664
1478071.0,1534405119.704
1478014.0,1534405119.744
1477559.0,1534405119.785
1476978.0,1534405119.824
1476059.0,1534405119.864
1474939.0,1534405119.907
1474021.0,1534405119.945
1473299.0,1534405119.984
1472470.0,1534405120.023
1472288.0,1534405120.062
1472256.0,1534405120.103
1472183.0,1534405120.144
1472531.0,1534405120.183
1472595.0,1534405120.223
1473116.0,1534405120.265
1473748.0,1534405120.304
1474488.0,1534405120.341
1474897.0,1534405120.382
1474261.0,1534405120.461
1474873.0,1534405120.421
1473455.0,1534405120.503
1471695.0,1534405120.582
1471403.0,1534405120.623
1472185.0,1534405120.542
1471886.0,1534405120.662
1472184.0,1534405120.702
1472450.0,1534405120.743
1472420.0,1534405120.782
1473105.0,1534405120.822
1473338.0,1534405120.863
1474039.0,1534405120.903
1474344.0,1534405120.942
1475110.0,1534405120.983
1475672.0,1534405121.023
1476240.0,1534405121.064
1476070.0,1534405121.106
1475231.0,1534405121.144
1474366.0,1534405121.184
1473692.0,1534405121.226
1473498.0,1534405121.263
1473138.0,1534405121.304
1473398.0,1534405121.344
1473307.0,1534405121.384
1473622.0,1534405121.424
1473745.0,1534405121.465
1474353.0,1534405121.505
1474368.0,1534405121.544
1474368.0,1534405121.577
1475007.0,1534405121.616
1475627.0,1534405121.656
1475955.0,1534405121.698
1475752.0,1534405121.736
1475033.0,1534405121.777
1474144.0,1534405121.818
1473289.0,1534405121.857
1473359.0,1534405121.898
1473429.0,1534405121.938
1473587.0,1534405121.977
1473914.0,1534405122.017
1474085.0,1534405122.058
1474374.0,1534405122.098
1474895.0,1534405122.137
1475251.0,1534405122.179
1476014.0,1534405122.218
1476650.0,1534405122.25
1477397.0,1534405122.322
1476600.0,1534405122.363
1476057.0,1534405122.404
1475745.0,1534405122.443
1477247.0,1534405122.287
1475591.0,1534405122.484
1476030.0,1534405122.525
1476166.0,1534405122.564
1476421.0,1534405122.604
1476986.0,1534405122.643
1479395.0,1534405122.799
1480302.0,1534405122.838
1481052.0,1534405122.877
1480892.0,1534405122.916
1479958.0,1534405122.994
1478795.0,1534405122.76
1480406.0,1534405123.15
1479853.0,1534405123.072
1480459.0,1534405122.955
1479676.0,1534405123.033
1477502.0,1534405122.682
1480087.0,1534405123.111
1478061.0,1534405122.721
1480614.0,1534405123.189
1480849.0,1534405123.228
1481312.0,1534405123.267
1481632.0,1534405123.306
1482317.0,1534405123.345
1482466.0,1534405123.384
1483254.0,1534405123.423
1482836.0,1534405123.462
1482293.0,1534405123.501
1481458.0,1534405123.54
1480292.0,1534405123.579
1479823.0,1534405123.618
1479508.0,1534405123.657
1479555.0,1534405123.696
1479326.0,1534405123.735
1479561.0,1534405123.774
1479528.0,1534405123.813
1479779.0,1534405123.852
1480309.0,1534405123.891
1480432.0,1534405123.93
1480836.0,1534405123.969
1481244.0,1534405124.008
1481273.0,1534405124.047
1480083.0,1534405124.086
1479262.0,1534405124.125
1478136.0,1534405124.164
1477522.0,1534405124.203
1476862.0,1534405124.242
1477116.0,1534405124.281
1477001.0,1534405124.359
1476833.0,1534405124.32
1477169.0,1534405124.398
1477304.0,1534405124.437
1477507.0,1534405124.476
1477913.0,1534405124.515
1478343.0,1534405124.554
1478832.0,1534405124.593
1478830.0,1534405124.632
1477976.0,1534405124.671
1477055.0,1534405124.71
1476024.0,1534405124.749
1474850.0,1534405124.827
1475324.0,1534405124.788
1474852.0,1534405124.866
1474689.0,1534405124.905
1475019.0,1534405124.944
1475006.0,1534405124.983
1475006.0,1534405125.022
1475269.0,1534405125.061
1475847.0,1534405125.1
1476001.0,1534405125.139
1476410.0,1534405125.178
1476790.0,1534405125.217
1477341.0,1534405125.256
1476871.0,1534405125.334
1475686.0,1534405125.373
1477229.0,1534405125.295
1474907.0,1534405125.412
1473799.0,1534405125.49
1473942.0,1534405125.451
1473500.0,1534405125.529
1473540.0,1534405125.568
1473577.0,1534405125.607
1473694.0,1534405125.646
1473937.0,1534405125.685
1474282.0,1534405125.724
1474724.0,1534405125.763
1474941.0,1534405125.802
1475388.0,1534405125.841
1475825.0,1534405125.88
1476521.0,1534405125.919
1476751.0,1534405125.958
1476336.0,1534405125.997
1475523.0,1534405126.036
1474667.0,1534405126.075
1473939.0,1534405126.114
1473494.0,1534405126.153
1473685.0,1534405126.192
1473367.0,1534405126.231
1473546.0,1534405126.27
1473565.0,1534405126.309
1473946.0,1534405126.348
1473829.0,1534405126.387
1474357.0,1534405126.426
1474774.0,1534405126.465
1474962.0,1534405126.505
1475556.0,1534405126.545
1475989.0,1534405126.585
1476697.0,1534405126.625
1476510.0,1534405126.665
1476095.0,1534405126.705
1475256.0,1534405126.745
1474390.0,1534405126.785
1473986.0,1534405126.825
1474123.0,1534405126.865
1474344.0,1534405126.905
1474297.0,1534405126.945
1474791.0,1534405126.985
1475546.0,1534405127.065
1474918.0,1534405127.025
1475779.0,1534405127.105
1476156.0,1534405127.145
1476805.0,1534405127.185
1477310.0,1534405127.225
1478224.0,1534405127.265
1478730.0,1534405127.305
1478969.0,1534405127.345
1478417.0,1534405127.385
1477938.0,1534405127.425
1477664.0,1534405127.465
1477842.0,1534405127.505
1477726.0,1534405127.545
1478144.0,1534405127.585
1478614.0,1534405127.625
1478946.0,1534405127.665
1479380.0,1534405127.705
1479811.0,1534405127.745
1480242.0,1534405127.785
1480714.0,1534405127.825
1481270.0,1534405127.865
1481693.0,1534405127.905
1482304.0,1534405127.945
1482267.0,1534405127.985
1481878.0,1534405128.025
1481021.0,1534405128.065
1480279.0,1534405128.105
1479307.0,1534405128.145
1479127.0,1534405128.185
1478701.0,1534405128.225
1478814.0,1534405128.265
1478826.0,1534405128.305
1478881.0,1534405128.345
1479321.0,1534405128.385
1479523.0,1534405128.425
1479713.0,1534405128.465
1479886.0,1534405128.505
1480611.0,1534405128.545
1480829.0,1534405128.585
1481167.0,1534405128.625
1481113.0,1534405128.665
1480168.0,1534405128.705
1478885.0,1534405128.745
1477953.0,1534405128.785
1477025.0,1534405128.825
1476639.0,1534405128.865
1476363.0,1534405128.905
1476369.0,1534405128.945
1476218.0,1534405128.985
1476268.0,1534405129.025
1476403.0,1534405129.065
1476573.0,1534405129.105
1476873.0,1534405129.145
1477171.0,1534405129.185
1477447.0,1534405129.225
1477958.0,1534405129.265
1477489.0,1534405129.345
1477998.0,1534405129.305
1476399.0,1534405129.385
1475106.0,1534405129.425
1474390.0,1534405129.465
1473277.0,1534405129.505
1473157.0,1534405129.545
1473152.0,1534405129.585
1473283.0,1534405129.625
1473352.0,1534405129.665
1473603.0,1534405129.705
1473926.0,1534405129.745
1474308.0,1534405129.785
1474798.0,1534405129.825
1474894.0,1534405129.865
1475452.0,1534405129.905
1475948.0,1534405129.945
1476029.0,1534405129.985
1475252.0,1534405130.025
1474289.0,1534405130.065
1473432.0,1534405130.105
1472967.0,1534405130.145
1472810.0,1534405130.185
1473275.0,1534405130.225
1473908.0,1534405130.265
1474512.0,1534405130.305
1477094.0,1534405130.345
1480302.0,1534405130.385
1483485.0,1534405130.425
1486435.0,1534405130.465
1491598.0,1534405130.505
1499794.0,1534405130.545
1508723.0,1534405130.585
1534040.0,1534405130.665
1520697.0,1534405130.625
1558857.0,1534405130.745
1570149.0,1534405130.785
1547137.0,1534405130.705
1580125.0,1534405130.825
1589475.0,1534405130.865
1598666.0,1534405130.905
1607163.0,1534405130.945
1615721.0,1534405130.985
1624206.0,1534405131.025
1633088.0,1534405131.065
1641019.0,1534405131.105
1656347.0,1534405131.185
1663284.0,1534405131.225
1648638.0,1534405131.145
1670627.0,1534405131.265
1678085.0,1534405131.305
1691690.0,1534405131.385
1685687.0,1534405131.345
1697427.0,1534405131.425
1702511.0,1534405131.465
1707745.0,1534405131.505
1722158.0,1534405131.625
1727162.0,1534405131.665
1732743.0,1534405131.705
1717839.0,1534405131.585
1712845.0,1534405131.545
1737219.0,1534405131.745
1741802.0,1534405131.785
1745562.0,1534405131.825
1749408.0,1534405131.865
