bvp,time
0.77,1778927104.59375
-3.13,1778927104.609375
-7.18,1778927104.625
-11.83,1778927104.640625
-17.72,1778927104.65625
-25.43,1778927104.671875
-35.18,1778927104.6875
-46.58,1778927104.703125
-58.53,1778927104.71875
-69.36,1778927104.734375
-77.31,1778927104.75
-81.08,1778927104.765625
-80.28,1778927104.78125
-75.63,1778927104.796875
-68.62,1778927104.8125
-60.93,1778927104.828125
-53.8,1778927104.84375
-47.7,1778927104.859375
-42.44,1778927104.875
-37.58,1778927104.890625
-33.02,1778927104.90625
-29.18,1778927104.921875
-27.07,1778927104.9375
-27.95,1778927104.953125
-32.96,1778927104.96875
-42.67,1778927104.984375
-56.87,1778927105.0
-74.52,1778927105.015625
-93.72,1778927105.03125
-111.8,1778927105.046875
-125.67,1778927105.0625
-132.55,1778927105.078125
-131.01,1778927105.09375
-121.5,1778927105.109375
-106.22,1778927105.125
-88.15,1778927105.140625
-69.76,1778927105.15625
-51.96,1778927105.171875
-34.15,1778927105.1875
-15.04,1778927105.203125
5.87,1778927105.21875
27.42,1778927105.234375
46.85,1778927105.25
60.84,1778927105.265625
66.98,1778927105.28125
64.86,1778927105.296875
56.27,1778927105.3125
44.57,1778927105.328125
33.37,1778927105.34375
25.52,1778927105.359375
22.37,1778927105.375
23.54,1778927105.390625
27.13,1778927105.40625
30.47,1778927105.421875
31.13,1778927105.4375
27.84,1778927105.453125
20.81,1778927105.46875
11.64,1778927105.484375
2.59,1778927105.5
-4.19,1778927105.515625
-7.29,1778927105.53125
-6.2,1778927105.546875
-0.86,1778927105.5625
8.72,1778927105.578125
22.47,1778927105.59375
39.7,1778927105.609375
58.54,1778927105.625
76.13,1778927105.640625
89.83,1778927105.65625
99.17,1778927105.671875
107.18,1778927105.6875
120.14,1778927105.703125
145.37,1778927105.71875
187.74,1778927105.734375
246.98,1778927105.75
317.14,1778927105.765625
388.51,1778927105.78125
450.89,1778927105.796875
496.5,1778927105.8125
521.15,1778927105.828125
523.31,1778927105.84375
502.86,1778927105.859375
460.89,1778927105.875
401.05,1778927105.890625
330.98,1778927105.90625
261.99,1778927105.921875
205.9,1778927105.9375
170.06,1778927105.953125
153.58,1778927105.96875
147.06,1778927105.984375
136.84,1778927106.0
111.55,1778927106.015625
67.52,1778927106.03125
10.07,1778927106.046875
-49.82,1778927106.0625
-101.32,1778927106.078125
-138.5,1778927106.09375
-161.68,1778927106.109375
-175.23,1778927106.125
-183.83,1778927106.140625
-189.66,1778927106.15625
-192.12,1778927106.171875
-189.46,1778927106.1875
-181.04,1778927106.203125
-168.35,1778927106.21875
-154.54,1778927106.234375
-143.03,1778927106.25
-135.92,1778927106.265625
-133.23,1778927106.28125
-133.25,1778927106.296875
-133.65,1778927106.3125
-132.57,1778927106.328125
-129.25,1778927106.34375
-124.02,1778927106.359375
-117.67,1778927106.375
-110.7,1778927106.390625
-102.88,1778927106.40625
-93.31,1778927106.421875
-80.9,1778927106.4375
-65.02,1778927106.453125
-45.92,1778927106.46875
-24.84,1778927106.484375
-3.54,1778927106.5
16.24,1778927106.515625
33.35,1778927106.53125
47.46,1778927106.546875
58.95,1778927106.5625
68.45,1778927106.578125
76.39,1778927106.59375
82.61,1778927106.609375
86.3,1778927106.625
86.24,1778927106.640625
81.24,1778927106.65625
70.74,1778927106.671875
55.2,1778927106.6875
36.19,1778927106.703125
15.88,1778927106.71875
-3.55,1778927106.734375
-20.56,1778927106.75
-34.63,1778927106.765625
-46.08,1778927106.78125
-55.68,1778927106.796875
-64.07,1778927106.8125
-71.48,1778927106.828125
-77.67,1778927106.84375
-82.12,1778927106.859375
-84.17,1778927106.875
-83.13,1778927106.890625
-78.4,1778927106.90625
-69.53,1778927106.921875
-56.55,1778927106.9375
-40.12,1778927106.953125
-21.7,1778927106.96875
-3.16,1778927106.984375
13.68,1778927107.0
27.73,1778927107.015625
38.87,1778927107.03125
47.84,1778927107.046875
55.67,1778927107.0625
63.07,1778927107.078125
70.11,1778927107.09375
76.26,1778927107.109375
80.88,1778927107.125
83.65,1778927107.140625
84.81,1778927107.15625
85.04,1778927107.171875
85.05,1778927107.1875
85.37,1778927107.203125
86.49,1778927107.21875
89.1,1778927107.234375
94.18,1778927107.25
102.49,1778927107.265625
113.66,1778927107.28125
125.44,1778927107.296875
133.69,1778927107.3125
133.42,1778927107.328125
120.5,1778927107.34375
93.08,1778927107.359375
52.16,1778927107.375
1.15,1778927107.390625
-55.21,1778927107.40625
-111.99,1778927107.421875
-164.69,1778927107.4375
-209.4,1778927107.453125
-242.84,1778927107.46875
-262.5,1778927107.484375
-267.07,1778927107.5
-256.81,1778927107.515625
-233.78,1778927107.53125
-201.54,1778927107.546875
-164.4,1778927107.5625
-126.6,1778927107.578125
-91.49,1778927107.59375
-61.25,1778927107.609375
-36.87,1778927107.625
-18.73,1778927107.640625
-7.18,1778927107.65625
-2.73,1778927107.671875
-5.87,1778927107.6875
-16.31,1778927107.703125
-32.47,1778927107.71875
-51.39,1778927107.734375
-69.44,1778927107.75
-83.39,1778927107.765625
-91.35,1778927107.78125
-93.11,1778927107.796875
-89.9,1778927107.8125
-83.61,1778927107.828125
-76.23,1778927107.84375
-69.39,1778927107.859375
-64.33,1778927107.875
-61.9,1778927107.890625
-62.51,1778927107.90625
-65.97,1778927107.921875
-71.34,1778927107.9375
-76.98,1778927107.953125
-80.77,1778927107.96875
-80.6,1778927107.984375
-75.03,1778927108.0
-63.63,1778927108.015625
-47.22,1778927108.03125
-27.57,1778927108.046875
-6.81,1778927108.0625
13.11,1778927108.078125
30.99,1778927108.09375
46.47,1778927108.109375
59.92,1778927108.125
72.09,1778927108.140625
83.79,1778927108.15625
95.64,1778927108.171875
107.92,1778927108.1875
120.44,1778927108.203125
132.57,1778927108.21875
143.46,1778927108.234375
152.24,1778927108.25
158.37,1778927108.265625
161.8,1778927108.28125
162.94,1778927108.296875
162.5,1778927108.3125
161.13,1778927108.328125
159.27,1778927108.34375
157.11,1778927108.359375
154.7,1778927108.375
152.09,1778927108.390625
149.34,1778927108.40625
146.49,1778927108.421875
143.4,1778927108.4375
139.69,1778927108.453125
134.81,1778927108.46875
128.17,1778927108.484375
119.34,1778927108.5
108.24,1778927108.515625
95.17,1778927108.53125
80.77,1778927108.546875
65.91,1778927108.5625
51.54,1778927108.578125
38.55,1778927108.59375
27.68,1778927108.609375
19.46,1778927108.625
14.25,1778927108.640625
12.31,1778927108.65625
13.81,1778927108.671875
18.74,1778927108.6875
26.79,1778927108.703125
37.13,1778927108.71875
48.58,1778927108.734375
59.79,1778927108.75
69.68,1778927108.765625
77.59,1778927108.78125
83.19,1778927108.796875
86.14,1778927108.8125
85.75,1778927108.828125
81.03,1778927108.84375
71.12,1778927108.859375
55.88,1778927108.875
36.29,1778927108.890625
14.24,1778927108.90625
-7.99,1778927108.921875
-28.52,1778927108.9375
-46.27,1778927108.953125
-60.86,1778927108.96875
-72.22,1778927108.984375
-80.2,1778927109.0
-84.65,1778927109.015625
-85.61,1778927109.03125
-83.69,1778927109.046875
-79.98,1778927109.0625
-75.74,1778927109.078125
-71.87,1778927109.09375
-68.71,1778927109.109375
-66.14,1778927109.125
-64.01,1778927109.140625
-62.55,1778927109.15625
-62.51,1778927109.171875
-64.92,1778927109.1875
-70.62,1778927109.203125
-79.91,1778927109.21875
-92.37,1778927109.234375
-106.96,1778927109.25
-122.16,1778927109.265625
-136.25,1778927109.28125
-147.39,1778927109.296875
-153.81,1778927109.3125
-154.11,1778927109.328125
-147.5,1778927109.34375
-134.1,1778927109.359375
-114.94,1778927109.375
-91.75,1778927109.390625
-66.61,1778927109.40625
-41.44,1778927109.421875
-17.65,1778927109.4375
3.98,1778927109.453125
23.21,1778927109.46875
40.09,1778927109.484375
54.73,1778927109.5
67.08,1778927109.515625
77.0,1778927109.53125
84.41,1778927109.546875
89.57,1778927109.5625
93.14,1778927109.578125
96.18,1778927109.59375
99.75,1778927109.609375
104.58,1778927109.625
110.7,1778927109.640625
117.43,1778927109.65625
123.63,1778927109.671875
128.04,1778927109.6875
129.78,1778927109.703125
128.58,1778927109.71875
124.81,1778927109.734375
119.34,1778927109.75
113.2,1778927109.765625
107.28,1778927109.78125
102.03,1778927109.796875
97.45,1778927109.8125
93.12,1778927109.828125
88.53,1778927109.84375
83.45,1778927109.859375
78.23,1778927109.875
73.89,1778927109.890625
71.94,1778927109.90625
74.1,1778927109.921875
81.75,1778927109.9375
95.28,1778927109.953125
113.57,1778927109.96875
133.66,1778927109.984375
151.07,1778927110.0
160.91,1778927110.015625
159.34,1778927110.03125
144.83,1778927110.046875
118.69,1778927110.0625
84.48,1778927110.078125
46.45,1778927110.09375
8.07,1778927110.109375
-29.09,1778927110.125
-65.42,1778927110.140625
-102.57,1778927110.15625
-142.45,1778927110.171875
-186.08,1778927110.1875
-232.76,1778927110.203125
-279.68,1778927110.21875
-322.23,1778927110.234375
-354.94,1778927110.25
-373.09,1778927110.265625
-374.18,1778927110.28125
-358.99,1778927110.296875
-331.25,1778927110.3125
-296.4,1778927110.328125
-259.87,1778927110.34375
-225.76,1778927110.359375
-196.37,1778927110.375
-172.53,1778927110.390625
-154.22,1778927110.40625
-141.05,1778927110.421875
-132.35,1778927110.4375
-126.98,1778927110.453125
-123.43,1778927110.46875
-119.99,1778927110.484375
-115.25,1778927110.5
-108.37,1778927110.515625
-99.16,1778927110.53125
-88.0,1778927110.546875
-75.58,1778927110.5625
-62.62,1778927110.578125
-49.6,1778927110.59375
-36.68,1778927110.609375
-23.73,1778927110.625
-10.49,1778927110.640625
3.12,1778927110.65625
16.84,1778927110.671875
29.94,1778927110.6875
41.44,1778927110.703125
50.42,1778927110.71875
56.39,1778927110.734375
59.46,1778927110.75
60.23,1778927110.765625
59.57,1778927110.78125
58.26,1778927110.796875
56.79,1778927110.8125
55.3,1778927110.828125
53.7,1778927110.84375
51.83,1778927110.859375
49.58,1778927110.875
46.88,1778927110.890625
43.78,1778927110.90625
40.34,1778927110.921875
36.7,1778927110.9375
33.01,1778927110.953125
29.4,1778927110.96875
25.94,1778927110.984375
22.63,1778927111.0
19.39,1778927111.015625
16.14,1778927111.03125
12.84,1778927111.046875
9.44,1778927111.0625
5.88,1778927111.078125
2.09,1778927111.09375
-1.92,1778927111.109375
-5.9,1778927111.125
-9.3,1778927111.140625
-11.28,1778927111.15625
-11.04,1778927111.171875
-8.11,1778927111.1875
-2.59,1778927111.203125
4.88,1778927111.21875
13.41,1778927111.234375
22.22,1778927111.25
30.88,1778927111.265625
39.28,1778927111.28125
47.42,1778927111.296875
55.21,1778927111.3125
62.33,1778927111.328125
68.36,1778927111.34375
72.96,1778927111.359375
76.06,1778927111.375
77.84,1778927111.390625
78.72,1778927111.40625
79.18,1778927111.421875
79.66,1778927111.4375
80.56,1778927111.453125
82.13,1778927111.46875
84.49,1778927111.484375
87.57,1778927111.5
91.09,1778927111.515625
94.6,1778927111.53125
97.59,1778927111.546875
99.65,1778927111.5625
100.53,1778927111.578125
100.13,1778927111.59375
98.51,1778927111.609375
95.81,1778927111.625
92.31,1778927111.640625
88.31,1778927111.65625
84.13,1778927111.671875
79.95,1778927111.6875
75.77,1778927111.703125
71.35,1778927111.71875
66.44,1778927111.734375
60.91,1778927111.75
54.98,1778927111.765625
49.12,1778927111.78125
43.82,1778927111.796875
39.23,1778927111.8125
35.05,1778927111.828125
30.6,1778927111.84375
25.11,1778927111.859375
18.12,1778927111.875
9.59,1778927111.890625
-0.05,1778927111.90625
-10.12,1778927111.921875
-19.91,1778927111.9375
-28.76,1778927111.953125
-36.08,1778927111.96875
-41.34,1778927111.984375
-44.2,1778927112.0
-44.66,1778927112.015625
-43.22,1778927112.03125
-40.75,1778927112.046875
-38.06,1778927112.0625
-35.52,1778927112.078125
-32.69,1778927112.09375
-28.55,1778927112.109375
-21.98,1778927112.125
-12.48,1778927112.140625
-0.47,1778927112.15625
12.73,1778927112.171875
25.5,1778927112.1875
36.59,1778927112.203125
45.59,1778927112.21875
53.05,1778927112.234375
60.14,1778927112.25
68.32,1778927112.265625
78.79,1778927112.28125
92.02,1778927112.296875
107.39,1778927112.3125
122.83,1778927112.328125
135.13,1778927112.34375
140.68,1778927112.359375
136.66,1778927112.375
122.05,1778927112.390625
98.05,1778927112.40625
67.56,1778927112.421875
33.87,1778927112.4375
-0.5,1778927112.453125
-34.63,1778927112.46875
-69.11,1778927112.484375
-105.58,1778927112.5
-145.65,1778927112.515625
-189.98,1778927112.53125
-237.48,1778927112.546875
-284.82,1778927112.5625
-327.03,1778927112.578125
-358.71,1778927112.59375
-375.86,1778927112.609375
-377.32,1778927112.625
-365.2,1778927112.640625
-343.88,1778927112.65625
-318.15,1778927112.671875
-291.49,1778927112.6875
-265.44,1778927112.703125
-240.12,1778927112.71875
-215.49,1778927112.734375
-192.23,1778927112.75
-171.69,1778927112.765625
-155.16,1778927112.78125
-142.94,1778927112.796875
-134.12,1778927112.8125
-127.02,1778927112.828125
-120.1,1778927112.84375
-112.63,1778927112.859375
-104.76,1778927112.875
-97.22,1778927112.890625
-90.76,1778927112.90625
-85.69,1778927112.921875
-81.85,1778927112.9375
-78.65,1778927112.953125
-75.43,1778927112.96875
-71.61,1778927112.984375
-66.82,1778927113.0
-61.01,1778927113.015625
-54.32,1778927113.03125
-47.02,1778927113.046875
-39.27,1778927113.0625
-31.05,1778927113.078125
-22.11,1778927113.09375
-12.2,1778927113.109375
-1.18,1778927113.125
10.72,1778927113.140625
22.91,1778927113.15625
34.55,1778927113.171875
44.85,1778927113.1875
53.33,1778927113.203125
59.9,1778927113.21875
64.81,1778927113.234375
68.44,1778927113.25
71.11,1778927113.265625
72.95,1778927113.28125
73.9,1778927113.296875
73.83,1778927113.3125
72.64,1778927113.328125
70.41,1778927113.34375
67.4,1778927113.359375
64.02,1778927113.375
60.73,1778927113.390625
57.89,1778927113.40625
55.7,1778927113.421875
54.12,1778927113.4375
52.98,1778927113.453125
51.96,1778927113.46875
50.77,1778927113.484375
49.18,1778927113.5
47.09,1778927113.515625
44.58,1778927113.53125
41.82,1778927113.546875
39.1,1778927113.5625
36.69,1778927113.578125
34.76,1778927113.59375
33.34,1778927113.609375
32.22,1778927113.625
31.05,1778927113.640625
29.49,1778927113.65625
27.29,1778927113.671875
24.51,1778927113.6875
21.54,1778927113.703125
19.1,1778927113.71875
18.04,1778927113.734375
19.2,1778927113.75
23.09,1778927113.765625
29.69,1778927113.78125
38.41,1778927113.796875
48.16,1778927113.8125
57.79,1778927113.828125
66.39,1778927113.84375
73.6,1778927113.859375
79.66,1778927113.875
85.1,1778927113.890625
90.47,1778927113.90625
96.02,1778927113.921875
101.64,1778927113.9375
107.05,1778927113.953125
112.02,1778927113.96875
116.44,1778927113.984375
120.24,1778927114.0
123.27,1778927114.015625
125.14,1778927114.03125
125.36,1778927114.046875
123.61,1778927114.0625
120.02,1778927114.078125
115.28,1778927114.09375
110.39,1778927114.109375
106.29,1778927114.125
103.38,1778927114.140625
101.46,1778927114.15625
99.82,1778927114.171875
97.6,1778927114.1875
94.29,1778927114.203125
89.89,1778927114.21875
84.88,1778927114.234375
80.08,1778927114.25
76.18,1778927114.265625
73.5,1778927114.28125
71.79,1778927114.296875
70.26,1778927114.3125
67.87,1778927114.328125
63.77,1778927114.34375
57.62,1778927114.359375
49.88,1778927114.375
41.67,1778927114.390625
34.4,1778927114.40625
29.63,1778927114.421875
28.75,1778927114.4375
32.87,1778927114.453125
42.41,1778927114.46875
56.56,1778927114.484375
72.83,1778927114.5
87.17,1778927114.515625
94.84,1778927114.53125
91.91,1778927114.546875
76.51,1778927114.5625
49.42,1778927114.578125
13.34,1778927114.59375
-28.52,1778927114.609375
-73.7,1778927114.625
-120.83,1778927114.640625
-168.89,1778927114.65625
-216.02,1778927114.671875
-258.93,1778927114.6875
-293.41,1778927114.703125
-315.74,1778927114.71875
-324.34,1778927114.734375
-320.42,1778927114.75
-307.49,1778927114.765625
-289.89,1778927114.78125
-271.1,1778927114.796875
-252.83,1778927114.8125
-234.99,1778927114.828125
-216.56,1778927114.84375
-196.65,1778927114.859375
-175.2,1778927114.875
-153.04,1778927114.890625
-131.45,1778927114.90625
-111.56,1778927114.921875
-93.92,1778927114.9375
-78.47,1778927114.953125
-64.93,1778927114.96875
-53.13,1778927114.984375
-43.35,1778927115.0
-36.11,1778927115.015625
-31.88,1778927115.03125
-30.66,1778927115.046875
-31.85,1778927115.0625
-34.47,1778927115.078125
-37.52,1778927115.09375
-40.42,1778927115.109375
-43.15,1778927115.125
-46.0,1778927115.140625
-49.2,1778927115.15625
-52.5,1778927115.171875
-55.08,1778927115.1875
-55.8,1778927115.203125
-53.65,1778927115.21875
-48.13,1778927115.234375
-39.5,1778927115.25
-28.65,1778927115.265625
-16.77,1778927115.28125
-4.97,1778927115.296875
5.9,1778927115.3125
15.42,1778927115.328125
23.48,1778927115.34375
30.16,1778927115.359375
35.59,1778927115.375
39.88,1778927115.390625
43.1,1778927115.40625
45.33,1778927115.421875
46.71,1778927115.4375
47.46,1778927115.453125
47.87,1778927115.46875
48.26,1778927115.484375
48.81,1778927115.5
49.58,1778927115.515625
50.4,1778927115.53125
51.05,1778927115.546875
51.33,1778927115.5625
51.19,1778927115.578125
50.76,1778927115.59375
50.24,1778927115.609375
49.81,1778927115.625
49.53,1778927115.640625
49.35,1778927115.65625
49.12,1778927115.671875
48.7,1778927115.6875
47.97,1778927115.703125
46.87,1778927115.71875
45.37,1778927115.734375
43.44,1778927115.75
41.18,1778927115.765625
38.77,1778927115.78125
36.47,1778927115.796875
34.52,1778927115.8125
32.99,1778927115.828125
31.81,1778927115.84375
30.73,1778927115.859375
29.49,1778927115.875
27.93,1778927115.890625
26.17,1778927115.90625
24.66,1778927115.921875
24.15,1778927115.9375
25.55,1778927115.953125
29.66,1778927115.96875
37.0,1778927115.984375
47.51,1778927116.0
60.6,1778927116.015625
75.36,1778927116.03125
90.8,1778927116.046875
106.17,1778927116.0625
120.97,1778927116.078125
134.93,1778927116.09375
147.76,1778927116.109375
159.02,1778927116.125
168.16,1778927116.140625
174.64,1778927116.15625
178.15,1778927116.171875
178.58,1778927116.1875
175.99,1778927116.203125
170.55,1778927116.21875
162.48,1778927116.234375
152.11,1778927116.25
139.91,1778927116.265625
126.46,1778927116.28125
112.27,1778927116.296875
97.66,1778927116.3125
82.74,1778927116.328125
67.56,1778927116.34375
52.27,1778927116.359375
37.29,1778927116.375
23.16,1778927116.390625
10.37,1778927116.40625
-0.85,1778927116.421875
-10.56,1778927116.4375
-19.09,1778927116.453125
-26.77,1778927116.46875
-33.82,1778927116.484375
-40.27,1778927116.5
-46.14,1778927116.515625
-51.54,1778927116.53125
-56.67,1778927116.546875
-61.73,1778927116.5625
-66.72,1778927116.578125
-71.27,1778927116.59375
-74.64,1778927116.609375
-76.02,1778927116.625
-74.93,1778927116.640625
-71.61,1778927116.65625
-66.97,1778927116.671875
-62.4,1778927116.6875
-59.13,1778927116.703125
-57.6,1778927116.71875
-57.12,1778927116.734375
-55.93,1778927116.75
-51.59,1778927116.765625
-41.61,1778927116.78125
-24.25,1778927116.796875
0.82,1778927116.8125
31.77,1778927116.828125
64.57,1778927116.84375
93.55,1778927116.859375
112.71,1778927116.875
117.57,1778927116.890625
106.23,1778927116.90625
79.86,1778927116.921875
41.68,1778927116.9375
-4.31,1778927116.953125
-54.5,1778927116.96875
-106.0,1778927116.984375
-156.22,1778927117.0
-202.25,1778927117.015625
-240.73,1778927117.03125
-268.46,1778927117.046875
-283.41,1778927117.0625
-285.46,1778927117.078125
-276.53,1778927117.09375
-259.75,1778927117.109375
-238.47,1778927117.125
-215.35,1778927117.140625
-192.13,1778927117.15625
-169.79,1778927117.171875
-148.98,1778927117.1875
-130.2,1778927117.203125
-113.94,1778927117.21875
-100.43,1778927117.234375
-89.58,1778927117.25
-81.02,1778927117.265625
-74.19,1778927117.28125
-68.52,1778927117.296875
-63.51,1778927117.3125
-58.84,1778927117.328125
-54.29,1778927117.34375
-49.83,1778927117.359375
-45.69,1778927117.375
-42.38,1778927117.390625
-40.57,1778927117.40625
-40.84,1778927117.421875
-43.29,1778927117.4375
-47.41,1778927117.453125
-52.13,1778927117.46875
-56.16,1778927117.484375
-58.39,1778927117.5
-58.15,1778927117.515625
-55.22,1778927117.53125
-49.69,1778927117.546875
-41.78,1778927117.5625
-31.86,1778927117.578125
-20.42,1778927117.59375
-8.18,1778927117.609375
4.0,1778927117.625
15.3,1778927117.640625
25.1,1778927117.65625
33.09,1778927117.671875
39.2,1778927117.6875
43.51,1778927117.703125
46.02,1778927117.71875
46.74,1778927117.734375
45.79,1778927117.75
43.43,1778927117.765625
40.15,1778927117.78125
36.57,1778927117.796875
33.21,1778927117.8125
30.4,1778927117.828125
28.19,1778927117.84375
26.4,1778927117.859375
24.79,1778927117.875
23.14,1778927117.890625
21.3,1778927117.90625
19.22,1778927117.921875
16.89,1778927117.9375
14.32,1778927117.953125
11.51,1778927117.96875
8.51,1778927117.984375
5.33,1778927118.0
1.98,1778927118.015625
-1.61,1778927118.03125
-5.66,1778927118.046875
-10.48,1778927118.0625
-16.33,1778927118.078125
-23.15,1778927118.09375
-30.38,1778927118.109375
-36.84,1778927118.125
-40.98,1778927118.140625
-41.2,1778927118.15625
-36.43,1778927118.171875
-26.44,1778927118.1875
-11.86,1778927118.203125
5.95,1778927118.21875
25.41,1778927118.234375
45.16,1778927118.25
64.34,1778927118.265625
82.58,1778927118.28125
99.8,1778927118.296875
115.98,1778927118.3125
130.93,1778927118.328125
144.27,1778927118.34375
155.58,1778927118.359375
164.64,1778927118.375
171.58,1778927118.390625
176.93,1778927118.40625
181.42,1778927118.421875
185.71,1778927118.4375
190.19,1778927118.453125
195.06,1778927118.46875
200.43,1778927118.484375
206.48,1778927118.5
213.22,1778927118.515625
220.13,1778927118.53125
225.8,1778927118.546875
228.1,1778927118.5625
224.85,1778927118.578125
214.86,1778927118.59375
198.69,1778927118.609375
178.56,1778927118.625
157.37,1778927118.640625
137.37,1778927118.65625
119.22,1778927118.671875
102.0,1778927118.6875
84.12,1778927118.703125
64.44,1778927118.71875
42.96,1778927118.734375
20.8,1778927118.75
-0.47,1778927118.765625
-19.42,1778927118.78125
-35.0,1778927118.796875
-46.26,1778927118.8125
-51.89,1778927118.828125
-50.21,1778927118.84375
-39.7,1778927118.859375
-20.08,1778927118.875
6.7,1778927118.890625
36.07,1778927118.90625
61.74,1778927118.921875
77.3,1778927118.9375
78.21,1778927118.953125
63.1,1778927118.96875
33.69,1778927118.984375
-6.34,1778927119.0
-53.03,1778927119.015625
-103.3,1778927119.03125
-155.01,1778927119.046875
-206.02,1778927119.0625
-253.34,1778927119.078125
-292.86,1778927119.09375
-320.46,1778927119.109375
-333.63,1778927119.125
-332.71,1778927119.140625
-321.01,1778927119.15625
-303.43,1778927119.171875
-284.71,1778927119.1875
-267.91,1778927119.203125
-254.07,1778927119.21875
-242.79,1778927119.234375
-233.25,1778927119.25
-224.98,1778927119.265625
-217.89,1778927119.28125
-212.02,1778927119.296875
-207.09,1778927119.3125
-202.39,1778927119.328125
-197.12,1778927119.34375
-190.8,1778927119.359375
-183.61,1778927119.375
-176.26,1778927119.390625
-169.5,1778927119.40625
-163.49,1778927119.421875
-157.49,1778927119.4375
-149.9,1778927119.453125
-138.75,1778927119.46875
-122.56,1778927119.484375
-100.98,1778927119.5
-74.97,1778927119.515625
-46.65,1778927119.53125
-18.49,1778927119.546875
7.38,1778927119.5625
29.73,1778927119.578125
48.21,1778927119.59375
63.08,1778927119.609375
74.75,1778927119.625
83.46,1778927119.640625
89.26,1778927119.65625
92.21,1778927119.671875
92.57,1778927119.6875
90.93,1778927119.703125
88.12,1778927119.71875
84.98,1778927119.734375
82.07,1778927119.75
79.55,1778927119.765625
77.21,1778927119.78125
74.67,1778927119.796875
71.62,1778927119.8125
67.93,1778927119.828125
63.74,1778927119.84375
59.27,1778927119.859375
54.7,1778927119.875
50.01,1778927119.890625
45.02,1778927119.90625
39.43,1778927119.921875
32.91,1778927119.9375
25.2,1778927119.953125
16.07,1778927119.96875
5.46,1778927119.984375
-6.44,1778927120.0
-18.88,1778927120.015625
-30.5,1778927120.03125
-39.41,1778927120.046875
-43.66,1778927120.0625
-41.82,1778927120.078125
-33.49,1778927120.09375
-19.42,1778927120.109375
-1.28,1778927120.125
18.98,1778927120.140625
39.72,1778927120.15625
59.87,1778927120.171875
78.94,1778927120.1875
96.8,1778927120.203125
113.25,1778927120.21875
127.94,1778927120.234375
140.41,1778927120.25
150.22,1778927120.265625
157.22,1778927120.28125
161.63,1778927120.296875
163.95,1778927120.3125
164.92,1778927120.328125
165.4,1778927120.34375
166.14,1778927120.359375
167.79,1778927120.375
170.67,1778927120.390625
174.61,1778927120.40625
178.87,1778927120.421875
182.27,1778927120.4375
183.48,1778927120.453125
181.53,1778927120.46875
176.14,1778927120.484375
167.89,1778927120.5
157.92,1778927120.515625
147.47,1778927120.53125
137.41,1778927120.546875
127.88,1778927120.5625
118.41,1778927120.578125
108.02,1778927120.59375
95.64,1778927120.609375
80.36,1778927120.625
61.71,1778927120.640625
39.98,1778927120.65625
16.34,1778927120.671875
-7.23,1778927120.6875
-28.3,1778927120.703125
-44.78,1778927120.71875
-55.5,1778927120.734375
-60.52,1778927120.75
-60.85,1778927120.765625
-57.79,1778927120.78125
-52.28,1778927120.796875
-44.65,1778927120.8125
-34.84,1778927120.828125
-22.98,1778927120.84375
-9.8,1778927120.859375
3.42,1778927120.875
15.32,1778927120.890625
24.99,1778927120.90625
32.51,1778927120.921875
38.88,1778927120.9375
45.58,1778927120.953125
54.05,1778927120.96875
65.06,1778927120.984375
78.45,1778927121.0
92.99,1778927121.015625
106.6,1778927121.03125
116.82,1778927121.046875
121.52,1778927121.0625
119.62,1778927121.078125
111.57,1778927121.09375
99.31,1778927121.109375
85.6,1778927121.125
72.96,1778927121.140625
62.81,1778927121.15625
55.03,1778927121.171875
48.43,1778927121.1875
41.66,1778927121.203125
33.99,1778927121.21875
25.71,1778927121.234375
17.85,1778927121.25
11.66,1778927121.265625
8.16,1778927121.28125
8.04,1778927121.296875
11.74,1778927121.3125
19.23,1778927121.328125
29.62,1778927121.34375
40.55,1778927121.359375
48.19,1778927121.375
48.04,1778927121.390625
36.41,1778927121.40625
11.96,1778927121.421875
-23.51,1778927121.4375
-65.65,1778927121.453125
-109.07,1778927121.46875
-148.9,1778927121.484375
-181.91,1778927121.5
-206.49,1778927121.515625
-222.14,1778927121.53125
-228.87,1778927121.546875
-227.06,1778927121.5625
-217.8,1778927121.578125
-203.13,1778927121.59375
-185.89,1778927121.609375
-169.0,1778927121.625
-154.56,1778927121.640625
-143.19,1778927121.65625
-134.11,1778927121.671875
-125.74,1778927121.6875
-116.73,1778927121.703125
-106.61,1778927121.71875
-95.83,1778927121.734375
-85.41,1778927121.75
-76.2,1778927121.765625
-68.34,1778927121.78125
-61.26,1778927121.796875
-54.0,1778927121.8125
-45.86,1778927121.828125
-36.8,1778927121.84375
-27.52,1778927121.859375
-19.04,1778927121.875
-12.32,1778927121.890625
-7.78,1778927121.90625
-5.26,1778927121.921875
-4.19,1778927121.9375
-3.95,1778927121.953125
-4.09,1778927121.96875
-4.43,1778927121.984375
-5.04,1778927122.0
-6.08,1778927122.015625
-7.8,1778927122.03125
-10.49,1778927122.046875
-14.45,1778927122.0625
-19.79,1778927122.078125
-26.28,1778927122.09375
-33.11,1778927122.109375
-38.92,1778927122.125
-42.18,1778927122.140625
-41.55,1778927122.15625
-36.36,1778927122.171875
-26.77,1778927122.1875
-13.71,1778927122.203125
1.49,1778927122.21875
17.4,1778927122.234375
32.83,1778927122.25
46.87,1778927122.265625
58.88,1778927122.28125
68.46,1778927122.296875
75.28,1778927122.3125
79.25,1778927122.328125
80.48,1778927122.34375
79.32,1778927122.359375
76.32,1778927122.375
72.1,1778927122.390625
67.25,1778927122.40625
62.15,1778927122.421875
57.04,1778927122.4375
52.05,1778927122.453125
47.3,1778927122.46875
43.01,1778927122.484375
39.51,1778927122.5
37.07,1778927122.515625
35.7,1778927122.53125
35.1,1778927122.546875
34.67,1778927122.5625
33.71,1778927122.578125
31.76,1778927122.59375
28.77,1778927122.609375
25.07,1778927122.625
21.17,1778927122.640625
17.54,1778927122.65625
14.33,1778927122.671875
11.35,1778927122.6875
8.15,1778927122.703125
4.26,1778927122.71875
-0.56,1778927122.734375
-6.13,1778927122.75
-11.73,1778927122.765625
-16.22,1778927122.78125
-18.26,1778927122.796875
-16.75,1778927122.8125
-11.06,1778927122.828125
-1.3,1778927122.84375
11.81,1778927122.859375
27.17,1778927122.875
43.61,1778927122.890625
60.11,1778927122.90625
75.84,1778927122.921875
90.15,1778927122.9375
102.48,1778927122.953125
112.32,1778927122.96875
119.34,1778927122.984375
123.46,1778927123.0
124.88,1778927123.015625
124.0,1778927123.03125
121.27,1778927123.046875
117.07,1778927123.0625
111.61,1778927123.078125
105.01,1778927123.09375
97.47,1778927123.109375
89.36,1778927123.125
81.23,1778927123.140625
73.69,1778927123.15625
67.2,1778927123.171875
61.83,1778927123.1875
57.2,1778927123.203125
52.58,1778927123.21875
47.08,1778927123.234375
39.98,1778927123.25
30.91,1778927123.265625
20.01,1778927123.28125
7.93,1778927123.296875
-4.22,1778927123.3125
-15.06,1778927123.328125
-23.26,1778927123.34375
-27.84,1778927123.359375
-28.58,1778927123.375
-26.07,1778927123.390625
-21.49,1778927123.40625
-16.09,1778927123.421875
-10.59,1778927123.4375
-4.9,1778927123.453125
1.9,1778927123.46875
11.09,1778927123.484375
23.89,1778927123.5
40.94,1778927123.515625
61.91,1778927123.53125
85.13,1778927123.546875
107.65,1778927123.5625
125.55,1778927123.578125
134.8,1778927123.59375
132.4,1778927123.609375
117.28,1778927123.625
90.5,1778927123.640625
54.63,1778927123.65625
12.61,1778927123.671875
-33.18,1778927123.6875
-80.97,1778927123.703125
-129.04,1778927123.71875
-174.93,1778927123.734375
-215.25,1778927123.75
-246.46,1778927123.765625
-266.15,1778927123.78125
-274.15,1778927123.796875
-272.52,1778927123.8125
-264.69,1778927123.828125
-253.92,1778927123.84375
-242.32,1778927123.859375
-230.51,1778927123.875
-218.16,1778927123.890625
-204.8,1778927123.90625
-190.44,1778927123.921875
-175.64,1778927123.9375
-161.15,1778927123.953125
-147.55,1778927123.96875
-134.96,1778927123.984375
-123.18,1778927124.0
-111.9,1778927124.015625
-101.01,1778927124.03125
-90.82,1778927124.046875
-81.85,1778927124.0625
-74.61,1778927124.078125
-69.16,1778927124.09375
-64.94,1778927124.109375
-60.68,1778927124.125
-54.84,1778927124.140625
-46.14,1778927124.15625
-34.09,1778927124.171875
-19.2,1778927124.1875
-2.74,1778927124.203125
13.74,1778927124.21875
28.93,1778927124.234375
42.07,1778927124.25
52.95,1778927124.265625
61.73,1778927124.28125
68.62,1778927124.296875
73.8,1778927124.3125
77.33,1778927124.328125
79.26,1778927124.34375
79.71,1778927124.359375
78.84,1778927124.375
76.9,1778927124.390625
74.15,1778927124.40625
70.82,1778927124.421875
67.12,1778927124.4375
63.2,1778927124.453125
59.17,1778927124.46875
55.1,1778927124.484375
51.08,1778927124.5
47.17,1778927124.515625
43.41,1778927124.53125
39.75,1778927124.546875
36.1,1778927124.5625
32.33,1778927124.578125
28.43,1778927124.59375
24.51,1778927124.609375
20.78,1778927124.625
17.5,1778927124.640625
14.77,1778927124.65625
12.47,1778927124.671875
10.26,1778927124.6875
7.67,1778927124.703125
4.33,1778927124.71875
0.14,1778927124.734375
-4.66,1778927124.75
-9.45,1778927124.765625
-13.39,1778927124.78125
-15.64,1778927124.796875
-15.52,1778927124.8125
-12.7,1778927124.828125
-7.3,1778927124.84375
0.29,1778927124.859375
9.42,1778927124.875
19.36,1778927124.890625
29.44,1778927124.90625
39.06,1778927124.921875
47.71,1778927124.9375
54.99,1778927124.953125
60.68,1778927124.96875
64.68,1778927124.984375
67.12,1778927125.0
68.23,1778927125.015625
68.32,1778927125.03125
67.67,1778927125.046875
66.47,1778927125.0625
64.91,1778927125.078125
63.19,1778927125.09375
61.54,1778927125.109375
60.13,1778927125.125
59.1,1778927125.140625
58.41,1778927125.15625
57.98,1778927125.171875
57.56,1778927125.1875
57.0,1778927125.203125
56.11,1778927125.21875
54.78,1778927125.234375
52.95,1778927125.25
50.58,1778927125.265625
47.7,1778927125.28125
44.3,1778927125.296875
40.42,1778927125.3125
36.07,1778927125.328125
31.23,1778927125.34375
25.76,1778927125.359375
19.54,1778927125.375
12.51,1778927125.390625
4.9,1778927125.40625
-2.62,1778927125.421875
-8.99,1778927125.4375
-12.95,1778927125.453125
-13.59,1778927125.46875
-10.7,1778927125.484375
-5.04,1778927125.5
1.89,1778927125.515625
8.4,1778927125.53125
13.25,1778927125.546875
16.06,1778927125.5625
17.28,1778927125.578125
17.77,1778927125.59375
18.24,1778927125.609375
18.83,1778927125.625
19.19,1778927125.640625
18.79,1778927125.65625
17.4,1778927125.671875
15.29,1778927125.6875
13.18,1778927125.703125
11.82,1778927125.71875
11.66,1778927125.734375
12.8,1778927125.75
15.32,1778927125.765625
19.62,1778927125.78125
26.56,1778927125.796875
36.77,1778927125.8125
49.85,1778927125.828125
63.65,1778927125.84375
74.41,1778927125.859375
77.78,1778927125.875
70.42,1778927125.890625
51.08,1778927125.90625
20.71,1778927125.921875
-18.26,1778927125.9375
-63.05,1778927125.953125
-111.07,1778927125.96875
-159.7,1778927125.984375
-205.77,1778927126.0
-245.26,1778927126.015625
-273.92,1778927126.03125
-288.58,1778927126.046875
-288.4,1778927126.0625
-275.33,1778927126.078125
-253.5,1778927126.09375
-227.73,1778927126.109375
-202.11,1778927126.125
-178.99,1778927126.140625
-158.99,1778927126.15625
-141.54,1778927126.171875
-125.63,1778927126.1875
-110.47,1778927126.203125
-95.75,1778927126.21875
-81.59,1778927126.234375
-68.31,1778927126.25
-56.14,1778927126.265625
-45.12,1778927126.28125
-35.0,1778927126.296875
-25.51,1778927126.3125
-16.47,1778927126.328125
-7.94,1778927126.34375
-0.21,1778927126.359375
6.36,1778927126.375
11.52,1778927126.390625
15.25,1778927126.40625
17.86,1778927126.421875
19.71,1778927126.4375
21.19,1778927126.453125
22.44,1778927126.46875
23.34,1778927126.484375
23.63,1778927126.5
23.1,1778927126.515625
21.7,1778927126.53125
19.56,1778927126.546875
16.94,1778927126.5625
13.99,1778927126.578125
10.6,1778927126.59375
6.53,1778927126.609375
1.57,1778927126.625
-4.16,1778927126.640625
-10.03,1778927126.65625
-15.01,1778927126.671875
-17.93,1778927126.6875
-17.88,1778927126.703125
-14.55,1778927126.71875
-8.31,1778927126.734375
-0.02,1778927126.75
9.23,1778927126.765625
18.46,1778927126.78125
27.01,1778927126.796875
34.5,1778927126.8125
40.74,1778927126.828125
45.66,1778927126.84375
49.25,1778927126.859375
51.54,1778927126.875
52.67,1778927126.890625
52.8,1778927126.90625
52.11,1778927126.921875
50.73,1778927126.9375
48.76,1778927126.953125
46.3,1778927126.96875
43.55,1778927126.984375
40.78,1778927127.0
38.27,1778927127.015625
36.17,1778927127.03125
34.51,1778927127.046875
33.14,1778927127.0625
31.86,1778927127.078125
30.54,1778927127.09375
29.11,1778927127.109375
27.6,1778927127.125
26.01,1778927127.140625
24.3,1778927127.15625
22.4,1778927127.171875
20.22,1778927127.1875
17.69,1778927127.203125
14.77,1778927127.21875
11.37,1778927127.234375
7.43,1778927127.25
3.04,1778927127.265625
-1.4,1778927127.28125
-5.12,1778927127.296875
-7.0,1778927127.3125
-5.97,1778927127.328125
-1.34,1778927127.34375
6.89,1778927127.359375
17.96,1778927127.375
30.73,1778927127.390625
43.99,1778927127.40625
56.88,1778927127.421875
68.93,1778927127.4375
79.98,1778927127.453125
89.95,1778927127.46875
98.73,1778927127.484375
106.14,1778927127.5
112.11,1778927127.515625
116.69,1778927127.53125
119.99,1778927127.546875
122.05,1778927127.5625
122.62,1778927127.578125
121.14,1778927127.59375
116.86,1778927127.609375
109.16,1778927127.625
97.86,1778927127.640625
83.4,1778927127.65625
66.9,1778927127.671875
49.87,1778927127.6875
33.94,1778927127.703125
20.34,1778927127.71875
9.6,1778927127.734375
1.41,1778927127.75
-5.13,1778927127.765625
-11.09,1778927127.78125
-17.12,1778927127.796875
-23.22,1778927127.8125
-28.69,1778927127.828125
-32.48,1778927127.84375
-33.58,1778927127.859375
-31.23,1778927127.875
-25.13,1778927127.890625
-15.69,1778927127.90625
-4.32,1778927127.921875
6.4,1778927127.9375
12.99,1778927127.953125
12.05,1778927127.96875
1.61,1778927127.984375
-17.93,1778927128.0
-43.66,1778927128.015625
-71.13,1778927128.03125
-96.03,1778927128.046875
-115.57,1778927128.0625
-129.1,1778927128.078125
-137.54,1778927128.09375
-142.4,1778927128.109375
-144.87,1778927128.125
-145.48,1778927128.140625
-144.42,1778927128.15625
-141.94,1778927128.171875
-138.63,1778927128.1875
-135.19,1778927128.203125
-132.08,1778927128.21875
-129.23,1778927128.234375
-126.1,1778927128.25
-121.9,1778927128.265625
-116.02,1778927128.28125
-108.36,1778927128.296875
-99.42,1778927128.3125
-90.09,1778927128.328125
-81.31,1778927128.34375
-73.73,1778927128.359375
-67.44,1778927128.375
-62.04,1778927128.390625
-56.89,1778927128.40625
-51.5,1778927128.421875
-45.78,1778927128.4375
-40.08,1778927128.453125
-35.0,1778927128.46875
-30.84,1778927128.484375
-27.42,1778927128.5
-23.93,1778927128.515625
-19.23,1778927128.53125
-12.32,1778927128.546875
-2.83,1778927128.5625
8.86,1778927128.578125
21.77,1778927128.59375
34.74,1778927128.609375
46.89,1778927128.625
57.78,1778927128.640625
67.31,1778927128.65625
75.52,1778927128.671875
82.29,1778927128.6875
87.27,1778927128.703125
90.08,1778927128.71875
90.5,1778927128.734375
88.73,1778927128.75
85.29,1778927128.765625
80.9,1778927128.78125
76.16,1778927128.796875
71.38,1778927128.8125
66.48,1778927128.828125
61.22,1778927128.84375
55.38,1778927128.859375
48.96,1778927128.875
42.22,1778927128.890625
35.58,1778927128.90625
29.37,1778927128.921875
23.72,1778927128.9375
18.56,1778927128.953125
13.57,1778927128.96875
8.37,1778927128.984375
2.59,1778927129.0
-3.98,1778927129.015625
-11.26,1778927129.03125
-18.79,1778927129.046875
-25.7,1778927129.0625
-30.97,1778927129.078125
-33.6,1778927129.09375
-33.04,1778927129.109375
-29.27,1778927129.125
-22.83,1778927129.140625
-14.55,1778927129.15625
-5.28,1778927129.171875
4.23,1778927129.1875
13.46,1778927129.203125
21.99,1778927129.21875
29.42,1778927129.234375
35.35,1778927129.25
39.45,1778927129.265625
41.58,1778927129.28125
41.86,1778927129.296875
40.7,1778927129.3125
38.65,1778927129.328125
36.29,1778927129.34375
34.06,1778927129.359375
32.13,1778927129.375
30.44,1778927129.390625
28.77,1778927129.40625
26.91,1778927129.421875
24.82,1778927129.4375
22.64,1778927129.453125
20.68,1778927129.46875
19.13,1778927129.484375
18.05,1778927129.5
17.22,1778927129.515625
16.18,1778927129.53125
14.41,1778927129.546875
11.43,1778927129.5625
6.95,1778927129.578125
1.02,1778927129.59375
-5.96,1778927129.609375
-13.24,1778927129.625
-19.84,1778927129.640625
-24.84,1778927129.65625
-27.58,1778927129.671875
-27.87,1778927129.6875
-26.0,1778927129.703125
-22.63,1778927129.71875
-18.56,1778927129.734375
-14.51,1778927129.75
-10.97,1778927129.765625
-8.12,1778927129.78125
-5.99,1778927129.796875
-4.38,1778927129.8125
-3.03,1778927129.828125
-1.69,1778927129.84375
-0.21,1778927129.859375
1.38,1778927129.875
2.82,1778927129.890625
3.64,1778927129.90625
3.21,1778927129.921875
0.93,1778927129.9375
-3.62,1778927129.953125
-10.54,1778927129.96875
-19.56,1778927129.984375
-30.1,1778927130.0
-41.36,1778927130.015625
-52.54,1778927130.03125
-62.96,1778927130.046875
-72.1,1778927130.0625
-79.7,1778927130.078125
-85.67,1778927130.09375
-90.19,1778927130.109375
-93.61,1778927130.125
-96.33,1778927130.140625
-98.69,1778927130.15625
-100.66,1778927130.171875
-101.87,1778927130.1875
-101.68,1778927130.203125
-99.49,1778927130.21875
-95.04,1778927130.234375
-88.53,1778927130.25
-80.42,1778927130.265625
-71.27,1778927130.28125
-61.35,1778927130.296875
-50.78,1778927130.3125
-39.53,1778927130.328125
-27.62,1778927130.34375
-15.23,1778927130.359375
-2.46,1778927130.375
10.71,1778927130.390625
24.58,1778927130.40625
39.43,1778927130.421875
55.32,1778927130.4375
71.61,1778927130.453125
87.03,1778927130.46875
99.95,1778927130.484375
108.81,1778927130.5
112.68,1778927130.515625
111.42,1778927130.53125
105.65,1778927130.546875
96.45,1778927130.5625
85.03,1778927130.578125
72.49,1778927130.59375
59.7,1778927130.609375
47.29,1778927130.625
35.59,1778927130.640625
24.62,1778927130.65625
14.14,1778927130.671875
3.82,1778927130.6875
-6.42,1778927130.703125
-16.17,1778927130.71875
-24.41,1778927130.734375
-29.76,1778927130.75
-30.94,1778927130.765625
-27.31,1778927130.78125
-19.24,1778927130.796875
-8.02,1778927130.8125
4.39,1778927130.828125
15.98,1778927130.84375
25.14,1778927130.859375
30.96,1778927130.875
33.33,1778927130.890625
32.69,1778927130.90625
29.73,1778927130.921875
25.14,1778927130.9375
19.5,1778927130.953125
13.29,1778927130.96875
7.0,1778927130.984375
1.21,1778927131.0
-3.41,1778927131.015625
-6.26,1778927131.03125
-6.95,1778927131.046875
-5.42,1778927131.0625
-1.96,1778927131.078125
2.99,1778927131.09375
8.97,1778927131.109375
15.62,1778927131.125
22.69,1778927131.140625
29.87,1778927131.15625
36.7,1778927131.171875
42.53,1778927131.1875
46.68,1778927131.203125
48.66,1778927131.21875
48.39,1778927131.234375
46.18,1778927131.25
42.63,1778927131.265625
38.35,1778927131.28125
33.7,1778927131.296875
28.9,1778927131.3125
24.16,1778927131.328125
19.96,1778927131.34375
17.07,1778927131.359375
16.39,1778927131.375
18.55,1778927131.390625
23.57,1778927131.40625
30.8,1778927131.421875
39.1,1778927131.4375
47.33,1778927131.453125
54.73,1778927131.46875
61.0,1778927131.484375
66.23,1778927131.5
70.74,1778927131.515625
74.93,1778927131.53125
79.24,1778927131.546875
83.99,1778927131.5625
89.1,1778927131.578125
93.84,1778927131.59375
96.8,1778927131.609375
96.15,1778927131.625
90.12,1778927131.640625
77.55,1778927131.65625
58.19,1778927131.671875
32.74,1778927131.6875
2.64,1778927131.703125
-30.29,1778927131.71875
-63.93,1778927131.734375
-96.07,1778927131.75
-124.45,1778927131.765625
-147.13,1778927131.78125
-162.86,1778927131.796875
-171.41,1778927131.8125
-173.59,1778927131.828125
-170.86,1778927131.84375
-164.86,1778927131.859375
-156.99,1778927131.875
-148.15,1778927131.890625
-138.76,1778927131.90625
-128.98,1778927131.921875
-118.88,1778927131.9375
-108.6,1778927131.953125
-98.39,1778927131.96875
-88.42,1778927131.984375
-78.8,1778927132.0
-69.49,1778927132.015625
-60.54,1778927132.03125
-52.18,1778927132.046875
-44.95,1778927132.0625
-39.54,1778927132.078125
-36.44,1778927132.09375
-35.65,1778927132.109375
-36.49,1778927132.125
-37.72,1778927132.140625
-38.06,1778927132.15625
-36.62,1778927132.171875
-33.31,1778927132.1875
-28.64,1778927132.203125
-23.45,1778927132.21875
-18.36,1778927132.234375
-13.58,1778927132.25
-9.04,1778927132.265625
-4.72,1778927132.28125
-0.9,1778927132.296875
1.86,1778927132.3125
3.07,1778927132.328125
2.72,1778927132.34375
1.55,1778927132.359375
0.81,1778927132.375
1.83,1778927132.390625
5.46,1778927132.40625
11.76,1778927132.421875
20.11,1778927132.4375
29.55,1778927132.453125
39.21,1778927132.46875
48.51,1778927132.484375
57.17,1778927132.5
65.01,1778927132.515625
71.84,1778927132.53125
77.43,1778927132.546875
81.58,1778927132.5625
84.31,1778927132.578125
85.8,1778927132.59375
86.45,1778927132.609375
86.6,1778927132.625
86.51,1778927132.640625
86.19,1778927132.65625
85.59,1778927132.671875
84.58,1778927132.6875
83.14,1778927132.703125
81.3,1778927132.71875
79.16,1778927132.734375
76.76,1778927132.75
74.07,1778927132.765625
70.96,1778927132.78125
67.17,1778927132.796875
62.37,1778927132.8125
56.22,1778927132.828125
48.47,1778927132.84375
39.14,1778927132.859375
28.71,1778927132.875
18.14,1778927132.890625
8.78,1778927132.90625
2.05,1778927132.921875
-1.07,1778927132.9375
-0.24,1778927132.953125
4.03,1778927132.96875
10.71,1778927132.984375
18.65,1778927133.0
26.98,1778927133.015625
35.25,1778927133.03125
43.33,1778927133.046875
51.01,1778927133.0625
57.82,1778927133.078125
62.92,1778927133.09375
65.45,1778927133.109375
64.96,1778927133.125
61.7,1778927133.140625
56.64,1778927133.15625
51.04,1778927133.171875
45.9,1778927133.1875
41.58,1778927133.203125
37.66,1778927133.21875
33.45,1778927133.234375
28.42,1778927133.25
22.72,1778927133.265625
17.24,1778927133.28125
13.38,1778927133.296875
12.56,1778927133.3125
15.89,1778927133.328125
23.92,1778927133.34375
36.42,1778927133.359375
52.4,1778927133.375
69.83,1778927133.390625
85.76,1778927133.40625
96.64,1778927133.421875
99.12,1778927133.4375
91.01,1778927133.453125
71.92,1778927133.46875
43.35,1778927133.484375
8.09,1778927133.5
-30.66,1778927133.515625
-70.01,1778927133.53125
-107.51,1778927133.546875
-140.92,1778927133.5625
-167.86,1778927133.578125
-185.87,1778927133.59375
-193.06,1778927133.609375
-188.97,1778927133.625
-175.2,1778927133.640625
-155.14,1778927133.65625
-133.04,1778927133.671875
-112.61,1778927133.6875
-95.96,1778927133.703125
-83.28,1778927133.71875
-73.54,1778927133.734375
-65.38,1778927133.75
-58.01,1778927133.765625
-51.35,1778927133.78125
-45.76,1778927133.796875
-41.35,1778927133.8125
-37.78,1778927133.828125
-34.26,1778927133.84375
-30.15,1778927133.859375
-25.29,1778927133.875
-20.17,1778927133.890625
-15.7,1778927133.90625
-12.73,1778927133.921875
-11.78,1778927133.9375
-12.84,1778927133.953125
-15.54,1778927133.96875
-19.19,1778927133.984375
-22.93,1778927134.0
-25.78,1778927134.015625
-26.76,1778927134.03125
-25.13,1778927134.046875
-20.59,1778927134.0625
-13.41,1778927134.078125
-4.29,1778927134.09375
5.82,1778927134.109375
16.02,1778927134.125
25.59,1778927134.140625
34.01,1778927134.15625
40.92,1778927134.171875
45.99,1778927134.1875
49.02,1778927134.203125
49.98,1778927134.21875
49.18,1778927134.234375
47.13,1778927134.25
44.53,1778927134.265625
41.93,1778927134.28125
39.7,1778927134.296875
37.9,1778927134.3125
36.43,1778927134.328125
35.08,1778927134.34375
33.71,1778927134.359375
32.26,1778927134.375
30.73,1778927134.390625
29.19,1778927134.40625
27.6,1778927134.421875
25.91,1778927134.4375
23.91,1778927134.453125
21.29,1778927134.46875
17.73,1778927134.484375
13.05,1778927134.5
7.45,1778927134.515625
1.55,1778927134.53125
-3.59,1778927134.546875
-6.82,1778927134.5625
-7.25,1778927134.578125
-4.51,1778927134.59375
1.09,1778927134.609375
8.73,1778927134.625
17.35,1778927134.640625
26.04,1778927134.65625
34.14,1778927134.671875
41.26,1778927134.6875
47.26,1778927134.703125
51.91,1778927134.71875
55.03,1778927134.734375
56.36,1778927134.75
55.77,1778927134.765625
53.25,1778927134.78125
49.0,1778927134.796875
43.33,1778927134.8125
36.69,1778927134.828125
29.59,1778927134.84375
22.55,1778927134.859375
16.02,1778927134.875
10.25,1778927134.890625
5.2,1778927134.90625
0.61,1778927134.921875
-3.84,1778927134.9375
-8.38,1778927134.953125
-12.99,1778927134.96875
-17.5,1778927134.984375
-21.74,1778927135.0
-25.71,1778927135.015625
-29.61,1778927135.03125
-33.63,1778927135.046875
-37.77,1778927135.0625
-41.63,1778927135.078125
-44.48,1778927135.09375
-45.54,1778927135.109375
-44.32,1778927135.125
-40.88,1778927135.140625
-35.83,1778927135.15625
-30.19,1778927135.171875
-25.02,1778927135.1875
-21.05,1778927135.203125
-18.51,1778927135.21875
-17.14,1778927135.234375
-16.4,1778927135.25
-15.83,1778927135.265625
-15.35,1778927135.28125
-15.19,1778927135.296875
-15.89,1778927135.3125
-17.91,1778927135.328125
-21.55,1778927135.34375
-26.77,1778927135.359375
-33.31,1778927135.375
-40.69,1778927135.390625
-48.29,1778927135.40625
-55.33,1778927135.421875
-60.91,1778927135.4375
-64.16,1778927135.453125
-64.58,1778927135.46875
-62.31,1778927135.484375
-58.33,1778927135.5
-54.3,1778927135.515625
-52.14,1778927135.53125
-53.42,1778927135.546875
-58.79,1778927135.5625
-67.64,1778927135.578125
-78.2,1778927135.59375
-87.98,1778927135.609375
-94.55,1778927135.625
-96.1,1778927135.640625
-91.76,1778927135.65625
-81.52,1778927135.671875
-65.8,1778927135.6875
-45.13,1778927135.703125
-20.12,1778927135.71875
8.29,1778927135.734375
38.54,1778927135.75
68.37,1778927135.765625
95.28,1778927135.78125
117.32,1778927135.796875
133.66,1778927135.8125
144.73,1778927135.828125
151.69,1778927135.84375
155.55,1778927135.859375
156.47,1778927135.875
153.74,1778927135.890625
146.35,1778927135.90625
133.86,1778927135.921875
117.04,1778927135.9375
97.79,1778927135.953125
78.59,1778927135.96875
61.5,1778927135.984375
47.5,1778927136.0
36.25,1778927136.015625
26.57,1778927136.03125
17.01,1778927136.046875
6.5,1778927136.0625
-5.28,1778927136.078125
-17.98,1778927136.09375
-30.73,1778927136.109375
-42.39,1778927136.125
-51.81,1778927136.140625
-57.95,1778927136.15625
-60.06,1778927136.171875
-57.79,1778927136.1875
-51.31,1778927136.203125
-41.41,1778927136.21875
-29.29,1778927136.234375
-16.51,1778927136.25
-4.64,1778927136.265625
5.08,1778927136.28125
11.97,1778927136.296875
16.02,1778927136.3125
17.81,1778927136.328125
18.23,1778927136.34375
18.23,1778927136.359375
18.44,1778927136.375
19.15,1778927136.390625
20.23,1778927136.40625
21.25,1778927136.421875
21.64,1778927136.4375
20.75,1778927136.453125
18.02,1778927136.46875
13.13,1778927136.484375
6.22,1778927136.5
-2.03,1778927136.515625
-10.46,1778927136.53125
-17.8,1778927136.546875
-23.03,1778927136.5625
-25.76,1778927136.578125
-26.24,1778927136.59375
-25.09,1778927136.609375
-22.98,1778927136.625
-20.38,1778927136.640625
-17.51,1778927136.65625
-14.5,1778927136.671875
-11.58,1778927136.6875
-8.99,1778927136.703125
-6.84,1778927136.71875
-4.84,1778927136.734375
-2.3,1778927136.75
1.61,1778927136.765625
7.55,1778927136.78125
15.66,1778927136.796875
25.65,1778927136.8125
37.1,1778927136.828125
49.73,1778927136.84375
63.48,1778927136.859375
78.03,1778927136.875
92.61,1778927136.890625
105.87,1778927136.90625
116.33,1778927136.921875
122.87,1778927136.9375
124.94,1778927136.953125
122.22,1778927136.96875
113.95,1778927136.984375
98.57,1778927137.0
74.07,1778927137.015625
39.3,1778927137.03125
-4.67,1778927137.046875
-53.91,1778927137.0625
-102.31,1778927137.078125
-143.5,1778927137.09375
-173.05,1778927137.109375
-189.71,1778927137.125
-195.33,1778927137.140625
-193.56,1778927137.15625
-188.12,1778927137.171875
-181.67,1778927137.1875
-175.49,1778927137.203125
-169.83,1778927137.21875
-164.42,1778927137.234375
-158.74,1778927137.25
-151.98,1778927137.265625
-143.02,1778927137.28125
-130.54,1778927137.296875
-113.59,1778927137.3125
-92.11,1778927137.328125
-67.15,1778927137.34375
-40.75,1778927137.359375
-15.34,1778927137.375
6.98,1778927137.390625
24.93,1778927137.40625
38.14,1778927137.421875
46.99,1778927137.4375
52.24,1778927137.453125
54.76,1778927137.46875
55.39,1778927137.484375
54.79,1778927137.5
53.44,1778927137.515625
51.52,1778927137.53125
49.06,1778927137.546875
45.93,1778927137.5625
42.12,1778927137.578125
37.8,1778927137.59375
33.39,1778927137.609375
29.32,1778927137.625
25.87,1778927137.640625
22.96,1778927137.65625
20.15,1778927137.671875
16.85,1778927137.6875
12.43,1778927137.703125
6.55,1778927137.71875
-0.85,1778927137.734375
-9.47,1778927137.75
-18.65,1778927137.765625
-27.41,1778927137.78125
-34.52,1778927137.796875
-38.77,1778927137.8125
-39.26,1778927137.828125
-35.68,1778927137.84375
-28.42,1778927137.859375
-18.42,1778927137.875
-6.92,1778927137.890625
4.88,1778927137.90625
16.03,1778927137.921875
25.85,1778927137.9375
33.92,1778927137.953125
39.97,1778927137.96875
43.91,1778927137.984375
45.86,1778927138.0
46.16,1778927138.015625
45.27,1778927138.03125
43.7,1778927138.046875
41.88,1778927138.0625
40.03,1778927138.078125
38.23,1778927138.09375
36.43,1778927138.109375
34.6,1778927138.125
32.74,1778927138.140625
30.95,1778927138.15625
29.29,1778927138.171875
27.78,1778927138.1875
26.28,1778927138.203125
24.44,1778927138.21875
21.83,1778927138.234375
17.98,1778927138.25
12.68,1778927138.265625
6.03,1778927138.28125
-1.4,1778927138.296875
-8.69,1778927138.3125
-14.83,1778927138.328125
-18.91,1778927138.34375
-20.41,1778927138.359375
-19.18,1778927138.375
-15.43,1778927138.390625
-9.55,1778927138.40625
-2.16,1778927138.421875
6.05,1778927138.4375
14.19,1778927138.453125
21.22,1778927138.46875
26.16,1778927138.484375
28.26,1778927138.5
27.36,1778927138.515625
23.83,1778927138.53125
18.56,1778927138.546875
12.58,1778927138.5625
6.8,1778927138.578125
1.77,1778927138.59375
-2.33,1778927138.609375
-5.57,1778927138.625
-8.23,1778927138.640625
-10.65,1778927138.65625
-13.29,1778927138.671875
-16.47,1778927138.6875
-20.32,1778927138.703125
-24.6,1778927138.71875
-28.72,1778927138.734375
-31.91,1778927138.75
-33.56,1778927138.765625
-33.41,1778927138.78125
-31.75,1778927138.796875
-29.21,1778927138.8125
-26.45,1778927138.828125
-23.83,1778927138.84375
-21.23,1778927138.859375
-18.16,1778927138.875
-14.03,1778927138.890625
-8.42,1778927138.90625
-1.28,1778927138.921875
7.18,1778927138.9375
16.58,1778927138.953125
26.58,1778927138.96875
36.87,1778927138.984375
47.11,1778927139.0
56.77,1778927139.015625
65.07,1778927139.03125
71.13,1778927139.046875
74.18,1778927139.0625
73.86,1778927139.078125
70.34,1778927139.09375
64.32,1778927139.109375
56.68,1778927139.125
48.23,1778927139.140625
39.45,1778927139.15625
30.49,1778927139.171875
21.25,1778927139.1875
11.66,1778927139.203125
1.86,1778927139.21875
-7.83,1778927139.234375
-16.91,1778927139.25
-25.02,1778927139.265625
-31.96,1778927139.28125
-37.76,1778927139.296875
-42.5,1778927139.3125
-46.28,1778927139.328125
-49.06,1778927139.34375
-50.81,1778927139.359375
-51.64,1778927139.375
-51.74,1778927139.390625
-51.34,1778927139.40625
-50.45,1778927139.421875
-48.64,1778927139.4375
-45.17,1778927139.453125
-39.3,1778927139.46875
-30.75,1778927139.484375
-19.96,1778927139.5
-8.06,1778927139.515625
3.61,1778927139.53125
14.08,1778927139.546875
22.98,1778927139.5625
30.53,1778927139.578125
37.08,1778927139.59375
42.63,1778927139.609375
46.76,1778927139.625
48.81,1778927139.640625
48.29,1778927139.65625
45.31,1778927139.671875
40.57,1778927139.6875
35.12,1778927139.703125
29.88,1778927139.71875
25.31,1778927139.734375
21.26,1778927139.75
17.28,1778927139.765625
12.89,1778927139.78125
7.97,1778927139.796875
2.76,1778927139.8125
-2.19,1778927139.828125
-6.37,1778927139.84375
-9.51,1778927139.859375
-11.72,1778927139.875
-13.26,1778927139.890625
-14.33,1778927139.90625
-14.84,1778927139.921875
-14.36,1778927139.9375
-12.34,1778927139.953125
-8.3,1778927139.96875
-1.98,1778927139.984375
6.63,1778927140.0
17.38,1778927140.015625
30.0,1778927140.03125
44.21,1778927140.046875
59.59,1778927140.0625
75.59,1778927140.078125
91.52,1778927140.09375
106.62,1778927140.109375
120.2,1778927140.125
131.88,1778927140.140625
141.56,1778927140.15625
149.5,1778927140.171875
156.06,1778927140.1875
161.33,1778927140.203125
164.86,1778927140.21875
165.52,1778927140.234375
161.68,1778927140.25
151.59,1778927140.265625
133.92,1778927140.28125
107.95,1778927140.296875
73.68,1778927140.3125
31.76,1778927140.328125
-16.44,1778927140.34375
-68.74,1778927140.359375
-121.98,1778927140.375
-172.34,1778927140.390625
-215.99,1778927140.40625
-250.0,1778927140.421875
-273.09,1778927140.4375
-285.71,1778927140.453125
-289.46,1778927140.46875
-286.1,1778927140.484375
-276.92,1778927140.5
-262.41,1778927140.515625
-242.79,1778927140.53125
-218.55,1778927140.546875
-190.87,1778927140.5625
-161.46,1778927140.578125
-132.03,1778927140.59375
-103.67,1778927140.609375
-76.69,1778927140.625
-50.82,1778927140.640625
-25.68,1778927140.65625
-1.18,1778927140.671875
22.35,1778927140.6875
44.39,1778927140.703125
64.58,1778927140.71875
82.92,1778927140.734375
99.7,1778927140.75
115.35,1778927140.765625
130.18,1778927140.78125
144.59,1778927140.796875
159.14,1778927140.8125
174.52,1778927140.828125
191.08,1778927140.84375
208.13,1778927140.859375
223.44,1778927140.875
233.61,1778927140.890625
234.98,1778927140.90625
225.15,1778927140.921875
203.94,1778927140.9375
173.65,1778927140.953125
138.23,1778927140.96875
102.09,1778927140.984375
69.06,1778927141.0
41.85,1778927141.015625
22.16,1778927141.03125
10.71,1778927141.046875
7.08,1778927141.0625
9.45,1778927141.078125
14.51,1778927141.09375
18.04,1778927141.109375
16.24,1778927141.125
7.24,1778927141.140625
-8.14,1778927141.15625
-26.67,1778927141.171875
-44.09,1778927141.1875
-56.83,1778927141.203125
-63.33,1778927141.21875
-64.25,1778927141.234375
-61.67,1778927141.25
-57.91,1778927141.265625
-54.57,1778927141.28125
-52.3,1778927141.296875
-51.22,1778927141.3125
-51.47,1778927141.328125
-53.32,1778927141.34375
-57.01,1778927141.359375
-62.35,1778927141.375
-68.5,1778927141.390625
-74.15,1778927141.40625
-78.1,1778927141.421875
-79.75,1778927141.4375
-79.22,1778927141.453125
-77.18,1778927141.46875
-74.25,1778927141.484375
-70.65,1778927141.5
-66.06,1778927141.515625
-59.82,1778927141.53125
-51.38,1778927141.546875
-40.63,1778927141.5625
-28.08,1778927141.578125
-14.56,1778927141.59375
-0.86,1778927141.609375
12.56,1778927141.625
25.78,1778927141.640625
39.15,1778927141.65625
52.96,1778927141.671875
67.15,1778927141.6875
81.2,1778927141.703125
94.22,1778927141.71875
105.36,1778927141.734375
113.97,1778927141.75
119.78,1778927141.765625
122.78,1778927141.78125
123.17,1778927141.796875
121.31,1778927141.8125
117.73,1778927141.828125
113.16,1778927141.84375
108.45,1778927141.859375
104.3,1778927141.875
100.84,1778927141.890625
97.49,1778927141.90625
92.86,1778927141.921875
85.15,1778927141.9375
72.72,1778927141.953125
54.58,1778927141.96875
30.8,1778927141.984375
2.35,1778927142.0
-29.08,1778927142.015625
-61.4,1778927142.03125
-92.34,1778927142.046875
-119.58,1778927142.0625
-140.9,1778927142.078125
-154.53,1778927142.09375
-159.52,1778927142.109375
-156.12,1778927142.125
-145.86,1778927142.140625
-131.2,1778927142.15625
-114.85,1778927142.171875
-99.09,1778927142.1875
-85.16,1778927142.203125
-73.37,1778927142.21875
-63.3,1778927142.234375
-54.47,1778927142.25
-46.8,1778927142.265625
-40.62,1778927142.28125
-36.56,1778927142.296875
-35.09,1778927142.3125
-36.19,1778927142.328125
-39.29,1778927142.34375
-43.45,1778927142.359375
-47.69,1778927142.375
-51.09,1778927142.390625
-52.89,1778927142.40625
-52.39,1778927142.421875
-49.09,1778927142.4375
-42.99,1778927142.453125
-34.79,1778927142.46875
-25.99,1778927142.484375
-18.39,1778927142.5
-13.43,1778927142.515625
-11.59,1778927142.53125
-12.18,1778927142.546875
-13.75,1778927142.5625
-14.66,1778927142.578125
-13.76,1778927142.59375
-10.66,1778927142.609375
-5.6,1778927142.625
0.81,1778927142.640625
7.95,1778927142.65625
15.35,1778927142.671875
22.81,1778927142.6875
30.37,1778927142.703125
38.24,1778927142.71875
46.65,1778927142.734375
55.5,1778927142.75
64.22,1778927142.765625
71.63,1778927142.78125
76.27,1778927142.796875
76.83,1778927142.8125
72.63,1778927142.828125
63.71,1778927142.84375
50.77,1778927142.859375
34.7,1778927142.875
16.41,1778927142.890625
-3.21,1778927142.90625
-23.11,1778927142.921875
-41.85,1778927142.9375
-57.76,1778927142.953125
-69.26,1778927142.96875
-75.42,1778927142.984375
-76.34,1778927143.0
-73.0,1778927143.015625
-66.92,1778927143.03125
-59.58,1778927143.046875
-51.95,1778927143.0625
-44.42,1778927143.078125
-36.87,1778927143.09375
-28.96,1778927143.109375
-20.28,1778927143.125
-10.37,1778927143.140625
1.13,1778927143.15625
14.48,1778927143.171875
29.64,1778927143.1875
46.29,1778927143.203125
63.87,1778927143.21875
81.88,1778927143.234375
100.01,1778927143.25
118.1,1778927143.265625
135.83,1778927143.28125
152.33,1778927143.296875
166.11,1778927143.3125
175.39,1778927143.328125
178.75,1778927143.34375
175.79,1778927143.359375
167.37,1778927143.375
155.32,1778927143.390625
141.69,1778927143.40625
128.16,1778927143.421875
115.93,1778927143.4375
105.93,1778927143.453125
99.03,1778927143.46875
95.86,1778927143.484375
96.13,1778927143.5
98.02,1778927143.515625
98.24,1778927143.53125
92.9,1778927143.546875
78.93,1778927143.5625
55.27,1778927143.578125
23.05,1778927143.59375
-15.45,1778927143.609375
-58.18,1778927143.625
-104.1,1778927143.640625
-152.73,1778927143.65625
-202.77,1778927143.671875
-250.9,1778927143.6875
-291.75,1778927143.703125
-319.63,1778927143.71875
-330.75,1778927143.734375
-325.07,1778927143.75
-306.28,1778927143.765625
-280.15,1778927143.78125
-252.11,1778927143.796875
-225.47,1778927143.8125
-200.92,1778927143.828125
-177.63,1778927143.84375
-154.77,1778927143.859375
-132.68,1778927143.875
-112.77,1778927143.890625
-96.71,1778927143.90625
-85.3,1778927143.921875
-77.95,1778927143.9375
-72.94,1778927143.953125
-68.25,1778927143.96875
-62.55,1778927143.984375
-55.65,1778927144.0
-48.49,1778927144.015625
-42.4,1778927144.03125
-38.35,1778927144.046875
-36.44,1778927144.0625
-35.88,1778927144.078125
-35.51,1778927144.09375
-34.48,1778927144.109375
-32.74,1778927144.125
-31.1,1778927144.140625
-30.77,1778927144.15625
-32.7,1778927144.171875
-37.01,1778927144.1875
-42.73,1778927144.203125
-48.09,1778927144.21875
-51.04,1778927144.234375
-49.91,1778927144.25
-43.88,1778927144.265625
-33.16,1778927144.28125
-18.79,1778927144.296875
-2.22,1778927144.3125
15.04,1778927144.328125
31.71,1778927144.34375
46.85,1778927144.359375
59.79,1778927144.375
70.03,1778927144.390625
77.3,1778927144.40625
81.52,1778927144.421875
82.91,1778927144.4375
82.0,1778927144.453125
79.5,1778927144.46875
76.09,1778927144.484375
72.32,1778927144.5
68.46,1778927144.515625
64.54,1778927144.53125
60.47,1778927144.546875
56.1,1778927144.5625
51.41,1778927144.578125
46.51,1778927144.59375
41.69,1778927144.609375
37.26,1778927144.625
33.46,1778927144.640625
30.25,1778927144.65625
27.26,1778927144.671875
23.93,1778927144.6875
19.61,1778927144.703125
13.94,1778927144.71875
6.96,1778927144.734375
-0.8,1778927144.75
-8.38,1778927144.765625
-14.54,1778927144.78125
-18.09,1778927144.796875
-18.1,1778927144.8125
-14.22,1778927144.828125
-6.71,1778927144.84375
3.58,1778927144.859375
15.43,1778927144.875
27.58,1778927144.890625
38.94,1778927144.90625
48.76,1778927144.921875
56.44,1778927144.9375
61.59,1778927144.953125
63.85,1778927144.96875
63.09,1778927144.984375
59.53,1778927145.0
53.76,1778927145.015625
46.74,1778927145.03125
39.41,1778927145.046875
32.54,1778927145.0625
26.48,1778927145.078125
21.23,1778927145.09375
16.62,1778927145.109375
12.5,1778927145.125
8.86,1778927145.140625
5.86,1778927145.15625
3.7,1778927145.171875
2.51,1778927145.1875
2.25,1778927145.203125
2.53,1778927145.21875
2.69,1778927145.234375
1.94,1778927145.25
-0.52,1778927145.265625
-5.21,1778927145.28125
-12.2,1778927145.296875
-20.99,1778927145.3125
-30.47,1778927145.328125
-39.18,1778927145.34375
-45.48,1778927145.359375
-48.07,1778927145.375
-46.28,1778927145.390625
-40.34,1778927145.40625
-31.35,1778927145.421875
-20.91,1778927145.4375
-10.63,1778927145.453125
-1.64,1778927145.46875
5.61,1778927145.484375
11.21,1778927145.5
15.52,1778927145.515625
18.74,1778927145.53125
20.8,1778927145.546875
21.4,1778927145.5625
20.26,1778927145.578125
17.33,1778927145.59375
12.88,1778927145.609375
7.4,1778927145.625
1.33,1778927145.640625
-4.96,1778927145.65625
-11.33,1778927145.671875
-17.66,1778927145.6875
-23.78,1778927145.703125
-29.53,1778927145.71875
-34.85,1778927145.734375
-39.97,1778927145.75
-45.5,1778927145.765625
-52.31,1778927145.78125
-61.13,1778927145.796875
-72.16,1778927145.8125
-84.63,1778927145.828125
-96.86,1778927145.84375
-106.56,1778927145.859375
-111.59,1778927145.875
-110.49,1778927145.890625
-102.99,1778927145.90625
-89.9,1778927145.921875
-72.76,1778927145.9375
-53.19,1778927145.953125
-32.44,1778927145.96875
-11.3,1778927145.984375
9.74,1778927146.0
30.11,1778927146.015625
48.9,1778927146.03125
64.95,1778927146.046875
77.23,1778927146.0625
85.24,1778927146.078125
89.29,1778927146.09375
90.36,1778927146.109375
89.67,1778927146.125
88.15,1778927146.140625
86.22,1778927146.15625
83.78,1778927146.171875
80.71,1778927146.1875
77.1,1778927146.203125
73.45,1778927146.21875
70.37,1778927146.234375
68.15,1778927146.25
66.43,1778927146.265625
64.31,1778927146.28125
60.71,1778927146.296875
54.86,1778927146.3125
46.69,1778927146.328125
36.8,1778927146.34375
26.33,1778927146.359375
16.63,1778927146.375
8.99,1778927146.390625
4.49,1778927146.40625
3.88,1778927146.421875
7.45,1778927146.4375
15.0,1778927146.453125
25.88,1778927146.46875
39.09,1778927146.484375
53.43,1778927146.5
67.66,1778927146.515625
80.57,1778927146.53125
90.98,1778927146.546875
97.88,1778927146.5625
100.49,1778927146.578125
98.48,1778927146.59375
92.1,1778927146.609375
82.17,1778927146.625
69.89,1778927146.640625
56.44,1778927146.65625
42.73,1778927146.671875
29.22,1778927146.6875
15.97,1778927146.703125
2.87,1778927146.71875
-10.08,1778927146.734375
-22.67,1778927146.75
-34.46,1778927146.765625
-45.01,1778927146.78125
-54.11,1778927146.796875
-61.9,1778927146.8125
-68.81,1778927146.828125
-75.39,1778927146.84375
-82.14,1778927146.859375
-89.33,1778927146.875
-97.0,1778927146.890625
-104.85,1778927146.90625
-112.25,1778927146.921875
-118.21,1778927146.9375
-121.45,1778927146.953125
-120.65,1778927146.96875
-114.9,1778927146.984375
-104.01,1778927147.0
-88.63,1778927147.015625
-70.09,1778927147.03125
-49.98,1778927147.046875
-29.75,1778927147.0625
-10.49,1778927147.078125
7.05,1778927147.09375
22.35,1778927147.109375
34.99,1778927147.125
44.65,1778927147.140625
51.22,1778927147.15625
54.79,1778927147.171875
55.73,1778927147.1875
54.42,1778927147.203125
51.18,1778927147.21875
46.24,1778927147.234375
39.81,1778927147.25
32.26,1778927147.265625
24.2,1778927147.28125
16.35,1778927147.296875
9.33,1778927147.3125
3.49,1778927147.328125
-1.26,1778927147.34375
-5.25,1778927147.359375
-8.92,1778927147.375
-12.7,1778927147.390625
-16.99,1778927147.40625
-22.16,1778927147.421875
-28.69,1778927147.4375
-36.86,1778927147.453125
-46.5,1778927147.46875
-56.76,1778927147.484375
-66.13,1778927147.5
-72.74,1778927147.515625
-74.95,1778927147.53125
-71.88,1778927147.546875
-63.61,1778927147.5625
-51.07,1778927147.578125
-35.68,1778927147.59375
-18.84,1778927147.609375
-1.73,1778927147.625
14.72,1778927147.640625
29.8,1778927147.65625
42.75,1778927147.671875
52.91,1778927147.6875
59.83,1778927147.703125
63.43,1778927147.71875
64.1,1778927147.734375
62.6,1778927147.75
59.79,1778927147.765625
56.34,1778927147.78125
52.52,1778927147.796875
48.23,1778927147.8125
43.17,1778927147.828125
37.17,1778927147.84375
30.35,1778927147.859375
23.16,1778927147.875
16.21,1778927147.890625
9.98,1778927147.90625
4.59,1778927147.921875
-0.33,1778927147.9375
-5.47,1778927147.953125
-11.56,1778927147.96875
-19.07,1778927147.984375
-27.99,1778927148.0
-37.77,1778927148.015625
-47.47,1778927148.03125
-55.84,1778927148.046875
-61.56,1778927148.0625
-63.44,1778927148.078125
-60.65,1778927148.09375
-52.84,1778927148.109375
-40.35,1778927148.125
-24.14,1778927148.140625
-5.72,1778927148.15625
13.15,1778927148.171875
30.69,1778927148.1875
45.37,1778927148.203125
56.23,1778927148.21875
62.96,1778927148.234375
66.05,1778927148.25
66.72,1778927148.265625
66.62,1778927148.28125
67.43,1778927148.296875
70.15,1778927148.3125
74.73,1778927148.328125
79.94,1778927148.34375
83.78,1778927148.359375
84.31,1778927148.375
80.54,1778927148.390625
72.93,1778927148.40625
63.22,1778927148.421875
53.78,1778927148.4375
46.53,1778927148.453125
42.32,1778927148.46875
40.63,1778927148.484375
40.04,1778927148.5
38.91,1778927148.515625
35.96,1778927148.53125
30.55,1778927148.546875
22.66,1778927148.5625
12.91,1778927148.578125
2.69,1778927148.59375
-5.82,1778927148.609375
-9.98,1778927148.625
-7.8,1778927148.640625
0.6,1778927148.65625
12.15,1778927148.671875
21.21,1778927148.6875
21.62,1778927148.703125
9.4,1778927148.71875
-15.09,1778927148.734375
-47.02,1778927148.75
-78.91,1778927148.765625
-103.68,1778927148.78125
-117.15,1778927148.796875
-118.78,1778927148.8125
-110.74,1778927148.828125
-95.96,1778927148.84375
-76.86,1778927148.859375
-55.06,1778927148.875
-32.1,1778927148.890625
-10.16,1778927148.90625
8.04,1778927148.921875
20.12,1778927148.9375
25.13,1778927148.953125
24.14,1778927148.96875
19.76,1778927148.984375
14.97,1778927149.0
11.81,1778927149.015625
10.79,1778927149.03125
11.04,1778927149.046875
11.2,1778927149.0625
10.15,1778927149.078125
7.5,1778927149.09375
3.41,1778927149.109375
-1.73,1778927149.125
-7.72,1778927149.140625
-14.51,1778927149.15625
-22.08,1778927149.171875
-29.99,1778927149.1875
-37.28,1778927149.203125
-42.68,1778927149.21875
-44.91,1778927149.234375
-43.18,1778927149.25
-37.45,1778927149.265625
-28.43,1778927149.28125
-17.31,1778927149.296875
-5.39,1778927149.3125
6.14,1778927149.328125
16.31,1778927149.34375
24.38,1778927149.359375
29.82,1778927149.375
32.34,1778927149.390625
32.04,1778927149.40625
29.51,1778927149.421875
25.73,1778927149.4375
21.79,1778927149.453125
18.51,1778927149.46875
16.19,1778927149.484375
14.55,1778927149.5
13.0,1778927149.515625
11.0,1778927149.53125
8.35,1778927149.546875
5.3,1778927149.5625
2.3,1778927149.578125
-0.19,1778927149.59375
-2.08,1778927149.609375
-3.54,1778927149.625
-5.05,1778927149.640625
-7.12,1778927149.65625
-10.18,1778927149.671875
-14.49,1778927149.6875
-20.05,1778927149.703125
-26.5,1778927149.71875
-33.06,1778927149.734375
-38.5,1778927149.75
-41.4,1778927149.765625
-40.52,1778927149.78125
-35.26,1778927149.796875
-25.85,1778927149.8125
-13.38,1778927149.828125
0.58,1778927149.84375
14.4,1778927149.859375
26.78,1778927149.875
36.96,1778927149.890625
44.64,1778927149.90625
49.86,1778927149.921875
52.79,1778927149.9375
53.65,1778927149.953125
52.68,1778927149.96875
50.14,1778927149.984375
46.35,1778927150.0
41.7,1778927150.015625
36.59,1778927150.03125
31.4,1778927150.046875
26.41,1778927150.0625
21.78,1778927150.078125
17.51,1778927150.09375
13.54,1778927150.109375
9.81,1778927150.125
6.32,1778927150.140625
3.12,1778927150.15625
0.2,1778927150.171875
-2.57,1778927150.1875
-5.55,1778927150.203125
-9.18,1778927150.21875
-13.73,1778927150.234375
-19.0,1778927150.25
-24.19,1778927150.265625
-27.97,1778927150.28125
-28.75,1778927150.296875
-25.23,1778927150.3125
-16.78,1778927150.328125
-3.72,1778927150.34375
12.76,1778927150.359375
30.92,1778927150.375
48.89,1778927150.390625
65.09,1778927150.40625
78.46,1778927150.421875
88.62,1778927150.4375
95.76,1778927150.453125
100.47,1778927150.46875
103.41,1778927150.484375
105.0,1778927150.5
105.34,1778927150.515625
104.18,1778927150.53125
101.26,1778927150.546875
96.6,1778927150.5625
90.64,1778927150.578125
84.07,1778927150.59375
77.51,1778927150.609375
71.39,1778927150.625
66.07,1778927150.640625
62.4,1778927150.65625
61.88,1778927150.671875
66.36,1778927150.6875
76.87,1778927150.703125
92.43,1778927150.71875
109.5,1778927150.734375
122.71,1778927150.75
126.66,1778927150.765625
117.86,1778927150.78125
95.83,1778927150.796875
62.43,1778927150.8125
20.42,1778927150.828125
-27.73,1778927150.84375
-79.96,1778927150.859375
-133.4,1778927150.875
-183.28,1778927150.890625
-223.12,1778927150.90625
-246.6,1778927150.921875
-250.32,1778927150.9375
-235.65,1778927150.953125
-208.55,1778927150.96875
-177.07,1778927150.984375
-148.25,1778927151.0
-125.74,1778927151.015625
-109.54,1778927151.03125
-97.44,1778927151.046875
-87.17,1778927151.0625
-77.8,1778927151.078125
-69.88,1778927151.09375
-64.52,1778927151.109375
-62.31,1778927151.125
-62.73,1778927151.140625
-64.36,1778927151.15625
-65.59,1778927151.171875
-65.29,1778927151.1875
-63.34,1778927151.203125
-60.62,1778927151.21875
-58.53,1778927151.234375
-58.35,1778927151.25
-60.72,1778927151.265625
-65.41,1778927151.28125
-71.45,1778927151.296875
-77.7,1778927151.3125
-83.21,1778927151.328125
-87.51,1778927151.34375
-90.41,1778927151.359375
-91.66,1778927151.375
-90.65,1778927151.390625
-86.45,1778927151.40625
-78.15,1778927151.421875
-65.33,1778927151.4375
-48.35,1778927151.453125
-28.41,1778927151.46875
-7.29,1778927151.484375
13.18,1778927151.5
31.46,1778927151.515625
46.59,1778927151.53125
58.15,1778927151.546875
66.16,1778927151.5625
70.89,1778927151.578125
72.72,1778927151.59375
72.1,1778927151.609375
69.49,1778927151.625
65.35,1778927151.640625
60.09,1778927151.65625
54.09,1778927151.671875
47.72,1778927151.6875
41.3,1778927151.703125
35.09,1778927151.71875
29.27,1778927151.734375
23.88,1778927151.75
18.8,1778927151.765625
13.85,1778927151.78125
8.82,1778927151.796875
3.59,1778927151.8125
-1.98,1778927151.828125
-8.06,1778927151.84375
-14.91,1778927151.859375
-22.83,1778927151.875
-31.82,1778927151.890625
-41.34,1778927151.90625
-50.19,1778927151.921875
-56.77,1778927151.9375
-59.54,1778927151.953125
-57.5,1778927151.96875
-50.45,1778927151.984375
-38.96,1778927152.0
-24.05,1778927152.015625
-6.86,1778927152.03125
11.55,1778927152.046875
30.16,1778927152.0625
47.93,1778927152.078125
63.8,1778927152.09375
76.83,1778927152.109375
86.34,1778927152.125
92.15,1778927152.140625
94.56,1778927152.15625
94.17,1778927152.171875
91.73,1778927152.1875
87.94,1778927152.203125
83.37,1778927152.21875
78.47,1778927152.234375
73.51,1778927152.25
68.55,1778927152.265625
63.53,1778927152.28125
58.33,1778927152.296875
52.85,1778927152.3125
47.19,1778927152.328125
41.57,1778927152.34375
36.35,1778927152.359375
31.75,1778927152.375
27.7,1778927152.390625
23.83,1778927152.40625
19.44,1778927152.421875
13.72,1778927152.4375
5.96,1778927152.453125
-4.29,1778927152.46875
-17.1,1778927152.484375
-32.05,1778927152.5
-48.19,1778927152.515625
-64.02,1778927152.53125
-77.64,1778927152.546875
-87.11,1778927152.5625
-90.92,1778927152.578125
-88.38,1778927152.59375
-79.85,1778927152.609375
-66.6,1778927152.625
-50.35,1778927152.640625
-32.78,1778927152.65625
-15.12,1778927152.671875
1.95,1778927152.6875
18.06,1778927152.703125
32.86,1778927152.71875
45.69,1778927152.734375
55.66,1778927152.75
61.79,1778927152.765625
63.43,1778927152.78125
60.46,1778927152.796875
53.38,1778927152.8125
43.2,1778927152.828125
31.09,1778927152.84375
18.07,1778927152.859375
4.88,1778927152.875
-7.98,1778927152.890625
-20.12,1778927152.90625
-31.03,1778927152.921875
-40.22,1778927152.9375
-47.32,1778927152.953125
-52.41,1778927152.96875
-56.18,1778927152.984375
-59.82,1778927153.0
-64.57,1778927153.015625
-71.31,1778927153.03125
-80.08,1778927153.046875
-90.07,1778927153.0625
-99.72,1778927153.078125
-107.23,1778927153.09375
-110.86,1778927153.109375
-109.32,1778927153.125
-101.93,1778927153.140625
-88.7,1778927153.15625
-70.37,1778927153.171875
-48.32,1778927153.1875
-24.38,1778927153.203125
-0.5,1778927153.21875
21.57,1778927153.234375
40.5,1778927153.25
55.4,1778927153.265625
65.84,1778927153.28125
71.7,1778927153.296875
73.18,1778927153.3125
70.88,1778927153.328125
65.8,1778927153.34375
59.22,1778927153.359375
52.51,1778927153.375
46.72,1778927153.390625
42.35,1778927153.40625
39.29,1778927153.421875
37.01,1778927153.4375
34.92,1778927153.453125
32.68,1778927153.46875
30.32,1778927153.484375
27.98,1778927153.5
25.7,1778927153.515625
23.11,1778927153.53125
19.4,1778927153.546875
13.6,1778927153.5625
4.82,1778927153.578125
-7.48,1778927153.59375
-23.28,1778927153.609375
-42.07,1778927153.625
-62.66,1778927153.640625
-83.17,1778927153.65625
-101.07,1778927153.671875
-113.5,1778927153.6875
-117.94,1778927153.703125
-112.96,1778927153.71875
-98.75,1778927153.734375
-77.18,1778927153.75
-51.2,1778927153.765625
-24.01,1778927153.78125
1.8,1778927153.796875
24.66,1778927153.8125
43.93,1778927153.828125
59.51,1778927153.84375
71.45,1778927153.859375
79.77,1778927153.875
84.47,1778927153.890625
85.73,1778927153.90625
83.97,1778927153.921875
79.86,1778927153.9375
74.14,1778927153.953125
67.43,1778927153.96875
60.16,1778927153.984375
52.52,1778927154.0
44.61,1778927154.015625
36.51,1778927154.03125
28.34,1778927154.046875
20.19,1778927154.0625
12.08,1778927154.078125
3.9,1778927154.09375
-4.57,1778927154.109375
-13.55,1778927154.125
-23.15,1778927154.140625
-33.28,1778927154.15625
-43.75,1778927154.171875
-54.32,1778927154.1875
-64.76,1778927154.203125
-74.82,1778927154.21875
-84.1,1778927154.234375
-91.82,1778927154.25
-96.91,1778927154.265625
-98.1,1778927154.28125
-94.27,1778927154.296875
-84.85,1778927154.3125
-70.09,1778927154.328125
-51.05,1778927154.34375
-29.38,1778927154.359375
-6.98,1778927154.375
14.36,1778927154.390625
33.18,1778927154.40625
48.4,1778927154.421875
59.31,1778927154.4375
65.51,1778927154.453125
66.96,1778927154.46875
64.03,1778927154.484375
57.47,1778927154.5
48.38,1778927154.515625
37.99,1778927154.53125
27.42,1778927154.546875
17.39,1778927154.5625
8.2,1778927154.578125
-0.27,1778927154.59375
-8.28,1778927154.609375
-16.0,1778927154.625
-23.24,1778927154.640625
-29.52,1778927154.65625
-34.16,1778927154.671875
-36.68,1778927154.6875
-37.03,1778927154.703125
-35.84,1778927154.71875
-34.39,1778927154.734375
-34.19,1778927154.75
-36.6,1778927154.765625
-42.32,1778927154.78125
-51.19,1778927154.796875
-62.14,1778927154.8125
-73.4,1778927154.828125
-82.91,1778927154.84375
-88.64,1778927154.859375
-89.0,1778927154.875
-83.15,1778927154.890625
-71.2,1778927154.90625
-54.19,1778927154.921875
-33.93,1778927154.9375
-12.56,1778927154.953125
7.85,1778927154.96875
25.72,1778927154.984375
40.13,1778927155.0
50.73,1778927155.015625
57.62,1778927155.03125
61.11,1778927155.046875
61.68,1778927155.0625
59.92,1778927155.078125
56.55,1778927155.09375
52.45,1778927155.109375
48.46,1778927155.125
45.29,1778927155.140625
43.39,1778927155.15625
42.82,1778927155.171875
43.31,1778927155.1875
44.31,1778927155.203125
45.19,1778927155.21875
45.33,1778927155.234375
44.34,1778927155.25
42.09,1778927155.265625
38.71,1778927155.28125
34.49,1778927155.296875
29.83,1778927155.3125
25.09,1778927155.328125
20.47,1778927155.34375
15.99,1778927155.359375
11.45,1778927155.375
6.56,1778927155.390625
1.13,1778927155.40625
-4.68,1778927155.421875
-10.11,1778927155.4375
-13.8,1778927155.453125
-14.07,1778927155.46875
-9.41,1778927155.484375
0.97,1778927155.5
16.88,1778927155.515625
37.07,1778927155.53125
59.67,1778927155.546875
82.64,1778927155.5625
104.21,1778927155.578125
123.11,1778927155.59375
138.52,1778927155.609375
150.01,1778927155.625
157.43,1778927155.640625
160.95,1778927155.65625
161.07,1778927155.671875
158.61,1778927155.6875
154.66,1778927155.703125
150.33,1778927155.71875
146.51,1778927155.734375
143.69,1778927155.75
141.82,1778927155.765625
140.45,1778927155.78125
138.85,1778927155.796875
136.35,1778927155.8125
132.58,1778927155.828125
127.6,1778927155.84375
121.82,1778927155.859375
115.89,1778927155.875
110.36,1778927155.890625
105.57,1778927155.90625
101.54,1778927155.921875
98.05,1778927155.9375
94.61,1778927155.953125
90.52,1778927155.96875
84.91,1778927155.984375
76.83,1778927156.0
65.61,1778927156.015625
51.24,1778927156.03125
34.75,1778927156.046875
18.14,1778927156.0625
3.93,1778927156.078125
-5.7,1778927156.09375
-9.64,1778927156.109375
-8.23,1778927156.125
-3.09,1778927156.140625
3.56,1778927156.15625
9.62,1778927156.171875
13.52,1778927156.1875
14.28,1778927156.203125
11.26,1778927156.21875
3.96,1778927156.234375
-7.9,1778927156.25
-24.05,1778927156.265625
-43.48,1778927156.28125
-64.42,1778927156.296875
-84.82,1778927156.3125
-102.88,1778927156.328125
-117.6,1778927156.34375
-128.78,1778927156.359375
-136.82,1778927156.375
-142.28,1778927156.390625
-145.57,1778927156.40625
-146.87,1778927156.421875
-146.2,1778927156.4375
-143.5,1778927156.453125
-138.55,1778927156.46875
-131.07,1778927156.484375
-120.78,1778927156.5
-107.64,1778927156.515625
-92.19,1778927156.53125
-75.65,1778927156.546875
-59.77,1778927156.5625
-46.36,1778927156.578125
-36.75,1778927156.59375
-31.28,1778927156.609375
-29.19,1778927156.625
-28.84,1778927156.640625
-28.2,1778927156.65625
-25.5,1778927156.671875
-19.66,1778927156.6875
-10.44,1778927156.703125
1.66,1778927156.71875
15.71,1778927156.734375
30.69,1778927156.75
45.59,1778927156.765625
59.48,1778927156.78125
71.4,1778927156.796875
80.32,1778927156.8125
85.43,1778927156.828125
86.32,1778927156.84375
83.35,1778927156.859375
77.58,1778927156.875
70.55,1778927156.890625
63.84,1778927156.90625
58.66,1778927156.921875
55.62,1778927156.9375
54.78,1778927156.953125
55.86,1778927156.96875
58.5,1778927156.984375
62.41,1778927157.0
67.49,1778927157.015625
73.92,1778927157.03125
82.17,1778927157.046875
92.9,1778927157.0625
106.65,1778927157.078125
123.25,1778927157.09375
141.23,1778927157.109375
157.66,1778927157.125
168.57,1778927157.140625
170.02,1778927157.15625
159.3,1778927157.171875
135.79,1778927157.1875
101.09,1778927157.203125
58.53,1778927157.21875
12.38,1778927157.234375
-32.79,1778927157.25
-72.62,1778927157.265625
-103.42,1778927157.28125
-122.71,1778927157.296875
-129.98,1778927157.3125
-127.01,1778927157.328125
-117.6,1778927157.34375
-106.45,1778927157.359375
-97.65,1778927157.375
-93.43,1778927157.390625
-93.76,1778927157.40625
-96.87,1778927157.421875
-100.41,1778927157.4375
-102.49,1778927157.453125
-102.26,1778927157.46875
-99.88,1778927157.484375
-96.08,1778927157.5
-91.68,1778927157.515625
-87.28,1778927157.53125
-83.19,1778927157.546875
-79.42,1778927157.5625
-75.93,1778927157.578125
-72.71,1778927157.59375
-69.95,1778927157.609375
-67.95,1778927157.625
-67.08,1778927157.640625
-67.59,1778927157.65625
-69.56,1778927157.671875
-72.9,1778927157.6875
-77.37,1778927157.703125
-82.68,1778927157.71875
-88.34,1778927157.734375
-93.63,1778927157.75
-97.39,1778927157.765625
-98.14,1778927157.78125
-94.42,1778927157.796875
-85.21,1778927157.8125
-70.45,1778927157.828125
-51.14,1778927157.84375
-29.12,1778927157.859375
-6.65,1778927157.875
14.27,1778927157.890625
32.25,1778927157.90625
46.69,1778927157.921875
57.54,1778927157.9375
65.09,1778927157.953125
69.67,1778927157.96875
71.5,1778927157.984375
70.8,1778927158.0
67.84,1778927158.015625
63.08,1778927158.03125
57.1,1778927158.046875
50.43,1778927158.0625
43.48,1778927158.078125
36.39,1778927158.09375
29.09,1778927158.109375
21.47,1778927158.125
13.49,1778927158.140625
5.33,1778927158.15625
-2.6,1778927158.171875
-9.83,1778927158.1875
-15.92,1778927158.203125
-20.71,1778927158.21875
-24.45,1778927158.234375
-27.77,1778927158.25
-31.56,1778927158.265625
-36.65,1778927158.28125
-43.45,1778927158.296875
-51.65,1778927158.3125
-60.11,1778927158.328125
-67.07,1778927158.34375
-70.55,1778927158.359375
-69.01,1778927158.375
-61.76,1778927158.390625
-49.19,1778927158.40625
-32.59,1778927158.421875
-13.68,1778927158.4375
5.81,1778927158.453125
24.52,1778927158.46875
41.53,1778927158.484375
56.2,1778927158.5
67.97,1778927158.515625
76.37,1778927158.53125
81.08,1778927158.546875
82.12,1778927158.5625
80.03,1778927158.578125
75.78,1778927158.59375
70.53,1778927158.609375
65.29,1778927158.625
60.61,1778927158.640625
56.53,1778927158.65625
52.77,1778927158.671875
48.99,1778927158.6875
45.11,1778927158.703125
41.35,1778927158.71875
38.21,1778927158.734375
36.18,1778927158.75
35.5,1778927158.765625
36.04,1778927158.78125
37.22,1778927158.796875
38.17,1778927158.8125
37.93,1778927158.828125
35.71,1778927158.84375
31.18,1778927158.859375
24.57,1778927158.875
16.82,1778927158.890625
9.41,1778927158.90625
3.99,1778927158.921875
2.02,1778927158.9375
4.23,1778927158.953125
10.42,1778927158.96875
19.41,1778927158.984375
29.44,1778927159.0
38.61,1778927159.015625
45.59,1778927159.03125
49.94,1778927159.046875
52.26,1778927159.0625
53.7,1778927159.078125
55.37,1778927159.09375
57.69,1778927159.109375
60.12,1778927159.125
61.49,1778927159.140625
60.74,1778927159.15625
57.61,1778927159.171875
53.0,1778927159.1875
48.62,1778927159.203125
46.26,1778927159.21875
47.0,1778927159.234375
51.03,1778927159.25
57.83,1778927159.265625
66.55,1778927159.28125
76.19,1778927159.296875
85.44,1778927159.3125
92.31,1778927159.328125
94.32,1778927159.34375
88.96,1778927159.359375
74.62,1778927159.375
51.26,1778927159.390625
20.33,1778927159.40625
-16.12,1778927159.421875
-56.56,1778927159.4375
-100.56,1778927159.453125
-148.08,1778927159.46875
-198.02,1778927159.484375
-246.95,1778927159.5
-289.17,1778927159.515625
-318.34,1778927159.53125
-330.03,1778927159.546875
-323.73,1778927159.5625
-303.2,1778927159.578125
-274.86,1778927159.59375
-245.24,1778927159.609375
-218.75,1778927159.625
-196.88,1778927159.640625
-178.95,1778927159.65625
-163.72,1778927159.671875
-150.72,1778927159.6875
-140.54,1778927159.703125
-134.03,1778927159.71875
-131.41,1778927159.734375
-131.67,1778927159.75
-132.82,1778927159.765625
-132.88,1778927159.78125
-130.79,1778927159.796875
-126.86,1778927159.8125
-122.65,1778927159.828125
-120.12,1778927159.84375
-120.73,1778927159.859375
-124.94,1778927159.875
-131.99,1778927159.890625
-140.39,1778927159.90625
-148.36,1778927159.921875
-154.3,1778927159.9375
-156.89,1778927159.953125
-155.09,1778927159.96875
-148.13,1778927159.984375
-135.59,1778927160.0
-117.53,1778927160.015625
-94.63,1778927160.03125
-68.16,1778927160.046875
-39.73,1778927160.0625
-11.06,1778927160.078125
16.19,1778927160.09375
40.55,1778927160.109375
60.78,1778927160.125
75.93,1778927160.140625
85.5,1778927160.15625
89.62,1778927160.171875
89.1,1778927160.1875
85.24,1778927160.203125
79.55,1778927160.21875
73.24,1778927160.234375
66.93,1778927160.25
60.61,1778927160.265625
53.93,1778927160.28125
46.62,1778927160.296875
38.85,1778927160.3125
31.24,1778927160.328125
24.62,1778927160.34375
19.57,1778927160.359375
16.09,1778927160.375
13.45,1778927160.390625
10.46,1778927160.40625
5.78,1778927160.421875
-1.55,1778927160.4375
-11.78,1778927160.453125
-24.24,1778927160.46875
-37.38,1778927160.484375
-48.89,1778927160.5
-56.18,1778927160.515625
-56.94,1778927160.53125
-49.77,1778927160.546875
-34.73,1778927160.5625
-13.29,1778927160.578125
12.04,1778927160.59375
38.52,1778927160.609375
63.94,1778927160.625
86.95,1778927160.640625
107.03,1778927160.65625
123.99,1778927160.671875
137.59,1778927160.6875
147.34,1778927160.703125
152.79,1778927160.71875
153.9,1778927160.734375
151.33,1778927160.75
146.34,1778927160.765625
140.34,1778927160.78125
134.38,1778927160.796875
128.77,1778927160.8125
123.05,1778927160.828125
116.47,1778927160.84375
108.49,1778927160.859375
99.17,1778927160.875
89.24,1778927160.890625
79.81,1778927160.90625
71.99,1778927160.921875
66.55,1778927160.9375
63.85,1778927160.953125
63.84,1778927160.96875
66.12,1778927160.984375
69.84,1778927161.0
73.72,1778927161.015625
76.3,1778927161.03125
76.5,1778927161.046875
74.24,1778927161.0625
70.8,1778927161.078125
68.43,1778927161.09375
69.38,1778927161.109375
74.81,1778927161.125
84.13,1778927161.140625
95.41,1778927161.15625
106.38,1778927161.171875
115.62,1778927161.1875
123.06,1778927161.203125
129.63,1778927161.21875
136.28,1778927161.234375
143.06,1778927161.25
148.96,1778927161.265625
152.44,1778927161.28125
152.38,1778927161.296875
148.75,1778927161.3125
142.65,1778927161.328125
135.63,1778927161.34375
128.93,1778927161.359375
123.05,1778927161.375
117.98,1778927161.390625
113.68,1778927161.40625
110.42,1778927161.421875
108.58,1778927161.4375
107.91,1778927161.453125
107.08,1778927161.46875
103.61,1778927161.484375
94.59,1778927161.5
77.73,1778927161.515625
52.14,1778927161.53125
18.24,1778927161.546875
-22.93,1778927161.5625
-70.24,1778927161.578125
-122.35,1778927161.59375
-176.87,1778927161.609375
-229.59,1778927161.625
-274.69,1778927161.640625
-306.3,1778927161.65625
-320.9,1778927161.671875
-319.12,1778927161.6875
-305.8,1778927161.703125
-288.24,1778927161.71875
-273.35,1778927161.734375
-265.14,1778927161.75
-263.87,1778927161.765625
-266.66,1778927161.78125
-269.38,1778927161.796875
-268.35,1778927161.8125
-261.37,1778927161.828125
-247.8,1778927161.84375
-228.09,1778927161.859375
-203.26,1778927161.875
-174.58,1778927161.890625
-143.51,1778927161.90625
-111.63,1778927161.921875
-80.57,1778927161.9375
-52.0,1778927161.953125
-27.31,1778927161.96875
-7.49,1778927161.984375
7.11,1778927162.0
16.87,1778927162.015625
22.84,1778927162.03125
26.42,1778927162.046875
28.96,1778927162.0625
31.25,1778927162.078125
33.44,1778927162.09375
35.13,1778927162.109375
35.8,1778927162.125
35.24,1778927162.140625
33.83,1778927162.15625
32.38,1778927162.171875
31.7,1778927162.1875
32.21,1778927162.203125
33.59,1778927162.21875
34.91,1778927162.234375
35.02,1778927162.25
33.08,1778927162.265625
28.85,1778927162.28125
22.74,1778927162.296875
15.59,1778927162.3125
8.22,1778927162.328125
1.15,1778927162.34375
-5.55,1778927162.359375
-12.17,1778927162.375
-19.19,1778927162.390625
-27.13,1778927162.40625
-36.44,1778927162.421875
-47.37,1778927162.4375
-59.8,1778927162.453125
-72.94,1778927162.46875
-85.15,1778927162.484375
-94.13,1778927162.5
-97.37,1778927162.515625
-93.01,1778927162.53125
-80.49,1778927162.546875
-60.84,1778927162.5625
-36.38,1778927162.578125
-9.96,1778927162.59375
15.77,1778927162.609375
38.96,1778927162.625
58.58,1778927162.640625
74.24,1778927162.65625
85.82,1778927162.671875
93.32,1778927162.6875
96.89,1778927162.703125
96.89,1778927162.71875
94.0,1778927162.734375
89.05,1778927162.75
82.94,1778927162.765625
76.42,1778927162.78125
70.08,1778927162.796875
64.32,1778927162.8125
59.48,1778927162.828125
55.84,1778927162.84375
53.56,1778927162.859375
52.59,1778927162.875
52.59,1778927162.890625
53.05,1778927162.90625
53.38,1778927162.921875
53.13,1778927162.9375
52.14,1778927162.953125
50.53,1778927162.96875
48.6,1778927162.984375
46.56,1778927163.0
44.35,1778927163.015625
41.52,1778927163.03125
37.31,1778927163.046875
30.89,1778927163.0625
21.7,1778927163.078125
9.87,1778927163.09375
-3.57,1778927163.109375
-16.62,1778927163.125
-26.67,1778927163.140625
-31.15,1778927163.15625
-28.26,1778927163.171875
-17.6,1778927163.1875
-0.4,1778927163.203125
20.83,1778927163.21875
42.98,1778927163.234375
63.32,1778927163.25
80.09,1778927163.265625
92.77,1778927163.28125
101.74,1778927163.296875
107.63,1778927163.3125
110.81,1778927163.328125
111.19,1778927163.34375
108.43,1778927163.359375
102.43,1778927163.375
93.52,1778927163.390625
82.5,1778927163.40625
70.3,1778927163.421875
57.54,1778927163.4375
44.35,1778927163.453125
30.48,1778927163.46875
15.66,1778927163.484375
-0.01,1778927163.5
-15.91,1778927163.515625
-31.03,1778927163.53125
-44.41,1778927163.546875
-55.46,1778927163.5625
-64.19,1778927163.578125
-71.12,1778927163.59375
-76.92,1778927163.609375
-82.16,1778927163.625
-87.08,1778927163.640625
-91.64,1778927163.65625
-95.69,1778927163.671875
-99.08,1778927163.6875
-101.59,1778927163.703125
-102.76,1778927163.71875
-101.76,1778927163.734375
-97.45,1778927163.75
-88.83,1778927163.765625
-75.51,1778927163.78125
-57.96,1778927163.796875
-37.48,1778927163.8125
-15.56,1778927163.828125
6.54,1778927163.84375
28.15,1778927163.859375
48.84,1778927163.875
67.86,1778927163.890625
83.76,1778927163.90625
94.37,1778927163.921875
97.55,1778927163.9375
92.06,1778927163.953125
78.3,1778927163.96875
58.46,1778927163.984375
35.92,1778927164.0
14.28,1778927164.015625
-3.63,1778927164.03125
-16.34,1778927164.046875
-23.91,1778927164.0625
-27.45,1778927164.078125
-28.66,1778927164.09375
-29.17,1778927164.109375
-30.22,1778927164.125
-32.49,1778927164.140625
-36.21,1778927164.15625
-41.26,1778927164.171875
-47.43,1778927164.1875
-54.4,1778927164.203125
-61.85,1778927164.21875
-69.53,1778927164.234375
-77.31,1778927164.25
-85.3,1778927164.265625
-93.85,1778927164.28125
-103.27,1778927164.296875
-113.45,1778927164.3125
-123.49,1778927164.328125
-131.58,1778927164.34375
-135.38,1778927164.359375
-132.74,1778927164.375
-122.39,1778927164.390625
-104.46,1778927164.40625
-80.4,1778927164.421875
-52.56,1778927164.4375
-23.46,1778927164.453125
4.71,1778927164.46875
30.33,1778927164.484375
52.47,1778927164.5
70.64,1778927164.515625
84.76,1778927164.53125
95.05,1778927164.546875
101.85,1778927164.5625
105.63,1778927164.578125
106.82,1778927164.59375
105.82,1778927164.609375
103.01,1778927164.625
98.8,1778927164.640625
93.58,1778927164.65625
87.77,1778927164.671875
81.68,1778927164.6875
75.44,1778927164.703125
69.07,1778927164.71875
62.49,1778927164.734375
55.63,1778927164.75
48.49,1778927164.765625
41.16,1778927164.78125
33.69,1778927164.796875
26.15,1778927164.8125
18.53,1778927164.828125
10.81,1778927164.84375
2.91,1778927164.859375
-5.32,1778927164.875
-14.08,1778927164.890625
-23.64,1778927164.90625
-34.18,1778927164.921875
-45.54,1778927164.9375
-56.98,1778927164.953125
-67.07,1778927164.96875
-73.86,1778927164.984375
-75.35,1778927165.0
-70.15,1778927165.015625
-57.94,1778927165.03125
-39.64,1778927165.046875
-17.09,1778927165.0625
7.48,1778927165.078125
32.01,1778927165.09375
54.93,1778927165.109375
75.18,1778927165.125
92.05,1778927165.140625
105.08,1778927165.15625
114.08,1778927165.171875
119.14,1778927165.1875
120.72,1778927165.203125
119.5,1778927165.21875
116.24,1778927165.234375
111.54,1778927165.25
105.7,1778927165.265625
98.86,1778927165.28125
91.08,1778927165.296875
82.51,1778927165.3125
73.42,1778927165.328125
64.09,1778927165.34375
54.77,1778927165.359375
45.51,1778927165.375
36.28,1778927165.390625
27.04,1778927165.40625
17.82,1778927165.421875
8.8,1778927165.4375
0.34,1778927165.453125
-7.2,1778927165.46875
-13.57,1778927165.484375
-18.84,1778927165.5
-23.48,1778927165.515625
-28.33,1778927165.53125
-34.39,1778927165.546875
-42.47,1778927165.5625
-52.89,1778927165.578125
-65.16,1778927165.59375
-77.83,1778927165.609375
-88.67,1778927165.625
-95.1,1778927165.640625
-94.81,1778927165.65625
-86.45,1778927165.671875
-70.1,1778927165.6875
-47.36,1778927165.703125
-20.94,1778927165.71875
6.05,1778927165.734375
30.99,1778927165.75
52.2,1778927165.765625
69.1,1778927165.78125
81.84,1778927165.796875
90.75,1778927165.8125
96.02,1778927165.828125
97.64,1778927165.84375
95.64,1778927165.859375
90.41,1778927165.875
82.88,1778927165.890625
74.32,1778927165.90625
66.01,1778927165.921875
58.91,1778927165.9375
53.44,1778927165.953125
49.64,1778927165.96875
47.36,1778927165.984375
46.52,1778927166.0
47.15,1778927166.015625
49.35,1778927166.03125
53.12,1778927166.046875
58.22,1778927166.0625
64.15,1778927166.078125
70.2,1778927166.09375
75.56,1778927166.109375
79.45,1778927166.125
81.31,1778927166.140625
80.88,1778927166.15625
78.36,1778927166.171875
74.58,1778927166.1875
71.1,1778927166.203125
70.04,1778927166.21875
73.4,1778927166.234375
82.2,1778927166.25
95.46,1778927166.265625
109.95,1778927166.28125
120.68,1778927166.296875
122.34,1778927166.3125
110.87,1778927166.328125
84.68,1778927166.34375
45.11,1778927166.359375
-3.91,1778927166.375
-56.69,1778927166.390625
-106.95,1778927166.40625
-148.95,1778927166.421875
-178.49,1778927166.4375
-193.82,1778927166.453125
-195.89,1778927166.46875
-187.96,1778927166.484375
-174.52,1778927166.5
-159.89,1778927166.515625
-147.06,1778927166.53125
-137.19,1778927166.546875
-129.93,1778927166.5625
-124.11,1778927166.578125
-118.5,1778927166.59375
-112.31,1778927166.609375
-105.35,1778927166.625
-98.02,1778927166.640625
-91.07,1778927166.65625
-85.46,1778927166.671875
-81.97,1778927166.6875
-80.91,1778927166.703125
-82.16,1778927166.71875
-85.14,1778927166.734375
-89.16,1778927166.75
-93.63,1778927166.765625
-98.19,1778927166.78125
-102.78,1778927166.796875
-107.65,1778927166.8125
-113.33,1778927166.828125
-120.54,1778927166.84375
-129.87,1778927166.859375
-141.2,1778927166.875
-153.37,1778927166.890625
-164.08,1778927166.90625
-170.4,1778927166.921875
-169.61,1778927166.9375
-160.12,1778927166.953125
-142.02,1778927166.96875
-117.03,1778927166.984375
-87.92,1778927167.0
-57.7,1778927167.015625
-28.83,1778927167.03125
-2.92,1778927167.046875
19.33,1778927167.0625
37.79,1778927167.078125
52.66,1778927167.09375
64.18,1778927167.109375
72.54,1778927167.125
77.89,1778927167.140625
80.44,1778927167.15625
80.54,1778927167.171875
78.62,1778927167.1875
75.22,1778927167.203125
70.9,1778927167.21875
66.21,1778927167.234375
61.62,1778927167.25
57.54,1778927167.265625
54.25,1778927167.28125
51.82,1778927167.296875
50.07,1778927167.3125
48.54,1778927167.328125
46.62,1778927167.34375
43.72,1778927167.359375
39.41,1778927167.375
33.65,1778927167.390625
26.68,1778927167.40625
19.0,1778927167.421875
11.13,1778927167.4375
3.41,1778927167.453125
-4.19,1778927167.46875
-12.11,1778927167.484375
-21.06,1778927167.5
-31.84,1778927167.515625
-44.9,1778927167.53125
-59.87,1778927167.546875
-75.35,1778927167.5625
-88.94,1778927167.578125
-97.78,1778927167.59375
-99.41,1778927167.609375
-92.58,1778927167.625
-77.73,1778927167.640625
-56.76,1778927167.65625
-32.43,1778927167.671875
-7.47,1778927167.6875
16.05,1778927167.703125
36.94,1778927167.71875
54.59,1778927167.734375
68.79,1778927167.75
79.35,1778927167.765625
86.23,1778927167.78125
89.65,1778927167.796875
90.18,1778927167.8125
88.67,1778927167.828125
85.95,1778927167.84375
82.64,1778927167.859375
79.0,1778927167.875
75.06,1778927167.890625
70.88,1778927167.90625
66.7,1778927167.921875
63.05,1778927167.9375
60.52,1778927167.953125
59.55,1778927167.96875
60.29,1778927167.984375
62.5,1778927168.0
65.75,1778927168.015625
69.52,1778927168.03125
73.39,1778927168.046875
77.08,1778927168.0625
80.36,1778927168.078125
83.0,1778927168.09375
84.65,1778927168.109375
84.85,1778927168.125
83.15,1778927168.140625
79.33,1778927168.15625
73.56,1778927168.171875
66.64,1778927168.1875
59.9,1778927168.203125
54.97,1778927168.21875
53.39,1778927168.234375
56.17,1778927168.25
63.55,1778927168.265625
74.96,1778927168.28125
89.31,1778927168.296875
105.27,1778927168.3125
121.7,1778927168.328125
137.76,1778927168.34375
153.03,1778927168.359375
167.31,1778927168.375
180.61,1778927168.390625
193.0,1778927168.40625
204.52,1778927168.421875
214.94,1778927168.4375
223.41,1778927168.453125
228.33,1778927168.46875
227.53,1778927168.484375
218.94,1778927168.5
201.25,1778927168.515625
174.6,1778927168.53125
140.47,1778927168.546875
101.0,1778927168.5625
58.14,1778927168.578125
13.18,1778927168.59375
-32.93,1778927168.609375
-78.93,1778927168.625
-122.52,1778927168.640625
-160.58,1778927168.65625
-190.04,1778927168.671875
-209.25,1778927168.6875
-218.76,1778927168.703125
-221.22,1778927168.71875
-220.24,1778927168.734375
-219.05,1778927168.75
-219.56,1778927168.765625
-222.26,1778927168.78125
-226.75,1778927168.796875
-232.41,1778927168.8125
-238.72,1778927168.828125
-245.05,1778927168.84375
-250.3,1778927168.859375
-252.75,1778927168.875
-250.38,1778927168.890625
-241.59,1778927168.90625
-225.84,1778927168.921875
-203.99,1778927168.9375
-178.1,1778927168.953125
-150.79,1778927168.96875
-124.45,1778927168.984375
-100.71,1778927169.0
-80.29,1778927169.015625
-63.21,1778927169.03125
-49.09,1778927169.046875
-37.54,1778927169.0625
-28.34,1778927169.078125
-21.48,1778927169.09375
-17.01,1778927169.109375
-14.89,1778927169.125
-14.91,1778927169.140625
-16.53,1778927169.15625
-19.03,1778927169.171875
-21.64,1778927169.1875
-23.77,1778927169.203125
-25.15,1778927169.21875
-25.9,1778927169.234375
-26.39,1778927169.25
-27.06,1778927169.265625
-28.18,1778927169.28125
-29.84,1778927169.296875
-31.93,1778927169.3125
-34.31,1778927169.328125
-36.84,1778927169.34375
-39.52,1778927169.359375
-42.41,1778927169.375
-45.66,1778927169.390625
-49.52,1778927169.40625
-54.34,1778927169.421875
-60.54,1778927169.4375
-68.36,1778927169.453125
-77.56,1778927169.46875
-87.16,1778927169.484375
-95.42,1778927169.5
-100.16,1778927169.515625
-99.37,1778927169.53125
-91.81,1778927169.546875
-77.48,1778927169.5625
-57.55,1778927169.578125
-34.01,1778927169.59375
-9.09,1778927169.609375
15.22,1778927169.625
37.49,1778927169.640625
56.83,1778927169.65625
72.75,1778927169.671875
85.08,1778927169.6875
93.76,1778927169.703125
98.96,1778927169.71875
101.03,1778927169.734375
100.54,1778927169.75
98.14,1778927169.765625
94.54,1778927169.78125
90.42,1778927169.796875
86.3,1778927169.8125
82.56,1778927169.828125
79.43,1778927169.84375
76.94,1778927169.859375
75.0,1778927169.875
73.48,1778927169.890625
72.17,1778927169.90625
70.9,1778927169.921875
69.5,1778927169.9375
67.77,1778927169.953125
65.52,1778927169.96875
62.57,1778927169.984375
58.79,1778927170.0
54.07,1778927170.015625
48.28,1778927170.03125
41.23,1778927170.046875
32.72,1778927170.0625
22.66,1778927170.078125
11.33,1778927170.09375
-0.5,1778927170.109375
-11.47,1778927170.125
-19.96,1778927170.140625
-24.41,1778927170.15625
-23.79,1778927170.171875
-17.77,1778927170.1875
-6.76,1778927170.203125
8.35,1778927170.21875
26.41,1778927170.234375
46.11,1778927170.25
66.1,1778927170.265625
84.91,1778927170.28125
101.08,1778927170.296875
113.35,1778927170.3125
120.97,1778927170.328125
123.89,1778927170.34375
122.78,1778927170.359375
118.92,1778927170.375
113.79,1778927170.390625
108.73,1778927170.40625
104.66,1778927170.421875
101.89,1778927170.4375
100.01,1778927170.453125
98.0,1778927170.46875
94.39,1778927170.484375
87.64,1778927170.5
76.75,1778927170.515625
61.71,1778927170.53125
43.82,1778927170.546875
25.48,1778927170.5625
9.4,1778927170.578125
-2.37,1778927170.59375
-9.3,1778927170.609375
-12.68,1778927170.625
-15.14,1778927170.640625
-19.72,1778927170.65625
-28.81,1778927170.671875
-43.5,1778927170.6875
-63.44,1778927170.703125
-87.18,1778927170.71875
-112.57,1778927170.734375
-137.25,1778927170.75
-158.88,1778927170.765625
-175.33,1778927170.78125
-184.76,1778927170.796875
-185.86,1778927170.8125
-178.05,1778927170.828125
-161.81,1778927170.84375
-138.67,1778927170.859375
-111.12,1778927170.875
-82.04,1778927170.890625
-54.05,1778927170.90625
-28.86,1778927170.921875
-7.02,1778927170.9375
11.77,1778927170.953125
28.06,1778927170.96875
42.07,1778927170.984375
53.54,1778927171.0
62.0,1778927171.015625
67.42,1778927171.03125
70.54,1778927171.046875
72.81,1778927171.0625
75.82,1778927171.078125
80.62,1778927171.09375
87.34,1778927171.109375
95.29,1778927171.125
103.37,1778927171.140625
110.57,1778927171.15625
116.24,1778927171.171875
120.03,1778927171.1875
121.74,1778927171.203125
121.2,1778927171.21875
118.34,1778927171.234375
113.28,1778927171.25
106.39,1778927171.265625
98.17,1778927171.28125
88.95,1778927171.296875
78.68,1778927171.3125
66.8,1778927171.328125
52.54,1778927171.34375
35.38,1778927171.359375
15.51,1778927171.375
-5.9,1778927171.390625
-26.83,1778927171.40625
-45.0,1778927171.421875
-58.46,1778927171.4375
-66.12,1778927171.453125
-67.95,1778927171.46875
-64.66,1778927171.484375
-57.38,1778927171.5
-47.24,1778927171.515625
-35.18,1778927171.53125
-21.97,1778927171.546875
-8.32,1778927171.5625
4.96,1778927171.578125
17.05,1778927171.59375
27.21,1778927171.609375
34.89,1778927171.625
39.8,1778927171.640625
41.97,1778927171.65625
41.64,1778927171.671875
39.21,1778927171.6875
35.17,1778927171.703125
30.01,1778927171.71875
24.17,1778927171.734375
18.02,1778927171.75
11.87,1778927171.765625
5.95,1778927171.78125
0.4,1778927171.796875
-4.82,1778927171.8125
-9.92,1778927171.828125
-15.28,1778927171.84375
-21.31,1778927171.859375
-28.25,1778927171.875
-36.08,1778927171.890625
-44.57,1778927171.90625
-53.38,1778927171.921875
-62.2,1778927171.9375
-70.9,1778927171.953125
-79.59,1778927171.96875
-88.55,1778927171.984375
-98.2,1778927172.0
-108.94,1778927172.015625
-120.95,1778927172.03125
-133.9,1778927172.046875
-146.71,1778927172.0625
-157.66,1778927172.078125
-164.73,1778927172.09375
-166.25,1778927172.109375
-161.53,1778927172.125
-151.14,1778927172.140625
-136.65,1778927172.15625
-119.99,1778927172.171875
-102.79,1778927172.1875
-86.08,1778927172.203125
-70.35,1778927172.21875
-55.87,1778927172.234375
-43.09,1778927172.25
-32.64,1778927172.265625
-25.12,1778927172.28125
-20.79,1778927172.296875
-19.44,1778927172.3125
-20.39,1778927172.328125
-22.73,1778927172.34375
-25.53,1778927172.359375
-27.92,1778927172.375
-29.22,1778927172.390625
-29.0,1778927172.40625
-27.11,1778927172.421875
-23.8,1778927172.4375
-19.62,1778927172.453125
-15.3,1778927172.46875
-11.61,1778927172.484375
-9.1,1778927172.5
-8.19,1778927172.515625
-9.11,1778927172.53125
-12.0,1778927172.546875
-16.85,1778927172.5625
-23.45,1778927172.578125
-31.34,1778927172.59375
-39.91,1778927172.609375
-48.62,1778927172.625
-57.18,1778927172.640625
-65.65,1778927172.65625
-74.37,1778927172.671875
-83.71,1778927172.6875
-93.75,1778927172.703125
-104.04,1778927172.71875
-113.59,1778927172.734375
-120.97,1778927172.75
-124.57,1778927172.765625
-122.99,1778927172.78125
-115.39,1778927172.796875
-101.75,1778927172.8125
-82.91,1778927172.828125
-60.42,1778927172.84375
-36.24,1778927172.859375
-12.25,1778927172.875
10.07,1778927172.890625
29.88,1778927172.90625
46.9,1778927172.921875
61.25,1778927172.9375
73.11,1778927172.953125
82.6,1778927172.96875
89.7,1778927172.984375
94.32,1778927173.0
96.54,1778927173.015625
96.57,1778927173.03125
94.84,1778927173.046875
91.84,1778927173.0625
88.11,1778927173.078125
84.16,1778927173.09375
80.49,1778927173.109375
77.52,1778927173.125
75.65,1778927173.140625
75.03,1778927173.15625
75.6,1778927173.171875
77.0,1778927173.1875
78.65,1778927173.203125
79.88,1778927173.21875
80.14,1778927173.234375
79.08,1778927173.25
76.73,1778927173.265625
73.39,1778927173.28125
69.58,1778927173.296875
65.79,1778927173.3125
62.31,1778927173.328125
59.07,1778927173.34375
55.71,1778927173.359375
51.64,1778927173.375
46.38,1778927173.390625
39.81,1778927173.40625
32.34,1778927173.421875
24.92,1778927173.4375
18.88,1778927173.453125
15.61,1778927173.46875
16.18,1778927173.484375
21.1,1778927173.5
30.05,1778927173.515625
41.99,1778927173.53125
55.39,1778927173.546875
68.48,1778927173.5625
79.66,1778927173.578125
87.71,1778927173.59375
91.85,1778927173.609375
91.81,1778927173.625
87.75,1778927173.640625
80.26,1778927173.65625
70.28,1778927173.671875
58.93,1778927173.6875
47.33,1778927173.703125
36.36,1778927173.71875
26.55,1778927173.734375
18.06,1778927173.75
10.87,1778927173.765625
5.0,1778927173.78125
0.59,1778927173.796875
-2.12,1778927173.8125
-2.99,1778927173.828125
-2.14,1778927173.84375
-0.06,1778927173.859375
2.43,1778927173.875
4.46,1778927173.890625
5.36,1778927173.90625
4.9,1778927173.921875
3.29,1778927173.9375
1.02,1778927173.953125
-1.36,1778927173.96875
-3.54,1778927173.984375
-5.61,1778927174.0
-7.95,1778927174.015625
-11.1,1778927174.03125
-15.5,1778927174.046875
-21.09,1778927174.0625
-27.13,1778927174.078125
-31.92,1778927174.09375
-33.05,1778927174.109375
-27.82,1778927174.125
-14.16,1778927174.140625
8.44,1778927174.15625
38.33,1778927174.171875
71.74,1778927174.1875
103.58,1778927174.203125
128.82,1778927174.21875
143.72,1778927174.234375
146.54,1778927174.25
137.6,1778927174.265625
118.72,1778927174.28125
92.57,1778927174.296875
62.15,1778927174.3125
30.44,1778927174.328125
0.23,1778927174.34375
-26.16,1778927174.359375
-47.2,1778927174.375
-62.36,1778927174.390625
-72.13,1778927174.40625
-77.64,1778927174.421875
-80.32,1778927174.4375
-81.32,1778927174.453125
-81.5,1778927174.46875
-81.32,1778927174.484375
-80.99,1778927174.5
-80.56,1778927174.515625
-79.95,1778927174.53125
-79.06,1778927174.546875
-77.81,1778927174.5625
-76.23,1778927174.578125
-74.52,1778927174.59375
-73.01,1778927174.609375
-72.08,1778927174.625
-72.0,1778927174.640625
-72.91,1778927174.65625
-74.76,1778927174.671875
-77.45,1778927174.6875
-80.77,1778927174.703125
-84.33,1778927174.71875
-87.47,1778927174.734375
-89.14,1778927174.75
-88.01,1778927174.765625
-82.75,1778927174.78125
-72.46,1778927174.796875
-56.96,1778927174.8125
-36.97,1778927174.828125
-13.88,1778927174.84375
10.57,1778927174.859375
34.72,1778927174.875
57.31,1778927174.890625
77.48,1778927174.90625
94.74,1778927174.921875
108.8,1778927174.9375
119.53,1778927174.953125
126.97,1778927174.96875
131.16,1778927174.984375
132.19,1778927175.0
129.99,1778927175.015625
124.38,1778927175.03125
115.16,1778927175.046875
102.36,1778927175.0625
86.46,1778927175.078125
68.37,1778927175.09375
49.16,1778927175.109375
29.82,1778927175.125
10.96,1778927175.140625
-7.15,1778927175.15625
-24.32,1778927175.171875
-40.27,1778927175.1875
-54.49,1778927175.203125
-66.55,1778927175.21875
-76.38,1778927175.234375
-84.47,1778927175.25
-91.81,1778927175.265625
-99.5,1778927175.28125
-108.28,1778927175.296875
-118.24,1778927175.3125
-128.75,1778927175.328125
-138.62,1778927175.34375
-146.37,1778927175.359375
-150.58,1778927175.375
-150.09,1778927175.390625
-144.27,1778927175.40625
-133.13,1778927175.421875
-117.38,1778927175.4375
-98.3,1778927175.453125
-77.43,1778927175.46875
-56.34,1778927175.484375
-36.33,1778927175.5
-18.4,1778927175.515625
-3.24,1778927175.53125
8.65,1778927175.546875
16.95,1778927175.5625
21.53,1778927175.578125
22.55,1778927175.59375
20.45,1778927175.609375
15.94,1778927175.625
9.87,1778927175.640625
3.07,1778927175.65625
-3.81,1778927175.671875
-10.37,1778927175.6875
-16.57,1778927175.703125
-22.5,1778927175.71875
-28.41,1778927175.734375
-34.44,1778927175.75
-40.63,1778927175.765625
-46.87,1778927175.78125
-53.01,1778927175.796875
-58.87,1778927175.8125
-64.33,1778927175.828125
-69.26,1778927175.84375
-73.5,1778927175.859375
-76.97,1778927175.875
-79.54,1778927175.890625
-81.13,1778927175.90625
-81.49,1778927175.921875
-80.11,1778927175.9375
-76.23,1778927175.953125
-68.96,1778927175.96875
-57.67,1778927175.984375
-42.32,1778927176.0
-23.65,1778927176.015625
-3.06,1778927176.03125
17.73,1778927176.046875
37.17,1778927176.0625
54.2,1778927176.078125
68.31,1778927176.09375
79.46,1778927176.109375
87.96,1778927176.125
94.33,1778927176.140625
99.26,1778927176.15625
103.49,1778927176.171875
107.72,1778927176.1875
112.44,1778927176.203125
117.83,1778927176.21875
123.69,1778927176.234375
129.47,1778927176.25
134.44,1778927176.265625
137.9,1778927176.28125
139.45,1778927176.296875
139.35,1778927176.3125
138.6,1778927176.328125
138.81,1778927176.34375
141.75,1778927176.359375
148.58,1778927176.375
159.3,1778927176.390625
172.49,1778927176.40625
185.51,1778927176.421875
195.26,1778927176.4375
198.9,1778927176.453125
194.62,1778927176.46875
181.93,1778927176.484375
161.56,1778927176.5
135.27,1778927176.515625
105.41,1778927176.53125
74.59,1778927176.546875
45.36,1778927176.5625
19.98,1778927176.578125
0.13,1778927176.59375
-13.26,1778927176.609375
-20.24,1778927176.625
-21.79,1778927176.640625
-19.47,1778927176.65625
-15.05,1778927176.671875
-9.98,1778927176.6875
-5.14,1778927176.703125
-0.81,1778927176.71875
2.9,1778927176.734375
5.75,1778927176.75
7.14,1778927176.765625
6.21,1778927176.78125
2.23,1778927176.796875
-4.95,1778927176.8125
-14.77,1778927176.828125
-26.1,1778927176.84375
-37.64,1778927176.859375
-48.33,1778927176.875
-57.59,1778927176.890625
-65.3,1778927176.90625
-71.72,1778927176.921875
-77.21,1778927176.9375
-82.16,1778927176.953125
-86.85,1778927176.96875
-91.38,1778927176.984375
-95.69,1778927177.0
-99.59,1778927177.015625
-102.88,1778927177.03125
-105.48,1778927177.046875
-107.59,1778927177.0625
-109.62,1778927177.078125
-112.2,1778927177.09375
-115.96,1778927177.109375
-121.36,1778927177.125
-128.48,1778927177.140625
-136.92,1778927177.15625
-145.6,1778927177.171875
-152.86,1778927177.1875
-156.69,1778927177.203125
-155.16,1778927177.21875
-147.04,1778927177.234375
-132.21,1778927177.25
-111.78,1778927177.265625
-87.82,1778927177.28125
-62.78,1778927177.296875
-38.86,1778927177.3125
-17.57,1778927177.328125
0.37,1778927177.34375
14.84,1778927177.359375
26.03,1778927177.375
34.16,1778927177.390625
39.45,1778927177.40625
42.11,1778927177.421875
42.43,1778927177.4375
40.88,1778927177.453125
38.03,1778927177.46875
34.52,1778927177.484375
30.96,1778927177.5
27.8,1778927177.515625
25.29,1778927177.53125
23.49,1778927177.546875
22.26,1778927177.5625
21.27,1778927177.578125
20.12,1778927177.59375
18.36,1778927177.609375
15.68,1778927177.625
11.93,1778927177.640625
7.24,1778927177.65625
1.91,1778927177.671875
-3.68,1778927177.6875
-9.3,1778927177.703125
-14.95,1778927177.71875
-20.96,1778927177.734375
-27.89,1778927177.75
-36.28,1778927177.765625
-46.39,1778927177.78125
-57.85,1778927177.796875
-69.51,1778927177.8125
-79.56,1778927177.828125
-85.87,1778927177.84375
-86.69,1778927177.859375
-81.17,1778927177.875
-69.7,1778927177.890625
-53.77,1778927177.90625
-35.5,1778927177.921875
-17.0,1778927177.9375
0.12,1778927177.953125
14.91,1778927177.96875
26.96,1778927177.984375
36.12,1778927178.0
42.34,1778927178.015625
45.63,1778927178.03125
46.26,1778927178.046875
44.87,1778927178.0625
42.57,1778927178.078125
40.76,1778927178.09375
40.88,1778927178.109375
44.04,1778927178.125
50.75,1778927178.140625
60.78,1778927178.15625
73.25,1778927178.171875
86.86,1778927178.1875
100.14,1778927178.203125
111.84,1778927178.21875
121.09,1778927178.234375
127.49,1778927178.25
131.03,1778927178.265625
131.87,1778927178.28125
130.06,1778927178.296875
125.47,1778927178.3125
117.72,1778927178.328125
106.44,1778927178.34375
91.63,1778927178.359375
73.9,1778927178.375
54.49,1778927178.390625
35.0,1778927178.40625
16.81,1778927178.421875
0.76,1778927178.4375
-12.9,1778927178.453125
-24.19,1778927178.46875
-33.0,1778927178.484375
-38.75,1778927178.5
-40.64,1778927178.515625
-38.02,1778927178.53125
-30.69,1778927178.546875
-18.97,1778927178.5625
-3.52,1778927178.578125
14.67,1778927178.59375
34.0,1778927178.609375
51.89,1778927178.625
64.65,1778927178.640625
68.27,1778927178.65625
59.83,1778927178.671875
39.12,1778927178.6875
9.32,1778927178.703125
-23.69,1778927178.71875
-53.28,1778927178.734375
-74.27,1778927178.75
-84.36,1778927178.765625
-84.21,1778927178.78125
-76.32,1778927178.796875
-63.62,1778927178.8125
-48.52,1778927178.828125
-32.83,1778927178.84375
-18.17,1778927178.859375
-6.28,1778927178.875
1.07,1778927178.890625
2.61,1778927178.90625
-1.8,1778927178.921875
-11.12,1778927178.9375
-23.43,1778927178.953125
-36.87,1778927178.96875
-50.35,1778927178.984375
-63.8,1778927179.0
-77.82,1778927179.015625
-92.81,1778927179.03125
-108.29,1778927179.046875
-122.57,1778927179.0625
-133.21,1778927179.078125
-137.81,1778927179.09375
-134.87,1778927179.109375
-124.37,1778927179.125
-107.63,1778927179.140625
-86.85,1778927179.15625
-64.39,1778927179.171875
-42.19,1778927179.1875
-21.53,1778927179.203125
-3.14,1778927179.21875
12.65,1778927179.234375
25.72,1778927179.25
36.04,1778927179.265625
43.79,1778927179.28125
49.34,1778927179.296875
53.28,1778927179.3125
56.28,1778927179.328125
58.95,1778927179.34375
61.72,1778927179.359375
64.77,1778927179.375
68.08,1778927179.390625
71.32,1778927179.40625
74.03,1778927179.421875
75.55,1778927179.4375
75.25,1778927179.453125
72.68,1778927179.46875
67.79,1778927179.484375
60.96,1778927179.5
52.89,1778927179.515625
44.25,1778927179.53125
35.39,1778927179.546875
26.15,1778927179.5625
16.05,1778927179.578125
4.7,1778927179.59375
-7.87,1778927179.609375
-20.85,1778927179.625
-32.8,1778927179.640625
-41.98,1778927179.65625
-46.9,1778927179.671875
-46.73,1778927179.6875
-41.58,1778927179.703125
-32.38,1778927179.71875
-20.53,1778927179.734375
-7.54,1778927179.75
5.33,1778927179.765625
17.17,1778927179.78125
27.36,1778927179.796875
35.39,1778927179.8125
40.86,1778927179.828125
43.46,1778927179.84375
43.2,1778927179.859375
40.37,1778927179.875
35.56,1778927179.890625
29.38,1778927179.90625
22.34,1778927179.921875
14.68,1778927179.9375
6.44,1778927179.953125
-2.34,1778927179.96875
-11.52,1778927179.984375
-20.83,1778927180.0
-29.96,1778927180.015625
-38.69,1778927180.03125
-46.95,1778927180.046875
-54.86,1778927180.0625
-62.57,1778927180.078125
-70.21,1778927180.09375
-77.95,1778927180.109375
-86.04,1778927180.125
-94.89,1778927180.140625
-104.95,1778927180.15625
-116.52,1778927180.171875
-129.46,1778927180.1875
-142.93,1778927180.203125
-155.4,1778927180.21875
-164.93,1778927180.234375
-169.58,1778927180.25
-167.94,1778927180.265625
-159.45,1778927180.28125
-144.53,1778927180.296875
-124.41,1778927180.3125
-100.76,1778927180.328125
-75.29,1778927180.34375
-49.38,1778927180.359375
-23.9,1778927180.375
0.73,1778927180.390625
24.34,1778927180.40625
46.73,1778927180.421875
67.56,1778927180.4375
86.22,1778927180.453125
102.06,1778927180.46875
114.61,1778927180.484375
123.72,1778927180.5
129.65,1778927180.515625
132.78,1778927180.53125
133.41,1778927180.546875
131.67,1778927180.5625
127.51,1778927180.578125
121.01,1778927180.59375
112.62,1778927180.609375
103.21,1778927180.625
93.88,1778927180.640625
85.59,1778927180.65625
78.81,1778927180.671875
73.45,1778927180.6875
68.99,1778927180.703125
64.9,1778927180.71875
60.89,1778927180.734375
57.02,1778927180.75
53.58,1778927180.765625
50.82,1778927180.78125
48.74,1778927180.796875
47.05,1778927180.8125
45.29,1778927180.828125
43.13,1778927180.84375
40.71,1778927180.859375
38.8,1778927180.875
38.75,1778927180.890625
42.2,1778927180.90625
50.61,1778927180.921875
64.74,1778927180.9375
84.34,1778927180.953125
108.08,1778927180.96875
133.89,1778927180.984375
159.28,1778927181.0
181.78,1778927181.015625
199.04,1778927181.03125
208.87,1778927181.046875
209.42,1778927181.0625
199.62,1778927181.078125
179.75,1778927181.09375
151.91,1778927181.109375
119.94,1778927181.125
