PPG GREEN,time
2003859.0,1778927104.595
2004534.0,1778927104.636
2005246.0,1778927104.676
2006194.0,1778927104.717
2006800.0,1778927104.757
2008099.0,1778927104.796
2009369.0,1778927104.837
2010936.0,1778927104.876
2011967.0,1778927104.916
2009459.0,1778927104.955
2005000.0,1778927104.997
2001311.0,1778927105.036
1998122.0,1778927105.076
1994288.0,1778927105.118
1992274.0,1778927105.156
1993103.0,1778927105.197
1995105.0,1778927105.236
1993988.0,1778927105.275
1989794.0,1778927105.316
1984271.0,1778927105.357
1975695.0,1778927105.396
1968599.0,1778927105.436
1965417.0,1778927105.478
1962296.0,1778927105.518
1956096.0,1778927105.555
1950535.0,1778927105.597
1946580.0,1778927105.636
1945785.0,1778927105.676
1946844.0,1778927105.718
1949951.0,1778927105.756
1952627.0,1778927105.797
1954588.0,1778927105.838
1957450.0,1778927105.877
1959999.0,1778927105.916
1962695.0,1778927105.956
1968343.0,1778927105.996
1972219.0,1778927106.036
1972133.0,1778927106.077
1970540.0,1778927106.117
1969202.0,1778927106.157
1965040.0,1778927106.198
1959596.0,1778927106.237
1956150.0,1778927106.278
1953446.0,1778927106.318
1950643.0,1778927106.356
1948335.0,1778927106.397
1946864.0,1778927106.438
1949117.0,1778927106.477
1949393.0,1778927106.518
1947819.0,1778927106.559
1942428.0,1778927106.598
1938402.0,1778927106.636
1935023.0,1778927106.677
1931145.0,1778927106.717
1927621.0,1778927106.757
1924676.0,1778927106.798
1920764.0,1778927106.837
1917007.0,1778927106.878
1913378.0,1778927106.92
1909501.0,1778927106.958
1907241.0,1778927106.996
1907287.0,1778927107.038
1906155.0,1778927107.077
1901962.0,1778927107.118
1896903.0,1778927107.158
1891009.0,1778927107.198
1885628.0,1778927107.238
1881758.0,1778927107.279
1878291.0,1778927107.319
1875441.0,1778927107.357
1872579.0,1778927107.398
1870140.0,1778927107.437
1867720.0,1778927107.477
1865708.0,1778927107.519
1865834.0,1778927107.558
1866834.0,1778927107.598
1870271.0,1778927107.639
1874677.0,1778927107.679
1877358.0,1778927107.718
1880091.0,1778927107.758
1881507.0,1778927107.797
1881022.0,1778927107.838
1880172.0,1778927107.879
1877460.0,1778927107.919
1873746.0,1778927107.958
1869521.0,1778927108.0
1865015.0,1778927108.039
1860671.0,1778927108.077
1857587.0,1778927108.119
1852440.0,1778927108.158
1844464.0,1778927108.198
1835889.0,1778927108.239
1828504.0,1778927108.278
1823155.0,1778927108.319
1819651.0,1778927108.36
1817762.0,1778927108.397
1816455.0,1778927108.438
1815386.0,1778927108.479
1814365.0,1778927108.518
1814035.0,1778927108.558
1813834.0,1778927108.599
1812927.0,1778927108.639
1821006.0,1778927108.679
1834875.0,1778927108.721
1842930.0,1778927108.759
1859325.0,1778927108.798
1878879.0,1778927108.839
1892988.0,1778927108.878
1900737.0,1778927108.919
1909100.0,1778927108.96
1915508.0,1778927108.999
1917945.0,1778927109.039
1918927.0,1778927109.08
1920778.0,1778927109.12
1920929.0,1778927109.158
1922946.0,1778927109.199
1926456.0,1778927109.238
1929753.0,1778927109.279
1927831.0,1778927109.321
1924260.0,1778927109.359
1919865.0,1778927109.399
1915199.0,1778927109.441
1911749.0,1778927109.48
1908193.0,1778927109.519
1902064.0,1778927109.559
1896923.0,1778927109.599
1892888.0,1778927109.639
1889639.0,1778927109.68
1888015.0,1778927109.72
1887010.0,1778927109.76
1886068.0,1778927109.801
1885395.0,1778927109.84
1884599.0,1778927109.878
1884830.0,1778927109.92
1885587.0,1778927109.959
1887126.0,1778927109.999
1888374.0,1778927110.04
1889662.0,1778927110.08
1890774.0,1778927110.121
1889445.0,1778927110.161
1887699.0,1778927110.2
1886776.0,1778927110.239
1886751.0,1778927110.28
1887870.0,1778927110.32
1889758.0,1778927110.36
1891385.0,1778927110.401
1893026.0,1778927110.44
1894901.0,1778927110.48
1896837.0,1778927110.522
1898980.0,1778927110.559
1901325.0,1778927110.599
1903483.0,1778927110.64
1905698.0,1778927110.68
1907060.0,1778927110.721
1906070.0,1778927110.761
1904641.0,1778927110.8
1903517.0,1778927110.841
1902842.0,1778927110.882
1902183.0,1778927110.92
1902066.0,1778927110.959
1902477.0,1778927111.001
1904124.0,1778927111.04
1906283.0,1778927111.079
1908296.0,1778927111.122
1910607.0,1778927111.16
1913130.0,1778927111.2
1915846.0,1778927111.242
1918697.0,1778927111.281
1920823.0,1778927111.322
1920673.0,1778927111.36
1920584.0,1778927111.4
1920388.0,1778927111.44
1920889.0,1778927111.481
1921830.0,1778927111.521
1923272.0,1778927111.561
1925313.0,1778927111.602
1926814.0,1778927111.641
1928723.0,1778927111.681
1929749.0,1778927111.721
1930282.0,1778927111.76
1931083.0,1778927111.8
1932074.0,1778927111.841
1934324.0,1778927111.922
1933145.0,1778927111.881
1934514.0,1778927111.962
1933222.0,1778927112.001
1932376.0,1778927112.042
1932168.0,1778927112.081
1932305.0,1778927112.121
1933256.0,1778927112.16
1934819.0,1778927112.202
1936279.0,1778927112.241
1937691.0,1778927112.281
1938872.0,1778927112.323
1940695.0,1778927112.362
1942359.0,1778927112.4
1944026.0,1778927112.441
1945864.0,1778927112.481
1947619.0,1778927112.522
1949536.0,1778927112.562
1950594.0,1778927112.601
1950439.0,1778927112.642
1951278.0,1778927112.683
1951940.0,1778927112.723
1953530.0,1778927112.76
1955285.0,1778927112.802
1957577.0,1778927112.841
1959545.0,1778927112.881
1961551.0,1778927112.923
1964142.0,1778927112.962
1967741.0,1778927113.002
1970710.0,1778927113.043
1972205.0,1778927113.082
1976205.0,1778927113.121
1981582.0,1778927113.162
1988767.0,1778927113.201
1993400.0,1778927113.241
1995641.0,1778927113.283
1996539.0,1778927113.323
1997755.0,1778927113.362
1999472.0,1778927113.404
2000637.0,1778927113.441
2000843.0,1778927113.481
2001388.0,1778927113.523
2002152.0,1778927113.561
2003726.0,1778927113.602
2005237.0,1778927113.644
2007336.0,1778927113.684
2008814.0,1778927113.725
2010672.0,1778927113.764
2012246.0,1778927113.801
2013978.0,1778927113.841
2015496.0,1778927113.883
2016196.0,1778927113.923
2015591.0,1778927113.962
2014980.0,1778927114.003
2014816.0,1778927114.043
2015138.0,1778927114.083
2015724.0,1778927114.125
2016649.0,1778927114.161
2018196.0,1778927114.243
2017437.0,1778927114.202
2018883.0,1778927114.282
2019828.0,1778927114.323
2020712.0,1778927114.364
2021718.0,1778927114.403
2022962.0,1778927114.443
2024058.0,1778927114.483
2025067.0,1778927114.523
2026404.0,1778927114.562
2027886.0,1778927114.603
2028178.0,1778927114.643
2027795.0,1778927114.683
2027553.0,1778927114.725
2028048.0,1778927114.763
2028891.0,1778927114.804
2030329.0,1778927114.843
2031401.0,1778927114.882
2032547.0,1778927114.923
2033673.0,1778927114.964
2034509.0,1778927115.003
2036164.0,1778927115.043
2037797.0,1778927115.084
2039814.0,1778927115.124
2041636.0,1778927115.164
2043303.0,1778927115.203
2045019.0,1778927115.242
2046441.0,1778927115.283
2047785.0,1778927115.325
2049024.0,1778927115.363
2048391.0,1778927115.403
2047970.0,1778927115.445
2047953.0,1778927115.484
2048575.0,1778927115.516
2049403.0,1778927115.556
2050135.0,1778927115.596
2051181.0,1778927115.636
2051812.0,1778927115.677
2052421.0,1778927115.716
2053376.0,1778927115.756
2054414.0,1778927115.797
2055436.0,1778927115.836
2056475.0,1778927115.876
2057550.0,1778927115.918
2058529.0,1778927115.956
2059728.0,1778927115.996
2060921.0,1778927116.037
2062241.0,1778927116.076
2062558.0,1778927116.117
2061989.0,1778927116.157
2060898.0,1778927116.196
2060600.0,1778927116.234
2060361.0,1778927116.276
2060535.0,1778927116.316
2061011.0,1778927116.355
2061469.0,1778927116.397
2061984.0,1778927116.436
2062134.0,1778927116.476
2062676.0,1778927116.518
2062947.0,1778927116.556
2064221.0,1778927116.638
2063994.0,1778927116.597
2065403.0,1778927116.675
2065744.0,1778927116.716
2066237.0,1778927116.757
2067152.0,1778927116.796
2067868.0,1778927116.836
2068275.0,1778927116.877
2069044.0,1778927116.917
2068224.0,1778927116.957
2067127.0,1778927116.998
2066096.0,1778927117.035
2065381.0,1778927117.076
2065397.0,1778927117.118
2065731.0,1778927117.156
2065798.0,1778927117.196
2065579.0,1778927117.238
2065740.0,1778927117.277
2065851.0,1778927117.318
2066321.0,1778927117.359
2067255.0,1778927117.396
2067888.0,1778927117.436
2069004.0,1778927117.477
2070144.0,1778927117.517
2071329.0,1778927117.557
2071800.0,1778927117.598
2072325.0,1778927117.637
2071890.0,1778927117.677
2069884.0,1778927117.719
2067266.0,1778927117.756
2065470.0,1778927117.796
2064065.0,1778927117.837
2062893.0,1778927117.877
2062338.0,1778927117.918
2062037.0,1778927117.958
2061800.0,1778927117.997
2061040.0,1778927118.038
2060929.0,1778927118.079
2060922.0,1778927118.117
2061091.0,1778927118.156
2061119.0,1778927118.198
2061874.0,1778927118.237
2062077.0,1778927118.277
2060586.0,1778927118.319
2057302.0,1778927118.358
2053578.0,1778927118.398
2050550.0,1778927118.439
2047975.0,1778927118.476
2046504.0,1778927118.517
2045138.0,1778927118.558
2044343.0,1778927118.597
2043331.0,1778927118.637
2042537.0,1778927118.679
2040688.0,1778927118.755
2041472.0,1778927118.719
2040124.0,1778927118.797
2040128.0,1778927118.836
2040235.0,1778927118.876
2040019.0,1778927118.918
2039953.0,1778927118.957
2037301.0,1778927118.997
2032585.0,1778927119.038
2028381.0,1778927119.078
2024344.0,1778927119.119
2021442.0,1778927119.159
2018731.0,1778927119.198
2017417.0,1778927119.239
2015852.0,1778927119.278
2014498.0,1778927119.318
2012716.0,1778927119.358
2011663.0,1778927119.399
2010707.0,1778927119.438
2009813.0,1778927119.478
2009532.0,1778927119.52
2008976.0,1778927119.559
2008342.0,1778927119.597
2005195.0,1778927119.638
2000177.0,1778927119.678
1995308.0,1778927119.719
1991209.0,1778927119.759
1988381.0,1778927119.798
1986466.0,1778927119.839
1985186.0,1778927119.88
1983879.0,1778927119.92
1982804.0,1778927119.957
1981229.0,1778927119.999
1979974.0,1778927120.038
1979341.0,1778927120.078
1978862.0,1778927120.12
1978597.0,1778927120.159
1978209.0,1778927120.199
1975073.0,1778927120.24
1969600.0,1778927120.279
1964405.0,1778927120.318
1959824.0,1778927120.359
1956090.0,1778927120.398
1953489.0,1778927120.439
1952279.0,1778927120.48
1951210.0,1778927120.52
1950132.0,1778927120.559
1949083.0,1778927120.601
1948133.0,1778927120.64
1947939.0,1778927120.678
1947659.0,1778927120.72
1947764.0,1778927120.758
1948209.0,1778927120.799
1948625.0,1778927120.84
1947050.0,1778927120.879
1942603.0,1778927120.92
1937538.0,1778927120.961
1933243.0,1778927121.0
1929377.0,1778927121.038
1926755.0,1778927121.079
1925335.0,1778927121.119
1924248.0,1778927121.159
1923569.0,1778927121.2
1922364.0,1778927121.239
1922013.0,1778927121.281
1922231.0,1778927121.318
1922238.0,1778927121.358
1922752.0,1778927121.398
1923416.0,1778927121.439
1924268.0,1778927121.479
1924887.0,1778927121.52
1925071.0,1778927121.56
1924656.0,1778927121.599
1920908.0,1778927121.64
1916064.0,1778927121.681
1912340.0,1778927121.721
1909158.0,1778927121.76
1907209.0,1778927121.8
1906337.0,1778927121.839
1905979.0,1778927121.879
1905669.0,1778927121.921
1904743.0,1778927121.96
1904137.0,1778927122.0
1903836.0,1778927122.041
1903742.0,1778927122.08
1903720.0,1778927122.121
1904171.0,1778927122.16
1904871.0,1778927122.199
1905422.0,1778927122.239
1905943.0,1778927122.281
1904468.0,1778927122.321
1901197.0,1778927122.36
1897631.0,1778927122.402
1895524.0,1778927122.441
1893803.0,1778927122.479
1893269.0,1778927122.521
1893101.0,1778927122.559
1893201.0,1778927122.6
1893116.0,1778927122.641
1893274.0,1778927122.68
1893422.0,1778927122.721
1894704.0,1778927122.801
1893791.0,1778927122.762
1895529.0,1778927122.839
1896776.0,1778927122.881
1897693.0,1778927122.921
1898436.0,1778927122.96
1896744.0,1778927123.001
1894521.0,1778927123.041
1892895.0,1778927123.081
1892107.0,1778927123.123
1891860.0,1778927123.162
1892315.0,1778927123.2
1893091.0,1778927123.241
1893978.0,1778927123.28
1895102.0,1778927123.321
1895942.0,1778927123.362
1897381.0,1778927123.401
1898776.0,1778927123.441
1900440.0,1778927123.483
1902213.0,1778927123.521
1903886.0,1778927123.56
1905686.0,1778927123.601
1905448.0,1778927123.641
1903710.0,1778927123.681
1902443.0,1778927123.723
1901516.0,1778927123.761
1901775.0,1778927123.802
1901718.0,1778927123.843
1902956.0,1778927123.879
1903768.0,1778927123.919
1904748.0,1778927123.96
1905703.0,1778927123.999
1907029.0,1778927124.039
1908397.0,1778927124.081
1910098.0,1778927124.121
1912155.0,1778927124.16
1914039.0,1778927124.201
1915881.0,1778927124.241
1917367.0,1778927124.281
1916761.0,1778927124.323
1915410.0,1778927124.362
1914302.0,1778927124.402
1913574.0,1778927124.443
1913353.0,1778927124.48
1913809.0,1778927124.521
1914612.0,1778927124.562
1915192.0,1778927124.601
1916027.0,1778927124.642
1916647.0,1778927124.683
1917203.0,1778927124.723
1918158.0,1778927124.762
1918852.0,1778927124.804
1920206.0,1778927124.841
1921244.0,1778927124.881
1922155.0,1778927124.923
1922701.0,1778927124.961
1921329.0,1778927125.002
1920087.0,1778927125.043
1918770.0,1778927125.082
1918392.0,1778927125.123
1918169.0,1778927125.164
1918624.0,1778927125.201
1918780.0,1778927125.241
1918937.0,1778927125.283
1919118.0,1778927125.322
1918954.0,1778927125.362
1918968.0,1778927125.403
1919574.0,1778927125.443
1919921.0,1778927125.483
1920544.0,1778927125.523
1921296.0,1778927125.561
1922121.0,1778927125.602
1921310.0,1778927125.643
1920358.0,1778927125.682
1919610.0,1778927125.723
1919994.0,1778927125.764
1920100.0,1778927125.803
1920976.0,1778927125.843
1921715.0,1778927125.882
1922482.0,1778927125.922
1923122.0,1778927125.962
1923945.0,1778927126.003
1924725.0,1778927126.042
1926071.0,1778927126.083
1927229.0,1778927126.125
1928214.0,1778927126.163
1929567.0,1778927126.203
1929496.0,1778927126.243
1928614.0,1778927126.282
1927529.0,1778927126.323
1926789.0,1778927126.364
1926721.0,1778927126.403
1927093.0,1778927126.44
1927483.0,1778927126.482
1928528.0,1778927126.522
1928808.0,1778927126.562
1929647.0,1778927126.603
1929942.0,1778927126.642
1930696.0,1778927126.682
1931329.0,1778927126.724
1932306.0,1778927126.763
1933380.0,1778927126.803
1933975.0,1778927126.844
1933216.0,1778927126.884
1932002.0,1778927126.925
1931668.0,1778927126.965
1931426.0,1778927127.002
1931589.0,1778927127.043
1932206.0,1778927127.084
1932974.0,1778927127.124
1933766.0,1778927127.163
1934480.0,1778927127.205
1934894.0,1778927127.244
1935911.0,1778927127.284
1936265.0,1778927127.326
1937216.0,1778927127.362
1937996.0,1778927127.403
1938733.0,1778927127.444
1939058.0,1778927127.483
1937548.0,1778927127.525
1936042.0,1778927127.566
1935121.0,1778927127.605
1934535.0,1778927127.645
1934295.0,1778927127.686
1934574.0,1778927127.726
1934520.0,1778927127.765
1934738.0,1778927127.806
1934936.0,1778927127.845
1935396.0,1778927127.885
1936038.0,1778927127.927
1936721.0,1778927127.965
1937564.0,1778927128.005
1938130.0,1778927128.047
1938938.0,1778927128.086
1938972.0,1778927128.127
1937807.0,1778927128.167
1937020.0,1778927128.207
1936675.0,1778927128.245
1936798.0,1778927128.286
1936893.0,1778927128.326
1937431.0,1778927128.366
1938181.0,1778927128.407
1938544.0,1778927128.447
1939430.0,1778927128.487
1939977.0,1778927128.529
1941034.0,1778927128.565
1942136.0,1778927128.606
1943637.0,1778927128.686
1943097.0,1778927128.647
1942938.0,1778927128.727
1941844.0,1778927128.768
1940933.0,1778927128.807
1940533.0,1778927128.847
1940728.0,1778927128.888
1941448.0,1778927128.926
1941865.0,1778927128.966
1942698.0,1778927129.006
1943184.0,1778927129.046
1943946.0,1778927129.086
1944712.0,1778927129.128
1945695.0,1778927129.167
1946714.0,1778927129.207
1946816.0,1778927129.248
1946030.0,1778927129.288
1944467.0,1778927129.327
1943147.0,1778927129.367
1942466.0,1778927129.407
1941995.0,1778927129.447
1941847.0,1778927129.488
1942322.0,1778927129.528
1942632.0,1778927129.568
1942695.0,1778927129.609
1942922.0,1778927129.646
1943020.0,1778927129.686
1943457.0,1778927129.728
1943651.0,1778927129.767
1943925.0,1778927129.807
1942571.0,1778927129.848
1940668.0,1778927129.888
1938710.0,1778927129.929
1937235.0,1778927129.969
1936041.0,1778927130.006
1935805.0,1778927130.047
1935103.0,1778927130.088
1934594.0,1778927130.128
1934417.0,1778927130.167
1934255.0,1778927130.209
1934034.0,1778927130.248
1934155.0,1778927130.288
1934364.0,1778927130.33
1934289.0,1778927130.366
1932600.0,1778927130.407
1930033.0,1778927130.448
1927927.0,1778927130.487
1926108.0,1778927130.528
1925263.0,1778927130.569
1924827.0,1778927130.608
1924655.0,1778927130.648
1924754.0,1778927130.69
1924651.0,1778927130.728
1924571.0,1778927130.767
1925055.0,1778927130.808
1925080.0,1778927130.848
1925637.0,1778927130.888
1924401.0,1778927130.93
1921768.0,1778927130.968
1918855.0,1778927131.009
1916370.0,1778927131.05
1914764.0,1778927131.087
1913672.0,1778927131.128
1913124.0,1778927131.169
1912760.0,1778927131.208
1912125.0,1778927131.248
1911343.0,1778927131.289
1910536.0,1778927131.329
1909761.0,1778927131.369
1909415.0,1778927131.408
1909126.0,1778927131.448
1906523.0,1778927131.488
1903698.0,1778927131.529
1900544.0,1778927131.567
1898361.0,1778927131.608
1896498.0,1778927131.65
1895338.0,1778927131.689
1894540.0,1778927131.73
1894020.0,1778927131.77
1893498.0,1778927131.808
1892524.0,1778927131.848
1891833.0,1778927131.929
1892037.0,1778927131.969
1892067.0,1778927131.889
1890673.0,1778927132.01
1884129.0,1778927132.089
1880837.0,1778927132.131
1887671.0,1778927132.049
1878337.0,1778927132.168
1877084.0,1778927132.208
1891808.0,1778927132.289
1893707.0,1778927132.249
1905822.0,1778927132.37
1890173.0,1778927132.33
1961664.0,1778927132.45
1935614.0,1778927132.409
1975344.0,1778927132.489
1982224.0,1778927132.529
1986494.0,1778927132.568
1989748.0,1778927132.61
1992724.0,1778927132.649
1995505.0,1778927132.689
1998297.0,1778927132.731
2000239.0,1778927132.77
2001250.0,1778927132.81
2003278.0,1778927132.849
2007076.0,1778927132.889
2011556.0,1778927132.929
2014670.0,1778927132.97
2011769.0,1778927133.009
1998162.0,1778927133.131
2008140.0,1778927133.05
2004109.0,1778927133.091
1989227.0,1778927133.17
1978958.0,1778927133.21
1964528.0,1778927133.289
1970639.0,1778927133.249
1959567.0,1778927133.331
1942969.0,1778927133.451
1938152.0,1778927133.49
1954764.0,1778927133.37
1948728.0,1778927133.41
1934925.0,1778927133.529
1932345.0,1778927133.57
1930766.0,1778927133.609
1928231.0,1778927133.65
1923670.0,1778927133.731
1926734.0,1778927133.691
1918026.0,1778927133.812
1920774.0,1778927133.77
1916306.0,1778927133.851
1913703.0,1778927133.931
1914847.0,1778927133.889
1912204.0,1778927133.969
1909974.0,1778927134.01
1906946.0,1778927134.051
1904661.0,1778927134.09
1902344.0,1778927134.128
1900916.0,1778927134.17
1897509.0,1778927134.209
1892612.0,1778927134.249
1887797.0,1778927134.29
1883907.0,1778927134.33
1881335.0,1778927134.37
1879467.0,1778927134.411
1878336.0,1778927134.451
1877274.0,1778927134.491
1876079.0,1778927134.533
1874968.0,1778927134.571
1874002.0,1778927134.609
1873506.0,1778927134.651
1872964.0,1778927134.69
1872139.0,1778927134.731
1868649.0,1778927134.771
1864789.0,1778927134.811
1861343.0,1778927134.851
1858728.0,1778927134.892
1857063.0,1778927134.932
1856592.0,1778927134.97
1856027.0,1778927135.011
1855434.0,1778927135.05
1854557.0,1778927135.09
1854054.0,1778927135.133
1853525.0,1778927135.171
1853612.0,1778927135.211
1852962.0,1778927135.253
1850247.0,1778927135.292
1846515.0,1778927135.331
1843347.0,1778927135.371
1841086.0,1778927135.411
1839998.0,1778927135.451
1839493.0,1778927135.492
1839135.0,1778927135.532
1839132.0,1778927135.572
1839087.0,1778927135.613
1839088.0,1778927135.65
1839273.0,1778927135.69
1839975.0,1778927135.732
1840805.0,1778927135.771
1839696.0,1778927135.811
1836843.0,1778927135.852
1834485.0,1778927135.892
1832832.0,1778927135.933
1831835.0,1778927135.973
1831762.0,1778927136.01
1832548.0,1778927136.051
1832779.0,1778927136.092
1833250.0,1778927136.132
1833694.0,1778927136.171
1834138.0,1778927136.213
1834957.0,1778927136.252
1836026.0,1778927136.292
1836590.0,1778927136.334
1835358.0,1778927136.371
1832995.0,1778927136.411
1831112.0,1778927136.452
1829844.0,1778927136.491
1829217.0,1778927136.532
1829498.0,1778927136.573
1830526.0,1778927136.612
1831280.0,1778927136.652
1831855.0,1778927136.693
1832520.0,1778927136.733
1833361.0,1778927136.771
1834340.0,1778927136.812
1835509.0,1778927136.851
1836409.0,1778927136.892
1835084.0,1778927136.934
1833611.0,1778927136.972
1832460.0,1778927137.012
1832302.0,1778927137.054
1833156.0,1778927137.093
1833910.0,1778927137.132
1834988.0,1778927137.172
1836329.0,1778927137.212
1837148.0,1778927137.252
1838511.0,1778927137.293
1839752.0,1778927137.333
1842058.0,1778927137.373
1844037.0,1778927137.414
1847433.0,1778927137.451
1849742.0,1778927137.492
1850580.0,1778927137.534
1850626.0,1778927137.572
1849734.0,1778927137.612
1848718.0,1778927137.654
1848222.0,1778927137.693
1847495.0,1778927137.734
1846703.0,1778927137.774
1846796.0,1778927137.812
1847189.0,1778927137.852
1848306.0,1778927137.893
1849775.0,1778927137.933
1850176.0,1778927137.973
1848850.0,1778927138.014
1847248.0,1778927138.053
1846589.0,1778927138.135
1846480.0,1778927138.093
1847143.0,1778927138.172
1848328.0,1778927138.212
1849987.0,1778927138.253
1851511.0,1778927138.293
1853082.0,1778927138.334
1854304.0,1778927138.374
1856125.0,1778927138.413
1857912.0,1778927138.454
1859523.0,1778927138.493
1859411.0,1778927138.533
1859051.0,1778927138.573
1858945.0,1778927138.614
1859534.0,1778927138.653
1861008.0,1778927138.693
1863052.0,1778927138.735
1864464.0,1778927138.774
1866201.0,1778927138.814
1867186.0,1778927138.853
1868155.0,1778927138.893
1869395.0,1778927138.934
1870228.0,1778927138.974
1871318.0,1778927139.013
1871953.0,1778927139.054
1870407.0,1778927139.095
1868556.0,1778927139.135
1867053.0,1778927139.174
1866671.0,1778927139.214
1867047.0,1778927139.252
1867789.0,1778927139.293
1868476.0,1778927139.335
1868703.0,1778927139.373
1869078.0,1778927139.414
1869511.0,1778927139.455
1870411.0,1778927139.494
1871507.0,1778927139.537
1872352.0,1778927139.578
1872831.0,1778927139.617
1871618.0,1778927139.657
1870494.0,1778927139.698
1870138.0,1778927139.738
1870500.0,1778927139.777
1871472.0,1778927139.818
1872999.0,1778927139.857
1874442.0,1778927139.897
1875648.0,1778927139.939
1876704.0,1778927139.978
1877876.0,1778927140.016
1879094.0,1778927140.057
1880365.0,1778927140.097
1881220.0,1778927140.138
1880280.0,1778927140.178
1879149.0,1778927140.217
1878565.0,1778927140.258
1878680.0,1778927140.299
1879650.0,1778927140.339
1881275.0,1778927140.376
1883214.0,1778927140.417
1885281.0,1778927140.456
1886288.0,1778927140.496
1887624.0,1778927140.537
1888457.0,1778927140.576
1888917.0,1778927140.616
1888316.0,1778927140.657
1886096.0,1778927140.696
1884295.0,1778927140.737
1883603.0,1778927140.777
1886999.0,1778927140.816
1894527.0,1778927140.856
1910491.0,1778927140.897
1912915.0,1778927140.937
1915363.0,1778927140.977
1949364.0,1778927141.018
1972675.0,1778927141.057
1978181.0,1778927141.097
1979528.0,1778927141.139
1974898.0,1778927141.177
1995833.0,1778927141.217
2038991.0,1778927141.258
2019926.0,1778927141.297
2023683.0,1778927141.338
2034972.0,1778927141.378
2059156.0,1778927141.417
2060614.0,1778927141.457
2052255.0,1778927141.499
2046995.0,1778927141.538
2043666.0,1778927141.578
2040001.0,1778927141.619
2036569.0,1778927141.658
2032826.0,1778927141.698
2029183.0,1778927141.74
2026641.0,1778927141.778
2025665.0,1778927141.818
2025146.0,1778927141.859
2025339.0,1778927141.898
2026912.0,1778927141.939
2028679.0,1778927141.979
2030516.0,1778927142.018
2031996.0,1778927142.059
2032925.0,1778927142.1
2034315.0,1778927142.139
2036141.0,1778927142.179
2036986.0,1778927142.22
2037396.0,1778927142.259
2035802.0,1778927142.299
2034323.0,1778927142.341
2033107.0,1778927142.379
2032663.0,1778927142.419
2033164.0,1778927142.46
2033582.0,1778927142.499
2034551.0,1778927142.54
2035555.0,1778927142.58
2036265.0,1778927142.62
2036978.0,1778927142.66
2037603.0,1778927142.701
2038911.0,1778927142.74
2039472.0,1778927142.78
2038739.0,1778927142.821
2035214.0,1778927142.942
2037196.0,1778927142.86
2035425.0,1778927142.9
2035282.0,1778927142.98
2035753.0,1778927143.02
2036736.0,1778927143.061
2036966.0,1778927143.1
2037615.0,1778927143.141
2039053.0,1778927143.221
2038622.0,1778927143.182
2040414.0,1778927143.302
2039966.0,1778927143.261
2039601.0,1778927143.342
2037876.0,1778927143.381
2035087.0,1778927143.422
2033776.0,1778927143.461
2033314.0,1778927143.501
2033269.0,1778927143.543
2033893.0,1778927143.581
2034078.0,1778927143.621
2034647.0,1778927143.662
2035239.0,1778927143.702
2035834.0,1778927143.743
2036434.0,1778927143.781
2037238.0,1778927143.819
2037540.0,1778927143.859
2035398.0,1778927143.9
2032758.0,1778927143.94
2031465.0,1778927143.98
2030633.0,1778927144.021
2030340.0,1778927144.06
2030815.0,1778927144.101
2030953.0,1778927144.143
2030845.0,1778927144.179
2031082.0,1778927144.219
2031095.0,1778927144.261
2031313.0,1778927144.3
2031679.0,1778927144.34
2031899.0,1778927144.38
2030306.0,1778927144.419
2027689.0,1778927144.459
2024924.0,1778927144.5
2023094.0,1778927144.541
2022329.0,1778927144.58
2022582.0,1778927144.622
2022575.0,1778927144.661
2022896.0,1778927144.701
2023328.0,1778927144.741
2023754.0,1778927144.78
2023936.0,1778927144.82
2024826.0,1778927144.861
2025319.0,1778927144.9
2025460.0,1778927144.941
2023728.0,1778927144.982
2020850.0,1778927145.021
2018636.0,1778927145.061
2017519.0,1778927145.101
2017058.0,1778927145.141
2017242.0,1778927145.18
2017657.0,1778927145.221
2018010.0,1778927145.261
2018110.0,1778927145.301
2018429.0,1778927145.343
2019181.0,1778927145.382
2019796.0,1778927145.42
2020413.0,1778927145.461
2020839.0,1778927145.5
2018677.0,1778927145.541
2015853.0,1778927145.582
2013895.0,1778927145.621
2012944.0,1778927145.661
2012738.0,1778927145.703
2013097.0,1778927145.743
2013713.0,1778927145.78
2013988.0,1778927145.821
2014498.0,1778927145.861
2015084.0,1778927145.901
2015613.0,1778927145.943
2016098.0,1778927145.981
2016668.0,1778927146.022
2015117.0,1778927146.063
2012207.0,1778927146.102
2009277.0,1778927146.141
2007473.0,1778927146.181
2006549.0,1778927146.221
2006619.0,1778927146.261
2006760.0,1778927146.302
2006977.0,1778927146.342
2007086.0,1778927146.382
2007496.0,1778927146.423
2007924.0,1778927146.46
2008464.0,1778927146.501
2009224.0,1778927146.543
2008828.0,1778927146.581
2005735.0,1778927146.621
2002014.0,1778927146.663
1999264.0,1778927146.702
1997103.0,1778927146.743
1996177.0,1778927146.783
1995817.0,1778927146.821
1995864.0,1778927146.861
1995937.0,1778927146.905
1995889.0,1778927146.94
1996121.0,1778927146.98
1996540.0,1778927147.022
1996801.0,1778927147.061
1997242.0,1778927147.101
1995505.0,1778927147.143
1991968.0,1778927147.182
1987966.0,1778927147.222
1985477.0,1778927147.263
1983708.0,1778927147.302
1983014.0,1778927147.343
1983154.0,1778927147.382
1983164.0,1778927147.421
1983758.0,1778927147.462
1983649.0,1778927147.503
1984000.0,1778927147.543
1984545.0,1778927147.582
1985006.0,1778927147.624
1985415.0,1778927147.663
1982846.0,1778927147.703
1978753.0,1778927147.743
1974424.0,1778927147.782
1971769.0,1778927147.822
1970395.0,1778927147.863
1969578.0,1778927147.902
1969650.0,1778927147.943
1969560.0,1778927147.984
1969378.0,1778927148.023
1969415.0,1778927148.063
1969717.0,1778927148.103
1970026.0,1778927148.143
1970511.0,1778927148.182
1970881.0,1778927148.223
1968619.0,1778927148.263
1964712.0,1778927148.303
1960830.0,1778927148.345
1957633.0,1778927148.383
1956496.0,1778927148.422
1955856.0,1778927148.463
1955498.0,1778927148.502
1955387.0,1778927148.543
1955254.0,1778927148.584
1955162.0,1778927148.623
1955488.0,1778927148.663
1955661.0,1778927148.705
1956075.0,1778927148.745
1957056.0,1778927148.782
1955946.0,1778927148.823
1952545.0,1778927148.863
1948939.0,1778927148.903
1946416.0,1778927148.945
1945392.0,1778927148.983
1945228.0,1778927149.023
1945822.0,1778927149.065
1946412.0,1778927149.104
1947034.0,1778927149.143
1947809.0,1778927149.183
1948421.0,1778927149.223
1949682.0,1778927149.263
1950634.0,1778927149.304
1951898.0,1778927149.344
1952013.0,1778927149.384
1948988.0,1778927149.425
1945158.0,1778927149.461
1942829.0,1778927149.501
1941770.0,1778927149.544
1941552.0,1778927149.583
1942007.0,1778927149.623
1942362.0,1778927149.664
1942935.0,1778927149.703
1943058.0,1778927149.744
1943119.0,1778927149.785
1943654.0,1778927149.824
1944527.0,1778927149.864
1945339.0,1778927149.904
1943957.0,1778927149.944
1940136.0,1778927149.983
1936773.0,1778927150.025
1934867.0,1778927150.064
1934115.0,1778927150.104
1934290.0,1778927150.146
1934968.0,1778927150.185
1935642.0,1778927150.225
1935878.0,1778927150.264
1935906.0,1778927150.303
1936461.0,1778927150.344
1936905.0,1778927150.385
1937752.0,1778927150.424
1936738.0,1778927150.465
1932630.0,1778927150.506
1927935.0,1778927150.546
1924545.0,1778927150.583
1922842.0,1778927150.624
1921925.0,1778927150.664
1921775.0,1778927150.704
1922026.0,1778927150.746
1922504.0,1778927150.784
1922274.0,1778927150.825
1922714.0,1778927150.866
1922976.0,1778927150.905
1923829.0,1778927150.985
1923894.0,1778927150.944
1915346.0,1778927151.064
1911656.0,1778927151.106
1909074.0,1778927151.145
1907936.0,1778927151.185
1907637.0,1778927151.226
1920073.0,1778927151.024
1908284.0,1778927151.266
1908313.0,1778927151.304
1908178.0,1778927151.346
1908275.0,1778927151.384
1908324.0,1778927151.425
1908970.0,1778927151.466
1909844.0,1778927151.505
1908705.0,1778927151.544
1904727.0,1778927151.583
1900045.0,1778927151.622
1894250.0,1778927151.739
1896961.0,1778927151.661
1894884.0,1778927151.7
1894279.0,1778927151.778
1894650.0,1778927151.817
1894727.0,1778927151.856
1895222.0,1778927151.895
1895628.0,1778927151.934
1895989.0,1778927151.973
1897047.0,1778927152.012
1897956.0,1778927152.051
1898580.0,1778927152.09
1895102.0,1778927152.129
1890860.0,1778927152.168
1887735.0,1778927152.207
1885626.0,1778927152.246
1885058.0,1778927152.285
1885701.0,1778927152.324
1886562.0,1778927152.363
1887226.0,1778927152.402
1887693.0,1778927152.441
1888522.0,1778927152.48
1889186.0,1778927152.519
1890232.0,1778927152.558
1891675.0,1778927152.597
1893050.0,1778927152.636
1893641.0,1778927152.675
1890418.0,1778927152.714
1886412.0,1778927152.753
1883673.0,1778927152.792
1882415.0,1778927152.831
1882297.0,1778927152.87
1883318.0,1778927152.909
1883920.0,1778927152.948
1884603.0,1778927152.987
1885348.0,1778927153.026
1886019.0,1778927153.065
1886801.0,1778927153.104
1888114.0,1778927153.143
1890355.0,1778927153.223
1889693.0,1778927153.183
1887909.0,1778927153.263
1884190.0,1778927153.303
1880787.0,1778927153.343
1878809.0,1778927153.383
1878062.0,1778927153.423
1878512.0,1778927153.463
1879291.0,1778927153.503
1879696.0,1778927153.543
1880652.0,1778927153.623
1881432.0,1778927153.663
1880236.0,1778927153.583
1882462.0,1778927153.703
1883771.0,1778927153.743
1885362.0,1778927153.783
1883576.0,1778927153.823
1879459.0,1778927153.863
1875596.0,1778927153.903
1873041.0,1778927153.943
1871953.0,1778927153.983
1871365.0,1778927154.023
1871830.0,1778927154.063
1872855.0,1778927154.103
1873163.0,1778927154.143
1873475.0,1778927154.183
1874278.0,1778927154.223
1874832.0,1778927154.263
1876048.0,1778927154.303
1877455.0,1778927154.343
1878138.0,1778927154.383
1875317.0,1778927154.423
1870849.0,1778927154.463
1867359.0,1778927154.503
1864497.0,1778927154.583
1865463.0,1778927154.543
1865196.0,1778927154.623
1865904.0,1778927154.663
1866504.0,1778927154.703
1867532.0,1778927154.783
1867162.0,1778927154.743
1869236.0,1778927154.863
1868480.0,1778927154.823
1870104.0,1778927154.903
1871465.0,1778927154.943
1870793.0,1778927154.983
1866957.0,1778927155.023
1862401.0,1778927155.063
1859670.0,1778927155.103
1857665.0,1778927155.143
1856456.0,1778927155.183
1856245.0,1778927155.223
1855824.0,1778927155.303
1855852.0,1778927155.263
1854848.0,1778927155.343
1854377.0,1778927155.383
1853093.0,1778927155.423
1851055.0,1778927155.463
1849129.0,1778927155.503
1847879.0,1778927155.543
1846773.0,1778927155.583
1843050.0,1778927155.623
1838911.0,1778927155.663
1836334.0,1778927155.703
1835407.0,1778927155.743
1836753.0,1778927155.823
1835736.0,1778927155.783
1837780.0,1778927155.863
1838608.0,1778927155.903
1839501.0,1778927155.943
1840261.0,1778927155.983
1841502.0,1778927156.023
1842877.0,1778927156.063
1844802.0,1778927156.103
1846963.0,1778927156.143
1848968.0,1778927156.183
1849618.0,1778927156.223
1849753.0,1778927156.263
1849167.0,1778927156.303
1859194.0,1778927156.343
1876005.0,1778927156.383
1882678.0,1778927156.423
1881543.0,1778927156.463
1887922.0,1778927156.503
1893748.0,1778927156.543
1912085.0,1778927156.583
1932179.0,1778927156.623
1948920.0,1778927156.663
1962669.0,1778927156.703
1973322.0,1778927156.743
1980623.0,1778927156.783
1994285.0,1778927156.823
2010593.0,1778927156.863
2020726.0,1778927156.903
2017804.0,1778927156.943
2006811.0,1778927156.983
1992418.0,1778927157.023
1978449.0,1778927157.063
1969293.0,1778927157.103
1962734.0,1778927157.143
1956573.0,1778927157.183
1956888.0,1778927157.223
1956626.0,1778927157.263
1954827.0,1778927157.303
1945676.0,1778927157.343
1939083.0,1778927157.383
1937636.0,1778927157.423
1930784.0,1778927157.463
1919332.0,1778927157.503
1910077.0,1778927157.543
1902941.0,1778927157.583
1895796.0,1778927157.623
1886397.0,1778927157.663
1877929.0,1778927157.703
1870315.0,1778927157.743
1863879.0,1778927157.783
1858557.0,1778927157.823
1853339.0,1778927157.863
1847636.0,1778927157.903
1837905.0,1778927157.943
1826916.0,1778927157.983
1816980.0,1778927158.023
1809473.0,1778927158.063
1798147.0,1778927158.143
1793381.0,1778927158.183
1789290.0,1778927158.223
1802865.0,1778927158.103
1784830.0,1778927158.263
1780790.0,1778927158.303
1777117.0,1778927158.343
1773769.0,1778927158.383
1770909.0,1778927158.423
1767704.0,1778927158.463
1761382.0,1778927158.503
1753610.0,1778927158.543
1746794.0,1778927158.583
1741062.0,1778927158.623
1737071.0,1778927158.663
1733962.0,1778927158.703
1731411.0,1778927158.743
1728861.0,1778927158.783
1726052.0,1778927158.823
1723469.0,1778927158.863
1721151.0,1778927158.903
1718836.0,1778927158.943
1717368.0,1778927158.983
1713563.0,1778927159.023
1707472.0,1778927159.063
1701435.0,1778927159.103
1695807.0,1778927159.143
1691254.0,1778927159.183
1688509.0,1778927159.223
1686382.0,1778927159.263
1685301.0,1778927159.303
1684200.0,1778927159.343
1682674.0,1778927159.383
1681079.0,1778927159.423
1680300.0,1778927159.463
1679613.0,1778927159.503
1678687.0,1778927159.543
1674759.0,1778927159.583
1669510.0,1778927159.623
1665228.0,1778927159.663
1662109.0,1778927159.703
1660090.0,1778927159.743
1659029.0,1778927159.783
1658269.0,1778927159.823
1657354.0,1778927159.863
1656313.0,1778927159.903
1655652.0,1778927159.943
1655164.0,1778927159.983
1654790.0,1778927160.023
1654210.0,1778927160.063
1650923.0,1778927160.103
1646062.0,1778927160.143
1641166.0,1778927160.183
1638079.0,1778927160.223
1635645.0,1778927160.263
1634405.0,1778927160.303
1633935.0,1778927160.343
1633576.0,1778927160.383
1632955.0,1778927160.423
1632621.0,1778927160.463
1632061.0,1778927160.503
1631859.0,1778927160.543
1631754.0,1778927160.583
1631161.0,1778927160.623
1627955.0,1778927160.663
1623400.0,1778927160.703
1619279.0,1778927160.743
1616358.0,1778927160.783
1614655.0,1778927160.823
1613651.0,1778927160.863
1613416.0,1778927160.903
1612738.0,1778927160.943
1612452.0,1778927160.983
1611768.0,1778927161.023
1611443.0,1778927161.063
1611475.0,1778927161.103
1611730.0,1778927161.143
1611793.0,1778927161.183
1608180.0,1778927161.263
1611470.0,1778927161.223
1601818.0,1778927161.343
1604737.0,1778927161.303
1599962.0,1778927161.383
1599034.0,1778927161.423
1598670.0,1778927161.463
1598470.0,1778927161.503
1598259.0,1778927161.543
1598041.0,1778927161.583
1597654.0,1778927161.623
1597791.0,1778927161.663
1597885.0,1778927161.703
1598424.0,1778927161.743
1598918.0,1778927161.783
1599565.0,1778927161.823
1600020.0,1778927161.863
1600304.0,1778927161.903
1598613.0,1778927161.943
1595408.0,1778927161.983
1592249.0,1778927162.023
1589923.0,1778927162.063
1588494.0,1778927162.103
1587621.0,1778927162.143
1587241.0,1778927162.183
1586940.0,1778927162.223
1586404.0,1778927162.263
1585928.0,1778927162.303
1585583.0,1778927162.343
1585367.0,1778927162.383
1585133.0,1778927162.423
1585198.0,1778927162.463
1585551.0,1778927162.503
1585604.0,1778927162.543
1585968.0,1778927162.583
1585349.0,1778927162.623
1582903.0,1778927162.663
1580297.0,1778927162.703
1578646.0,1778927162.743
1577747.0,1778927162.783
1577341.0,1778927162.823
1577375.0,1778927162.863
1577286.0,1778927162.903
1577066.0,1778927162.943
1577079.0,1778927162.983
1576730.0,1778927163.023
1576964.0,1778927163.063
1577246.0,1778927163.103
1577841.0,1778927163.143
1578359.0,1778927163.183
1578943.0,1778927163.223
1578525.0,1778927163.263
1576872.0,1778927163.303
1575063.0,1778927163.343
1573385.0,1778927163.383
1572826.0,1778927163.423
1572302.0,1778927163.463
1572753.0,1778927163.553
1573489.0,1778927163.594
1574265.0,1778927163.633
1574798.0,1778927163.673
1574832.0,1778927163.714
1575011.0,1778927163.754
1575099.0,1778927163.793
1575475.0,1778927163.834
1576331.0,1778927163.873
1576637.0,1778927163.913
1575623.0,1778927163.955
1574197.0,1778927163.993
1572862.0,1778927164.034
1572016.0,1778927164.075
1571145.0,1778927164.114
1570944.0,1778927164.154
1571024.0,1778927164.195
1571097.0,1778927164.234
1570897.0,1778927164.274
1570961.0,1778927164.315
1570947.0,1778927164.355
1571104.0,1778927164.394
1571313.0,1778927164.435
1571501.0,1778927164.474
1571093.0,1778927164.514
1569208.0,1778927164.556
1567211.0,1778927164.595
1565599.0,1778927164.635
1564469.0,1778927164.676
1563383.0,1778927164.715
1563102.0,1778927164.756
1562441.0,1778927164.796
1561630.0,1778927164.835
1560791.0,1778927164.875
1560032.0,1778927164.916
1559289.0,1778927164.956
1558671.0,1778927164.995
1558299.0,1778927165.036
1557561.0,1778927165.075
1557352.0,1778927165.115
1553591.0,1778927165.196
1556062.0,1778927165.157
1550847.0,1778927165.236
1548939.0,1778927165.277
1547283.0,1778927165.316
1546141.0,1778927165.357
1545457.0,1778927165.397
1544511.0,1778927165.436
1543850.0,1778927165.476
1543275.0,1778927165.517
1542586.0,1778927165.557
1542157.0,1778927165.596
1541669.0,1778927165.638
1541325.0,1778927165.677
1541016.0,1778927165.717
1540969.0,1778927165.758
1540501.0,1778927165.797
1538278.0,1778927165.837
1535977.0,1778927165.878
1533939.0,1778927165.917
1532556.0,1778927165.958
1531325.0,1778927165.998
1530899.0,1778927166.037
1530669.0,1778927166.078
1530517.0,1778927166.117
1530349.0,1778927166.157
1530256.0,1778927166.196
1530372.0,1778927166.238
1530791.0,1778927166.277
1531073.0,1778927166.317
1531538.0,1778927166.359
1532063.0,1778927166.398
1531324.0,1778927166.436
1529323.0,1778927166.477
1527060.0,1778927166.517
1525617.0,1778927166.558
1524281.0,1778927166.598
1523179.0,1778927166.637
1521211.0,1778927166.719
1522184.0,1778927166.678
1520249.0,1778927166.759
1519451.0,1778927166.796
1518802.0,1778927166.838
1518032.0,1778927166.877
1517280.0,1778927166.917
1516789.0,1778927166.959
1516463.0,1778927166.998
1516051.0,1778927167.038
1514926.0,1778927167.079
1512559.0,1778927167.118
1509497.0,1778927167.157
1506721.0,1778927167.198
1504896.0,1778927167.237
1503490.0,1778927167.277
1502522.0,1778927167.319
1501577.0,1778927167.359
1500754.0,1778927167.399
1499817.0,1778927167.437
1498800.0,1778927167.477
1497963.0,1778927167.517
1497260.0,1778927167.559
1496810.0,1778927167.597
1496191.0,1778927167.638
1495669.0,1778927167.679
1495329.0,1778927167.718
1494133.0,1778927167.759
1491523.0,1778927167.8
1488672.0,1778927167.839
1486305.0,1778927167.877
1484441.0,1778927167.918
1483158.0,1778927167.958
1482450.0,1778927167.998
1481540.0,1778927168.039
1480394.0,1778927168.078
1479727.0,1778927168.119
1479006.0,1778927168.161
1478197.0,1778927168.199
1477845.0,1778927168.237
1477752.0,1778927168.279
1477630.0,1778927168.318
1477822.0,1778927168.359
1478242.0,1778927168.399
1477509.0,1778927168.439
1476210.0,1778927168.479
1474976.0,1778927168.52
1473715.0,1778927168.558
1472142.0,1778927168.598
1471292.0,1778927168.639
1470225.0,1778927168.678
1469823.0,1778927168.719
1469452.0,1778927168.761
1469500.0,1778927168.799
1469266.0,1778927168.839
1469436.0,1778927168.881
1469850.0,1778927168.918
1469680.0,1778927168.959
1469443.0,1778927168.999
1469179.0,1778927169.038
1467240.0,1778927169.079
1464714.0,1778927169.12
1462276.0,1778927169.16
1460241.0,1778927169.2
1458825.0,1778927169.241
1457728.0,1778927169.278
1457239.0,1778927169.318
1456702.0,1778927169.36
1455767.0,1778927169.399
1455227.0,1778927169.439
1454521.0,1778927169.481
1454251.0,1778927169.519
1453924.0,1778927169.561
1453720.0,1778927169.599
1453300.0,1778927169.638
1452516.0,1778927169.679
1450322.0,1778927169.72
1447778.0,1778927169.76
1445593.0,1778927169.799
1443964.0,1778927169.84
1442714.0,1778927169.88
1441670.0,1778927169.92
1441202.0,1778927169.959
1440412.0,1778927169.997
1439607.0,1778927170.037
1438822.0,1778927170.078
1438415.0,1778927170.117
1437887.0,1778927170.159
1437654.0,1778927170.2
1437415.0,1778927170.239
1437200.0,1778927170.279
1436529.0,1778927170.32
1434826.0,1778927170.36
1432575.0,1778927170.4
1430569.0,1778927170.441
1429575.0,1778927170.478
1428977.0,1778927170.518
1428712.0,1778927170.56
1428844.0,1778927170.599
1428965.0,1778927170.639
1429159.0,1778927170.68
1430026.0,1778927170.719
1431149.0,1778927170.76
1432612.0,1778927170.801
1434046.0,1778927170.84
1435147.0,1778927170.88
1436601.0,1778927170.922
1437094.0,1778927170.96
1436452.0,1778927170.999
1435274.0,1778927171.04
1434244.0,1778927171.08
1433135.0,1778927171.12
1432210.0,1778927171.162
1431568.0,1778927171.2
1431229.0,1778927171.241
1430981.0,1778927171.282
1431343.0,1778927171.319
1431970.0,1778927171.36
1433079.0,1778927171.401
1433952.0,1778927171.44
1435264.0,1778927171.48
1436487.0,1778927171.522
1437515.0,1778927171.562
1437112.0,1778927171.601
1435224.0,1778927171.64
1433359.0,1778927171.68
1431687.0,1778927171.72
1430535.0,1778927171.762
1429772.0,1778927171.8
1429894.0,1778927171.841
1430337.0,1778927171.882
1430718.0,1778927171.921
1430735.0,1778927171.962
1431222.0,1778927172.001
1431183.0,1778927172.04
1431476.0,1778927172.08
1431827.0,1778927172.121
1432327.0,1778927172.161
1432755.0,1778927172.201
1432811.0,1778927172.242
1431314.0,1778927172.281
1428740.0,1778927172.322
1426278.0,1778927172.362
1424513.0,1778927172.4
1423260.0,1778927172.44
1422570.0,1778927172.482
1422499.0,1778927172.52
1422243.0,1778927172.559
1421691.0,1778927172.599
1421120.0,1778927172.638
1420346.0,1778927172.678
1419945.0,1778927172.719
1420173.0,1778927172.759
1420623.0,1778927172.797
1420997.0,1778927172.838
1420561.0,1778927172.877
1420035.0,1778927172.918
1418851.0,1778927172.96
1417627.0,1778927172.999
1416435.0,1778927173.04
1415337.0,1778927173.081
1414694.0,1778927173.12
1414217.0,1778927173.161
1414498.0,1778927173.202
1414719.0,1778927173.241
1414595.0,1778927173.281
1413780.0,1778927173.323
1413151.0,1778927173.363
1413280.0,1778927173.402
1413476.0,1778927173.443
1413592.0,1778927173.481
1413534.0,1778927173.521
1413234.0,1778927173.563
1412614.0,1778927173.601
1411868.0,1778927173.642
1410791.0,1778927173.683
1409320.0,1778927173.722
1408121.0,1778927173.763
1407093.0,1778927173.804
1406640.0,1778927173.841
1406523.0,1778927173.881
1406032.0,1778927173.922
1405305.0,1778927173.962
1404100.0,1778927174.002
1403787.0,1778927174.043
1403523.0,1778927174.082
1403336.0,1778927174.123
1402899.0,1778927174.165
1402591.0,1778927174.201
1402298.0,1778927174.241
1402217.0,1778927174.283
1401475.0,1778927174.322
1400431.0,1778927174.363
1399202.0,1778927174.404
1398457.0,1778927174.443
1398660.0,1778927174.483
1399386.0,1778927174.522
1399933.0,1778927174.562
1400452.0,1778927174.602
1400622.0,1778927174.643
1401067.0,1778927174.682
1401741.0,1778927174.723
1401948.0,1778927174.765
1402141.0,1778927174.803
1402282.0,1778927174.843
1402164.0,1778927174.883
1402096.0,1778927174.922
1401604.0,1778927174.963
1400187.0,1778927175.003
1399002.0,1778927175.042
1397999.0,1778927175.085
1397612.0,1778927175.126
1397662.0,1778927175.167
1397746.0,1778927175.204
1397885.0,1778927175.243
1398057.0,1778927175.282
1398694.0,1778927175.322
1399426.0,1778927175.364
1400327.0,1778927175.403
1401191.0,1778927175.443
1401859.0,1778927175.485
1402617.0,1778927175.524
1403283.0,1778927175.558
1403066.0,1778927175.598
1402849.0,1778927175.637
1402497.0,1778927175.677
1402011.0,1778927175.718
1401936.0,1778927175.758
1402022.0,1778927175.798
1402195.0,1778927175.839
1402270.0,1778927175.878
1402226.0,1778927175.918
1402542.0,1778927175.96
1402562.0,1778927175.998
1402360.0,1778927176.038
1402122.0,1778927176.079
1401954.0,1778927176.118
1401202.0,1778927176.159
1400014.0,1778927176.199
1398850.0,1778927176.238
1397965.0,1778927176.279
1397149.0,1778927176.32
1396936.0,1778927176.359
1397251.0,1778927176.399
1397520.0,1778927176.44
1397309.0,1778927176.479
1396993.0,1778927176.519
1396692.0,1778927176.561
1396620.0,1778927176.599
1396587.0,1778927176.639
1396478.0,1778927176.68
1396222.0,1778927176.72
1395120.0,1778927176.759
1393749.0,1778927176.798
1392787.0,1778927176.837
1391721.0,1778927176.877
1390861.0,1778927176.919
1390365.0,1778927176.959
1390150.0,1778927176.998
1389960.0,1778927177.039
1389679.0,1778927177.079
1389029.0,1778927177.119
1388451.0,1778927177.159
1388394.0,1778927177.197
1388349.0,1778927177.238
1388299.0,1778927177.279
1388055.0,1778927177.318
1387423.0,1778927177.359
1386148.0,1778927177.4
1384740.0,1778927177.439
1383721.0,1778927177.479
1383101.0,1778927177.518
1382414.0,1778927177.558
1381965.0,1778927177.598
1381770.0,1778927177.638
1381937.0,1778927177.677
1381350.0,1778927177.717
1381005.0,1778927177.759
1380661.0,1778927177.797
1380528.0,1778927177.838
1380407.0,1778927177.88
1380093.0,1778927177.919
1380102.0,1778927177.96
1379321.0,1778927178.0
1377939.0,1778927178.04
1376686.0,1778927178.078
1375528.0,1778927178.119
1374516.0,1778927178.159
1373601.0,1778927178.198
1373292.0,1778927178.24
1372823.0,1778927178.279
1372348.0,1778927178.319
1371494.0,1778927178.361
1370887.0,1778927178.398
1370388.0,1778927178.438
1369708.0,1778927178.479
1369325.0,1778927178.519
1368833.0,1778927178.56
1368492.0,1778927178.6
1367852.0,1778927178.639
1366486.0,1778927178.68
1364563.0,1778927178.721
1363289.0,1778927178.759
1362382.0,1778927178.798
1361706.0,1778927178.84
1361537.0,1778927178.879
1362079.0,1778927178.919
1362713.0,1778927178.961
1363943.0,1778927179.0
1364916.0,1778927179.04
1366374.0,1778927179.081
1368431.0,1778927179.118
1370293.0,1778927179.159
1371983.0,1778927179.2
1373461.0,1778927179.239
1373836.0,1778927179.279
1374142.0,1778927179.321
1373791.0,1778927179.361
1373501.0,1778927179.4
1373547.0,1778927179.44
1373977.0,1778927179.479
1374590.0,1778927179.519
1375168.0,1778927179.561
1375582.0,1778927179.6
1376349.0,1778927179.64
1377194.0,1778927179.681
1378376.0,1778927179.72
1379909.0,1778927179.761
1380697.0,1778927179.8
1381010.0,1778927179.839
1380432.0,1778927179.879
1379360.0,1778927179.921
1378083.0,1778927179.961
1377031.0,1778927180.0
1376172.0,1778927180.041
1375244.0,1778927180.081
1374842.0,1778927180.121
1374482.0,1778927180.161
1374335.0,1778927180.2
1374973.0,1778927180.24
1375366.0,1778927180.281
1375626.0,1778927180.32
1375967.0,1778927180.361
1375616.0,1778927180.402
1373977.0,1778927180.439
1371628.0,1778927180.48
1369031.0,1778927180.521
1366543.0,1778927180.561
1364681.0,1778927180.6
1363749.0,1778927180.642
1362537.0,1778927180.681
1362005.0,1778927180.721
1361201.0,1778927180.763
1360713.0,1778927180.799
1360408.0,1778927180.84
1361020.0,1778927180.881
1361859.0,1778927180.92
1362650.0,1778927180.961
1364019.0,1778927181.002
1365053.0,1778927181.041
1364519.0,1778927181.081
1362517.0,1778927181.123
1360236.0,1778927181.16
1357857.0,1778927181.2
1356780.0,1778927181.241
1356506.0,1778927181.281
1356632.0,1778927181.321
1356723.0,1778927181.363
1356929.0,1778927181.401
1357465.0,1778927181.442
1358418.0,1778927181.481
1359809.0,1778927181.52
1361565.0,1778927181.561
1363617.0,1778927181.602
1365571.0,1778927181.641
1367680.0,1778927181.681
1369188.0,1778927181.722
1368942.0,1778927181.762
1367966.0,1778927181.802
1367091.0,1778927181.841
1365962.0,1778927181.88
1365306.0,1778927181.921
1364626.0,1778927181.963
1364008.0,1778927182.001
1363806.0,1778927182.041
1363783.0,1778927182.083
1363614.0,1778927182.122
1364114.0,1778927182.163
1364720.0,1778927182.201
1365555.0,1778927182.24
1366587.0,1778927182.281
1367382.0,1778927182.322
1368215.0,1778927182.362
1368269.0,1778927182.402
1367065.0,1778927182.443
1364888.0,1778927182.482
1362612.0,1778927182.52
1360396.0,1778927182.562
1358467.0,1778927182.601
1357197.0,1778927182.641
1356160.0,1778927182.682
1355780.0,1778927182.722
1355699.0,1778927182.759
1355666.0,1778927182.8
1355835.0,1778927182.839
1356189.0,1778927182.88
1356893.0,1778927182.921
1357667.0,1778927182.961
1358589.0,1778927183.001
1360265.0,1778927183.042
1361724.0,1778927183.081
1362447.0,1778927183.121
1361862.0,1778927183.163
1360739.0,1778927183.202
1359830.0,1778927183.242
1359691.0,1778927183.283
1360069.0,1778927183.323
1361272.0,1778927183.364
1362666.0,1778927183.402
1363945.0,1778927183.441
1364756.0,1778927183.482
1365201.0,1778927183.523
1365687.0,1778927183.563
1366511.0,1778927183.602
1367660.0,1778927183.643
1368514.0,1778927183.683
1369730.0,1778927183.723
1371256.0,1778927183.763
1371718.0,1778927183.801
1371125.0,1778927183.842
1369813.0,1778927183.883
1368710.0,1778927183.922
1367957.0,1778927183.963
1367804.0,1778927184.004
1367894.0,1778927184.043
1368861.0,1778927184.083
1369680.0,1778927184.123
1370405.0,1778927184.162
1370942.0,1778927184.202
1371433.0,1778927184.243
1371850.0,1778927184.282
1372243.0,1778927184.323
1373648.0,1778927184.365
1374594.0,1778927184.403
1375049.0,1778927184.442
1375159.0,1778927184.483
1374868.0,1778927184.522
1374626.0,1778927184.563
1374611.0,1778927184.604
1374764.0,1778927184.643
1374870.0,1778927184.683
1374959.0,1778927184.724
1375298.0,1778927184.764
1375535.0,1778927184.802
1375522.0,1778927184.843
1375780.0,1778927184.882
1376193.0,1778927184.923
1376970.0,1778927184.965
1377829.0,1778927185.003
1378435.0,1778927185.043
1379309.0,1778927185.085
1380102.0,1778927185.124
1380751.0,1778927185.163
1380111.0,1778927185.203
1379000.0,1778927185.243
1377344.0,1778927185.283
1375754.0,1778927185.323
1374301.0,1778927185.363
1373516.0,1778927185.403
1372807.0,1778927185.444
1372381.0,1778927185.484
1372234.0,1778927185.524
1372478.0,1778927185.566
1372968.0,1778927185.602
1373593.0,1778927185.643
1374555.0,1778927185.684
1375449.0,1778927185.723
1376587.0,1778927185.764
1378018.0,1778927185.805
1379040.0,1778927185.844
1379503.0,1778927185.884
1379321.0,1778927185.925
1378901.0,1778927185.963
1378327.0,1778927186.003
1378339.0,1778927186.044
1378425.0,1778927186.083
1378851.0,1778927186.124
1379689.0,1778927186.166
1380939.0,1778927186.204
1382396.0,1778927186.244
1384077.0,1778927186.286
1385727.0,1778927186.323
1387660.0,1778927186.364
1389247.0,1778927186.405
1390446.0,1778927186.444
1391604.0,1778927186.484
1393612.0,1778927186.525
1394854.0,1778927186.565
1395211.0,1778927186.605
1395105.0,1778927186.646
1394954.0,1778927186.683
1394477.0,1778927186.723
1394283.0,1778927186.765
1393869.0,1778927186.804
1394010.0,1778927186.844
1393921.0,1778927186.885
1393793.0,1778927186.925
1393485.0,1778927186.966
1393455.0,1778927187.006
1393388.0,1778927187.043
1393537.0,1778927187.084
1393761.0,1778927187.125
1394635.0,1778927187.165
1394716.0,1778927187.204
1393931.0,1778927187.246
1392420.0,1778927187.285
1390580.0,1778927187.325
1388779.0,1778927187.367
1387400.0,1778927187.404
1386330.0,1778927187.444
1385677.0,1778927187.485
1385038.0,1778927187.524
1384663.0,1778927187.566
1384340.0,1778927187.607
1384148.0,1778927187.646
1384309.0,1778927187.686
1384882.0,1778927187.727
1385248.0,1778927187.767
1385637.0,1778927187.806
1386576.0,1778927187.847
1387014.0,1778927187.886
1386891.0,1778927187.926
1385964.0,1778927187.968
1384807.0,1778927188.006
1383508.0,1778927188.046
1382391.0,1778927188.088
1382035.0,1778927188.127
1381876.0,1778927188.167
1381647.0,1778927188.208
1382183.0,1778927188.248
1382849.0,1778927188.288
1383111.0,1778927188.329
1383738.0,1778927188.367
1384802.0,1778927188.407
1386156.0,1778927188.448
1387559.0,1778927188.487
1388621.0,1778927188.527
1388646.0,1778927188.569
1387634.0,1778927188.608
1386763.0,1778927188.648
1385944.0,1778927188.689
1385003.0,1778927188.726
1383885.0,1778927188.767
1383371.0,1778927188.808
1383250.0,1778927188.847
1383314.0,1778927188.888
1382841.0,1778927188.929
1382604.0,1778927188.969
1382583.0,1778927189.008
1382408.0,1778927189.049
1382058.0,1778927189.087
1381805.0,1778927189.127
1381334.0,1778927189.169
1379644.0,1778927189.207
1376646.0,1778927189.248
1373594.0,1778927189.289
1370499.0,1778927189.328
1368002.0,1778927189.369
1366919.0,1778927189.41
1365587.0,1778927189.447
1364615.0,1778927189.487
1363714.0,1778927189.528
1363099.0,1778927189.568
1363167.0,1778927189.608
1363233.0,1778927189.649
1363791.0,1778927189.688
1364619.0,1778927189.729
1365750.0,1778927189.771
1365687.0,1778927189.807
1364916.0,1778927189.847
1363710.0,1778927189.889
1361229.0,1778927189.969
1362241.0,1778927189.928
1360513.0,1778927190.009
1360580.0,1778927190.049
1360549.0,1778927190.089
1360502.0,1778927190.13
1360902.0,1778927190.168
1360862.0,1778927190.208
1361348.0,1778927190.249
1362069.0,1778927190.288
1362621.0,1778927190.328
1363284.0,1778927190.37
1364546.0,1778927190.408
1364724.0,1778927190.446
1362452.0,1778927190.487
1359433.0,1778927190.526
1356117.0,1778927190.568
1352971.0,1778927190.608
1350912.0,1778927190.647
1349409.0,1778927190.688
1348821.0,1778927190.729
1348153.0,1778927190.769
1346914.0,1778927190.808
1345078.0,1778927190.85
1343832.0,1778927190.889
1343430.0,1778927190.929
1343811.0,1778927190.971
1344255.0,1778927191.01
1344629.0,1778927191.048
1345347.0,1778927191.089
1345909.0,1778927191.128
1344465.0,1778927191.17
1342095.0,1778927191.21
1340766.0,1778927191.249
1340354.0,1778927191.29
1341073.0,1778927191.331
1341722.0,1778927191.371
1342568.0,1778927191.408
1343557.0,1778927191.449
1344864.0,1778927191.489
1345964.0,1778927191.529
1347479.0,1778927191.571
1348630.0,1778927191.609
1350110.0,1778927191.65
1351228.0,1778927191.691
1352413.0,1778927191.73
1353362.0,1778927191.769
1353016.0,1778927191.81
1351777.0,1778927191.849
1350214.0,1778927191.889
1348851.0,1778927191.93
1348320.0,1778927191.97
1348192.0,1778927192.01
1348362.0,1778927192.051
1348975.0,1778927192.09
1349433.0,1778927192.129
1349654.0,1778927192.171
1350424.0,1778927192.209
1351300.0,1778927192.249
1352090.0,1778927192.291
1353022.0,1778927192.33
1354248.0,1778927192.371
1354834.0,1778927192.412
1354119.0,1778927192.449
1352525.0,1778927192.489
1351058.0,1778927192.53
1349852.0,1778927192.57
1349426.0,1778927192.61
1349390.0,1778927192.651
1349547.0,1778927192.69
1349845.0,1778927192.731
1349739.0,1778927192.773
1349952.0,1778927192.809
1350206.0,1778927192.849
1350820.0,1778927192.891
1351910.0,1778927192.93
1352386.0,1778927192.971
1353432.0,1778927193.008
1353975.0,1778927193.047
1353185.0,1778927193.087
1351552.0,1778927193.129
1350149.0,1778927193.169
1349055.0,1778927193.209
1348742.0,1778927193.25
1348841.0,1778927193.29
1349313.0,1778927193.33
1350015.0,1778927193.372
1350565.0,1778927193.41
1351302.0,1778927193.451
1352152.0,1778927193.492
1352978.0,1778927193.531
1354475.0,1778927193.572
1355899.0,1778927193.611
1357476.0,1778927193.65
1358526.0,1778927193.69
1358462.0,1778927193.731
1357653.0,1778927193.771
1356963.0,1778927193.811
1356123.0,1778927193.852
1355736.0,1778927193.891
1355888.0,1778927193.932
1356345.0,1778927193.972
1356913.0,1778927194.01
1357505.0,1778927194.05
1358362.0,1778927194.092
1359317.0,1778927194.131
1360321.0,1778927194.172
1361785.0,1778927194.212
1362583.0,1778927194.252
1363701.0,1778927194.292
1365173.0,1778927194.331
1365951.0,1778927194.371
1366255.0,1778927194.411
1366139.0,1778927194.452
1366514.0,1778927194.491
1367040.0,1778927194.532
1368183.0,1778927194.574
1369585.0,1778927194.612
1370622.0,1778927194.65
1371912.0,1778927194.691
1373129.0,1778927194.731
1374304.0,1778927194.772
1375166.0,1778927194.812
1376440.0,1778927194.851
1377475.0,1778927194.892
1379100.0,1778927194.933
1380339.0,1778927194.973
1381046.0,1778927195.011
1380975.0,1778927195.052
1380629.0,1778927195.091
1380192.0,1778927195.131
1380300.0,1778927195.173
1380725.0,1778927195.212
1381791.0,1778927195.252
1382431.0,1778927195.293
1382713.0,1778927195.332
1382814.0,1778927195.372
1382253.0,1778927195.412
1381941.0,1778927195.451
1383346.0,1778927195.492
1384475.0,1778927195.537
1385444.0,1778927195.57
1385927.0,1778927195.609
1385698.0,1778927195.651
1385239.0,1778927195.691
1384864.0,1778927195.731
1384309.0,1778927195.773
1383789.0,1778927195.811
1383743.0,1778927195.852
1383437.0,1778927195.893
1382877.0,1778927195.932
1382534.0,1778927195.973
1382228.0,1778927196.014
1382408.0,1778927196.053
1382765.0,1778927196.091
1383569.0,1778927196.132
1384129.0,1778927196.172
1384917.0,1778927196.212
1385891.0,1778927196.253
1386143.0,1778927196.292
1386029.0,1778927196.333
1385938.0,1778927196.375
1385140.0,1778927196.452
1385452.0,1778927196.411
1384938.0,1778927196.493
1384828.0,1778927196.532
1384682.0,1778927196.573
1384451.0,1778927196.614
1384535.0,1778927196.653
1384626.0,1778927196.693
1384861.0,1778927196.734
1385294.0,1778927196.772
1385615.0,1778927196.812
1386057.0,1778927196.853
1386862.0,1778927196.892
1387068.0,1778927196.933
1386657.0,1778927196.975
1386200.0,1778927197.013
1385196.0,1778927197.053
1384269.0,1778927197.095
1383482.0,1778927197.132
1383208.0,1778927197.173
1383090.0,1778927197.213
1383267.0,1778927197.253
1383223.0,1778927197.293
1383436.0,1778927197.334
1383665.0,1778927197.374
1384372.0,1778927197.414
1384990.0,1778927197.453
1385683.0,1778927197.492
1386480.0,1778927197.533
1387904.0,1778927197.575
1389106.0,1778927197.613
1389708.0,1778927197.653
1389349.0,1778927197.695
1387939.0,1778927197.734
1386832.0,1778927197.775
1385681.0,1778927197.813
1384985.0,1778927197.853
1384873.0,1778927197.893
1384566.0,1778927197.934
1384425.0,1778927197.974
1385361.0,1778927198.014
1385966.0,1778927198.055
1386339.0,1778927198.094
1386818.0,1778927198.133
1387183.0,1778927198.175
1386993.0,1778927198.214
1386990.0,1778927198.254
1386819.0,1778927198.294
1385841.0,1778927198.333
1384256.0,1778927198.374
1383099.0,1778927198.415
1382269.0,1778927198.454
1381580.0,1778927198.494
1381284.0,1778927198.535
1381050.0,1778927198.575
1380712.0,1778927198.613
1380508.0,1778927198.654
1380428.0,1778927198.693
1380170.0,1778927198.734
1380074.0,1778927198.776
1380049.0,1778927198.814
1380083.0,1778927198.854
1380291.0,1778927198.896
1379845.0,1778927198.935
1378781.0,1778927198.976
1378001.0,1778927199.014
1376830.0,1778927199.053
1376352.0,1778927199.094
1375905.0,1778927199.135
1375795.0,1778927199.175
1375815.0,1778927199.214
1375739.0,1778927199.256
1375782.0,1778927199.295
1376358.0,1778927199.335
1377038.0,1778927199.375
1378084.0,1778927199.414
1379489.0,1778927199.454
1381394.0,1778927199.495
1382875.0,1778927199.534
1384134.0,1778927199.578
1385056.0,1778927199.618
1385953.0,1778927199.657
1386944.0,1778927199.697
1388332.0,1778927199.738
1389665.0,1778927199.778
1390918.0,1778927199.817
1391984.0,1778927199.858
1393348.0,1778927199.897
1394828.0,1778927199.937
1396075.0,1778927199.979
1397543.0,1778927200.018
1399129.0,1778927200.056
1400410.0,1778927200.097
1401569.0,1778927200.136
1401854.0,1778927200.178
1402324.0,1778927200.218
1402774.0,1778927200.257
1403017.0,1778927200.298
1403595.0,1778927200.339
1403846.0,1778927200.379
1404332.0,1778927200.418
1404858.0,1778927200.46
1404952.0,1778927200.499
1405076.0,1778927200.537
1405309.0,1778927200.579
1405671.0,1778927200.617
1405865.0,1778927200.66
1405641.0,1778927200.697
1404747.0,1778927200.736
1403491.0,1778927200.777
1401803.0,1778927200.818
1400149.0,1778927200.857
1398737.0,1778927200.898
1397427.0,1778927200.939
1396573.0,1778927200.979
1395604.0,1778927201.018
1394833.0,1778927201.059
1394227.0,1778927201.099
1393791.0,1778927201.139
1393252.0,1778927201.181
1392953.0,1778927201.217
1392601.0,1778927201.258
1391694.0,1778927201.299
1390208.0,1778927201.338
1388073.0,1778927201.379
1386159.0,1778927201.42
1384625.0,1778927201.459
1383061.0,1778927201.499
1382385.0,1778927201.539
1381365.0,1778927201.579
1380467.0,1778927201.618
1379875.0,1778927201.659
1379340.0,1778927201.699
1379116.0,1778927201.739
1379253.0,1778927201.781
1379443.0,1778927201.819
1379622.0,1778927201.86
1380229.0,1778927201.899
1380251.0,1778927201.938
1378884.0,1778927202.02
1378704.0,1778927202.059
1379902.0,1778927201.979
1378909.0,1778927202.099
1379229.0,1778927202.14
1378973.0,1778927202.18
1378893.0,1778927202.22
1378836.0,1778927202.259
1379204.0,1778927202.298
1380464.0,1778927202.339
1383159.0,1778927202.381
1385270.0,1778927202.419
1387061.0,1778927202.46
1388280.0,1778927202.501
1389770.0,1778927202.54
1389869.0,1778927202.579
1389513.0,1778927202.62
1388478.0,1778927202.659
1387648.0,1778927202.699
1386709.0,1778927202.74
1385884.0,1778927202.78
1384975.0,1778927202.82
1384092.0,1778927202.861
1383678.0,1778927202.9
1383380.0,1778927202.939
1383401.0,1778927202.981
1383429.0,1778927203.019
1383193.0,1778927203.059
1382876.0,1778927203.101
1382573.0,1778927203.14
1381771.0,1778927203.181
1379795.0,1778927203.22
1377493.0,1778927203.257
1367828.0,1778927203.419
1365930.0,1778927203.46
1369884.0,1778927203.379
1372005.0,1778927203.338
1374674.0,1778927203.297
1364683.0,1778927203.499
1365221.0,1778927203.539
1363809.0,1778927203.581
1360760.0,1778927203.66
1361995.0,1778927203.62
1360565.0,1778927203.701
1360610.0,1778927203.74
1359906.0,1778927203.782
1359068.0,1778927203.822
1357081.0,1778927203.899
1358634.0,1778927203.859
1355034.0,1778927203.941
1352784.0,1778927203.981
1350879.0,1778927204.02
1349641.0,1778927204.061
1348887.0,1778927204.101
1348294.0,1778927204.141
1347841.0,1778927204.183
1347353.0,1778927204.219
1346959.0,1778927204.26
1347126.0,1778927204.301
1348053.0,1778927204.34
1348955.0,1778927204.381
1349681.0,1778927204.422
1350186.0,1778927204.461
1351036.0,1778927204.501
1352156.0,1778927204.541
1352782.0,1778927204.581
1352320.0,1778927204.62
1351643.0,1778927204.661
1350962.0,1778927204.701
1350403.0,1778927204.741
1350440.0,1778927204.783
1351150.0,1778927204.821
1351276.0,1778927204.862
1351572.0,1778927204.901
1352604.0,1778927204.94
1353648.0,1778927204.981
1354672.0,1778927205.022
1356145.0,1778927205.061
1357469.0,1778927205.101
1358061.0,1778927205.142
1358775.0,1778927205.182
1358801.0,1778927205.222
1357393.0,1778927205.261
1355212.0,1778927205.3
1352804.0,1778927205.341
1350979.0,1778927205.383
1349683.0,1778927205.421
1348734.0,1778927205.461
1348165.0,1778927205.503
1347751.0,1778927205.542
1347629.0,1778927205.581
1347574.0,1778927205.621
1347683.0,1778927205.661
1347763.0,1778927205.701
1348079.0,1778927205.742
1348558.0,1778927205.782
1348865.0,1778927205.819
1348959.0,1778927205.86
1348050.0,1778927205.9
1346112.0,1778927205.94
1343936.0,1778927205.982
1341868.0,1778927206.021
1340355.0,1778927206.061
1339280.0,1778927206.102
1338817.0,1778927206.141
1339041.0,1778927206.183
1339314.0,1778927206.223
1338986.0,1778927206.262
1338877.0,1778927206.303
1338449.0,1778927206.342
1338026.0,1778927206.382
1337618.0,1778927206.422
1337611.0,1778927206.463
1337854.0,1778927206.502
1337631.0,1778927206.542
1335965.0,1778927206.584
1332825.0,1778927206.623
1330285.0,1778927206.661
1329060.0,1778927206.702
1329026.0,1778927206.742
1328390.0,1778927206.783
1327517.0,1778927206.823
1326142.0,1778927206.862
1326034.0,1778927206.903
1326551.0,1778927206.944
1326687.0,1778927206.984
1325988.0,1778927207.021
1324648.0,1778927207.063
1324385.0,1778927207.102
1325110.0,1778927207.142
1325536.0,1778927207.184
1324674.0,1778927207.222
1322294.0,1778927207.263
1320636.0,1778927207.304
1319653.0,1778927207.343
1318493.0,1778927207.382
1317200.0,1778927207.423
1316044.0,1778927207.462
1315932.0,1778927207.503
1316054.0,1778927207.544
1316693.0,1778927207.584
1317026.0,1778927207.623
1316507.0,1778927207.665
1316354.0,1778927207.702
1317874.0,1778927207.742
1319209.0,1778927207.784
1321171.0,1778927207.822
1321707.0,1778927207.863
1320550.0,1778927207.904
1319007.0,1778927207.943
1318078.0,1778927207.984
1317505.0,1778927208.025
1317284.0,1778927208.062
1317722.0,1778927208.102
1318764.0,1778927208.144
1319766.0,1778927208.184
1321468.0,1778927208.223
1322377.0,1778927208.264
1323715.0,1778927208.304
1327352.0,1778927208.343
1348119.0,1778927208.382
1381070.0,1778927208.42
1411750.0,1778927208.46
1443188.0,1778927208.502
1482464.0,1778927208.542
1523794.0,1778927208.583
1557868.0,1778927208.623
1581868.0,1778927208.662
1601088.0,1778927208.703
1623182.0,1778927208.744
1639257.0,1778927208.784
1642241.0,1778927208.824
1641427.0,1778927208.865
1639958.0,1778927208.904
1639194.0,1778927208.944
1638697.0,1778927208.986
1637175.0,1778927209.023
1634411.0,1778927209.063
1631895.0,1778927209.104
1629673.0,1778927209.143
1628487.0,1778927209.184
1628612.0,1778927209.225
1628079.0,1778927209.264
1627783.0,1778927209.304
1627334.0,1778927209.346
1627922.0,1778927209.384
1628580.0,1778927209.423
1629038.0,1778927209.465
1629365.0,1778927209.504
1629290.0,1778927209.544
1628935.0,1778927209.586
1628340.0,1778927209.625
1627256.0,1778927209.665
1626197.0,1778927209.704
1625451.0,1778927209.743
1625033.0,1778927209.784
1625278.0,1778927209.825
1625548.0,1778927209.864
1625476.0,1778927209.904
1625442.0,1778927209.946
1625471.0,1778927209.986
1625346.0,1778927210.025
1624956.0,1778927210.064
1624723.0,1778927210.104
1624654.0,1778927210.144
1624109.0,1778927210.186
1622815.0,1778927210.224
1621856.0,1778927210.265
1621249.0,1778927210.306
1621081.0,1778927210.345
1621060.0,1778927210.386
1621009.0,1778927210.425
1621010.0,1778927210.464
1620440.0,1778927210.504
1620352.0,1778927210.545
1620536.0,1778927210.585
1620782.0,1778927210.625
1621564.0,1778927210.666
1621845.0,1778927210.705
1621526.0,1778927210.746
1620068.0,1778927210.786
1619005.0,1778927210.824
1618182.0,1778927210.864
1617404.0,1778927210.905
1617545.0,1778927210.944
1617631.0,1778927210.985
1618042.0,1778927211.026
1618145.0,1778927211.065
1618138.0,1778927211.105
1618736.0,1778927211.147
1619143.0,1778927211.185
1619696.0,1778927211.224
1620389.0,1778927211.266
1620108.0,1778927211.305
1619177.0,1778927211.345
1618060.0,1778927211.387
1616725.0,1778927211.426
1616215.0,1778927211.466
1615819.0,1778927211.505
1615629.0,1778927211.544
1615510.0,1778927211.583
1615357.0,1778927211.622
1615061.0,1778927211.661
1614996.0,1778927211.7
1615186.0,1778927211.739
1615337.0,1778927211.778
1615597.0,1778927211.817
1615907.0,1778927211.856
1616263.0,1778927211.895
1615970.0,1778927211.934
1614735.0,1778927211.973
1612843.0,1778927212.012
1611479.0,1778927212.051
1610465.0,1778927212.09
1609978.0,1778927212.129
1609491.0,1778927212.168
1609304.0,1778927212.207
1609017.0,1778927212.246
1608457.0,1778927212.285
1607428.0,1778927212.324
1605836.0,1778927212.363
1605201.0,1778927212.402
1605384.0,1778927212.441
1605250.0,1778927212.48
1605359.0,1778927212.519
1605490.0,1778927212.558
1605887.0,1778927212.597
1606517.0,1778927212.636
1605560.0,1778927212.675
1603656.0,1778927212.715
1601433.0,1778927212.755
1599612.0,1778927212.795
1598348.0,1778927212.835
1597749.0,1778927212.875
1597105.0,1778927212.915
1596291.0,1778927212.955
1595328.0,1778927212.995
1594765.0,1778927213.035
1594178.0,1778927213.075
1593657.0,1778927213.115
1593037.0,1778927213.155
1592595.0,1778927213.195
1592922.0,1778927213.235
1593399.0,1778927213.275
1593814.0,1778927213.315
1594320.0,1778927213.355
1594063.0,1778927213.395
1592802.0,1778927213.435
1591859.0,1778927213.475
1591431.0,1778927213.515
1590891.0,1778927213.555
1590857.0,1778927213.595
1590961.0,1778927213.635
1591112.0,1778927213.675
1590979.0,1778927213.715
1591183.0,1778927213.755
1591113.0,1778927213.795
1591568.0,1778927213.835
1591978.0,1778927213.875
1592630.0,1778927213.915
1593194.0,1778927213.955
1593206.0,1778927213.995
1593519.0,1778927214.035
1592590.0,1778927214.075
1591361.0,1778927214.115
1590163.0,1778927214.155
1589034.0,1778927214.195
1588235.0,1778927214.235
1587904.0,1778927214.275
1587663.0,1778927214.315
1587547.0,1778927214.355
1587264.0,1778927214.395
1587097.0,1778927214.435
1587024.0,1778927214.475
1587221.0,1778927214.515
1587351.0,1778927214.555
1587860.0,1778927214.595
1588470.0,1778927214.635
1589111.0,1778927214.675
1589221.0,1778927214.715
1588192.0,1778927214.755
1586292.0,1778927214.795
1584739.0,1778927214.835
1583278.0,1778927214.875
1581745.0,1778927214.915
1580721.0,1778927214.955
1579771.0,1778927214.995
1579068.0,1778927215.035
1578668.0,1778927215.075
1578653.0,1778927215.115
1578511.0,1778927215.155
1578439.0,1778927215.195
1578288.0,1778927215.235
1578396.0,1778927215.275
1578125.0,1778927215.315
1577674.0,1778927215.355
1576832.0,1778927215.395
1574509.0,1778927215.435
1572223.0,1778927215.475
1570105.0,1778927215.515
1568050.0,1778927215.555
1566409.0,1778927215.595
1565601.0,1778927215.635
1564708.0,1778927215.675
1563963.0,1778927215.715
1562663.0,1778927215.755
1561801.0,1778927215.795
1560877.0,1778927215.835
1559967.0,1778927215.875
1559435.0,1778927215.915
1558972.0,1778927215.955
1558691.0,1778927215.995
1558193.0,1778927216.035
1556929.0,1778927216.075
1554331.0,1778927216.115
1551280.0,1778927216.155
1548731.0,1778927216.195
1546894.0,1778927216.235
1545641.0,1778927216.275
1544614.0,1778927216.315
1543852.0,1778927216.355
1543179.0,1778927216.395
1542103.0,1778927216.435
1541203.0,1778927216.475
1540419.0,1778927216.515
1539666.0,1778927216.555
1539083.0,1778927216.595
1538970.0,1778927216.635
1539302.0,1778927216.675
1539946.0,1778927216.715
1539626.0,1778927216.755
1538279.0,1778927216.795
1536788.0,1778927216.835
1535609.0,1778927216.875
1534867.0,1778927216.915
1534791.0,1778927216.955
1534681.0,1778927216.995
1534731.0,1778927217.035
1535074.0,1778927217.075
1535551.0,1778927217.115
1536005.0,1778927217.155
1536531.0,1778927217.195
1537886.0,1778927217.235
1538728.0,1778927217.275
1540342.0,1778927217.315
1541900.0,1778927217.355
1541795.0,1778927217.395
1541199.0,1778927217.435
1540861.0,1778927217.475
1540310.0,1778927217.515
1539406.0,1778927217.555
1539212.0,1778927217.595
1538746.0,1778927217.635
1538482.0,1778927217.675
1538160.0,1778927217.715
1538359.0,1778927217.755
1538961.0,1778927217.795
1539294.0,1778927217.835
1539285.0,1778927217.875
1539407.0,1778927217.915
1539614.0,1778927217.955
1537151.0,1778927217.995
1533429.0,1778927218.035
1529435.0,1778927218.075
1523455.0,1778927218.155
1526083.0,1778927218.115
1521760.0,1778927218.195
1518765.0,1778927218.275
1520164.0,1778927218.235
1517187.0,1778927218.315
1515300.0,1778927218.355
1513516.0,1778927218.395
1511964.0,1778927218.435
1510698.0,1778927218.475
1509555.0,1778927218.515
1508419.0,1778927218.555
1505999.0,1778927218.595
1501619.0,1778927218.635
1496519.0,1778927218.675
1491820.0,1778927218.715
1488513.0,1778927218.755
1485847.0,1778927218.795
1484023.0,1778927218.835
1479641.0,1778927218.915
1481841.0,1778927218.875
1477750.0,1778927218.955
1475666.0,1778927218.995
1473955.0,1778927219.035
1472907.0,1778927219.075
1683499.0,1778927223.6
1683819.0,1778927223.679
1684230.0,1778927223.72
1683796.0,1778927223.761
1681993.0,1778927223.8
1680515.0,1778927223.84
1683469.0,1778927223.64
1678696.0,1778927223.92
1679503.0,1778927223.881
1678412.0,1778927223.96
1678611.0,1778927224.04
1678626.0,1778927224.08
1678545.0,1778927224.002
1678558.0,1778927224.122
1678821.0,1778927224.202
1679109.0,1778927224.242
1679750.0,1778927224.321
1678568.0,1778927224.161
1679521.0,1778927224.281
1678914.0,1778927224.362
1676949.0,1778927224.402
1675200.0,1778927224.442
1673720.0,1778927224.483
1672675.0,1778927224.522
1671934.0,1778927224.562
1671814.0,1778927224.604
1671594.0,1778927224.642
1671140.0,1778927224.682
1670999.0,1778927224.723
1670826.0,1778927224.762
1670395.0,1778927224.803
1670455.0,1778927224.844
1670424.0,1778927224.883
1670490.0,1778927224.923
1669068.0,1778927224.964
1666932.0,1778927225.004
1664830.0,1778927225.043
1663180.0,1778927225.084
1661882.0,1778927225.124
1660979.0,1778927225.164
1660362.0,1778927225.205
1659978.0,1778927225.244
1659437.0,1778927225.284
1658820.0,1778927225.325
1658199.0,1778927225.364
1657428.0,1778927225.405
1656854.0,1778927225.445
1656801.0,1778927225.485
1657051.0,1778927225.525
1657407.0,1778927225.566
1656547.0,1778927225.606
1654517.0,1778927225.645
1652377.0,1778927225.686
1650350.0,1778927225.725
1649103.0,1778927225.765
1648057.0,1778927225.807
1647666.0,1778927225.846
1647449.0,1778927225.886
1646689.0,1778927225.927
1646353.0,1778927225.966
1645949.0,1778927226.007
1645709.0,1778927226.047
1645606.0,1778927226.086
1645730.0,1778927226.126
1645932.0,1778927226.168
1644407.0,1778927226.247
1646035.0,1778927226.207
1639939.0,1778927226.327
1642157.0,1778927226.288
1636764.0,1778927226.409
1638342.0,1778927226.367
1635876.0,1778927226.447
1634250.0,1778927226.529
1635239.0,1778927226.488
1633068.0,1778927226.609
1633530.0,1778927226.568
1632469.0,1778927226.649
1632066.0,1778927226.688
1631937.0,1778927226.728
1631767.0,1778927226.77
1631739.0,1778927226.809
1631621.0,1778927226.849
1631080.0,1778927226.89
1629008.0,1778927226.929
1626333.0,1778927226.969
1623715.0,1778927227.01
1621461.0,1778927227.049
1619688.0,1778927227.089
1618604.0,1778927227.13
1617650.0,1778927227.169
1616589.0,1778927227.21
1615559.0,1778927227.25
1614615.0,1778927227.289
1613462.0,1778927227.329
1612813.0,1778927227.37
1612246.0,1778927227.41
1611713.0,1778927227.45
1611597.0,1778927227.491
1611392.0,1778927227.53
1610780.0,1778927227.57
1609146.0,1778927227.612
1606563.0,1778927227.65
1604059.0,1778927227.69
1601984.0,1778927227.731
1600308.0,1778927227.77
1599267.0,1778927227.811
1598649.0,1778927227.851
1598110.0,1778927227.89
1597527.0,1778927227.93
1596792.0,1778927227.971
1596728.0,1778927228.011
1596846.0,1778927228.051
1597166.0,1778927228.092
1597920.0,1778927228.131
1599116.0,1778927228.171
1600373.0,1778927228.213
1600475.0,1778927228.251
1599384.0,1778927228.291
1598363.0,1778927228.332
1597628.0,1778927228.371
1596721.0,1778927228.412
1596724.0,1778927228.452
1597115.0,1778927228.491
1597975.0,1778927228.532
1598451.0,1778927228.573
1598481.0,1778927228.612
1598359.0,1778927228.652
1598046.0,1778927228.693
1597636.0,1778927228.732
1597857.0,1778927228.772
1598823.0,1778927228.814
1600239.0,1778927228.852
1600116.0,1778927228.892
1598462.0,1778927228.933
1595910.0,1778927228.972
1593511.0,1778927229.013
1591521.0,1778927229.054
1589710.0,1778927229.093
1588194.0,1778927229.133
1586546.0,1778927229.174
1585263.0,1778927229.214
1583786.0,1778927229.253
1582835.0,1778927229.294
1581885.0,1778927229.333
1581611.0,1778927229.373
1581328.0,1778927229.415
1581562.0,1778927229.453
1581816.0,1778927229.494
1581505.0,1778927229.535
1579573.0,1778927229.574
1577380.0,1778927229.615
1575427.0,1778927229.655
1573723.0,1778927229.694
1572294.0,1778927229.734
1571250.0,1778927229.775
1570458.0,1778927229.815
1569300.0,1778927229.854
1568469.0,1778927229.895
1567818.0,1778927229.934
1567393.0,1778927229.975
1567701.0,1778927230.016
1568487.0,1778927230.055
1569502.0,1778927230.095
1570843.0,1778927230.136
1571810.0,1778927230.175
1570863.0,1778927230.256
1571335.0,1778927230.216
1570822.0,1778927230.295
1570500.0,1778927230.336
1570506.0,1778927230.377
1570925.0,1778927230.416
1571426.0,1778927230.456
1572084.0,1778927230.497
1572814.0,1778927230.536
1573795.0,1778927230.576
1576420.0,1778927230.656
1575062.0,1778927230.618
1578004.0,1778927230.696
1581571.0,1778927230.777
1581659.0,1778927230.817
1580755.0,1778927230.858
1579905.0,1778927230.737
1578210.0,1778927230.937
1579098.0,1778927230.897
1577085.0,1778927230.978
1576238.0,1778927231.018
1575795.0,1778927231.057
1575386.0,1778927231.098
1574976.0,1778927231.138
1574528.0,1778927231.178
1574291.0,1778927231.219
1574403.0,1778927231.258
1574235.0,1778927231.298
1574064.0,1778927231.339
1573634.0,1778927231.378
1571969.0,1778927231.419
1569142.0,1778927231.459
1563935.0,1778927231.538
1560214.0,1778927231.619
1566642.0,1778927231.498
1561762.0,1778927231.58
1558177.0,1778927231.7
1559210.0,1778927231.659
1557128.0,1778927231.739
1556409.0,1778927231.779
1554483.0,1778927231.899
1555480.0,1778927231.821
1554130.0,1778927231.94
1554916.0,1778927231.859
1553928.0,1778927231.98
1553255.0,1778927232.02
1551320.0,1778927232.061
1549378.0,1778927232.1
1547624.0,1778927232.14
1546253.0,1778927232.181
1545153.0,1778927232.221
1544315.0,1778927232.26
1544221.0,1778927232.301
1544379.0,1778927232.34
1544499.0,1778927232.38
1544921.0,1778927232.422
1546264.0,1778927232.461
1547141.0,1778927232.501
1548826.0,1778927232.542
1550299.0,1778927232.581
1551921.0,1778927232.622
1552317.0,1778927232.662
1552100.0,1778927232.701
1551856.0,1778927232.741
1551571.0,1778927232.782
1551369.0,1778927232.822
1552031.0,1778927232.862
1552563.0,1778927232.903
1552946.0,1778927232.982
1552770.0,1778927232.942
1552765.0,1778927233.024
1553691.0,1778927233.062
1555141.0,1778927233.102
1559487.0,1778927233.183
1557148.0,1778927233.144
1561619.0,1778927233.223
1562340.0,1778927233.303
1562489.0,1778927233.264
1560570.0,1778927233.384
1561573.0,1778927233.343
1559384.0,1778927233.424
1558059.0,1778927233.505
1558462.0,1778927233.463
1557299.0,1778927233.544
1556227.0,1778927233.584
1555480.0,1778927233.626
1554876.0,1778927233.664
1554154.0,1778927233.704
1553994.0,1778927233.745
1553941.0,1778927233.784
1553871.0,1778927233.825
1554045.0,1778927233.866
1553687.0,1778927233.905
1551987.0,1778927233.945
1549793.0,1778927233.986
1547666.0,1778927234.026
1545639.0,1778927234.065
1544117.0,1778927234.106
1542942.0,1778927234.145
1542152.0,1778927234.185
1541415.0,1778927234.227
1540866.0,1778927234.266
1540536.0,1778927234.306
1540100.0,1778927234.347
1540329.0,1778927234.386
1540586.0,1778927234.427
1541335.0,1778927234.467
1542367.0,1778927234.506
1543442.0,1778927234.546
1544600.0,1778927234.588
1545155.0,1778927234.627
1544983.0,1778927234.667
1544638.0,1778927234.708
1544959.0,1778927234.747
1544792.0,1778927234.787
1545522.0,1778927234.829
1546145.0,1778927234.867
1547257.0,1778927234.908
1548266.0,1778927234.949
1549741.0,1778927234.988
1551355.0,1778927235.029
1552789.0,1778927235.066
1554732.0,1778927235.106
1557273.0,1778927235.141
1559938.0,1778927235.178
1562344.0,1778927235.216
1564768.0,1778927235.255
1565604.0,1778927235.296
1565531.0,1778927235.336
1565516.0,1778927235.376
1565125.0,1778927235.418
1564813.0,1778927235.456
1564864.0,1778927235.497
1565157.0,1778927235.538
1565691.0,1778927235.575
1566637.0,1778927235.616
1567476.0,1778927235.656
1568443.0,1778927235.695
1569559.0,1778927235.735
1570537.0,1778927235.776
1571660.0,1778927235.816
1572835.0,1778927235.855
1574036.0,1778927235.897
1573958.0,1778927235.936
1572931.0,1778927235.976
1571859.0,1778927236.018
1571131.0,1778927236.056
1570839.0,1778927236.096
1570616.0,1778927236.138
1570803.0,1778927236.177
1570798.0,1778927236.218
1570700.0,1778927236.257
1570521.0,1778927236.296
1570697.0,1778927236.337
1570707.0,1778927236.378
1570710.0,1778927236.418
1570542.0,1778927236.456
1570652.0,1778927236.497
1570392.0,1778927236.536
1570155.0,1778927236.577
1569269.0,1778927236.618
1567594.0,1778927236.657
1565505.0,1778927236.697
1563627.0,1778927236.739
1562473.0,1778927236.776
1561709.0,1778927236.817
1561064.0,1778927236.857
1560687.0,1778927236.896
1560114.0,1778927236.937
1559796.0,1778927236.978
1559243.0,1778927237.018
1559195.0,1778927237.057
1559127.0,1778927237.099
1559378.0,1778927237.136
1559894.0,1778927237.176
1560534.0,1778927237.218
1561386.0,1778927237.257
1561746.0,1778927237.297
1561410.0,1778927237.338
1561423.0,1778927237.377
1561285.0,1778927237.418
1561249.0,1778927237.458
1561356.0,1778927237.497
1561830.0,1778927237.538
1562351.0,1778927237.579
1563055.0,1778927237.619
1564062.0,1778927237.656
1565013.0,1778927237.698
1566254.0,1778927237.737
1567450.0,1778927237.777
1568817.0,1778927237.819
1570702.0,1778927237.858
1572024.0,1778927237.898
1572557.0,1778927237.939
1572914.0,1778927237.978
1572995.0,1778927238.017
1572294.0,1778927238.058
1572008.0,1778927238.097
1571540.0,1778927238.137
1571818.0,1778927238.178
1572203.0,1778927238.218
1572665.0,1778927238.258
1572863.0,1778927238.299
1572713.0,1778927238.338
1572908.0,1778927238.377
1573208.0,1778927238.419
1573714.0,1778927238.457
1574161.0,1778927238.498
1573245.0,1778927238.539
1572049.0,1778927238.578
1570324.0,1778927238.619
1568495.0,1778927238.66
1566797.0,1778927238.699
1565930.0,1778927238.737
1564795.0,1778927238.778
1563990.0,1778927238.818
1562947.0,1778927238.858
1562073.0,1778927238.899
1561456.0,1778927238.938
1560752.0,1778927238.978
1560287.0,1778927239.02
1559757.0,1778927239.059
1558449.0,1778927239.099
1556208.0,1778927239.14
1553451.0,1778927239.177
1550885.0,1778927239.218
1548784.0,1778927239.258
1547169.0,1778927239.297
1545494.0,1778927239.337
1544553.0,1778927239.379
1543061.0,1778927239.419
1541943.0,1778927239.458
1540940.0,1778927239.499
1540149.0,1778927239.539
1539422.0,1778927239.579
1539218.0,1778927239.621
1539325.0,1778927239.657
1538662.0,1778927239.698
1536661.0,1778927239.739
1534739.0,1778927239.778
1533012.0,1778927239.819
1531461.0,1778927239.86
1530207.0,1778927239.899
1529764.0,1778927239.939
1530215.0,1778927240.058
1529808.0,1778927240.018
1529696.0,1778927239.981
1531210.0,1778927240.138
1532545.0,1778927240.221
1532950.0,1778927240.259
1532034.0,1778927240.299
1530326.0,1778927240.341
1531755.0,1778927240.179
1530639.0,1778927240.099
1527224.0,1778927240.419
1526021.0,1778927240.459
1528406.0,1778927240.378
1524459.0,1778927240.538
1525353.0,1778927240.498
1523501.0,1778927240.579
1522691.0,1778927240.619
1522101.0,1778927240.659
1521938.0,1778927240.7
1522429.0,1778927240.739
1523012.0,1778927240.78
1523330.0,1778927240.822
1524002.0,1778927240.858
1523208.0,1778927240.898
1520326.0,1778927240.94
1517157.0,1778927240.979
1513660.0,1778927241.02
1510888.0,1778927241.059
1508677.0,1778927241.099
1507304.0,1778927241.139
1506851.0,1778927241.18
1506750.0,1778927241.22
1506724.0,1778927241.26
1506655.0,1778927241.301
1506082.0,1778927241.34
1505931.0,1778927241.378
1506447.0,1778927241.42
1507372.0,1778927241.459
1508560.0,1778927241.499
1508906.0,1778927241.541
1507335.0,1778927241.58
1505108.0,1778927241.618
1502422.0,1778927241.659
1499960.0,1778927241.699
1497783.0,1778927241.739
1496207.0,1778927241.78
1494723.0,1778927241.82
1493493.0,1778927241.859
1492197.0,1778927241.9
1491807.0,1778927241.94
1491538.0,1778927241.98
1490943.0,1778927242.022
1490695.0,1778927242.06
1490986.0,1778927242.101
1491839.0,1778927242.14
1492570.0,1778927242.179
1493748.0,1778927242.22
1494171.0,1778927242.261
1493211.0,1778927242.3
1492010.0,1778927242.34
1491125.0,1778927242.381
1490488.0,1778927242.421
1490175.0,1778927242.461
1490382.0,1778927242.5
1490758.0,1778927242.539
1490984.0,1778927242.58
1491711.0,1778927242.622
1492708.0,1778927242.66
1494246.0,1778927242.7
1495836.0,1778927242.742
1497505.0,1778927242.781
1499582.0,1778927242.822
1501547.0,1778927242.86
1502128.0,1778927242.9
1501309.0,1778927242.94
1500331.0,1778927242.981
1499112.0,1778927243.021
1498234.0,1778927243.061
1497699.0,1778927243.102
1497424.0,1778927243.141
1497628.0,1778927243.181
1498124.0,1778927243.221
1498963.0,1778927243.26
1499699.0,1778927243.3
1500803.0,1778927243.341
1501839.0,1778927243.381
1502964.0,1778927243.422
1504240.0,1778927243.461
1506208.0,1778927243.5
1507313.0,1778927243.541
1507334.0,1778927243.582
1505981.0,1778927243.622
1504324.0,1778927243.661
1501971.0,1778927243.703
1500215.0,1778927243.74
1499559.0,1778927243.78
1499309.0,1778927243.822
1499646.0,1778927243.861
1500470.0,1778927243.901
1500849.0,1778927243.942
1501606.0,1778927243.981
1502687.0,1778927244.022
1503912.0,1778927244.062
1505290.0,1778927244.101
1507360.0,1778927244.141
1509465.0,1778927244.181
1510882.0,1778927244.22
1511247.0,1778927244.26
1510905.0,1778927244.301
1510734.0,1778927244.34
1510495.0,1778927244.381
1510626.0,1778927244.423
1511506.0,1778927244.461
1512667.0,1778927244.501
1514140.0,1778927244.543
1515608.0,1778927244.582
1517362.0,1778927244.623
1518966.0,1778927244.661
1520060.0,1778927244.701
1521165.0,1778927244.741
1522412.0,1778927244.782
1524219.0,1778927244.822
1524422.0,1778927244.862
1523059.0,1778927244.903
1521396.0,1778927244.942
1520105.0,1778927244.982
1518501.0,1778927245.022
1517589.0,1778927245.061
1517172.0,1778927245.101
1517047.0,1778927245.142
1517053.0,1778927245.182
1517514.0,1778927245.223
1517870.0,1778927245.263
1518461.0,1778927245.302
1518876.0,1778927245.343
1519496.0,1778927245.382
1520362.0,1778927245.422
1521153.0,1778927245.461
1520788.0,1778927245.503
1518936.0,1778927245.542
1517503.0,1778927245.582
1515938.0,1778927245.624
1515027.0,1778927245.663
1514604.0,1778927245.703
1514419.0,1778927245.742
1514334.0,1778927245.781
1514319.0,1778927245.822
1514496.0,1778927245.863
1514848.0,1778927245.902
1515344.0,1778927245.942
1515860.0,1778927245.984
1516723.0,1778927246.023
1517386.0,1778927246.063
1516976.0,1778927246.102
1515731.0,1778927246.141
1514641.0,1778927246.182
1513090.0,1778927246.224
1512296.0,1778927246.262
1511744.0,1778927246.302
1511896.0,1778927246.344
1512272.0,1778927246.383
1512869.0,1778927246.424
1513633.0,1778927246.464
1514310.0,1778927246.503
1515021.0,1778927246.543
1515931.0,1778927246.584
1517572.0,1778927246.622
1519221.0,1778927246.662
1520622.0,1778927246.703
1520905.0,1778927246.742
1520906.0,1778927246.782
1520597.0,1778927246.824
1520293.0,1778927246.863
1520241.0,1778927246.903
1520768.0,1778927246.944
1521500.0,1778927246.983
1523893.0,1778927247.064
1522525.0,1778927247.024
1525933.0,1778927247.103
1527792.0,1778927247.143
1529391.0,1778927247.185
1532760.0,1778927247.262
1531696.0,1778927247.225
1531470.0,1778927247.342
1530428.0,1778927247.383
1529460.0,1778927247.425
1528265.0,1778927247.463
1532496.0,1778927247.303
1526597.0,1778927247.545
1525459.0,1778927247.63
1527288.0,1778927247.504
1525907.0,1778927247.584
1525217.0,1778927247.709
1525372.0,1778927247.749
1524994.0,1778927247.67
1525665.0,1778927247.79
1525987.0,1778927247.83
1525726.0,1778927247.87
1524062.0,1778927247.911
1522037.0,1778927247.95
1519885.0,1778927247.99
1518209.0,1778927248.032
1517170.0,1778927248.07
1516308.0,1778927248.107
1515883.0,1778927248.149
1515439.0,1778927248.188
1515347.0,1778927248.229
1514976.0,1778927248.268
1515268.0,1778927248.308
1515356.0,1778927248.348
1515584.0,1778927248.389
1516357.0,1778927248.469
1516039.0,1778927248.429
1515292.0,1778927248.51
1513273.0,1778927248.549
1511444.0,1778927248.59
1510056.0,1778927248.629
1508615.0,1778927248.668
1507940.0,1778927248.708
1507412.0,1778927248.75
1507286.0,1778927248.789
1507203.0,1778927248.83
1507468.0,1778927248.87
1507656.0,1778927248.91
1508544.0,1778927248.95
1509652.0,1778927248.989
1511647.0,1778927249.029
1513754.0,1778927249.068
1514894.0,1778927249.11
1514913.0,1778927249.149
1515210.0,1778927249.189
1515966.0,1778927249.231
1516637.0,1778927249.27
1517520.0,1778927249.31
1519355.0,1778927249.351
1521082.0,1778927249.39
1522815.0,1778927249.431
1524298.0,1778927249.469
1525164.0,1778927249.508
1528037.0,1778927249.63
1526934.0,1778927249.59
1526151.0,1778927249.549
1529171.0,1778927249.669
1529791.0,1778927249.711
1530115.0,1778927249.75
1529640.0,1778927249.79
1528644.0,1778927249.83
1527715.0,1778927249.909
1527922.0,1778927249.869
1527330.0,1778927249.95
1526986.0,1778927249.989
1526525.0,1778927250.03
1526320.0,1778927250.07
1526011.0,1778927250.109
1525732.0,1778927250.149
1525933.0,1778927250.191
1526265.0,1778927250.231
1526925.0,1778927250.27
1527694.0,1778927250.311
1526930.0,1778927250.351
1525369.0,1778927250.389
1523790.0,1778927250.431
1522125.0,1778927250.469
1520663.0,1778927250.51
1520091.0,1778927250.551
1519504.0,1778927250.59
1519294.0,1778927250.631
1518908.0,1778927250.672
1519075.0,1778927250.711
1519320.0,1778927250.749
1519654.0,1778927250.79
1520307.0,1778927250.83
1521001.0,1778927250.87
1521946.0,1778927250.911
1522419.0,1778927250.95
1521485.0,1778927250.991
1520866.0,1778927251.033
1519659.0,1778927251.071
1518660.0,1778927251.109
1518328.0,1778927251.151
1518276.0,1778927251.19
1518312.0,1778927251.231
1518742.0,1778927251.27
1519634.0,1778927251.309
1520737.0,1778927251.35
1521976.0,1778927251.391
1523477.0,1778927251.431
1525070.0,1778927251.471
1527097.0,1778927251.512
1529049.0,1778927251.551
1530297.0,1778927251.591
1530846.0,1778927251.631
1531550.0,1778927251.67
1531872.0,1778927251.71
1532546.0,1778927251.751
1533228.0,1778927251.791
1534176.0,1778927251.832
1534691.0,1778927251.87
1535411.0,1778927251.909
1536095.0,1778927251.95
1537009.0,1778927251.991
1538193.0,1778927252.03
1539709.0,1778927252.07
1541454.0,1778927252.111
1542883.0,1778927252.15
1543090.0,1778927252.191
1542733.0,1778927252.233
1541606.0,1778927252.271
1540357.0,1778927252.311
1538938.0,1778927252.353
1538223.0,1778927252.392
1537637.0,1778927252.431
1537034.0,1778927252.471
1536498.0,1778927252.511
1535884.0,1778927252.551
1535876.0,1778927252.592
1535946.0,1778927252.632
1535873.0,1778927252.672
1536214.0,1778927252.713
1536422.0,1778927252.75
1535283.0,1778927252.791
1533666.0,1778927252.832
1531825.0,1778927252.871
1529991.0,1778927252.911
1528486.0,1778927252.953
1527986.0,1778927252.992
1527220.0,1778927253.033
1526727.0,1778927253.072
1526501.0,1778927253.112
1526613.0,1778927253.152
1526606.0,1778927253.193
1526877.0,1778927253.233
1527492.0,1778927253.271
1528189.0,1778927253.312
1529166.0,1778927253.351
1529971.0,1778927253.391
1530054.0,1778927253.433
1529429.0,1778927253.472
1528695.0,1778927253.512
1528207.0,1778927253.553
1527826.0,1778927253.593
1528296.0,1778927253.631
1528549.0,1778927253.672
1529443.0,1778927253.711
1530438.0,1778927253.752
1531606.0,1778927253.793
1532886.0,1778927253.833
1534602.0,1778927253.872
1536125.0,1778927253.914
1537926.0,1778927253.953
1539902.0,1778927253.991
1540935.0,1778927254.033
1541735.0,1778927254.071
1542133.0,1778927254.112
1542190.0,1778927254.153
1543127.0,1778927254.192
1543959.0,1778927254.233
1544579.0,1778927254.273
1544889.0,1778927254.312
1545556.0,1778927254.352
1546506.0,1778927254.393
1547757.0,1778927254.431
1549367.0,1778927254.471
1551108.0,1778927254.512
1552733.0,1778927254.551
1554232.0,1778927254.591
1553980.0,1778927254.633
1553143.0,1778927254.672
1552152.0,1778927254.712
1550959.0,1778927254.753
1549877.0,1778927254.793
1548941.0,1778927254.834
1548363.0,1778927254.874
1547733.0,1778927254.913
1547608.0,1778927254.952
1547339.0,1778927254.993
1547459.0,1778927255.033
1547085.0,1778927255.072
1546919.0,1778927255.114
1546521.0,1778927255.153
1545261.0,1778927255.193
1543297.0,1778927255.235
1540916.0,1778927255.273
1538931.0,1778927255.312
1537567.0,1778927255.353
1536427.0,1778927255.392
1535651.0,1778927255.433
1534855.0,1778927255.473
1534120.0,1778927255.512
1533630.0,1778927255.552
1533105.0,1778927255.594
1532678.0,1778927255.634
1532586.0,1778927255.673
1532579.0,1778927255.714
1533013.0,1778927255.754
1532075.0,1778927255.792
1530834.0,1778927255.834
1529541.0,1778927255.873
1528195.0,1778927255.913
1526886.0,1778927255.954
1526251.0,1778927255.993
1525780.0,1778927256.034
1525880.0,1778927256.075
1525731.0,1778927256.114
1526279.0,1778927256.152
1527028.0,1778927256.194
1527924.0,1778927256.233
1529310.0,1778927256.273
1530489.0,1778927256.314
1531311.0,1778927256.353
1531462.0,1778927256.394
1531339.0,1778927256.436
1531171.0,1778927256.474
1530942.0,1778927256.512
1531199.0,1778927256.554
1531747.0,1778927256.593
1532299.0,1778927256.634
1533213.0,1778927256.674
1534376.0,1778927256.714
1535523.0,1778927256.754
1536513.0,1778927256.795
1538209.0,1778927256.835
1540146.0,1778927256.873
1541389.0,1778927256.914
1541368.0,1778927256.953
1540840.0,1778927256.993
1539769.0,1778927257.035
1538813.0,1778927257.074
1537701.0,1778927257.114
1537064.0,1778927257.155
1536336.0,1778927257.195
1535649.0,1778927257.235
1535300.0,1778927257.275
1535070.0,1778927257.314
1535484.0,1778927257.355
1535769.0,1778927257.396
1536422.0,1778927257.436
1536723.0,1778927257.473
1535067.0,1778927257.514
1532408.0,1778927257.554
1529277.0,1778927257.594
1526623.0,1778927257.636
1524325.0,1778927257.674
1522445.0,1778927257.715
1521236.0,1778927257.756
1520125.0,1778927257.795
1518902.0,1778927257.834
1518207.0,1778927257.875
1517243.0,1778927257.914
1516551.0,1778927257.954
1515719.0,1778927257.995
1514966.0,1778927258.035
1514664.0,1778927258.075
1514174.0,1778927258.116
1512272.0,1778927258.155
1510046.0,1778927258.193
1508156.0,1778927258.235
1506696.0,1778927258.274
1505801.0,1778927258.314
1505242.0,1778927258.355
1505002.0,1778927258.395
1504859.0,1778927258.436
1505264.0,1778927258.475
1505656.0,1778927258.515
1506552.0,1778927258.555
1507746.0,1778927258.596
1509470.0,1778927258.636
1511076.0,1778927258.676
1513065.0,1778927258.715
1514163.0,1778927258.754
1514640.0,1778927258.794
1514918.0,1778927258.836
1514953.0,1778927258.875
1515331.0,1778927258.915
1516069.0,1778927258.956
1517108.0,1778927258.996
1518204.0,1778927259.037
1519547.0,1778927259.076
1520855.0,1778927259.115
1522342.0,1778927259.156
1523890.0,1778927259.197
1525897.0,1778927259.235
1527691.0,1778927259.274
1529570.0,1778927259.316
1531083.0,1778927259.355
1532093.0,1778927259.395
1532782.0,1778927259.437
1532599.0,1778927259.476
1532223.0,1778927259.516
1532029.0,1778927259.557
1531793.0,1778927259.594
1531626.0,1778927259.636
1531953.0,1778927259.676
1532073.0,1778927259.715
1532538.0,1778927259.756
1532969.0,1778927259.797
1533249.0,1778927259.836
1533512.0,1778927259.876
1533680.0,1778927259.917
1533913.0,1778927259.956
1534111.0,1778927259.996
1533140.0,1778927260.038
1531489.0,1778927260.076
1529639.0,1778927260.116
1527490.0,1778927260.158
1525924.0,1778927260.197
1524698.0,1778927260.238
1523805.0,1778927260.278
1523160.0,1778927260.318
1522514.0,1778927260.356
1521996.0,1778927260.397
1521459.0,1778927260.437
1521206.0,1778927260.477
1521164.0,1778927260.518
1521288.0,1778927260.557
1521683.0,1778927260.597
1522213.0,1778927260.639
1522834.0,1778927260.678
1522747.0,1778927260.716
1522034.0,1778927260.757
1521231.0,1778927260.797
1520203.0,1778927260.838
1519406.0,1778927260.878
1519214.0,1778927260.917
1519258.0,1778927260.958
1519483.0,1778927260.999
1520090.0,1778927261.039
1520747.0,1778927261.076
1521763.0,1778927261.117
1523174.0,1778927261.157
1524727.0,1778927261.197
1526585.0,1778927261.239
1528306.0,1778927261.277
1530208.0,1778927261.318
1531248.0,1778927261.359
1532293.0,1778927261.398
1533227.0,1778927261.437
1533885.0,1778927261.478
1534789.0,1778927261.517
1535878.0,1778927261.557
1536878.0,1778927261.599
1537533.0,1778927261.638
1538479.0,1778927261.678
1539644.0,1778927261.719
1541108.0,1778927261.759
1542744.0,1778927261.797
1544402.0,1778927261.839
1545863.0,1778927261.877
1546972.0,1778927261.917
1546912.0,1778927261.959
1546600.0,1778927261.998
1546021.0,1778927262.039
1545061.0,1778927262.078
1544197.0,1778927262.118
1543527.0,1778927262.158
1543669.0,1778927262.199
1544052.0,1778927262.239
1544542.0,1778927262.278
1545018.0,1778927262.32
1545711.0,1778927262.359
1546433.0,1778927262.397
1546495.0,1778927262.439
1546754.0,1778927262.478
1546477.0,1778927262.518
1544721.0,1778927262.559
1542660.0,1778927262.598
1540632.0,1778927262.639
1538573.0,1778927262.68
1537162.0,1778927262.719
1536040.0,1778927262.757
1535418.0,1778927262.799
1534612.0,1778927262.838
1533657.0,1778927262.878
1533184.0,1778927262.919
1532594.0,1778927262.959
1532051.0,1778927262.999
1531647.0,1778927263.041
1531458.0,1778927263.079
1530884.0,1778927263.117
1527160.0,1778927263.198
1529222.0,1778927263.159
1524930.0,1778927263.239
1523285.0,1778927263.279
1521785.0,1778927263.318
1520568.0,1778927263.358
1519750.0,1778927263.399
1518978.0,1778927263.439
1518653.0,1778927263.479
1518362.0,1778927263.52
1518352.0,1778927263.559
1518675.0,1778927263.6
1519452.0,1778927263.64
1520190.0,1778927263.678
1521121.0,1778927263.718
1521461.0,1778927263.76
1520965.0,1778927263.799
1520634.0,1778927263.84
1519956.0,1778927263.88
1520019.0,1778927263.92
1520369.0,1778927263.96
1520667.0,1778927263.999
1521164.0,1778927264.039
1522211.0,1778927264.079
1523052.0,1778927264.12
1524468.0,1778927264.159
1525809.0,1778927264.199
1527274.0,1778927264.241
1529118.0,1778927264.28
1530021.0,1778927264.32
1530309.0,1778927264.359
1529902.0,1778927264.399
1529022.0,1778927264.44
1528113.0,1778927264.479
1527442.0,1778927264.518
1526676.0,1778927264.559
1525961.0,1778927264.6
1525594.0,1778927264.64
1525356.0,1778927264.679
1525404.0,1778927264.72
1525927.0,1778927264.76
1526311.0,1778927264.8
1526804.0,1778927264.842
1527561.0,1778927264.88
1526304.0,1778927264.919
1524119.0,1778927264.96
1521454.0,1778927264.999
1518971.0,1778927265.04
1516640.0,1778927265.081
1513847.0,1778927265.16
1515130.0,1778927265.12
1512992.0,1778927265.201
1511991.0,1778927265.241
1511622.0,1778927265.279
1510776.0,1778927265.32
1510299.0,1778927265.359
1509889.0,1778927265.4
1509438.0,1778927265.442
1508001.0,1778927265.48
1505508.0,1778927265.52
1502091.0,1778927265.562
1499491.0,1778927265.601
1496887.0,1778927265.64
1495299.0,1778927265.68
1493893.0,1778927265.72
1492762.0,1778927265.76
1492064.0,1778927265.801
1491513.0,1778927265.841
1491312.0,1778927265.881
1491310.0,1778927265.922
1491567.0,1778927265.961
1492137.0,1778927265.999
1493079.0,1778927266.041
1492976.0,1778927266.08
1492109.0,1778927266.12
1490963.0,1778927266.161
1490066.0,1778927266.2
1489622.0,1778927266.241
1489361.0,1778927266.281
1489946.0,1778927266.32
1490469.0,1778927266.36
1491081.0,1778927266.402
1492150.0,1778927266.442
1493369.0,1778927266.481
1495075.0,1778927266.521
1497040.0,1778927266.56
1499164.0,1778927266.6
1500494.0,1778927266.642
1500797.0,1778927266.681
1500759.0,1778927266.721
1501235.0,1778927266.762
1501341.0,1778927266.801
1501929.0,1778927266.842
1502544.0,1778927266.881
1503589.0,1778927266.92
1504631.0,1778927266.96
1505717.0,1778927267.002
1506981.0,1778927267.041
1508952.0,1778927267.081
1510630.0,1778927267.122
1512268.0,1778927267.162
1513372.0,1778927267.202
1513169.0,1778927267.244
1511919.0,1778927267.282
1510039.0,1778927267.322
1508304.0,1778927267.361
1506565.0,1778927267.4
1505508.0,1778927267.441
1504463.0,1778927267.482
1503505.0,1778927267.521
1502427.0,1778927267.561
1501995.0,1778927267.603
1501517.0,1778927267.643
1501341.0,1778927267.682
1501224.0,1778927267.721
1501284.0,1778927267.761
1500897.0,1778927267.801
1498880.0,1778927267.843
1496145.0,1778927267.881
1493602.0,1778927267.922
1491155.0,1778927267.963
1488981.0,1778927268.002
1487883.0,1778927268.043
1486703.0,1778927268.083
1485841.0,1778927268.122
1484935.0,1778927268.162
1484581.0,1778927268.203
1484089.0,1778927268.241
1484169.0,1778927268.281
1484579.0,1778927268.322
1485083.0,1778927268.361
1486124.0,1778927268.402
1487233.0,1778927268.444
1486934.0,1778927268.482
1486232.0,1778927268.522
1485401.0,1778927268.564
1484694.0,1778927268.601
1484076.0,1778927268.642
1484443.0,1778927268.682
1484893.0,1778927268.722
1485790.0,1778927268.762
1486822.0,1778927268.803
1487811.0,1778927268.843
1489342.0,1778927268.883
1491410.0,1778927268.924
1493518.0,1778927268.961
1495985.0,1778927269.001
1498294.0,1778927269.043
1500527.0,1778927269.082
1501684.0,1778927269.122
1502670.0,1778927269.163
1503549.0,1778927269.203
1503986.0,1778927269.244
1504818.0,1778927269.284
1505448.0,1778927269.321
1506413.0,1778927269.362
1507074.0,1778927269.403
1507827.0,1778927269.443
1508975.0,1778927269.482
1510138.0,1778927269.524
1511288.0,1778927269.563
1511951.0,1778927269.603
1513021.0,1778927269.645
1514071.0,1778927269.682
1515107.0,1778927269.722
1516427.0,1778927269.763
1517177.0,1778927269.801
1517390.0,1778927269.842
1516697.0,1778927269.882
1515715.0,1778927269.921
1514616.0,1778927269.962
1513186.0,1778927270.003
1512442.0,1778927270.042
1511918.0,1778927270.082
1511474.0,1778927270.123
1511413.0,1778927270.162
1511264.0,1778927270.203
1511230.0,1778927270.245
1511883.0,1778927270.283
1512305.0,1778927270.323
1512846.0,1778927270.365
1513471.0,1778927270.404
1514197.0,1778927270.443
1514841.0,1778927270.483
1514428.0,1778927270.523
1513473.0,1778927270.563
1512391.0,1778927270.604
1511275.0,1778927270.644
1510366.0,1778927270.684
1509580.0,1778927270.725
1509089.0,1778927270.764
1509048.0,1778927270.802
1509024.0,1778927270.844
1509246.0,1778927270.883
1509760.0,1778927270.923
1510266.0,1778927270.964
1511399.0,1778927271.003
1512642.0,1778927271.044
1513890.0,1778927271.084
1515729.0,1778927271.123
1517230.0,1778927271.163
1518863.0,1778927271.205
1519850.0,1778927271.245
1520654.0,1778927271.284
1521642.0,1778927271.325
1523213.0,1778927271.363
1524761.0,1778927271.403
1526656.0,1778927271.445
1528150.0,1778927271.483
1529933.0,1778927271.524
1531367.0,1778927271.565
1532870.0,1778927271.604
1534784.0,1778927271.638
1537182.0,1778927271.678
1539673.0,1778927271.717
1541693.0,1778927271.758
1544139.0,1778927271.799
1546109.0,1778927271.838
1546949.0,1778927271.878
1547034.0,1778927271.919
1546915.0,1778927271.958
1546829.0,1778927271.998
1546838.0,1778927272.04
1546878.0,1778927272.078
1546701.0,1778927272.118
1546814.0,1778927272.159
1547117.0,1778927272.198
1547155.0,1778927272.239
1546973.0,1778927272.28
1547100.0,1778927272.316
1547199.0,1778927272.356
1547350.0,1778927272.397
1547727.0,1778927272.437
1547153.0,1778927272.476
1545836.0,1778927272.517
1544867.0,1778927272.557
1543218.0,1778927272.597
1541746.0,1778927272.639
1540825.0,1778927272.677
1539844.0,1778927272.718
1539188.0,1778927272.759
1538432.0,1778927272.798
1537883.0,1778927272.837
1537112.0,1778927272.878
1536515.0,1778927272.957
1536571.0,1778927272.917
1536532.0,1778927273.038
1536695.0,1778927273.078
1536173.0,1778927273.119
1536435.0,1778927272.998
1535145.0,1778927273.158
1533593.0,1778927273.197
1532247.0,1778927273.239
1531101.0,1778927273.277
1530227.0,1778927273.317
1529606.0,1778927273.359
1529074.0,1778927273.398
1528918.0,1778927273.439
1528650.0,1778927273.479
1528877.0,1778927273.518
1529271.0,1778927273.558
1529800.0,1778927273.599
1530491.0,1778927273.639
1531331.0,1778927273.679
1531784.0,1778927273.718
1531599.0,1778927273.757
1531207.0,1778927273.798
1530799.0,1778927273.84
1530738.0,1778927273.878
1530703.0,1778927273.918
1531009.0,1778927273.96
1531137.0,1778927273.999
1531819.0,1778927274.04
1532394.0,1778927274.079
1533782.0,1778927274.119
1534742.0,1778927274.159
1536090.0,1778927274.2
1537657.0,1778927274.238
1539749.0,1778927274.278
1540981.0,1778927274.319
1540766.0,1778927274.358
1540367.0,1778927274.398
1539499.0,1778927274.44
1539060.0,1778927274.479
1538046.0,1778927274.519
1537323.0,1778927274.561
1536496.0,1778927274.598
1535772.0,1778927274.639
1535065.0,1778927274.679
1534551.0,1778927274.718
1534486.0,1778927274.759
1534742.0,1778927274.8
1535104.0,1778927274.84
1535301.0,1778927274.879
1535358.0,1778927274.918
1534169.0,1778927274.958
1531322.0,1778927274.998
1528356.0,1778927275.04
1525121.0,1778927275.078
1522694.0,1778927275.118
1520653.0,1778927275.16
1518778.0,1778927275.199
1517223.0,1778927275.24
1515922.0,1778927275.28
1514654.0,1778927275.319
1513417.0,1778927275.36
1512437.0,1778927275.399
1511595.0,1778927275.439
1510887.0,1778927275.479
1510161.0,1778927275.52
1509774.0,1778927275.559
1508645.0,1778927275.599
1506086.0,1778927275.641
1503055.0,1778927275.68
1500518.0,1778927275.72
1498250.0,1778927275.759
1496587.0,1778927275.798
1495250.0,1778927275.839
1494310.0,1778927275.88
1493875.0,1778927275.919
1493463.0,1778927275.96
1493459.0,1778927276.001
1493676.0,1778927276.041
1494260.0,1778927276.08
1495222.0,1778927276.119
1496186.0,1778927276.159
1497350.0,1778927276.199
1498044.0,1778927276.241
1497459.0,1778927276.279
1496500.0,1778927276.32
1495388.0,1778927276.361
1494766.0,1778927276.4
1494552.0,1778927276.441
1494702.0,1778927276.48
1495594.0,1778927276.519
1495944.0,1778927276.559
1496613.0,1778927276.6
1497604.0,1778927276.64
1498753.0,1778927276.68
1500088.0,1778927276.721
1501666.0,1778927276.761
1503069.0,1778927276.801
1504579.0,1778927276.841
1504971.0,1778927276.879
1504007.0,1778927276.919
1502642.0,1778927276.961
1500890.0,1778927277.0
1499602.0,1778927277.041
1498174.0,1778927277.081
1497286.0,1778927277.121
1496698.0,1778927277.161
1495969.0,1778927277.2
1495619.0,1778927277.24
1495392.0,1778927277.28
1495282.0,1778927277.321
1495936.0,1778927277.36
1496353.0,1778927277.4
1497171.0,1778927277.442
1497816.0,1778927277.478
1498373.0,1778927277.518
1497553.0,1778927277.559
1494763.0,1778927277.598
1491680.0,1778927277.639
1489074.0,1778927277.68
1486478.0,1778927277.72
1484569.0,1778927277.759
1483178.0,1778927277.801
1482279.0,1778927277.841
1481803.0,1778927277.88
1481128.0,1778927277.921
1480861.0,1778927277.961
1480707.0,1778927278.001
1481054.0,1778927278.043
1481466.0,1778927278.081
1481623.0,1778927278.122
1482042.0,1778927278.161
1482458.0,1778927278.2
1481178.0,1778927278.241
1478226.0,1778927278.282
1475117.0,1778927278.321
1472610.0,1778927278.361
1470409.0,1778927278.402
1468952.0,1778927278.442
1468058.0,1778927278.482
1467426.0,1778927278.521
1467482.0,1778927278.56
1467435.0,1778927278.601
1467650.0,1778927278.642
1468470.0,1778927278.681
1469573.0,1778927278.721
1470997.0,1778927278.763
1472452.0,1778927278.802
1473968.0,1778927278.843
1475124.0,1778927278.881
1474580.0,1778927278.92
1473595.0,1778927278.961
1472255.0,1778927279.002
1471469.0,1778927279.042
1470633.0,1778927279.081
1471000.0,1778927279.123
1471413.0,1778927279.162
1471993.0,1778927279.202
1472604.0,1778927279.242
1473556.0,1778927279.281
1474806.0,1778927279.321
1476010.0,1778927279.362
1477077.0,1778927279.401
1478230.0,1778927279.442
1479413.0,1778927279.482
1478985.0,1778927279.521
1477025.0,1778927279.562
1474592.0,1778927279.603
1471970.0,1778927279.643
1469869.0,1778927279.682
1468395.0,1778927279.724
1467365.0,1778927279.761
1466749.0,1778927279.801
1466400.0,1778927279.843
1466243.0,1778927279.882
1466324.0,1778927279.922
1466565.0,1778927279.963
1467240.0,1778927280.002
1467746.0,1778927280.041
1468682.0,1778927280.082
1469398.0,1778927280.121
1468244.0,1778927280.161
1465473.0,1778927280.202
1461927.0,1778927280.242
1458604.0,1778927280.281
1455594.0,1778927280.323
1453755.0,1778927280.362
1452219.0,1778927280.402
1451241.0,1778927280.444
1450300.0,1778927280.482
1449603.0,1778927280.523
1449391.0,1778927280.564
1449379.0,1778927280.603
1449414.0,1778927280.642
1449695.0,1778927280.683
1450166.0,1778927280.722
1450866.0,1778927280.762
1450913.0,1778927280.803
1448347.0,1778927280.843
1444745.0,1778927280.883
1441013.0,1778927280.924
1438060.0,1778927280.963
1435963.0,1778927281.002
1434875.0,1778927281.043
1434367.0,1778927281.082
1434432.0,1778927281.122
1434772.0,1778927281.163
1435083.0,1778927281.203
1435682.0,1778927281.244
1436781.0,1778927281.284
1438158.0,1778927281.323
1440086.0,1778927281.362
1442007.0,1778927281.403
1443869.0,1778927281.443
1445812.0,1778927281.483
1447234.0,1778927281.524
1446750.0,1778927281.563
1445601.0,1778927281.603
1444278.0,1778927281.645
1442523.0,1778927281.684
1441631.0,1778927281.722
1440875.0,1778927281.763
1440898.0,1778927281.802
1441238.0,1778927281.843
1441209.0,1778927281.884
1441914.0,1778927281.923
1442533.0,1778927281.964
1443305.0,1778927282.005
1444297.0,1778927282.045
1445613.0,1778927282.082
1446674.0,1778927282.123
1447881.0,1778927282.163
1448577.0,1778927282.203
1446812.0,1778927282.245
1443473.0,1778927282.283
1440519.0,1778927282.324
1438251.0,1778927282.365
1436198.0,1778927282.404
1435079.0,1778927282.443
1434559.0,1778927282.484
1434596.0,1778927282.523
1434504.0,1778927282.563
1434499.0,1778927282.604
1435053.0,1778927282.644
1435785.0,1778927282.683
1436914.0,1778927282.724
1438090.0,1778927282.763
1439386.0,1778927282.804
1440408.0,1778927282.846
1441460.0,1778927282.884
1440385.0,1778927282.925
1437170.0,1778927282.964
1433663.0,1778927283.003
1430900.0,1778927283.044
1428550.0,1778927283.084
1427502.0,1778927283.123
1426845.0,1778927283.163
1426567.0,1778927283.204
1426520.0,1778927283.244
1426594.0,1778927283.284
1427118.0,1778927283.325
1427459.0,1778927283.364
1428961.0,1778927283.404
1430347.0,1778927283.446
1432334.0,1778927283.483
1434275.0,1778927283.523
1436112.0,1778927283.565
1436427.0,1778927283.604
1435043.0,1778927283.647
1433580.0,1778927283.688
1432419.0,1778927283.727
1432054.0,1778927283.767
1432632.0,1778927283.808
1433990.0,1778927283.848
1435728.0,1778927283.887
1437434.0,1778927283.928
1439415.0,1778927283.968
1441477.0,1778927284.008
1442903.0,1778927284.049
1444648.0,1778927284.088
1446887.0,1778927284.128
1449772.0,1778927284.169
1452095.0,1778927284.206
1452526.0,1778927284.247
1451966.0,1778927284.288
1451572.0,1778927284.326
1450379.0,1778927284.367
1448749.0,1778927284.408
1447809.0,1778927284.448
1447319.0,1778927284.487
1447261.0,1778927284.529
1447411.0,1778927284.568
1447541.0,1778927284.608
1447943.0,1778927284.65
1449585.0,1778927284.768
1450039.0,1778927284.807
1448592.0,1778927284.689
1449143.0,1778927284.727
1450840.0,1778927284.889
1445526.0,1778927284.968
1448666.0,1778927284.928
1450741.0,1778927284.848
1442236.0,1778927285.01
1439360.0,1778927285.05
1437641.0,1778927285.087
1436842.0,1778927285.128
1436471.0,1778927285.167
1436767.0,1778927285.207
1437254.0,1778927285.249
1437584.0,1778927285.287
1437913.0,1778927285.327
1438531.0,1778927285.368
1439865.0,1778927285.407
1441521.0,1778927285.448
1443097.0,1778927285.489
1444630.0,1778927285.528
1444376.0,1778927285.568
1440552.0,1778927285.649
1442703.0,1778927285.609
1438673.0,1778927285.689
1437803.0,1778927285.73
1437729.0,1778927285.769
1438314.0,1778927285.807
1439222.0,1778927285.849
1440531.0,1778927285.888
1441852.0,1778927285.928
1443444.0,1778927285.969
1445092.0,1778927286.009
1446945.0,1778927286.05
1451429.0,1778927286.129
1453705.0,1778927286.168
1454637.0,1778927286.209
1453429.0,1778927286.288
1453487.0,1778927286.33
1454143.0,1778927286.369
1449264.0,1778927286.09
1454099.0,1778927286.249
1458620.0,1778927286.49
1455445.0,1778927286.409
1456903.0,1778927286.451
1460215.0,1778927286.528
1461561.0,1778927286.569
1464914.0,1778927286.649
1463137.0,1778927286.608
1469477.0,1778927286.729
1471750.0,1778927286.769
1466941.0,1778927286.69
1473264.0,1778927286.811
1472021.0,1778927286.851
1469723.0,1778927286.888
1467774.0,1778927286.929
1465898.0,1778927286.969
1463583.0,1778927287.051
1464364.0,1778927287.009
1463440.0,1778927287.089
1463401.0,1778927287.13
1463648.0,1778927287.171
1463751.0,1778927287.21
1465637.0,1778927287.329
1466363.0,1778927287.369
1467372.0,1778927287.41
1467997.0,1778927287.45
1466801.0,1778927287.49
1464338.0,1778927287.531
1464143.0,1778927287.249
1464856.0,1778927287.29
1461579.0,1778927287.57
1459446.0,1778927287.609
1457602.0,1778927287.65
1456218.0,1778927287.729
1456530.0,1778927287.689
1456030.0,1778927287.809
1456200.0,1778927287.77
1456255.0,1778927287.85
1456716.0,1778927287.891
1457354.0,1778927287.93
1458319.0,1778927287.97
1459636.0,1778927288.012
1460860.0,1778927288.05
1462260.0,1778927288.089
1463813.0,1778927288.13
1463710.0,1778927288.17
1462160.0,1778927288.21
1460509.0,1778927288.252
1459329.0,1778927288.29
1458813.0,1778927288.331
1458868.0,1778927288.372
1459794.0,1778927288.409
1462668.0,1778927288.49
1464562.0,1778927288.529
1468990.0,1778927288.611
1471482.0,1778927288.65
1474941.0,1778927288.69
1460935.0,1778927288.45
1478604.0,1778927288.731
1466341.0,1778927288.569
1481656.0,1778927288.771
1484855.0,1778927288.811
1485454.0,1778927288.853
1484661.0,1778927288.889
1483816.0,1778927288.93
1482988.0,1778927288.971
1482830.0,1778927289.01
1483173.0,1778927289.051
1484133.0,1778927289.091
1486177.0,1778927289.17
1485257.0,1778927289.13
1487689.0,1778927289.251
1488247.0,1778927289.291
1488995.0,1778927289.332
1490358.0,1778927289.371
1491220.0,1778927289.41
1487009.0,1778927289.211
1492572.0,1778927289.452
1493746.0,1778927289.49
1494087.0,1778927289.53
1491245.0,1778927289.611
1489401.0,1778927289.693
1493079.0,1778927289.572
1490164.0,1778927289.652
1489362.0,1778927289.732
1489607.0,1778927289.77
1490660.0,1778927289.851
1489830.0,1778927289.811
1492064.0,1778927289.891
1493332.0,1778927289.932
1495756.0,1778927290.011
1494747.0,1778927289.971
1497019.0,1778927290.053
1498089.0,1778927290.092
1498906.0,1778927290.13
1499577.0,1778927290.171
1499307.0,1778927290.211
1497935.0,1778927290.252
1496476.0,1778927290.292
1495492.0,1778927290.331
1494438.0,1778927290.371
1495005.0,1778927290.452
1496054.0,1778927290.491
1496968.0,1778927290.533
1498164.0,1778927290.572
1499893.0,1778927290.612
1502000.0,1778927290.652
1504385.0,1778927290.691
1506941.0,1778927290.731
1509522.0,1778927290.772
1511765.0,1778927290.811
1514438.0,1778927290.852
1515535.0,1778927290.893
1516388.0,1778927290.972
1515816.0,1778927290.932
1494369.0,1778927290.412
1518653.0,1778927291.052
1521732.0,1778927291.132
1517466.0,1778927291.012
1522872.0,1778927291.172
1520135.0,1778927291.091
1523820.0,1778927291.212
1525295.0,1778927291.254
1526688.0,1778927291.292
1528478.0,1778927291.333
1530128.0,1778927291.372
1532328.0,1778927291.411
1534397.0,1778927291.452
1536109.0,1778927291.493
1536503.0,1778927291.532
1535854.0,1778927291.572
1535555.0,1778927291.613
1534875.0,1778927291.653
1534552.0,1778927291.732
1534721.0,1778927291.693
1534532.0,1778927291.812
1534589.0,1778927291.892
1534792.0,1778927291.932
1535183.0,1778927291.974
1534404.0,1778927291.771
1534391.0,1778927291.854
1535815.0,1778927292.013
1536176.0,1778927292.054
1536996.0,1778927292.093
1535968.0,1778927292.133
1533924.0,1778927292.173
1531466.0,1778927292.214
1529204.0,1778927292.252
1527415.0,1778927292.292
1525842.0,1778927292.333
1524890.0,1778927292.372
1524154.0,1778927292.412
1523190.0,1778927292.454
1522613.0,1778927292.493
1522122.0,1778927292.533
1521766.0,1778927292.575
1521753.0,1778927292.612
1521602.0,1778927292.653
1521542.0,1778927292.693
1520163.0,1778927292.732
1517388.0,1778927292.773
1511772.0,1778927292.851
1509961.0,1778927292.891
1508787.0,1778927292.932
1508061.0,1778927292.971
1507702.0,1778927293.012
1507243.0,1778927293.053
1506925.0,1778927293.084
1507166.0,1778927293.124
1507731.0,1778927293.165
1508405.0,1778927293.205
1509329.0,1778927293.245
1510106.0,1778927293.286
1510357.0,1778927293.325
1508915.0,1778927293.365
1507013.0,1778927293.406
1505012.0,1778927293.446
1503178.0,1778927293.485
1501892.0,1778927293.526
1500977.0,1778927293.606
1500846.0,1778927293.647
1500495.0,1778927293.686
1501297.0,1778927293.726
1501098.0,1778927293.566
1501813.0,1778927293.767
1502662.0,1778927293.806
1514618.0,1778927292.814
1505227.0,1778927293.876
1505473.0,1778927293.954
1503872.0,1778927293.84
1506269.0,1778927293.913
1503507.0,1778927293.995
1498852.0,1778927294.074
1500896.0,1778927294.035
1496282.0,1778927294.155
1497110.0,1778927294.115
1495706.0,1778927294.195
1495550.0,1778927294.237
1495388.0,1778927294.274
1495655.0,1778927294.314
1496181.0,1778927294.354
1497002.0,1778927294.393
1497752.0,1778927294.434
1498565.0,1778927294.475
1499354.0,1778927294.514
1499511.0,1778927294.596
1500350.0,1778927294.555
