bvp,time
3.89,1533196320.0
1.38,1533196320.015625
-1.63,1533196320.03125
-5.18,1533196320.046875
-9.05,1533196320.0625
-12.96,1533196320.078125
-16.64,1533196320.09375
-19.98,1533196320.109375
-22.99,1533196320.125
-25.84,1533196320.140625
-28.76,1533196320.15625
-32.04,1533196320.171875
-36.02,1533196320.1875
-40.92,1533196320.203125
-46.8,1533196320.21875
-53.3,1533196320.234375
-59.65,1533196320.25
-64.7,1533196320.265625
-67.23,1533196320.28125
-66.33,1533196320.296875
-61.77,1533196320.3125
-54.05,1533196320.328125
-44.31,1533196320.34375
-33.9,1533196320.359375
-24.0,1533196320.375
-15.3,1533196320.390625
-7.97,1533196320.40625
-1.79,1533196320.421875
3.62,1533196320.4375
8.5,1533196320.453125
12.94,1533196320.46875
16.92,1533196320.484375
20.36,1533196320.5
23.19,1533196320.515625
25.38,1533196320.53125
26.93,1533196320.546875
27.83,1533196320.5625
28.13,1533196320.578125
27.97,1533196320.59375
27.58,1533196320.609375
27.21,1533196320.625
27.07,1533196320.640625
27.23,1533196320.65625
27.63,1533196320.671875
28.15,1533196320.6875
28.62,1533196320.703125
28.9,1533196320.71875
28.86,1533196320.734375
28.38,1533196320.75
27.33,1533196320.765625
25.61,1533196320.78125
23.24,1533196320.796875
20.39,1533196320.8125
17.31,1533196320.828125
14.27,1533196320.84375
11.49,1533196320.859375
9.01,1533196320.875
6.76,1533196320.890625
4.54,1533196320.90625
2.11,1533196320.921875
-0.7,1533196320.9375
-3.91,1533196320.953125
-7.4,1533196320.96875
-10.88,1533196320.984375
-14.07,1533196321.0
-16.81,1533196321.015625
-19.14,1533196321.03125
-21.28,1533196321.046875
-23.61,1533196321.0625
-26.55,1533196321.078125
-30.43,1533196321.09375
-35.42,1533196321.109375
-41.44,1533196321.125
-48.05,1533196321.140625
-54.35,1533196321.15625
-59.15,1533196321.171875
-61.23,1533196321.1875
-59.73,1533196321.203125
-54.49,1533196321.21875
-46.2,1533196321.234375
-36.18,1533196321.25
-25.92,1533196321.265625
-16.61,1533196321.28125
-8.83,1533196321.296875
-2.52,1533196321.3125
2.8,1533196321.328125
7.71,1533196321.34375
12.58,1533196321.359375
17.51,1533196321.375
22.25,1533196321.390625
26.46,1533196321.40625
29.78,1533196321.421875
32.11,1533196321.4375
33.54,1533196321.453125
34.37,1533196321.46875
34.93,1533196321.484375
35.46,1533196321.5
36.06,1533196321.515625
36.67,1533196321.53125
37.19,1533196321.546875
37.52,1533196321.5625
37.6,1533196321.578125
37.41,1533196321.59375
36.91,1533196321.609375
36.05,1533196321.625
34.78,1533196321.640625
33.05,1533196321.65625
30.88,1533196321.671875
28.3,1533196321.6875
25.42,1533196321.703125
22.39,1533196321.71875
19.35,1533196321.734375
16.47,1533196321.75
13.82,1533196321.765625
11.39,1533196321.78125
9.04,1533196321.796875
6.59,1533196321.8125
3.86,1533196321.828125
0.72,1533196321.84375
-2.83,1533196321.859375
-6.65,1533196321.875
-10.56,1533196321.890625
-14.3,1533196321.90625
-17.73,1533196321.921875
-20.85,1533196321.9375
-23.76,1533196321.953125
-26.69,1533196321.96875
-29.94,1533196321.984375
-33.76,1533196322.0
-38.36,1533196322.015625
-43.8,1533196322.03125
-49.78,1533196322.046875
-55.69,1533196322.0625
-60.56,1533196322.078125
-63.26,1533196322.09375
-62.87,1533196322.109375
-59.0,1533196322.125
-52.02,1533196322.140625
-42.94,1533196322.15625
-33.11,1533196322.171875
-23.75,1533196322.1875
-15.59,1533196322.203125
-8.74,1533196322.21875
-2.84,1533196322.234375
2.56,1533196322.25
7.8,1533196322.265625
12.93,1533196322.28125
17.73,1533196322.296875
21.94,1533196322.3125
25.34,1533196322.328125
27.86,1533196322.34375
29.59,1533196322.359375
30.69,1533196322.375
31.35,1533196322.390625
31.73,1533196322.40625
31.98,1533196322.421875
32.22,1533196322.4375
32.53,1533196322.453125
32.98,1533196322.46875
33.54,1533196322.484375
34.11,1533196322.5
34.51,1533196322.515625
34.53,1533196322.53125
33.99,1533196322.546875
32.81,1533196322.5625
31.0,1533196322.578125
28.7,1533196322.59375
26.09,1533196322.609375
23.37,1533196322.625
20.71,1533196322.640625
18.18,1533196322.65625
15.79,1533196322.671875
13.47,1533196322.6875
11.12,1533196322.703125
8.57,1533196322.71875
5.75,1533196322.734375
2.61,1533196322.75
-0.8,1533196322.765625
-4.38,1533196322.78125
-7.99,1533196322.796875
-11.52,1533196322.8125
-14.87,1533196322.828125
-18.03,1533196322.84375
-21.04,1533196322.859375
-24.03,1533196322.875
-27.23,1533196322.890625
-30.97,1533196322.90625
-35.57,1533196322.921875
-41.2,1533196322.9375
-47.66,1533196322.953125
-54.36,1533196322.96875
-60.25,1533196322.984375
-64.17,1533196323.0
-65.12,1533196323.015625
-62.63,1533196323.03125
-56.9,1533196323.046875
-48.74,1533196323.0625
-39.32,1533196323.078125
-29.76,1533196323.09375
-20.85,1533196323.109375
-12.91,1533196323.125
-5.92,1533196323.140625
0.35,1533196323.15625
6.07,1533196323.171875
11.3,1533196323.1875
15.95,1533196323.203125
19.91,1533196323.21875
23.14,1533196323.234375
25.74,1533196323.25
27.89,1533196323.265625
29.79,1533196323.28125
31.55,1533196323.296875
33.16,1533196323.3125
34.51,1533196323.328125
35.49,1533196323.34375
36.05,1533196323.359375
36.26,1533196323.375
36.25,1533196323.390625
36.19,1533196323.40625
36.1,1533196323.421875
35.95,1533196323.4375
35.57,1533196323.453125
34.77,1533196323.46875
33.42,1533196323.484375
31.53,1533196323.5
29.16,1533196323.515625
26.5,1533196323.53125
23.7,1533196323.546875
20.89,1533196323.5625
18.16,1533196323.578125
15.56,1533196323.59375
13.04,1533196323.609375
10.57,1533196323.625
7.99,1533196323.640625
5.2,1533196323.65625
2.16,1533196323.671875
-1.07,1533196323.6875
-4.29,1533196323.703125
-7.33,1533196323.71875
-10.1,1533196323.734375
-12.68,1533196323.75
-15.33,1533196323.765625
-18.33,1533196323.78125
-21.94,1533196323.796875
-26.33,1533196323.8125
-31.5,1533196323.828125
-37.2,1533196323.84375
-42.96,1533196323.859375
-48.0,1533196323.875
-51.36,1533196323.890625
-52.12,1533196323.90625
-49.73,1533196323.921875
-44.2,1533196323.9375
-36.25,1533196323.953125
-26.99,1533196323.96875
-17.65,1533196323.984375
-9.12,1533196324.0
-1.81,1533196324.015625
4.31,1533196324.03125
9.55,1533196324.046875
14.13,1533196324.0625
18.13,1533196324.078125
21.41,1533196324.09375
23.81,1533196324.109375
25.26,1533196324.125
25.93,1533196324.140625
26.15,1533196324.15625
26.28,1533196324.171875
26.54,1533196324.1875
26.93,1533196324.203125
27.28,1533196324.21875
27.43,1533196324.234375
27.37,1533196324.25
27.22,1533196324.265625
27.21,1533196324.28125
27.38,1533196324.296875
27.56,1533196324.3125
27.35,1533196324.328125
26.33,1533196324.34375
24.24,1533196324.359375
21.18,1533196324.375
17.52,1533196324.390625
13.77,1533196324.40625
10.37,1533196324.421875
7.53,1533196324.4375
5.22,1533196324.453125
3.16,1533196324.46875
1.03,1533196324.484375
-1.52,1533196324.5
-4.68,1533196324.515625
-8.48,1533196324.53125
-12.73,1533196324.546875
-17.08,1533196324.5625
-21.18,1533196324.578125
-24.76,1533196324.59375
-27.79,1533196324.609375
-30.55,1533196324.625
-33.55,1533196324.640625
-37.32,1533196324.65625
-42.27,1533196324.671875
-48.4,1533196324.6875
-55.22,1533196324.703125
-61.75,1533196324.71875
-66.73,1533196324.734375
-68.97,1533196324.75
-67.72,1533196324.765625
-62.93,1533196324.78125
-55.27,1533196324.796875
-45.89,1533196324.8125
-36.03,1533196324.828125
-26.66,1533196324.84375
-18.27,1533196324.859375
-10.85,1533196324.875
-4.16,1533196324.890625
2.04,1533196324.90625
7.83,1533196324.921875
13.1,1533196324.9375
17.66,1533196324.953125
21.36,1533196324.96875
24.19,1533196324.984375
26.25,1533196325.0
27.7,1533196325.015625
28.65,1533196325.03125
29.14,1533196325.046875
29.18,1533196325.0625
28.81,1533196325.078125
28.18,1533196325.09375
27.5,1533196325.109375
26.98,1533196325.125
26.65,1533196325.140625
26.35,1533196325.15625
25.71,1533196325.171875
24.32,1533196325.1875
21.94,1533196325.203125
18.56,1533196325.21875
14.5,1533196325.234375
10.2,1533196325.25
6.06,1533196325.265625
2.26,1533196325.28125
-1.26,1533196325.296875
-4.77,1533196325.3125
-8.61,1533196325.328125
-12.93,1533196325.34375
-17.72,1533196325.359375
-22.75,1533196325.375
-27.69,1533196325.390625
-32.26,1533196325.40625
-36.32,1533196325.421875
-39.86,1533196325.4375
-43.04,1533196325.453125
-46.14,1533196325.46875
-49.49,1533196325.484375
-53.38,1533196325.5
-57.87,1533196325.515625
-62.61,1533196325.53125
-66.86,1533196325.546875
-69.55,1533196325.5625
-69.7,1533196325.578125
-66.71,1533196325.59375
-60.63,1533196325.609375
-52.19,1533196325.625
-42.52,1533196325.640625
-32.79,1533196325.65625
-23.89,1533196325.671875
-16.16,1533196325.6875
-9.47,1533196325.703125
-3.33,1533196325.71875
2.82,1533196325.734375
9.49,1533196325.75
16.87,1533196325.765625
24.84,1533196325.78125
32.91,1533196325.796875
40.43,1533196325.8125
46.74,1533196325.828125
51.41,1533196325.84375
54.34,1533196325.859375
55.81,1533196325.875
56.35,1533196325.890625
56.53,1533196325.90625
56.82,1533196325.921875
57.46,1533196325.9375
58.41,1533196325.953125
59.36,1533196325.96875
59.86,1533196325.984375
59.44,1533196326.0
57.68,1533196326.015625
54.36,1533196326.03125
49.54,1533196326.046875
43.57,1533196326.0625
36.99,1533196326.078125
30.43,1533196326.09375
24.41,1533196326.109375
19.15,1533196326.125
14.63,1533196326.140625
10.59,1533196326.15625
6.78,1533196326.171875
3.06,1533196326.1875
-0.47,1533196326.203125
-3.53,1533196326.21875
-5.86,1533196326.234375
-7.32,1533196326.25
-8.09,1533196326.265625
-8.58,1533196326.28125
-9.32,1533196326.296875
-10.74,1533196326.3125
-12.99,1533196326.328125
-15.86,1533196326.34375
-18.87,1533196326.359375
-21.4,1533196326.375
-22.86,1533196326.390625
-22.88,1533196326.40625
-21.26,1533196326.421875
-18.0,1533196326.4375
-13.18,1533196326.453125
-6.93,1533196326.46875
0.49,1533196326.484375
8.68,1533196326.5
16.94,1533196326.515625
24.42,1533196326.53125
30.16,1533196326.546875
33.46,1533196326.5625
34.03,1533196326.578125
32.17,1533196326.59375
28.66,1533196326.609375
24.49,1533196326.625
20.64,1533196326.640625
17.78,1533196326.65625
16.18,1533196326.671875
15.84,1533196326.6875
16.53,1533196326.703125
17.94,1533196326.71875
19.75,1533196326.734375
21.54,1533196326.75
22.88,1533196326.765625
23.34,1533196326.78125
22.59,1533196326.796875
20.49,1533196326.8125
17.12,1533196326.828125
12.82,1533196326.84375
8.11,1533196326.859375
3.59,1533196326.875
-0.21,1533196326.890625
-2.97,1533196326.90625
-4.69,1533196326.921875
-5.73,1533196326.9375
-6.71,1533196326.953125
-8.38,1533196326.96875
-11.35,1533196326.984375
-16.0,1533196327.0
-22.31,1533196327.015625
-29.86,1533196327.03125
-37.89,1533196327.046875
-45.38,1533196327.0625
-51.21,1533196327.078125
-54.4,1533196327.09375
-54.33,1533196327.109375
-50.92,1533196327.125
-44.77,1533196327.140625
-36.9,1533196327.15625
-28.45,1533196327.171875
-20.4,1533196327.1875
-13.26,1533196327.203125
-7.11,1533196327.21875
-1.72,1533196327.234375
3.21,1533196327.25
7.9,1533196327.265625
12.4,1533196327.28125
16.63,1533196327.296875
20.47,1533196327.3125
23.77,1533196327.328125
26.39,1533196327.34375
28.19,1533196327.359375
29.11,1533196327.375
29.2,1533196327.390625
28.62,1533196327.40625
27.63,1533196327.421875
26.51,1533196327.4375
25.45,1533196327.453125
24.5,1533196327.46875
23.62,1533196327.484375
22.67,1533196327.5
21.5,1533196327.515625
20.0,1533196327.53125
18.06,1533196327.546875
15.59,1533196327.5625
12.58,1533196327.578125
9.06,1533196327.59375
5.17,1533196327.609375
1.15,1533196327.625
-2.74,1533196327.640625
-6.32,1533196327.65625
-9.63,1533196327.671875
-12.95,1533196327.6875
-16.74,1533196327.703125
-21.46,1533196327.71875
-27.35,1533196327.734375
-34.21,1533196327.75
-41.38,1533196327.765625
-47.76,1533196327.78125
-52.16,1533196327.796875
-53.58,1533196327.8125
-51.59,1533196327.828125
-46.41,1533196327.84375
-38.84,1533196327.859375
-30.05,1533196327.875
-21.16,1533196327.890625
-12.98,1533196327.90625
-5.86,1533196327.921875
0.31,1533196327.9375
5.81,1533196327.953125
10.94,1533196327.96875
15.77,1533196327.984375
20.19,1533196328.0
23.97,1533196328.015625
26.88,1533196328.03125
28.84,1533196328.046875
29.86,1533196328.0625
30.08,1533196328.078125
29.67,1533196328.09375
28.82,1533196328.109375
27.7,1533196328.125
26.5,1533196328.140625
25.36,1533196328.15625
24.38,1533196328.171875
23.55,1533196328.1875
22.71,1533196328.203125
21.62,1533196328.21875
19.99,1533196328.234375
17.64,1533196328.25
14.56,1533196328.265625
10.92,1533196328.28125
7.01,1533196328.296875
3.13,1533196328.3125
-0.54,1533196328.328125
-3.99,1533196328.34375
-7.44,1533196328.359375
-11.21,1533196328.375
-15.64,1533196328.390625
-20.88,1533196328.40625
-26.72,1533196328.421875
-32.56,1533196328.4375
-37.43,1533196328.453125
-40.24,1533196328.46875
-40.08,1533196328.484375
-36.65,1533196328.5
-30.35,1533196328.515625
-22.23,1533196328.53125
-13.62,1533196328.546875
-5.64,1533196328.5625
1.11,1533196328.578125
6.65,1533196328.59375
11.41,1533196328.609375
15.87,1533196328.625
20.32,1533196328.640625
24.67,1533196328.65625
28.58,1533196328.671875
31.61,1533196328.6875
33.46,1533196328.703125
34.01,1533196328.71875
33.37,1533196328.734375
31.78,1533196328.75
29.58,1533196328.765625
27.14,1533196328.78125
24.83,1533196328.796875
22.94,1533196328.8125
21.63,1533196328.828125
20.85,1533196328.84375
20.3,1533196328.859375
19.57,1533196328.875
18.23,1533196328.890625
16.01,1533196328.90625
12.89,1533196328.921875
9.1,1533196328.9375
4.99,1533196328.953125
0.92,1533196328.96875
-2.89,1533196328.984375
-6.37,1533196329.0
-9.64,1533196329.015625
-12.95,1533196329.03125
-16.62,1533196329.046875
-20.98,1533196329.0625
-26.19,1533196329.078125
-32.08,1533196329.09375
-37.97,1533196329.109375
-42.8,1533196329.125
-45.38,1533196329.140625
-44.81,1533196329.15625
-40.9,1533196329.171875
-34.23,1533196329.1875
-25.95,1533196329.203125
-17.33,1533196329.21875
-9.33,1533196329.234375
-2.33,1533196329.25
3.81,1533196329.265625
9.45,1533196329.28125
14.86,1533196329.296875
20.07,1533196329.3125
24.81,1533196329.328125
28.72,1533196329.34375
31.54,1533196329.359375
33.22,1533196329.375
33.87,1533196329.390625
33.71,1533196329.40625
32.93,1533196329.421875
31.59,1533196329.4375
29.75,1533196329.453125
27.47,1533196329.46875
25.01,1533196329.484375
22.69,1533196329.5
20.85,1533196329.515625
19.6,1533196329.53125
18.72,1533196329.546875
17.75,1533196329.5625
16.14,1533196329.578125
13.53,1533196329.59375
9.88,1533196329.609375
5.5,1533196329.625
0.88,1533196329.640625
-3.49,1533196329.65625
-7.3,1533196329.671875
-10.52,1533196329.6875
-13.34,1533196329.703125
-16.11,1533196329.71875
-19.23,1533196329.734375
-23.04,1533196329.75
-27.64,1533196329.765625
-32.84,1533196329.78125
-38.1,1533196329.796875
-42.59,1533196329.8125
-45.47,1533196329.828125
-46.06,1533196329.84375
-44.07,1533196329.859375
-39.67,1533196329.875
-33.39,1533196329.890625
-26.02,1533196329.90625
-18.34,1533196329.921875
-10.95,1533196329.9375
-4.18,1533196329.953125
1.94,1533196329.96875
7.57,1533196329.984375
12.92,1533196330.0
18.08,1533196330.015625
22.97,1533196330.03125
27.32,1533196330.046875
30.75,1533196330.0625
32.93,1533196330.078125
33.74,1533196330.09375
33.34,1533196330.109375
32.11,1533196330.125
30.53,1533196330.140625
28.97,1533196330.15625
27.63,1533196330.171875
26.47,1533196330.1875
25.33,1533196330.203125
24.06,1533196330.21875
22.58,1533196330.234375
20.87,1533196330.25
18.95,1533196330.265625
16.75,1533196330.28125
14.23,1533196330.296875
11.3,1533196330.3125
8.03,1533196330.328125
4.58,1533196330.34375
1.17,1533196330.359375
-2.01,1533196330.375
-4.86,1533196330.390625
-7.42,1533196330.40625
-9.82,1533196330.421875
-12.18,1533196330.4375
-14.59,1533196330.453125
-17.1,1533196330.46875
-19.76,1533196330.484375
-22.66,1533196330.5
-26.0,1533196330.515625
-29.94,1533196330.53125
-34.51,1533196330.546875
-39.49,1533196330.5625
-44.23,1533196330.578125
-47.84,1533196330.59375
-49.37,1533196330.609375
-48.2,1533196330.625
-44.24,1533196330.640625
-38.04,1533196330.65625
-30.55,1533196330.671875
-22.8,1533196330.6875
-15.54,1533196330.703125
-9.06,1533196330.71875
-3.26,1533196330.734375
2.19,1533196330.75
7.56,1533196330.765625
12.91,1533196330.78125
18.06,1533196330.796875
22.69,1533196330.8125
26.43,1533196330.828125
29.12,1533196330.84375
30.71,1533196330.859375
31.36,1533196330.875
31.28,1533196330.890625
30.66,1533196330.90625
29.63,1533196330.921875
28.29,1533196330.9375
26.81,1533196330.953125
25.39,1533196330.96875
24.26,1533196330.984375
23.53,1533196331.0
23.14,1533196331.015625
22.8,1533196331.03125
22.12,1533196331.046875
20.77,1533196331.0625
18.62,1533196331.078125
15.83,1533196331.09375
12.79,1533196331.109375
9.9,1533196331.125
7.45,1533196331.140625
5.49,1533196331.15625
3.85,1533196331.171875
2.22,1533196331.1875
0.36,1533196331.203125
-1.83,1533196331.21875
-4.32,1533196331.234375
-6.95,1533196331.25
-9.6,1533196331.265625
-12.2,1533196331.28125
-14.79,1533196331.296875
-17.47,1533196331.3125
-20.37,1533196331.328125
-23.6,1533196331.34375
-27.24,1533196331.359375
-31.29,1533196331.375
-35.7,1533196331.390625
-40.19,1533196331.40625
-44.3,1533196331.421875
-47.38,1533196331.4375
-48.71,1533196331.453125
-47.83,1533196331.46875
-44.61,1533196331.484375
-39.44,1533196331.5
-33.02,1533196331.515625
-26.16,1533196331.53125
-19.51,1533196331.546875
-13.37,1533196331.5625
-7.73,1533196331.578125
-2.35,1533196331.59375
2.97,1533196331.609375
8.24,1533196331.625
13.3,1533196331.640625
17.85,1533196331.65625
21.54,1533196331.671875
24.15,1533196331.6875
25.65,1533196331.703125
26.17,1533196331.71875
26.0,1533196331.734375
25.47,1533196331.75
24.79,1533196331.765625
24.05,1533196331.78125
23.23,1533196331.796875
22.33,1533196331.8125
21.42,1533196331.828125
20.65,1533196331.84375
20.1,1533196331.859375
19.73,1533196331.875
19.24,1533196331.890625
18.26,1533196331.90625
16.47,1533196331.921875
13.85,1533196331.9375
10.74,1533196331.953125
7.63,1533196331.96875
5.01,1533196331.984375
3.08,1533196332.0
1.72,1533196332.015625
0.5,1533196332.03125
-1.01,1533196332.046875
-3.14,1533196332.0625
-5.94,1533196332.078125
-9.17,1533196332.09375
-12.41,1533196332.109375
-15.19,1533196332.125
-17.24,1533196332.140625
-18.51,1533196332.15625
-19.31,1533196332.171875
-20.14,1533196332.1875
-21.57,1533196332.203125
-24.02,1533196332.21875
-27.57,1533196332.234375
-31.89,1533196332.25
-36.26,1533196332.265625
-39.8,1533196332.28125
-41.7,1533196332.296875
-41.48,1533196332.3125
-39.08,1533196332.328125
-34.89,1533196332.34375
-29.56,1533196332.359375
-23.76,1533196332.375
-18.04,1533196332.390625
-12.69,1533196332.40625
-7.74,1533196332.421875
-3.13,1533196332.4375
1.28,1533196332.453125
5.53,1533196332.46875
9.61,1533196332.484375
13.4,1533196332.5
16.71,1533196332.515625
19.37,1533196332.53125
21.25,1533196332.546875
22.32,1533196332.5625
22.66,1533196332.578125
22.44,1533196332.59375
21.87,1533196332.609375
21.14,1533196332.625
20.37,1533196332.640625
19.65,1533196332.65625
18.96,1533196332.671875
18.29,1533196332.6875
17.52,1533196332.703125
16.58,1533196332.71875
15.34,1533196332.734375
13.77,1533196332.75
11.9,1533196332.765625
9.87,1533196332.78125
7.89,1533196332.796875
6.12,1533196332.8125
4.64,1533196332.828125
3.38,1533196332.84375
2.08,1533196332.859375
0.5,1533196332.875
-1.56,1533196332.890625
-4.1,1533196332.90625
-6.9,1533196332.921875
-9.6,1533196332.9375
-11.9,1533196332.953125
-13.68,1533196332.96875
-15.07,1533196332.984375
-16.41,1533196333.0
-18.17,1533196333.015625
-20.69,1533196333.03125
-24.12,1533196333.046875
-28.3,1533196333.0625
-32.74,1533196333.078125
-36.71,1533196333.09375
-39.38,1533196333.109375
-40.06,1533196333.125
-38.36,1533196333.140625
-34.42,1533196333.15625
-28.83,1533196333.171875
-22.49,1533196333.1875
-16.28,1533196333.203125
-10.76,1533196333.21875
-6.15,1533196333.234375
-2.26,1533196333.25
1.24,1533196333.265625
4.61,1533196333.28125
7.87,1533196333.296875
10.82,1533196333.3125
13.14,1533196333.328125
14.62,1533196333.34375
15.25,1533196333.359375
15.26,1533196333.375
15.02,1533196333.390625
14.85,1533196333.40625
14.9,1533196333.421875
15.11,1533196333.4375
15.29,1533196333.453125
15.24,1533196333.46875
14.84,1533196333.484375
14.11,1533196333.5
13.12,1533196333.515625
11.92,1533196333.53125
10.58,1533196333.546875
9.13,1533196333.5625
7.6,1533196333.578125
6.05,1533196333.59375
4.5,1533196333.609375
2.9,1533196333.625
1.2,1533196333.640625
-0.63,1533196333.65625
-2.53,1533196333.671875
-4.33,1533196333.6875
-5.87,1533196333.703125
-7.06,1533196333.71875
-8.02,1533196333.734375
-9.0,1533196333.75
-10.32,1533196333.765625
-12.21,1533196333.78125
-14.75,1533196333.796875
-17.84,1533196333.8125
-21.2,1533196333.828125
-24.5,1533196333.84375
-27.32,1533196333.859375
-29.18,1533196333.875
-29.61,1533196333.890625
-28.26,1533196333.90625
-25.03,1533196333.921875
-20.23,1533196333.9375
-14.45,1533196333.953125
-8.49,1533196333.96875
-3.05,1533196333.984375
1.45,1533196334.0
4.9,1533196334.015625
7.45,1533196334.03125
9.3,1533196334.046875
10.62,1533196334.0625
11.49,1533196334.078125
11.94,1533196334.09375
12.03,1533196334.109375
11.91,1533196334.125
11.77,1533196334.140625
11.8,1533196334.15625
12.06,1533196334.171875
12.52,1533196334.1875
13.06,1533196334.203125
13.53,1533196334.21875
13.84,1533196334.234375
13.99,1533196334.25
13.99,1533196334.265625
13.84,1533196334.28125
13.42,1533196334.296875
12.55,1533196334.3125
11.03,1533196334.328125
8.83,1533196334.34375
6.06,1533196334.359375
3.07,1533196334.375
0.22,1533196334.390625
-2.19,1533196334.40625
-4.09,1533196334.421875
-5.63,1533196334.4375
-7.1,1533196334.453125
-8.83,1533196334.46875
-11.09,1533196334.484375
-14.01,1533196334.5
-17.61,1533196334.515625
-21.68,1533196334.53125
-25.82,1533196334.546875
-29.43,1533196334.5625
-31.83,1533196334.578125
-32.41,1533196334.59375
-30.83,1533196334.609375
-27.19,1533196334.625
-21.95,1533196334.640625
-15.81,1533196334.65625
-9.52,1533196334.671875
-3.68,1533196334.6875
1.36,1533196334.703125
5.45,1533196334.71875
8.59,1533196334.734375
10.87,1533196334.75
12.4,1533196334.765625
13.36,1533196334.78125
13.93,1533196334.796875
14.27,1533196334.8125
14.49,1533196334.828125
14.61,1533196334.84375
14.55,1533196334.859375
14.2,1533196334.875
13.55,1533196334.890625
12.68,1533196334.90625
11.75,1533196334.921875
10.94,1533196334.9375
10.32,1533196334.953125
9.86,1533196334.96875
9.35,1533196334.984375
8.56,1533196335.0
7.31,1533196335.015625
5.53,1533196335.03125
3.24,1533196335.046875
0.59,1533196335.0625
-2.24,1533196335.078125
-5.07,1533196335.09375
-7.75,1533196335.109375
-10.19,1533196335.125
-12.38,1533196335.140625
-14.46,1533196335.15625
-16.7,1533196335.171875
-19.42,1533196335.1875
-22.88,1533196335.203125
-27.07,1533196335.21875
-31.59,1533196335.234375
-35.67,1533196335.25
-38.33,1533196335.265625
-38.74,1533196335.28125
-36.53,1533196335.296875
-31.93,1533196335.3125
-25.73,1533196335.328125
-18.94,1533196335.34375
-12.5,1533196335.359375
-6.98,1533196335.375
-2.47,1533196335.390625
1.2,1533196335.40625
4.34,1533196335.421875
7.22,1533196335.4375
9.94,1533196335.453125
12.46,1533196335.46875
14.69,1533196335.484375
16.49,1533196335.5
17.79,1533196335.515625
18.61,1533196335.53125
19.03,1533196335.546875
19.2,1533196335.5625
19.23,1533196335.578125
19.2,1533196335.59375
19.06,1533196335.609375
18.76,1533196335.625
18.29,1533196335.640625
17.66,1533196335.65625
16.86,1533196335.671875
15.88,1533196335.6875
14.55,1533196335.703125
12.68,1533196335.71875
10.11,1533196335.734375
6.85,1533196335.75
3.15,1533196335.765625
-0.62,1533196335.78125
-4.06,1533196335.796875
-6.97,1533196335.8125
-9.42,1533196335.828125
-11.77,1533196335.84375
-14.5,1533196335.859375
-17.99,1533196335.875
-22.35,1533196335.890625
-27.34,1533196335.90625
-32.35,1533196335.921875
-36.51,1533196335.9375
-38.96,1533196335.953125
-39.02,1533196335.96875
-36.45,1533196335.984375
-31.53,1533196336.0
-25.04,1533196336.015625
-17.99,1533196336.03125
-11.31,1533196336.046875
-5.6,1533196336.0625
-0.93,1533196336.078125
2.99,1533196336.09375
6.58,1533196336.109375
10.2,1533196336.125
13.84,1533196336.140625
17.3,1533196336.15625
20.26,1533196336.171875
22.5,1533196336.1875
23.97,1533196336.203125
24.77,1533196336.21875
25.02,1533196336.234375
24.86,1533196336.25
24.31,1533196336.265625
23.43,1533196336.28125
22.32,1533196336.296875
21.1,1533196336.3125
19.93,1533196336.328125
18.92,1533196336.34375
18.11,1533196336.359375
17.45,1533196336.375
16.76,1533196336.390625
15.86,1533196336.40625
14.54,1533196336.421875
12.68,1533196336.4375
10.21,1533196336.453125
7.25,1533196336.46875
4.0,1533196336.484375
0.76,1533196336.5
-2.2,1533196336.515625
-4.74,1533196336.53125
-6.88,1533196336.546875
-8.85,1533196336.5625
-10.96,1533196336.578125
-13.61,1533196336.59375
-17.07,1533196336.609375
-21.43,1533196336.625
-26.45,1533196336.640625
-31.52,1533196336.65625
-35.78,1533196336.671875
-38.33,1533196336.6875
-38.51,1533196336.703125
-36.16,1533196336.71875
-31.66,1533196336.734375
-25.79,1533196336.75
-19.47,1533196336.765625
-13.38,1533196336.78125
-7.86,1533196336.796875
-2.91,1533196336.8125
1.68,1533196336.828125
6.06,1533196336.84375
10.25,1533196336.859375
14.13,1533196336.875
17.49,1533196336.890625
20.16,1533196336.90625
22.08,1533196336.921875
23.3,1533196336.9375
23.93,1533196336.953125
24.12,1533196336.96875
24.0,1533196336.984375
23.66,1533196337.0
23.17,1533196337.015625
22.63,1533196337.03125
22.12,1533196337.046875
21.7,1533196337.0625
21.42,1533196337.078125
21.2,1533196337.09375
20.9,1533196337.109375
20.33,1533196337.125
19.27,1533196337.140625
17.62,1533196337.15625
15.42,1533196337.171875
12.79,1533196337.1875
9.94,1533196337.203125
7.04,1533196337.21875
4.21,1533196337.234375
1.46,1533196337.25
-1.21,1533196337.265625
-3.83,1533196337.28125
-6.4,1533196337.296875
-8.99,1533196337.3125
-11.65,1533196337.328125
-14.54,1533196337.34375
-17.75,1533196337.359375
-21.35,1533196337.375
-25.1,1533196337.390625
-28.57,1533196337.40625
-31.1,1533196337.421875
-32.03,1533196337.4375
-30.95,1533196337.453125
-27.86,1533196337.46875
-23.15,1533196337.484375
-17.46,1533196337.5
-11.52,1533196337.515625
-5.85,1533196337.53125
-0.76,1533196337.546875
3.7,1533196337.5625
7.62,1533196337.578125
11.09,1533196337.59375
14.21,1533196337.609375
16.97,1533196337.625
19.35,1533196337.640625
21.21,1533196337.65625
22.45,1533196337.671875
23.06,1533196337.6875
23.09,1533196337.703125
22.7,1533196337.71875
22.12,1533196337.734375
21.52,1533196337.75
20.97,1533196337.765625
20.46,1533196337.78125
19.97,1533196337.796875
19.44,1533196337.8125
18.87,1533196337.828125
18.23,1533196337.84375
17.47,1533196337.859375
16.49,1533196337.875
15.25,1533196337.890625
13.73,1533196337.90625
11.99,1533196337.921875
10.11,1533196337.9375
8.18,1533196337.953125
6.22,1533196337.96875
4.24,1533196337.984375
2.25,1533196338.0
0.29,1533196338.015625
-1.58,1533196338.03125
-3.33,1533196338.046875
-5.02,1533196338.0625
-6.76,1533196338.078125
-8.75,1533196338.09375
-11.12,1533196338.109375
-13.93,1533196338.125
-17.11,1533196338.140625
-20.51,1533196338.15625
-23.83,1533196338.171875
-26.69,1533196338.1875
-28.59,1533196338.203125
-29.08,1533196338.21875
-27.78,1533196338.234375
-24.66,1533196338.25
-20.03,1533196338.265625
-14.53,1533196338.28125
-8.91,1533196338.296875
-3.8,1533196338.3125
0.55,1533196338.328125
4.19,1533196338.34375
7.37,1533196338.359375
10.27,1533196338.375
12.86,1533196338.390625
14.92,1533196338.40625
16.25,1533196338.421875
16.77,1533196338.4375
16.65,1533196338.453125
16.21,1533196338.46875
15.73,1533196338.484375
15.38,1533196338.5
15.14,1533196338.515625
14.93,1533196338.53125
14.68,1533196338.546875
14.43,1533196338.5625
14.27,1533196338.578125
14.24,1533196338.59375
14.26,1533196338.609375
14.12,1533196338.625
13.54,1533196338.640625
12.39,1533196338.65625
10.7,1533196338.671875
8.67,1533196338.6875
6.6,1533196338.703125
4.7,1533196338.71875
3.06,1533196338.734375
1.62,1533196338.75
0.24,1533196338.765625
-1.12,1533196338.78125
-2.46,1533196338.796875
-3.69,1533196338.8125
-4.77,1533196338.828125
-5.78,1533196338.84375
-6.85,1533196338.859375
-8.17,1533196338.875
-9.86,1533196338.890625
-11.96,1533196338.90625
-14.45,1533196338.921875
-17.27,1533196338.9375
-20.27,1533196338.953125
-23.17,1533196338.96875
-25.5,1533196338.984375
-26.69,1533196339.0
-26.19,1533196339.015625
-23.74,1533196339.03125
-19.52,1533196339.046875
-14.18,1533196339.0625
-8.52,1533196339.078125
-3.32,1533196339.09375
1.02,1533196339.109375
4.48,1533196339.125
7.27,1533196339.140625
9.63,1533196339.15625
11.66,1533196339.171875
13.28,1533196339.1875
14.39,1533196339.203125
15.02,1533196339.21875
15.34,1533196339.234375
15.64,1533196339.25
16.18,1533196339.265625
16.99,1533196339.28125
17.98,1533196339.296875
18.98,1533196339.3125
19.83,1533196339.328125
20.54,1533196339.34375
21.18,1533196339.359375
21.81,1533196339.375
22.4,1533196339.390625
22.81,1533196339.40625
22.86,1533196339.421875
22.49,1533196339.4375
21.78,1533196339.453125
20.95,1533196339.46875
20.27,1533196339.484375
19.93,1533196339.5
19.94,1533196339.515625
20.22,1533196339.53125
20.6,1533196339.546875
20.92,1533196339.5625
21.22,1533196339.578125
21.57,1533196339.59375
22.22,1533196339.609375
23.35,1533196339.625
25.1,1533196339.640625
27.4,1533196339.65625
30.02,1533196339.671875
32.6,1533196339.6875
34.79,1533196339.703125
36.43,1533196339.71875
37.58,1533196339.734375
38.63,1533196339.75
40.16,1533196339.765625
42.76,1533196339.78125
46.9,1533196339.796875
52.71,1533196339.8125
60.01,1533196339.828125
68.32,1533196339.84375
77.05,1533196339.859375
85.63,1533196339.875
93.55,1533196339.890625
100.49,1533196339.90625
106.22,1533196339.921875
110.66,1533196339.9375
113.73,1533196339.953125
115.35,1533196339.96875
115.36,1533196339.984375
113.59,1533196340.0
109.85,1533196340.015625
103.98,1533196340.03125
95.86,1533196340.046875
85.24,1533196340.0625
71.84,1533196340.078125
55.32,1533196340.09375
35.57,1533196340.109375
12.88,1533196340.125
-11.78,1533196340.140625
-36.78,1533196340.15625
-60.1,1533196340.171875
-79.78,1533196340.1875
-94.37,1533196340.203125
-103.29,1533196340.21875
-107.06,1533196340.234375
-107.23,1533196340.25
-106.14,1533196340.265625
-106.23,1533196340.28125
-109.15,1533196340.296875
-115.02,1533196340.3125
-122.25,1533196340.328125
-128.09,1533196340.34375
-129.84,1533196340.359375
-126.04,1533196340.375
-117.06,1533196340.390625
-104.92,1533196340.40625
-92.24,1533196340.421875
-81.14,1533196340.4375
-72.53,1533196340.453125
-66.02,1533196340.46875
-60.54,1533196340.484375
-54.94,1533196340.5
-48.51,1533196340.515625
-41.06,1533196340.53125
-32.8,1533196340.546875
-24.06,1533196340.5625
-15.17,1533196340.578125
-6.36,1533196340.59375
2.08,1533196340.609375
9.72,1533196340.625
15.85,1533196340.640625
19.72,1533196340.65625
20.88,1533196340.671875
19.72,1533196340.6875
17.61,1533196340.703125
16.42,1533196340.71875
17.75,1533196340.734375
22.04,1533196340.75
28.27,1533196340.765625
34.41,1533196340.78125
38.31,1533196340.796875
38.65,1533196340.8125
35.38,1533196340.828125
29.45,1533196340.84375
22.17,1533196340.859375
14.69,1533196340.875
7.71,1533196340.890625
1.66,1533196340.90625
-3.08,1533196340.921875
-6.11,1533196340.9375
-7.12,1533196340.953125
-6.13,1533196340.96875
-3.54,1533196340.984375
-0.18,1533196341.0
3.02,1533196341.015625
5.25,1533196341.03125
6.06,1533196341.046875
5.44,1533196341.0625
3.85,1533196341.078125
1.97,1533196341.09375
0.52,1533196341.109375
-0.09,1533196341.125
0.03,1533196341.140625
0.2,1533196341.15625
-0.61,1533196341.171875
-3.44,1533196341.1875
-8.99,1533196341.203125
-17.34,1533196341.21875
-28.03,1533196341.234375
-40.1,1533196341.25
-52.33,1533196341.265625
-63.38,1533196341.28125
-72.01,1533196341.296875
-77.32,1533196341.3125
-79.0,1533196341.328125
-77.51,1533196341.34375
-73.95,1533196341.359375
-69.65,1533196341.375
-65.7,1533196341.390625
-62.51,1533196341.40625
-59.86,1533196341.421875
-57.16,1533196341.4375
-54.0,1533196341.453125
-50.41,1533196341.46875
-46.84,1533196341.484375
-43.83,1533196341.5
-41.69,1533196341.515625
-40.25,1533196341.53125
-39.08,1533196341.546875
-37.79,1533196341.5625
-36.43,1533196341.578125
-35.54,1533196341.59375
-35.92,1533196341.609375
-38.21,1533196341.625
-42.53,1533196341.640625
-48.26,1533196341.65625
-54.2,1533196341.671875
-59.07,1533196341.6875
-61.89,1533196341.703125
-62.37,1533196341.71875
-60.86,1533196341.734375
-58.2,1533196341.75
-55.25,1533196341.765625
-52.57,1533196341.78125
-50.29,1533196341.796875
-48.19,1533196341.8125
-45.92,1533196341.828125
-43.22,1533196341.84375
-40.07,1533196341.859375
-36.62,1533196341.875
-33.18,1533196341.890625
-29.99,1533196341.90625
-27.19,1533196341.921875
-24.72,1533196341.9375
-22.3,1533196341.953125
-19.55,1533196341.96875
-16.09,1533196341.984375
-11.68,1533196342.0
-6.27,1533196342.015625
-0.11,1533196342.03125
6.43,1533196342.046875
12.9,1533196342.0625
18.94,1533196342.078125
24.34,1533196342.09375
28.97,1533196342.109375
32.81,1533196342.125
35.86,1533196342.140625
38.13,1533196342.15625
39.67,1533196342.171875
40.64,1533196342.1875
41.19,1533196342.203125
41.31,1533196342.21875
40.73,1533196342.234375
38.99,1533196342.25
35.62,1533196342.265625
30.43,1533196342.28125
23.77,1533196342.296875
16.39,1533196342.3125
9.26,1533196342.328125
3.08,1533196342.34375
-2.01,1533196342.359375
-6.41,1533196342.375
-10.83,1533196342.390625
-15.89,1533196342.40625
-21.86,1533196342.421875
-28.62,1533196342.4375
-35.76,1533196342.453125
-42.87,1533196342.46875
-49.64,1533196342.484375
-55.93,1533196342.5
-61.7,1533196342.515625
-66.98,1533196342.53125
-71.94,1533196342.546875
-76.82,1533196342.5625
-81.9,1533196342.578125
-87.32,1533196342.59375
-92.86,1533196342.609375
-97.82,1533196342.625
-101.19,1533196342.640625
-101.9,1533196342.65625
-99.25,1533196342.671875
-93.19,1533196342.6875
-84.33,1533196342.703125
-73.68,1533196342.71875
-62.21,1533196342.734375
-50.51,1533196342.75
-38.66,1533196342.765625
-26.27,1533196342.78125
-12.67,1533196342.796875
2.9,1533196342.8125
21.13,1533196342.828125
42.55,1533196342.84375
67.41,1533196342.859375
95.71,1533196342.875
127.13,1533196342.890625
161.09,1533196342.90625
196.7,1533196342.921875
232.84,1533196342.9375
268.19,1533196342.953125
301.43,1533196342.96875
331.43,1533196342.984375
357.47,1533196343.0
379.07,1533196343.015625
395.69,1533196343.03125
406.46,1533196343.046875
410.18,1533196343.0625
405.88,1533196343.078125
393.28,1533196343.09375
372.82,1533196343.109375
345.1,1533196343.125
310.07,1533196343.140625
266.77,1533196343.15625
214.24,1533196343.171875
153.18,1533196343.1875
87.2,1533196343.203125
22.66,1533196343.21875
-33.34,1533196343.234375
-75.77,1533196343.25
-103.74,1533196343.265625
-120.46,1533196343.28125
-131.21,1533196343.296875
-140.52,1533196343.3125
-150.27,1533196343.328125
-159.5,1533196343.34375
-166.05,1533196343.359375
-168.37,1533196343.375
-166.7,1533196343.390625
-162.97,1533196343.40625
-159.7,1533196343.421875
-158.93,1533196343.4375
-161.56,1533196343.453125
-167.32,1533196343.46875
-175.17,1533196343.484375
-183.79,1533196343.5
-191.84,1533196343.515625
-198.15,1533196343.53125
-201.73,1533196343.546875
-201.84,1533196343.5625
-197.96,1533196343.578125
-189.87,1533196343.59375
-177.73,1533196343.609375
-162.09,1533196343.625
-143.86,1533196343.640625
-124.28,1533196343.65625
-104.69,1533196343.671875
-86.19,1533196343.6875
-69.31,1533196343.703125
-53.74,1533196343.71875
-38.49,1533196343.734375
-22.38,1533196343.75
-4.62,1533196343.765625
14.53,1533196343.78125
33.26,1533196343.796875
49.68,1533196343.8125
63.11,1533196343.828125
74.72,1533196343.84375
87.16,1533196343.859375
103.37,1533196343.875
125.49,1533196343.890625
154.08,1533196343.90625
188.14,1533196343.921875
225.11,1533196343.9375
262.61,1533196343.953125
299.04,1533196343.96875
333.27,1533196343.984375
363.84,1533196344.0
388.42,1533196344.015625
404.45,1533196344.03125
410.12,1533196344.046875
405.27,1533196344.0625
390.09,1533196344.078125
366.42,1533196344.09375
337.4,1533196344.109375
306.18,1533196344.125
274.59,1533196344.140625
242.92,1533196344.15625
210.76,1533196344.171875
177.99,1533196344.1875
145.36,1533196344.203125
110.14,1533196344.21875
71.2,1533196344.234375
30.44,1533196344.25
-8.28,1533196344.265625
-42.0,1533196344.28125
-70.13,1533196344.296875
-93.62,1533196344.3125
-113.7,1533196344.328125
-130.82,1533196344.34375
-153.35,1533196344.359375
-186.07,1533196344.375
-226.75,1533196344.390625
-268.05,1533196344.40625
-303.69,1533196344.421875
-331.99,1533196344.4375
-354.77,1533196344.453125
-375.12,1533196344.46875
-394.81,1533196344.484375
-427.75,1533196344.5
-480.84,1533196344.515625
-548.27,1533196344.53125
-615.14,1533196344.546875
-668.42,1533196344.5625
-703.57,1533196344.578125
-723.48,1533196344.59375
-735.02,1533196344.609375
-744.49,1533196344.625
-774.99,1533196344.640625
-840.27,1533196344.65625
-936.49,1533196344.671875
-1045.76,1533196344.6875
-1149.38,1533196344.703125
-1236.11,1533196344.71875
-1302.04,1533196344.734375
-1348.0,1533196344.75
-1271.16,1533196344.765625
-1030.79,1533196344.78125
-670.45,1533196344.796875
-288.96,1533196344.8125
35.53,1533196344.828125
277.62,1533196344.84375
446.93,1533196344.859375
563.35,1533196344.875
635.48,1533196344.890625
681.53,1533196344.90625
692.9,1533196344.921875
663.54,1533196344.9375
601.63,1533196344.953125
527.59,1533196344.96875
460.94,1533196344.984375
411.58,1533196345.0
383.67,1533196345.015625
374.45,1533196345.03125
379.78,1533196345.046875
380.03,1533196345.0625
362.08,1533196345.078125
325.97,1533196345.09375
282.21,1533196345.109375
241.35,1533196345.125
207.96,1533196345.140625
181.8,1533196345.15625
160.73,1533196345.171875
144.65,1533196345.1875
125.21,1533196345.203125
98.35,1533196345.21875
66.87,1533196345.234375
38.09,1533196345.25
17.34,1533196345.265625
4.95,1533196345.28125
-2.12,1533196345.296875
-7.88,1533196345.3125
-14.41,1533196345.328125
-26.8,1533196345.34375
-46.78,1533196345.359375
-71.62,1533196345.375
-95.72,1533196345.390625
-114.35,1533196345.40625
-125.42,1533196345.421875
-129.15,1533196345.4375
-127.03,1533196345.453125
-120.23,1533196345.46875
-111.57,1533196345.484375
-102.72,1533196345.5
-93.81,1533196345.515625
-83.84,1533196345.53125
-72.04,1533196345.546875
-58.45,1533196345.5625
-43.76,1533196345.578125
-28.95,1533196345.59375
-14.65,1533196345.609375
-1.24,1533196345.625
11.39,1533196345.640625
23.67,1533196345.65625
36.08,1533196345.671875
48.86,1533196345.6875
61.86,1533196345.703125
74.59,1533196345.71875
86.4,1533196345.734375
96.8,1533196345.75
105.81,1533196345.765625
113.94,1533196345.78125
122.06,1533196345.796875
131.0,1533196345.8125
141.26,1533196345.828125
152.7,1533196345.84375
164.67,1533196345.859375
176.37,1533196345.875
187.19,1533196345.890625
197.02,1533196345.90625
206.33,1533196345.921875
215.94,1533196345.9375
226.88,1533196345.953125
240.26,1533196345.96875
257.08,1533196345.984375
277.74,1533196346.0
301.44,1533196346.015625
325.54,1533196346.03125
345.7,1533196346.046875
356.96,1533196346.0625
355.48,1533196346.078125
340.26,1533196346.09375
313.78,1533196346.109375
281.14,1533196346.125
248.16,1533196346.140625
219.24,1533196346.15625
196.31,1533196346.171875
178.97,1533196346.1875
165.71,1533196346.203125
155.14,1533196346.21875
146.6,1533196346.234375
139.81,1533196346.25
134.29,1533196346.265625
128.88,1533196346.28125
122.01,1533196346.296875
112.32,1533196346.3125
99.45,1533196346.328125
84.17,1533196346.34375
68.04,1533196346.359375
52.78,1533196346.375
39.51,1533196346.390625
28.48,1533196346.40625
19.31,1533196346.421875
11.42,1533196346.4375
4.5,1533196346.453125
-1.27,1533196346.46875
-5.4,1533196346.484375
-7.53,1533196346.5
-7.76,1533196346.515625
-6.83,1533196346.53125
-5.85,1533196346.546875
-5.79,1533196346.5625
-7.14,1533196346.578125
-9.7,1533196346.59375
-12.78,1533196346.609375
-15.69,1533196346.625
-18.16,1533196346.640625
-20.45,1533196346.65625
-23.31,1533196346.671875
-27.46,1533196346.6875
-33.36,1533196346.703125
-40.97,1533196346.71875
-49.88,1533196346.734375
-59.48,1533196346.75
-69.12,1533196346.765625
-78.07,1533196346.78125
-85.48,1533196346.796875
-90.45,1533196346.8125
-92.19,1533196346.828125
-90.31,1533196346.84375
-85.06,1533196346.859375
-77.24,1533196346.875
-67.97,1533196346.890625
-58.22,1533196346.90625
-48.61,1533196346.921875
-39.32,1533196346.9375
-30.32,1533196346.953125
-21.61,1533196346.96875
-13.39,1533196346.984375
-6.05,1533196347.0
-0.02,1533196347.015625
4.44,1533196347.03125
7.38,1533196347.046875
9.1,1533196347.0625
10.14,1533196347.078125
11.03,1533196347.09375
12.1,1533196347.109375
13.44,1533196347.125
14.85,1533196347.140625
15.99,1533196347.15625
16.57,1533196347.171875
16.47,1533196347.1875
15.72,1533196347.203125
14.42,1533196347.21875
12.6,1533196347.234375
10.21,1533196347.25
7.12,1533196347.265625
3.26,1533196347.28125
-1.26,1533196347.296875
-6.12,1533196347.3125
-10.92,1533196347.328125
-15.32,1533196347.34375
-19.23,1533196347.359375
-22.86,1533196347.375
-26.71,1533196347.390625
-31.35,1533196347.40625
-37.18,1533196347.421875
-44.15,1533196347.4375
-51.62,1533196347.453125
-58.35,1533196347.46875
-62.9,1533196347.484375
-64.1,1533196347.5
-61.46,1533196347.515625
-55.41,1533196347.53125
-47.03,1533196347.546875
-37.66,1533196347.5625
-28.3,1533196347.578125
-19.33,1533196347.59375
-10.61,1533196347.609375
-1.78,1533196347.625
7.33,1533196347.640625
16.44,1533196347.65625
24.89,1533196347.671875
31.88,1533196347.6875
36.85,1533196347.703125
39.62,1533196347.71875
40.47,1533196347.734375
39.98,1533196347.75
38.79,1533196347.765625
37.42,1533196347.78125
36.19,1533196347.796875
35.2,1533196347.8125
34.41,1533196347.828125
33.76,1533196347.84375
33.09,1533196347.859375
32.24,1533196347.875
30.98,1533196347.890625
29.09,1533196347.90625
26.46,1533196347.921875
23.14,1533196347.9375
19.3,1533196347.953125
15.18,1533196347.96875
10.88,1533196347.984375
6.29,1533196348.0
1.14,1533196348.015625
-4.89,1533196348.03125
-12.06,1533196348.046875
-20.43,1533196348.0625
-29.79,1533196348.078125
-39.65,1533196348.09375
-49.16,1533196348.109375
-57.19,1533196348.125
-62.51,1533196348.140625
-64.08,1533196348.15625
-61.43,1533196348.171875
-54.78,1533196348.1875
-45.03,1533196348.203125
-33.43,1533196348.21875
-21.19,1533196348.234375
-9.15,1533196348.25
2.28,1533196348.265625
12.99,1533196348.28125
23.0,1533196348.296875
32.25,1533196348.3125
40.56,1533196348.328125
47.72,1533196348.34375
53.49,1533196348.359375
57.67,1533196348.375
60.17,1533196348.390625
61.03,1533196348.40625
60.42,1533196348.421875
58.73,1533196348.4375
56.47,1533196348.453125
54.18,1533196348.46875
52.28,1533196348.484375
50.88,1533196348.5
49.77,1533196348.515625
48.47,1533196348.53125
46.45,1533196348.546875
43.35,1533196348.5625
39.16,1533196348.578125
34.15,1533196348.59375
28.81,1533196348.609375
23.55,1533196348.625
18.58,1533196348.640625
13.82,1533196348.65625
8.95,1533196348.671875
3.58,1533196348.6875
-2.68,1533196348.703125
-10.09,1533196348.71875
-18.58,1533196348.734375
-27.7,1533196348.75
-36.49,1533196348.765625
-43.55,1533196348.78125
-47.42,1533196348.796875
-47.0,1533196348.8125
-42.05,1533196348.828125
-33.38,1533196348.84375
-22.58,1533196348.859375
-11.43,1533196348.875
-1.26,1533196348.890625
7.45,1533196348.90625
15.05,1533196348.921875
22.19,1533196348.9375
29.39,1533196348.953125
36.59,1533196348.96875
43.21,1533196348.984375
48.51,1533196349.0
51.99,1533196349.015625
53.61,1533196349.03125
53.81,1533196349.046875
53.19,1533196349.0625
52.24,1533196349.078125
51.1,1533196349.09375
49.62,1533196349.109375
47.52,1533196349.125
44.71,1533196349.140625
41.34,1533196349.15625
37.84,1533196349.171875
34.66,1533196349.1875
32.01,1533196349.203125
29.7,1533196349.21875
27.23,1533196349.234375
24.02,1533196349.25
19.68,1533196349.265625
14.3,1533196349.28125
8.33,1533196349.296875
2.4,1533196349.3125
-2.97,1533196349.328125
-7.6,1533196349.34375
-11.76,1533196349.359375
-16.02,1533196349.375
-21.07,1533196349.390625
-27.46,1533196349.40625
-35.39,1533196349.421875
-44.46,1533196349.4375
-53.64,1533196349.453125
-61.43,1533196349.46875
-66.23,1533196349.484375
-66.83,1533196349.5
-62.82,1533196349.515625
-54.8,1533196349.53125
-44.05,1533196349.546875
-32.12,1533196349.5625
-20.26,1533196349.578125
-9.12,1533196349.59375
1.24,1533196349.609375
11.06,1533196349.625
20.49,1533196349.640625
29.3,1533196349.65625
36.94,1533196349.671875
42.81,1533196349.6875
46.5,1533196349.703125
48.11,1533196349.71875
48.24,1533196349.734375
47.61,1533196349.75
46.9,1533196349.765625
46.36,1533196349.78125
45.89,1533196349.796875
45.14,1533196349.8125
43.86,1533196349.828125
42.05,1533196349.84375
40.0,1533196349.859375
38.04,1533196349.875
36.35,1533196349.890625
34.77,1533196349.90625
32.86,1533196349.921875
30.14,1533196349.9375
26.33,1533196349.953125
21.52,1533196349.96875
16.14,1533196349.984375
10.77,1533196350.0
5.92,1533196350.015625
1.75,1533196350.03125
-1.94,1533196350.046875
-5.59,1533196350.0625
-9.75,1533196350.078125
-14.85,1533196350.09375
-21.06,1533196350.109375
-28.33,1533196350.125
-36.33,1533196350.140625
-44.48,1533196350.15625
-51.95,1533196350.171875
-57.65,1533196350.1875
-60.53,1533196350.203125
-59.79,1533196350.21875
-55.23,1533196350.234375
-47.41,1533196350.25
-37.44,1533196350.265625
-26.64,1533196350.28125
-16.1,1533196350.296875
-6.41,1533196350.3125
2.38,1533196350.328125
10.47,1533196350.34375
18.06,1533196350.359375
25.05,1533196350.375
31.09,1533196350.390625
35.77,1533196350.40625
38.81,1533196350.421875
40.23,1533196350.4375
40.35,1533196350.453125
39.68,1533196350.46875
38.7,1533196350.484375
37.66,1533196350.5
36.64,1533196350.515625
35.5,1533196350.53125
34.12,1533196350.546875
32.51,1533196350.5625
30.82,1533196350.578125
29.21,1533196350.59375
27.76,1533196350.609375
26.2,1533196350.625
24.08,1533196350.640625
20.91,1533196350.65625
16.4,1533196350.671875
10.73,1533196350.6875
4.48,1533196350.703125
-1.57,1533196350.71875
-6.77,1533196350.734375
-10.92,1533196350.75
-14.34,1533196350.765625
-17.71,1533196350.78125
-21.8,1533196350.796875
-27.13,1533196350.8125
-33.79,1533196350.828125
-41.36,1533196350.84375
-48.98,1533196350.859375
-55.52,1533196350.875
-59.8,1533196350.890625
-60.89,1533196350.90625
-58.36,1533196350.921875
-52.41,1533196350.9375
-43.88,1533196350.953125
-33.93,1533196350.96875
-23.76,1533196350.984375
-14.2,1533196351.0
-5.6,1533196351.015625
2.15,1533196351.03125
9.34,1533196351.046875
16.16,1533196351.0625
22.5,1533196351.078125
27.97,1533196351.09375
32.11,1533196351.109375
34.62,1533196351.125
35.56,1533196351.140625
35.34,1533196351.15625
34.58,1533196351.171875
33.81,1533196351.1875
33.3,1533196351.203125
32.96,1533196351.21875
32.51,1533196351.234375
31.63,1533196351.25
30.17,1533196351.265625
28.22,1533196351.28125
26.02,1533196351.296875
23.86,1533196351.3125
21.87,1533196351.328125
19.98,1533196351.34375
17.93,1533196351.359375
15.37,1533196351.375
12.08,1533196351.390625
7.99,1533196351.40625
3.36,1533196351.421875
-1.32,1533196351.4375
-5.51,1533196351.453125
-8.83,1533196351.46875
-11.17,1533196351.484375
-12.76,1533196351.5
-14.15,1533196351.515625
-16.02,1533196351.53125
-18.99,1533196351.546875
-23.45,1533196351.5625
-29.39,1533196351.578125
-36.21,1533196351.59375
-42.83,1533196351.609375
-47.81,1533196351.625
-49.82,1533196351.640625
-48.09,1533196351.65625
-42.64,1533196351.671875
-34.34,1533196351.6875
-24.49,1533196351.703125
-14.32,1533196351.71875
-4.59,1533196351.734375
4.54,1533196351.75
13.29,1533196351.765625
21.88,1533196351.78125
30.24,1533196351.796875
37.95,1533196351.8125
44.4,1533196351.828125
49.09,1533196351.84375
51.9,1533196351.859375
53.07,1533196351.875
53.12,1533196351.890625
52.57,1533196351.90625
51.77,1533196351.921875
50.81,1533196351.9375
49.61,1533196351.953125
47.92,1533196351.96875
45.57,1533196351.984375
42.42,1533196352.0
38.49,1533196352.015625
33.98,1533196352.03125
29.26,1533196352.046875
24.76,1533196352.0625
20.85,1533196352.078125
17.63,1533196352.09375
14.86,1533196352.109375
11.96,1533196352.125
8.2,1533196352.140625
3.0,1533196352.15625
-3.86,1533196352.171875
-12.2,1533196352.1875
-21.47,1533196352.203125
-31.11,1533196352.21875
-40.67,1533196352.234375
-49.92,1533196352.25
-58.69,1533196352.265625
-66.73,1533196352.28125
-73.64,1533196352.296875
-78.96,1533196352.3125
-82.46,1533196352.328125
-84.26,1533196352.34375
-84.92,1533196352.359375
-85.13,1533196352.375
-85.4,1533196352.390625
-85.72,1533196352.40625
-85.57,1533196352.421875
-84.23,1533196352.4375
-81.08,1533196352.453125
-76.06,1533196352.46875
-69.62,1533196352.484375
-62.54,1533196352.5
-55.66,1533196352.515625
-49.53,1533196352.53125
-44.36,1533196352.546875
-40.05,1533196352.5625
-36.3,1533196352.578125
-32.8,1533196352.59375
-29.21,1533196352.609375
-25.21,1533196352.625
-20.54,1533196352.640625
-15.01,1533196352.65625
-8.55,1533196352.671875
-1.34,1533196352.6875
6.29,1533196352.703125
13.9,1533196352.71875
21.18,1533196352.734375
27.94,1533196352.75
34.14,1533196352.765625
39.79,1533196352.78125
44.81,1533196352.796875
49.0,1533196352.8125
52.14,1533196352.828125
54.08,1533196352.84375
54.92,1533196352.859375
55.04,1533196352.875
54.97,1533196352.890625
55.22,1533196352.90625
56.04,1533196352.921875
57.36,1533196352.9375
58.94,1533196352.953125
60.46,1533196352.96875
61.68,1533196352.984375
62.5,1533196353.0
62.82,1533196353.015625
62.42,1533196353.03125
60.91,1533196353.046875
57.79,1533196353.0625
52.64,1533196353.078125
45.21,1533196353.09375
35.62,1533196353.109375
24.25,1533196353.125
11.72,1533196353.140625
-1.22,1533196353.15625
-13.75,1533196353.171875
-25.01,1533196353.1875
-34.16,1533196353.203125
-40.64,1533196353.21875
-44.22,1533196353.234375
-45.2,1533196353.25
-44.2,1533196353.265625
-41.93,1533196353.28125
-38.96,1533196353.296875
-35.5,1533196353.3125
-31.52,1533196353.328125
-26.97,1533196353.34375
-22.06,1533196353.359375
-17.33,1533196353.375
-13.49,1533196353.390625
-11.15,1533196353.40625
-10.46,1533196353.421875
-11.01,1533196353.4375
-11.87,1533196353.453125
-11.92,1533196353.46875
-10.14,1533196353.484375
-6.05,1533196353.5
0.1,1533196353.515625
7.11,1533196353.53125
12.99,1533196353.546875
15.3,1533196353.5625
11.94,1533196353.578125
1.86,1533196353.59375
-14.33,1533196353.609375
-34.35,1533196353.625
-54.84,1533196353.640625
-72.44,1533196353.65625
-84.79,1533196353.671875
-91.05,1533196353.6875
-91.74,1533196353.703125
-88.17,1533196353.71875
-81.7,1533196353.734375
-73.36,1533196353.75
-63.81,1533196353.765625
-53.58,1533196353.78125
-43.37,1533196353.796875
-34.06,1533196353.8125
-26.68,1533196353.828125
-22.0,1533196353.84375
-20.39,1533196353.859375
-21.66,1533196353.875
-25.19,1533196353.890625
-30.19,1533196353.90625
-35.93,1533196353.921875
-41.87,1533196353.9375
-47.52,1533196353.953125
-52.32,1533196353.96875
-55.49,1533196353.984375
-56.09,1533196354.0
-53.32,1533196354.015625
-46.84,1533196354.03125
-37.1,1533196354.046875
-25.25,1533196354.0625
-12.79,1533196354.078125
-1.13,1533196354.09375
8.9,1533196354.109375
17.11,1533196354.125
23.89,1533196354.140625
29.89,1533196354.15625
35.68,1533196354.171875
41.51,1533196354.1875
47.27,1533196354.203125
52.51,1533196354.21875
56.78,1533196354.234375
59.76,1533196354.25
61.45,1533196354.265625
62.21,1533196354.28125
62.62,1533196354.296875
63.23,1533196354.3125
64.4,1533196354.328125
66.25,1533196354.34375
68.67,1533196354.359375
71.38,1533196354.375
74.05,1533196354.390625
76.35,1533196354.40625
77.94,1533196354.421875
78.53,1533196354.4375
77.93,1533196354.453125
76.11,1533196354.46875
73.18,1533196354.484375
69.35,1533196354.5
64.8,1533196354.515625
59.63,1533196354.53125
53.75,1533196354.546875
46.95,1533196354.5625
39.01,1533196354.578125
29.85,1533196354.59375
19.53,1533196354.609375
8.34,1533196354.625
-3.32,1533196354.640625
-15.1,1533196354.65625
-26.66,1533196354.671875
-37.75,1533196354.6875
-48.01,1533196354.703125
-56.92,1533196354.71875
-63.73,1533196354.734375
-67.67,1533196354.75
-68.23,1533196354.765625
-65.46,1533196354.78125
-60.14,1533196354.796875
-53.47,1533196354.8125
-46.76,1533196354.828125
-41.0,1533196354.84375
-36.53,1533196354.859375
-33.13,1533196354.875
-30.21,1533196354.890625
-27.18,1533196354.90625
-23.83,1533196354.921875
-20.44,1533196354.9375
-17.76,1533196354.953125
-16.67,1533196354.96875
-17.87,1533196354.984375
-21.5,1533196355.0
-27.05,1533196355.015625
-33.49,1533196355.03125
-39.56,1533196355.046875
-44.21,1533196355.0625
-46.85,1533196355.078125
-47.44,1533196355.09375
-46.34,1533196355.109375
-44.03,1533196355.125
-40.93,1533196355.140625
-37.38,1533196355.15625
-33.68,1533196355.171875
-30.2,1533196355.1875
-27.41,1533196355.203125
-25.69,1533196355.21875
-25.23,1533196355.234375
-25.89,1533196355.25
-27.19,1533196355.265625
-28.53,1533196355.28125
-29.38,1533196355.296875
-29.48,1533196355.3125
-28.89,1533196355.328125
-27.99,1533196355.34375
-27.21,1533196355.359375
-26.98,1533196355.375
-27.63,1533196355.390625
-29.29,1533196355.40625
-31.95,1533196355.421875
-35.33,1533196355.4375
-38.81,1533196355.453125
-41.5,1533196355.46875
-42.38,1533196355.484375
-40.59,1533196355.5
-35.76,1533196355.515625
-28.2,1533196355.53125
-18.78,1533196355.546875
-8.72,1533196355.5625
0.95,1533196355.578125
9.67,1533196355.59375
17.46,1533196355.609375
24.76,1533196355.625
32.01,1533196355.640625
39.32,1533196355.65625
46.35,1533196355.671875
52.44,1533196355.6875
57.0,1533196355.703125
59.81,1533196355.71875
61.17,1533196355.734375
61.74,1533196355.75
62.23,1533196355.765625
63.08,1533196355.78125
64.31,1533196355.796875
65.61,1533196355.8125
66.56,1533196355.828125
66.8,1533196355.84375
66.2,1533196355.859375
64.85,1533196355.875
62.94,1533196355.890625
60.68,1533196355.90625
58.16,1533196355.921875
55.3,1533196355.9375
51.86,1533196355.953125
47.56,1533196355.96875
42.21,1533196355.984375
35.86,1533196356.0
28.82,1533196356.015625
21.56,1533196356.03125
14.52,1533196356.046875
7.91,1533196356.0625
1.66,1533196356.078125
-4.49,1533196356.09375
-10.89,1533196356.109375
-17.83,1533196356.125
-25.48,1533196356.140625
-33.93,1533196356.15625
-43.08,1533196356.171875
-52.57,1533196356.1875
-61.66,1533196356.203125
-69.3,1533196356.21875
-74.31,1533196356.234375
-75.75,1533196356.25
-73.25,1533196356.265625
-67.21,1533196356.28125
-58.63,1533196356.296875
-48.79,1533196356.3125
-38.75,1533196356.328125
-29.12,1533196356.34375
-19.99,1533196356.359375
-11.12,1533196356.375
-2.28,1533196356.390625
6.48,1533196356.40625
14.8,1533196356.421875
22.13,1533196356.4375
27.98,1533196356.453125
32.16,1533196356.46875
34.8,1533196356.484375
36.32,1533196356.5
37.1,1533196356.515625
37.42,1533196356.53125
37.35,1533196356.546875
36.87,1533196356.5625
35.97,1533196356.578125
34.79,1533196356.59375
33.53,1533196356.609375
32.37,1533196356.625
31.33,1533196356.640625
30.23,1533196356.65625
28.73,1533196356.671875
26.53,1533196356.6875
23.44,1533196356.703125
19.48,1533196356.71875
14.87,1533196356.734375
9.93,1533196356.75
5.0,1533196356.765625
0.32,1533196356.78125
-4.02,1533196356.796875
-8.12,1533196356.8125
-12.19,1533196356.828125
-16.49,1533196356.84375
-21.14,1533196356.859375
-26.11,1533196356.875
-31.19,1533196356.890625
-36.12,1533196356.90625
-40.75,1533196356.921875
-45.1,1533196356.9375
-49.3,1533196356.953125
-53.48,1533196356.96875
-57.5,1533196356.984375
-60.93,1533196357.0
-63.15,1533196357.015625
-63.52,1533196357.03125
-61.65,1533196357.046875
-57.52,1533196357.0625
-51.41,1533196357.078125
-43.71,1533196357.09375
-34.84,1533196357.109375
-25.12,1533196357.125
-14.93,1533196357.140625
-4.8,1533196357.15625
4.57,1533196357.171875
12.44,1533196357.1875
18.22,1533196357.203125
21.69,1533196357.21875
23.05,1533196357.234375
22.83,1533196357.25
21.61,1533196357.265625
19.86,1533196357.28125
17.87,1533196357.296875
15.76,1533196357.3125
13.59,1533196357.328125
11.45,1533196357.34375
9.38,1533196357.359375
7.42,1533196357.375
5.47,1533196357.390625
3.33,1533196357.40625
0.85,1533196357.421875
-2.02,1533196357.4375
-5.14,1533196357.453125
-8.22,1533196357.46875
-10.9,1533196357.484375
-12.98,1533196357.5
-14.44,1533196357.515625
-15.51,1533196357.53125
-16.55,1533196357.546875
-17.83,1533196357.5625
-19.42,1533196357.578125
-21.16,1533196357.59375
-22.75,1533196357.609375
-23.92,1533196357.625
-24.68,1533196357.640625
-25.3,1533196357.65625
-26.26,1533196357.671875
-28.08,1533196357.6875
-31.12,1533196357.703125
-35.46,1533196357.71875
-40.84,1533196357.734375
-46.69,1533196357.75
-52.13,1533196357.765625
-56.12,1533196357.78125
-57.73,1533196357.796875
-56.37,1533196357.8125
-51.98,1533196357.828125
-45.07,1533196357.84375
-36.53,1533196357.859375
-27.33,1533196357.875
-18.2,1533196357.890625
-9.45,1533196357.90625
-1.01,1533196357.921875
7.34,1533196357.9375
15.77,1533196357.953125
24.15,1533196357.96875
32.11,1533196357.984375
39.13,1533196358.0
44.82,1533196358.015625
49.16,1533196358.03125
52.51,1533196358.046875
55.54,1533196358.0625
58.85,1533196358.078125
62.54,1533196358.09375
66.04,1533196358.109375
68.31,1533196358.125
68.19,1533196358.140625
64.98,1533196358.15625
58.76,1533196358.171875
50.43,1533196358.1875
41.28,1533196358.203125
32.63,1533196358.21875
25.39,1533196358.234375
19.91,1533196358.25
16.1,1533196358.265625
13.64,1533196358.28125
12.12,1533196358.296875
11.1,1533196358.3125
10.14,1533196358.328125
8.83,1533196358.34375
6.76,1533196358.359375
3.71,1533196358.375
-0.37,1533196358.390625
-5.32,1533196358.40625
-10.8,1533196358.421875
-16.39,1533196358.4375
-21.75,1533196358.453125
-26.68,1533196358.46875
-31.09,1533196358.484375
-34.97,1533196358.5
-38.11,1533196358.515625
-40.08,1533196358.53125
-40.2,1533196358.546875
-37.73,1533196358.5625
-32.2,1533196358.578125
-23.67,1533196358.59375
-12.88,1533196358.609375
-1.06,1533196358.625
10.36,1533196358.640625
20.25,1533196358.65625
28.0,1533196358.671875
33.68,1533196358.6875
37.79,1533196358.703125
40.97,1533196358.71875
43.72,1533196358.734375
46.25,1533196358.75
48.46,1533196358.765625
50.15,1533196358.78125
51.18,1533196358.796875
51.53,1533196358.8125
51.31,1533196358.828125
50.62,1533196358.84375
49.38,1533196358.859375
47.36,1533196358.875
44.21,1533196358.890625
39.74,1533196358.90625
34.04,1533196358.921875
27.52,1533196358.9375
20.89,1533196358.953125
14.87,1533196358.96875
10.08,1533196358.984375
6.93,1533196359.0
5.51,1533196359.015625
5.52,1533196359.03125
6.19,1533196359.046875
6.22,1533196359.0625
4.0,1533196359.078125
-1.92,1533196359.09375
-12.13,1533196359.109375
-25.96,1533196359.125
-41.48,1533196359.140625
-56.1,1533196359.15625
-67.46,1533196359.171875
-74.27,1533196359.1875
-76.59,1533196359.203125
-75.57,1533196359.21875
-72.71,1533196359.234375
-69.27,1533196359.25
-65.95,1533196359.265625
-62.97,1533196359.28125
-60.32,1533196359.296875
-57.85,1533196359.3125
-55.38,1533196359.328125
-52.56,1533196359.34375
-48.9,1533196359.359375
-43.96,1533196359.375
-37.49,1533196359.390625
-29.6,1533196359.40625
-20.73,1533196359.421875
-11.51,1533196359.4375
-2.52,1533196359.453125
5.79,1533196359.46875
13.2,1533196359.484375
19.65,1533196359.5
25.14,1533196359.515625
29.7,1533196359.53125
33.32,1533196359.546875
35.99,1533196359.5625
37.74,1533196359.578125
38.67,1533196359.59375
38.89,1533196359.609375
38.56,1533196359.625
37.82,1533196359.640625
36.8,1533196359.65625
35.64,1533196359.671875
34.47,1533196359.6875
33.4,1533196359.703125
32.48,1533196359.71875
31.64,1533196359.734375
30.74,1533196359.75
29.55,1533196359.765625
27.93,1533196359.78125
25.83,1533196359.796875
23.33,1533196359.8125
20.59,1533196359.828125
17.77,1533196359.84375
15.08,1533196359.859375
12.71,1533196359.875
10.87,1533196359.890625
9.7,1533196359.90625
9.22,1533196359.921875
9.19,1533196359.9375
9.24,1533196359.953125
8.92,1533196359.96875
7.9,1533196359.984375
6.03,1533196360.0
3.31,1533196360.015625
-0.24,1533196360.03125
-4.71,1533196360.046875
-10.35,1533196360.0625
-17.4,1533196360.078125
-25.8,1533196360.09375
-35.08,1533196360.109375
-44.23,1533196360.125
-52.0,1533196360.140625
-57.24,1533196360.15625
-59.18,1533196360.171875
-57.62,1533196360.1875
-52.81,1533196360.203125
-45.33,1533196360.21875
-35.82,1533196360.234375
-24.94,1533196360.25
-13.36,1533196360.265625
-1.81,1533196360.28125
8.91,1533196360.296875
18.04,1533196360.3125
25.01,1533196360.328125
29.56,1533196360.34375
31.84,1533196360.359375
32.29,1533196360.375
31.48,1533196360.390625
30.01,1533196360.40625
28.32,1533196360.421875
26.7,1533196360.4375
25.28,1533196360.453125
24.06,1533196360.46875
22.97,1533196360.484375
21.89,1533196360.5
20.69,1533196360.515625
19.22,1533196360.53125
17.42,1533196360.546875
15.26,1533196360.5625
12.81,1533196360.578125
10.17,1533196360.59375
7.46,1533196360.609375
4.77,1533196360.625
2.15,1533196360.640625
-0.46,1533196360.65625
-3.16,1533196360.671875
-6.1,1533196360.6875
-9.4,1533196360.703125
-13.12,1533196360.71875
-17.2,1533196360.734375
-21.5,1533196360.75
-25.83,1533196360.765625
-29.97,1533196360.78125
-33.82,1533196360.796875
-37.39,1533196360.8125
-40.84,1533196360.828125
-44.37,1533196360.84375
-48.14,1533196360.859375
-52.0,1533196360.875
-55.55,1533196360.890625
-58.12,1533196360.90625
-58.99,1533196360.921875
-57.66,1533196360.9375
-54.12,1533196360.953125
-48.77,1533196360.96875
-42.37,1533196360.984375
-35.75,1533196361.0
-29.49,1533196361.015625
-23.88,1533196361.03125
-18.9,1533196361.046875
-14.36,1533196361.0625
-10.04,1533196361.078125
-5.92,1533196361.09375
-2.11,1533196361.109375
1.15,1533196361.125
3.63,1533196361.140625
5.25,1533196361.15625
6.07,1533196361.171875
6.29,1533196361.1875
6.13,1533196361.203125
5.68,1533196361.21875
4.88,1533196361.234375
3.61,1533196361.25
1.74,1533196361.265625
-0.7,1533196361.28125
-3.47,1533196361.296875
-6.23,1533196361.3125
-8.65,1533196361.328125
-10.58,1533196361.34375
-12.03,1533196361.359375
-13.22,1533196361.375
-14.36,1533196361.390625
-15.62,1533196361.40625
-17.02,1533196361.421875
-18.48,1533196361.4375
-19.89,1533196361.453125
-21.18,1533196361.46875
-22.34,1533196361.484375
-23.39,1533196361.5
-24.33,1533196361.515625
-25.18,1533196361.53125
-25.95,1533196361.546875
-26.75,1533196361.5625
-27.82,1533196361.578125
-29.41,1533196361.59375
-31.64,1533196361.609375
-34.27,1533196361.625
-36.69,1533196361.640625
-38.03,1533196361.65625
-37.45,1533196361.671875
-34.48,1533196361.6875
-29.2,1533196361.703125
-22.14,1533196361.71875
-14.12,1533196361.734375
-5.91,1533196361.75
1.98,1533196361.765625
9.34,1533196361.78125
16.21,1533196361.796875
22.7,1533196361.8125
28.87,1533196361.828125
34.6,1533196361.84375
39.65,1533196361.859375
43.7,1533196361.875
46.55,1533196361.890625
48.19,1533196361.90625
48.85,1533196361.921875
48.97,1533196361.9375
49.01,1533196361.953125
49.28,1533196361.96875
49.87,1533196361.984375
50.58,1533196362.0
51.11,1533196362.015625
51.2,1533196362.03125
50.75,1533196362.046875
49.79,1533196362.0625
48.45,1533196362.078125
46.85,1533196362.09375
45.01,1533196362.109375
42.87,1533196362.125
40.28,1533196362.140625
37.09,1533196362.15625
33.18,1533196362.171875
28.52,1533196362.1875
23.18,1533196362.203125
17.37,1533196362.21875
11.37,1533196362.234375
5.51,1533196362.25
0.06,1533196362.265625
-4.86,1533196362.28125
-9.23,1533196362.296875
-13.22,1533196362.3125
-17.11,1533196362.328125
-21.28,1533196362.34375
-26.05,1533196362.359375
-31.59,1533196362.375
-37.76,1533196362.390625
-44.0,1533196362.40625
-49.44,1533196362.421875
-53.03,1533196362.4375
-53.99,1533196362.453125
-51.99,1533196362.46875
-47.32,1533196362.484375
-40.75,1533196362.5
-33.22,1533196362.515625
-25.45,1533196362.53125
-17.84,1533196362.546875
-10.4,1533196362.5625
-3.01,1533196362.578125
4.35,1533196362.59375
11.44,1533196362.609375
17.81,1533196362.625
22.91,1533196362.640625
26.4,1533196362.65625
28.25,1533196362.671875
28.79,1533196362.6875
28.62,1533196362.703125
28.3,1533196362.71875
28.19,1533196362.734375
28.4,1533196362.75
28.72,1533196362.765625
28.88,1533196362.78125
28.61,1533196362.796875
27.82,1533196362.8125
26.54,1533196362.828125
24.9,1533196362.84375
23.0,1533196362.859375
20.86,1533196362.875
18.51,1533196362.890625
15.94,1533196362.90625
13.15,1533196362.921875
10.17,1533196362.9375
7.0,1533196362.953125
3.6,1533196362.96875
-0.02,1533196362.984375
-3.82,1533196363.0
-7.66,1533196363.015625
-11.39,1533196363.03125
-14.98,1533196363.046875
-18.53,1533196363.0625
-22.29,1533196363.078125
-26.56,1533196363.09375
-31.59,1533196363.109375
-37.39,1533196363.125
-43.7,1533196363.140625
-49.98,1533196363.15625
-55.51,1533196363.171875
-59.49,1533196363.1875
-61.24,1533196363.203125
-60.3,1533196363.21875
-56.65,1533196363.234375
-50.66,1533196363.25
-43.06,1533196363.265625
-34.71,1533196363.28125
-26.32,1533196363.296875
-18.31,1533196363.3125
-10.69,1533196363.328125
-3.26,1533196363.34375
4.16,1533196363.359375
11.5,1533196363.375
18.39,1533196363.390625
24.27,1533196363.40625
28.7,1533196363.421875
31.55,1533196363.4375
33.08,1533196363.453125
33.75,1533196363.46875
34.06,1533196363.484375
34.35,1533196363.5
34.7,1533196363.515625
35.08,1533196363.53125
35.44,1533196363.546875
35.74,1533196363.5625
35.98,1533196363.578125
36.16,1533196363.59375
36.13,1533196363.609375
35.69,1533196363.625
34.66,1533196363.640625
32.93,1533196363.65625
30.58,1533196363.671875
27.78,1533196363.6875
24.74,1533196363.703125
21.59,1533196363.71875
18.39,1533196363.734375
15.07,1533196363.75
11.56,1533196363.765625
7.84,1533196363.78125
3.94,1533196363.796875
-0.05,1533196363.8125
-4.14,1533196363.828125
-8.37,1533196363.84375
-12.91,1533196363.859375
-17.92,1533196363.875
-23.54,1533196363.890625
-29.76,1533196363.90625
-36.36,1533196363.921875
-42.86,1533196363.9375
-48.52,1533196363.953125
-52.44,1533196363.96875
-53.76,1533196363.984375
-51.96,1533196364.0
-47.07,1533196364.015625
-39.71,1533196364.03125
-30.92,1533196364.046875
-21.72,1533196364.0625
-12.79,1533196364.078125
-4.33,1533196364.09375
3.86,1533196364.109375
11.97,1533196364.125
19.93,1533196364.140625
27.25,1533196364.15625
33.28,1533196364.171875
37.48,1533196364.1875
39.75,1533196364.203125
40.47,1533196364.21875
40.32,1533196364.234375
39.95,1533196364.25
39.71,1533196364.265625
39.58,1533196364.28125
39.26,1533196364.296875
38.43,1533196364.3125
36.96,1533196364.328125
35.0,1533196364.34375
32.86,1533196364.359375
30.84,1533196364.375
29.09,1533196364.390625
27.5,1533196364.40625
25.79,1533196364.421875
23.58,1533196364.4375
20.65,1533196364.453125
16.94,1533196364.46875
12.63,1533196364.484375
8.03,1533196364.5
3.47,1533196364.515625
-0.77,1533196364.53125
-4.57,1533196364.546875
-7.95,1533196364.5625
-11.08,1533196364.578125
-14.21,1533196364.59375
-17.68,1533196364.609375
-21.82,1533196364.625
-26.86,1533196364.640625
-32.82,1533196364.65625
-39.38,1533196364.671875
-45.81,1533196364.6875
-51.15,1533196364.703125
-54.35,1533196364.71875
-54.59,1533196364.734375
-51.6,1533196364.75
-45.63,1533196364.765625
-37.47,1533196364.78125
-28.09,1533196364.796875
-18.35,1533196364.8125
-8.86,1533196364.828125
0.18,1533196364.84375
8.76,1533196364.859375
16.93,1533196364.875
24.64,1533196364.890625
31.67,1533196364.90625
37.73,1533196364.921875
42.56,1533196364.9375
46.06,1533196364.953125
48.3,1533196364.96875
49.48,1533196364.984375
49.9,1533196365.0
49.83,1533196365.015625
49.47,1533196365.03125
48.96,1533196365.046875
48.37,1533196365.0625
47.79,1533196365.078125
47.3,1533196365.09375
46.93,1533196365.109375
46.67,1533196365.125
46.36,1533196365.140625
45.78,1533196365.15625
44.72,1533196365.171875
43.04,1533196365.1875
40.77,1533196365.203125
38.09,1533196365.21875
35.24,1533196365.234375
32.39,1533196365.25
29.62,1533196365.265625
26.83,1533196365.28125
23.86,1533196365.296875
20.56,1533196365.3125
16.89,1533196365.328125
12.92,1533196365.34375
8.79,1533196365.359375
4.64,1533196365.375
0.45,1533196365.390625
-3.94,1533196365.40625
-8.79,1533196365.421875
-14.34,1533196365.4375
-20.53,1533196365.453125
-26.89,1533196365.46875
-32.5,1533196365.484375
-36.18,1533196365.5
-36.88,1533196365.515625
-34.03,1533196365.53125
-27.78,1533196365.546875
-18.9,1533196365.5625
-8.5,1533196365.578125
2.4,1533196365.59375
13.1,1533196365.609375
23.29,1533196365.625
32.82,1533196365.640625
41.52,1533196365.65625
48.98,1533196365.671875
54.66,1533196365.6875
58.05,1533196365.703125
58.86,1533196365.71875
57.14,1533196365.734375
53.15,1533196365.75
47.3,1533196365.765625
40.03,1533196365.78125
31.8,1533196365.796875
23.13,1533196365.8125
14.57,1533196365.828125
6.7,1533196365.84375
-0.06,1533196365.859375
-5.57,1533196365.875
-9.96,1533196365.890625
-13.59,1533196365.90625
-16.83,1533196365.921875
-19.96,1533196365.9375
-23.05,1533196365.953125
-26.04,1533196365.96875
-28.86,1533196365.984375
-31.47,1533196366.0
-33.96,1533196366.015625
-36.47,1533196366.03125
-39.17,1533196366.046875
-42.23,1533196366.0625
-45.79,1533196366.078125
-49.95,1533196366.09375
-54.69,1533196366.109375
-59.82,1533196366.125
-64.87,1533196366.140625
-69.21,1533196366.15625
-72.11,1533196366.171875
-73.01,1533196366.1875
-71.66,1533196366.203125
-68.31,1533196366.21875
-63.59,1533196366.234375
-58.38,1533196366.25
-53.57,1533196366.265625
-49.76,1533196366.28125
-47.12,1533196366.296875
-45.24,1533196366.3125
-43.3,1533196366.328125
-40.29,1533196366.34375
-35.4,1533196366.359375
-28.28,1533196366.375
-19.15,1533196366.390625
-8.7,1533196366.40625
2.2,1533196366.421875
12.74,1533196366.4375
22.35,1533196366.453125
30.72,1533196366.46875
37.75,1533196366.484375
43.41,1533196366.5
47.74,1533196366.515625
50.78,1533196366.53125
52.57,1533196366.546875
53.14,1533196366.5625
52.47,1533196366.578125
50.63,1533196366.59375
47.75,1533196366.609375
44.11,1533196366.625
40.11,1533196366.640625
36.16,1533196366.65625
32.6,1533196366.671875
29.62,1533196366.6875
27.33,1533196366.703125
25.75,1533196366.71875
24.83,1533196366.734375
24.43,1533196366.75
24.3,1533196366.765625
24.06,1533196366.78125
23.34,1533196366.796875
21.89,1533196366.8125
19.7,1533196366.828125
17.03,1533196366.84375
14.24,1533196366.859375
11.61,1533196366.875
9.23,1533196366.890625
6.97,1533196366.90625
4.56,1533196366.921875
1.76,1533196366.9375
-1.5,1533196366.953125
-5.05,1533196366.96875
-8.55,1533196366.984375
-11.72,1533196367.0
-14.4,1533196367.015625
-16.73,1533196367.03125
-19.06,1533196367.046875
-21.81,1533196367.0625
-25.34,1533196367.078125
-29.72,1533196367.09375
-34.68,1533196367.109375
-39.61,1533196367.125
-43.71,1533196367.140625
-46.11,1533196367.15625
-46.12,1533196367.171875
-43.43,1533196367.1875
-38.21,1533196367.203125
-31.03,1533196367.21875
-22.76,1533196367.234375
-14.29,1533196367.25
-6.3,1533196367.265625
0.87,1533196367.28125
7.21,1533196367.296875
12.97,1533196367.3125
18.4,1533196367.328125
23.66,1533196367.34375
28.68,1533196367.359375
33.2,1533196367.375
36.95,1533196367.390625
39.75,1533196367.40625
41.62,1533196367.421875
42.81,1533196367.4375
43.68,1533196367.453125
44.57,1533196367.46875
45.73,1533196367.484375
47.22,1533196367.5
48.97,1533196367.515625
50.78,1533196367.53125
52.36,1533196367.546875
53.36,1533196367.5625
53.4,1533196367.578125
52.24,1533196367.59375
49.72,1533196367.609375
45.89,1533196367.625
40.88,1533196367.640625
34.86,1533196367.65625
27.99,1533196367.671875
20.45,1533196367.6875
12.46,1533196367.703125
4.44,1533196367.71875
-3.13,1533196367.734375
-9.77,1533196367.75
-15.27,1533196367.765625
-19.73,1533196367.78125
-23.65,1533196367.796875
-27.63,1533196367.8125
-32.22,1533196367.828125
-37.62,1533196367.84375
-43.57,1533196367.859375
-49.5,1533196367.875
-54.74,1533196367.890625
-58.76,1533196367.90625
-61.35,1533196367.921875
-62.62,1533196367.9375
-62.84,1533196367.953125
-62.28,1533196367.96875
-61.04,1533196367.984375
-59.09,1533196368.0
-56.25,1533196368.015625
-52.29,1533196368.03125
-46.81,1533196368.046875
-39.27,1533196368.0625
-29.15,1533196368.078125
-16.42,1533196368.09375
-2.06,1533196368.109375
11.61,1533196368.125
21.3,1533196368.140625
23.77,1533196368.15625
17.21,1533196368.171875
2.15,1533196368.1875
-18.54,1533196368.203125
-40.6,1533196368.21875
-60.03,1533196368.234375
-74.25,1533196368.25
-82.61,1533196368.265625
-85.81,1533196368.28125
-85.05,1533196368.296875
-81.2,1533196368.3125
-74.72,1533196368.328125
-66.01,1533196368.34375
-55.93,1533196368.359375
-45.92,1533196368.375
-37.7,1533196368.390625
-32.54,1533196368.40625
-30.78,1533196368.421875
-31.72,1533196368.4375
-33.9,1533196368.453125
-35.8,1533196368.46875
-36.35,1533196368.484375
-35.29,1533196368.5
-33.02,1533196368.515625
-30.28,1533196368.53125
-27.68,1533196368.546875
-25.47,1533196368.5625
-23.49,1533196368.578125
-21.34,1533196368.59375
-18.64,1533196368.609375
-15.25,1533196368.625
-11.41,1533196368.640625
-7.58,1533196368.65625
-4.3,1533196368.671875
-2.02,1533196368.6875
-0.89,1533196368.703125
-0.79,1533196368.71875
-1.35,1533196368.734375
-2.01,1533196368.75
-2.12,1533196368.765625
-1.09,1533196368.78125
1.47,1533196368.796875
5.61,1533196368.8125
11.0,1533196368.828125
17.11,1533196368.84375
23.3,1533196368.859375
29.12,1533196368.875
34.33,1533196368.890625
38.87,1533196368.90625
42.71,1533196368.921875
45.77,1533196368.9375
47.92,1533196368.953125
49.11,1533196368.96875
49.54,1533196368.984375
49.55,1533196369.0
49.58,1533196369.015625
49.91,1533196369.03125
50.56,1533196369.046875
51.3,1533196369.0625
51.76,1533196369.078125
51.62,1533196369.09375
50.69,1533196369.109375
48.94,1533196369.125
46.51,1533196369.140625
43.63,1533196369.15625
40.6,1533196369.171875
37.7,1533196369.1875
35.16,1533196369.203125
33.08,1533196369.21875
31.48,1533196369.234375
30.27,1533196369.25
29.32,1533196369.265625
28.46,1533196369.28125
27.5,1533196369.296875
26.19,1533196369.3125
24.26,1533196369.328125
21.57,1533196369.34375
18.12,1533196369.359375
14.1,1533196369.375
9.8,1533196369.390625
5.45,1533196369.40625
1.16,1533196369.421875
-3.09,1533196369.4375
-7.35,1533196369.453125
-11.6,1533196369.46875
-15.83,1533196369.484375
-20.05,1533196369.5
-24.36,1533196369.515625
-28.86,1533196369.53125
-33.45,1533196369.546875
-37.69,1533196369.5625
-40.79,1533196369.578125
-41.88,1533196369.59375
-40.36,1533196369.609375
-36.18,1533196369.625
-29.94,1533196369.640625
-22.75,1533196369.65625
-15.82,1533196369.671875
-10.21,1533196369.6875
-6.55,1533196369.703125
-5.01,1533196369.71875
-5.34,1533196369.734375
-6.97,1533196369.75
-9.17,1533196369.765625
-11.17,1533196369.78125
-12.38,1533196369.796875
-12.49,1533196369.8125
-11.59,1533196369.828125
-10.06,1533196369.84375
-8.39,1533196369.859375
-7.03,1533196369.875
-6.2,1533196369.890625
-5.95,1533196369.90625
-6.15,1533196369.921875
-6.62,1533196369.9375
-7.19,1533196369.953125
-7.74,1533196369.96875
-8.2,1533196369.984375
-8.61,1533196370.0
-9.16,1533196370.015625
-10.2,1533196370.03125
-12.15,1533196370.046875
-15.34,1533196370.0625
-19.85,1533196370.078125
-25.42,1533196370.09375
-31.48,1533196370.109375
-37.42,1533196370.125
-42.72,1533196370.140625
-47.18,1533196370.15625
-50.88,1533196370.171875
-54.09,1533196370.1875
-57.08,1533196370.203125
-60.1,1533196370.21875
-63.27,1533196370.234375
-66.6,1533196370.25
-69.92,1533196370.265625
-72.81,1533196370.28125
-74.61,1533196370.296875
-74.56,1533196370.3125
-72.01,1533196370.328125
-66.7,1533196370.34375
-58.86,1533196370.359375
-49.19,1533196370.375
-38.57,1533196370.390625
-27.77,1533196370.40625
-17.22,1533196370.421875
-7.05,1533196370.4375
2.79,1533196370.453125
12.27,1533196370.46875
21.24,1533196370.484375
29.41,1533196370.5
36.51,1533196370.515625
42.38,1533196370.53125
47.01,1533196370.546875
50.57,1533196370.5625
53.32,1533196370.578125
55.54,1533196370.59375
57.45,1533196370.609375
59.15,1533196370.625
60.6,1533196370.640625
61.62,1533196370.65625
61.98,1533196370.671875
61.49,1533196370.6875
60.14,1533196370.703125
58.06,1533196370.71875
55.46,1533196370.734375
52.54,1533196370.75
49.32,1533196370.765625
45.69,1533196370.78125
41.46,1533196370.796875
36.5,1533196370.8125
30.88,1533196370.828125
24.84,1533196370.84375
18.73,1533196370.859375
12.85,1533196370.875
7.37,1533196370.890625
2.24,1533196370.90625
-2.74,1533196370.921875
-7.83,1533196370.9375
-13.35,1533196370.953125
-19.6,1533196370.96875
-26.79,1533196370.984375
-35.01,1533196371.0
-43.99,1533196371.015625
-53.06,1533196371.03125
-61.17,1533196371.046875
-67.12,1533196371.0625
-69.97,1533196371.078125
-69.35,1533196371.09375
-65.61,1533196371.109375
-59.64,1533196371.125
-52.56,1533196371.140625
-45.25,1533196371.15625
-38.17,1533196371.171875
-31.3,1533196371.1875
-24.36,1533196371.203125
-17.07,1533196371.21875
-9.37,1533196371.234375
-1.48,1533196371.25
6.1,1533196371.265625
12.86,1533196371.28125
18.35,1533196371.296875
22.37,1533196371.3125
24.99,1533196371.328125
26.48,1533196371.34375
27.12,1533196371.359375
27.19,1533196371.375
26.82,1533196371.390625
26.09,1533196371.40625
25.08,1533196371.421875
23.94,1533196371.4375
22.87,1533196371.453125
22.04,1533196371.46875
21.5,1533196371.484375
21.12,1533196371.5
20.62,1533196371.515625
19.62,1533196371.53125
17.82,1533196371.546875
15.06,1533196371.5625
11.44,1533196371.578125
7.26,1533196371.59375
2.92,1533196371.609375
-1.24,1533196371.625
-5.01,1533196371.640625
-8.4,1533196371.65625
-11.6,1533196371.671875
-14.87,1533196371.6875
-18.47,1533196371.703125
-22.61,1533196371.71875
-27.44,1533196371.734375
-32.93,1533196371.75
-38.81,1533196371.765625
-44.47,1533196371.78125
-49.06,1533196371.796875
-51.64,1533196371.8125
-51.54,1533196371.828125
-48.56,1533196371.84375
-43.07,1533196371.859375
-35.85,1533196371.875
-27.74,1533196371.890625
-19.43,1533196371.90625
-11.23,1533196371.921875
-3.14,1533196371.9375
4.96,1533196371.953125
13.13,1533196371.96875
21.18,1533196371.984375
28.73,1533196372.0
35.27,1533196372.015625
40.36,1533196372.03125
43.82,1533196372.046875
45.82,1533196372.0625
46.77,1533196372.078125
47.25,1533196372.09375
47.7,1533196372.109375
48.33,1533196372.125
49.01,1533196372.140625
49.47,1533196372.15625
49.39,1533196372.171875
48.62,1533196372.1875
47.2,1533196372.203125
45.29,1533196372.21875
43.02,1533196372.234375
40.48,1533196372.25
37.62,1533196372.265625
34.35,1533196372.28125
30.6,1533196372.296875
26.38,1533196372.3125
21.82,1533196372.328125
17.13,1533196372.34375
12.51,1533196372.359375
8.14,1533196372.375
4.09,1533196372.390625
0.31,1533196372.40625
-3.34,1533196372.421875
-7.06,1533196372.4375
-11.11,1533196372.453125
-15.74,1533196372.46875
-21.08,1533196372.484375
-27.1,1533196372.5
-33.45,1533196372.515625
-39.45,1533196372.53125
-44.12,1533196372.546875
-46.5,1533196372.5625
-45.92,1533196372.578125
-42.27,1533196372.59375
-36.08,1533196372.609375
-28.31,1533196372.625
-20.03,1533196372.640625
-11.97,1533196372.65625
-4.46,1533196372.671875
2.63,1533196372.6875
9.54,1533196372.703125
16.39,1533196372.71875
23.01,1533196372.734375
29.01,1533196372.75
33.97,1533196372.765625
37.57,1533196372.78125
39.78,1533196372.796875
40.83,1533196372.8125
41.16,1533196372.828125
41.24,1533196372.84375
41.43,1533196372.859375
41.89,1533196372.875
42.5,1533196372.890625
43.0,1533196372.90625
43.04,1533196372.921875
42.37,1533196372.9375
40.94,1533196372.953125
38.84,1533196372.96875
36.26,1533196372.984375
33.35,1533196373.0
30.19,1533196373.015625
26.75,1533196373.03125
23.01,1533196373.046875
19.0,1533196373.0625
14.78,1533196373.078125
10.49,1533196373.09375
6.23,1533196373.109375
2.14,1533196373.125
-1.71,1533196373.140625
-5.32,1533196373.15625
-8.82,1533196373.171875
-12.44,1533196373.1875
-16.5,1533196373.203125
-21.25,1533196373.21875
-26.82,1533196373.234375
-33.07,1533196373.25
-39.62,1533196373.265625
-45.83,1533196373.28125
-50.84,1533196373.296875
-53.77,1533196373.3125
-53.9,1533196373.328125
-50.85,1533196373.34375
-44.83,1533196373.359375
-36.51,1533196373.375
-26.92,1533196373.390625
-17.04,1533196373.40625
-7.52,1533196373.421875
1.41,1533196373.4375
9.9,1533196373.453125
18.2,1533196373.46875
26.45,1533196373.484375
34.53,1533196373.5
42.08,1533196373.515625
48.6,1533196373.53125
53.68,1533196373.546875
57.08,1533196373.5625
58.89,1533196373.578125
59.44,1533196373.59375
59.22,1533196373.609375
58.69,1533196373.625
58.17,1533196373.640625
57.78,1533196373.65625
57.47,1533196373.671875
57.06,1533196373.6875
56.34,1533196373.703125
55.07,1533196373.71875
53.03,1533196373.734375
50.01,1533196373.75
45.92,1533196373.765625
40.86,1533196373.78125
35.09,1533196373.796875
28.97,1533196373.8125
22.84,1533196373.828125
16.89,1533196373.84375
11.16,1533196373.859375
5.63,1533196373.875
0.3,1533196373.890625
-4.77,1533196373.90625
-9.47,1533196373.921875
-13.74,1533196373.9375
-17.65,1533196373.953125
-21.32,1533196373.96875
-24.97,1533196373.984375
-28.78,1533196374.0
-32.92,1533196374.015625
-37.48,1533196374.03125
-42.51,1533196374.046875
-47.88,1533196374.0625
-53.2,1533196374.078125
-57.79,1533196374.09375
-60.74,1533196374.109375
-61.19,1533196374.125
-58.65,1533196374.140625
-53.15,1533196374.15625
-45.28,1533196374.171875
-35.98,1533196374.1875
-26.16,1533196374.203125
-16.51,1533196374.21875
-7.38,1533196374.234375
1.13,1533196374.25
8.96,1533196374.265625
16.04,1533196374.28125
22.27,1533196374.296875
27.59,1533196374.3125
32.0,1533196374.328125
35.59,1533196374.34375
38.38,1533196374.359375
40.38,1533196374.375
41.55,1533196374.390625
41.9,1533196374.40625
41.53,1533196374.421875
40.64,1533196374.4375
39.42,1533196374.453125
38.06,1533196374.46875
36.64,1533196374.484375
35.21,1533196374.5
33.76,1533196374.515625
32.26,1533196374.53125
30.6,1533196374.546875
28.63,1533196374.5625
26.27,1533196374.578125
23.55,1533196374.59375
20.68,1533196374.609375
17.93,1533196374.625
15.51,1533196374.640625
13.48,1533196374.65625
11.62,1533196374.671875
9.58,1533196374.6875
7.0,1533196374.703125
3.71,1533196374.71875
-0.27,1533196374.734375
-4.73,1533196374.75
-9.4,1533196374.765625
-14.05,1533196374.78125
-18.52,1533196374.796875
-22.75,1533196374.8125
-26.77,1533196374.828125
-30.63,1533196374.84375
-34.39,1533196374.859375
-38.08,1533196374.875
-41.68,1533196374.890625
-45.08,1533196374.90625
-48.05,1533196374.921875
-50.26,1533196374.9375
-51.37,1533196374.953125
-51.1,1533196374.96875
-49.42,1533196374.984375
-46.48,1533196375.0
-42.63,1533196375.015625
-38.23,1533196375.03125
-33.62,1533196375.046875
-29.03,1533196375.0625
-24.65,1533196375.078125
-20.66,1533196375.09375
-17.22,1533196375.109375
-14.45,1533196375.125
-12.26,1533196375.140625
-10.39,1533196375.15625
-8.43,1533196375.171875
-6.06,1533196375.1875
-3.16,1533196375.203125
0.1,1533196375.21875
3.4,1533196375.234375
6.47,1533196375.25
9.16,1533196375.265625
11.51,1533196375.28125
13.57,1533196375.296875
15.28,1533196375.3125
16.41,1533196375.328125
16.74,1533196375.34375
16.13,1533196375.359375
14.74,1533196375.375
12.92,1533196375.390625
11.01,1533196375.40625
9.19,1533196375.421875
7.42,1533196375.4375
5.48,1533196375.453125
3.2,1533196375.46875
0.58,1533196375.484375
-2.23,1533196375.5
-4.96,1533196375.515625
-7.43,1533196375.53125
-9.64,1533196375.546875
-11.72,1533196375.5625
-13.9,1533196375.578125
-16.36,1533196375.59375
-19.27,1533196375.609375
-22.75,1533196375.625
-26.98,1533196375.640625
-32.12,1533196375.65625
-38.12,1533196375.671875
-44.69,1533196375.6875
-51.06,1533196375.703125
-56.22,1533196375.71875
-59.15,1533196375.734375
-59.12,1533196375.75
-55.99,1533196375.765625
-50.22,1533196375.78125
-42.69,1533196375.796875
-34.37,1533196375.8125
-26.04,1533196375.828125
-18.13,1533196375.84375
-10.74,1533196375.859375
-3.81,1533196375.875
2.72,1533196375.890625
8.79,1533196375.90625
14.17,1533196375.921875
18.59,1533196375.9375
21.86,1533196375.953125
23.98,1533196375.96875
25.2,1533196375.984375
25.9,1533196376.0
26.45,1533196376.015625
27.07,1533196376.03125
27.73,1533196376.046875
28.26,1533196376.0625
28.44,1533196376.078125
28.18,1533196376.09375
27.47,1533196376.109375
26.44,1533196376.125
25.2,1533196376.140625
23.79,1533196376.15625
22.22,1533196376.171875
20.49,1533196376.1875
18.71,1533196376.203125
17.02,1533196376.21875
15.54,1533196376.234375
14.31,1533196376.25
13.19,1533196376.265625
11.93,1533196376.28125
10.24,1533196376.296875
7.95,1533196376.3125
5.08,1533196376.328125
1.82,1533196376.34375
-1.55,1533196376.359375
-4.85,1533196376.375
-8.04,1533196376.390625
-11.28,1533196376.40625
-14.79,1533196376.421875
-18.71,1533196376.4375
-22.96,1533196376.453125
-27.11,1533196376.46875
-30.43,1533196376.484375
-32.13,1533196376.5
-31.53,1533196376.515625
-28.33,1533196376.53125
-22.74,1533196376.546875
-15.38,1533196376.5625
-7.08,1533196376.578125
1.37,1533196376.59375
9.44,1533196376.609375
17.01,1533196376.625
24.24,1533196376.640625
31.4,1533196376.65625
38.61,1533196376.671875
45.72,1533196376.6875
52.26,1533196376.703125
57.62,1533196376.71875
61.29,1533196376.734375
63.1,1533196376.75
63.33,1533196376.765625
62.58,1533196376.78125
61.63,1533196376.796875
61.06,1533196376.8125
61.09,1533196376.828125
61.48,1533196376.84375
61.7,1533196376.859375
61.05,1533196376.875
58.97,1533196376.890625
55.17,1533196376.90625
49.8,1533196376.921875
43.34,1533196376.9375
36.53,1533196376.953125
30.15,1533196376.96875
24.77,1533196376.984375
20.45,1533196377.0
16.83,1533196377.015625
13.23,1533196377.03125
9.07,1533196377.046875
4.14,1533196377.0625
-1.2,1533196377.078125
-6.18,1533196377.09375
-10.08,1533196377.109375
-12.57,1533196377.125
-13.98,1533196377.140625
-15.16,1533196377.15625
-17.04,1533196377.171875
-20.27,1533196377.1875
-24.94,1533196377.203125
-30.65,1533196377.21875
-36.75,1533196377.234375
-42.29,1533196377.25
-46.2,1533196377.265625
-47.25,1533196377.28125
-44.49,1533196377.296875
-37.93,1533196377.3125
-29.16,1533196377.328125
-21.37,1533196377.34375
-18.45,1533196377.359375
-23.43,1533196377.375
-37.02,1533196377.390625
-57.02,1533196377.40625
-79.08,1533196377.421875
-98.4,1533196377.4375
-111.55,1533196377.453125
-117.39,1533196377.46875
-116.76,1533196377.484375
-111.49,1533196377.5
-103.24,1533196377.515625
-92.95,1533196377.53125
-81.06,1533196377.546875
-68.02,1533196377.5625
-54.58,1533196377.578125
-41.8,1533196377.59375
-30.59,1533196377.609375
-21.28,1533196377.625
-13.56,1533196377.640625
-6.71,1533196377.65625
-0.01,1533196377.671875
6.87,1533196377.6875
13.79,1533196377.703125
20.32,1533196377.71875
26.0,1533196377.734375
30.6,1533196377.75
34.1,1533196377.765625
36.68,1533196377.78125
38.47,1533196377.796875
39.55,1533196377.8125
39.86,1533196377.828125
39.32,1533196377.84375
37.91,1533196377.859375
35.71,1533196377.875
32.91,1533196377.890625
29.72,1533196377.90625
26.31,1533196377.921875
22.79,1533196377.9375
19.16,1533196377.953125
15.29,1533196377.96875
10.98,1533196377.984375
5.96,1533196378.0
0.02,1533196378.015625
-6.83,1533196378.03125
-14.24,1533196378.046875
-21.49,1533196378.0625
-27.65,1533196378.078125
-31.84,1533196378.09375
-33.51,1533196378.109375
-32.53,1533196378.125
-29.19,1533196378.140625
-23.96,1533196378.15625
-17.39,1533196378.171875
-9.91,1533196378.1875
-1.94,1533196378.203125
6.16,1533196378.21875
14.07,1533196378.234375
21.54,1533196378.25
28.36,1533196378.265625
34.42,1533196378.28125
39.52,1533196378.296875
43.44,1533196378.3125
45.97,1533196378.328125
47.04,1533196378.34375
46.84,1533196378.359375
45.84,1533196378.375
44.6,1533196378.390625
43.57,1533196378.40625
42.89,1533196378.421875
42.41,1533196378.4375
41.93,1533196378.453125
41.31,1533196378.46875
40.63,1533196378.484375
40.04,1533196378.5
39.63,1533196378.515625
39.26,1533196378.53125
38.6,1533196378.546875
37.2,1533196378.5625
34.76,1533196378.578125
31.18,1533196378.59375
26.58,1533196378.609375
21.18,1533196378.625
15.3,1533196378.640625
9.2,1533196378.65625
3.15,1533196378.671875
-2.58,1533196378.6875
-7.86,1533196378.703125
-12.7,1533196378.71875
-17.41,1533196378.734375
-22.52,1533196378.75
-28.67,1533196378.765625
-36.37,1533196378.78125
-45.73,1533196378.796875
-56.29,1533196378.8125
-67.09,1533196378.828125
-76.84,1533196378.84375
-84.23,1533196378.859375
-88.32,1533196378.875
-88.7,1533196378.890625
-85.61,1533196378.90625
-79.76,1533196378.921875
-72.12,1533196378.9375
-63.55,1533196378.953125
-54.76,1533196378.96875
-46.23,1533196378.984375
-38.26,1533196379.0
-31.08,1533196379.015625
-24.84,1533196379.03125
-19.51,1533196379.046875
-14.93,1533196379.0625
-10.86,1533196379.078125
-7.21,1533196379.09375
-4.16,1533196379.109375
-2.17,1533196379.125
-1.71,1533196379.140625
-3.0,1533196379.15625
-5.75,1533196379.171875
-9.22,1533196379.1875
-12.5,1533196379.203125
-14.85,1533196379.21875
-15.91,1533196379.234375
-15.71,1533196379.25
-14.58,1533196379.265625
-12.93,1533196379.28125
-11.15,1533196379.296875
-9.59,1533196379.3125
-8.52,1533196379.328125
-8.07,1533196379.34375
-8.13,1533196379.359375
-8.38,1533196379.375
-8.35,1533196379.390625
-7.67,1533196379.40625
-6.33,1533196379.421875
-4.8,1533196379.4375
-3.81,1533196379.453125
-4.18,1533196379.46875
-6.48,1533196379.484375
-10.83,1533196379.5
-16.89,1533196379.515625
-23.94,1533196379.53125
-30.99,1533196379.546875
-36.99,1533196379.5625
-41.0,1533196379.578125
-42.35,1533196379.59375
-40.76,1533196379.609375
-36.48,1533196379.625
-30.2,1533196379.640625
-22.89,1533196379.65625
-15.48,1533196379.671875
-8.62,1533196379.6875
-2.51,1533196379.703125
3.03,1533196379.71875
8.39,1533196379.734375
13.89,1533196379.75
19.6,1533196379.765625
25.28,1533196379.78125
30.47,1533196379.796875
34.67,1533196379.8125
37.52,1533196379.828125
38.99,1533196379.84375
39.32,1533196379.859375
38.96,1533196379.875
38.34,1533196379.890625
37.78,1533196379.90625
37.35,1533196379.921875
36.94,1533196379.9375
36.36,1533196379.953125
35.5,1533196379.96875
34.35,1533196379.984375
33.03,1533196380.0
31.66,1533196380.015625
30.28,1533196380.03125
28.71,1533196380.046875
26.65,1533196380.0625
23.81,1533196380.078125
20.01,1533196380.09375
15.38,1533196380.109375
10.3,1533196380.125
5.35,1533196380.140625
1.05,1533196380.15625
-2.32,1533196380.171875
-4.82,1533196380.1875
-6.77,1533196380.203125
-8.6,1533196380.21875
-10.68,1533196380.234375
-13.2,1533196380.25
-16.21,1533196380.265625
-19.6,1533196380.28125
-23.15,1533196380.296875
-26.4,1533196380.3125
-28.71,1533196380.328125
-29.28,1533196380.34375
-27.41,1533196380.359375
-22.77,1533196380.375
-15.55,1533196380.390625
-6.45,1533196380.40625
3.57,1533196380.421875
13.64,1533196380.4375
23.29,1533196380.453125
32.45,1533196380.46875
41.39,1533196380.484375
50.43,1533196380.5
59.71,1533196380.515625
69.04,1533196380.53125
77.97,1533196380.546875
85.79,1533196380.5625
91.84,1533196380.578125
95.64,1533196380.59375
96.95,1533196380.609375
95.77,1533196380.625
92.22,1533196380.640625
86.46,1533196380.65625
78.68,1533196380.671875
69.16,1533196380.6875
58.37,1533196380.703125
46.94,1533196380.71875
35.51,1533196380.734375
24.52,1533196380.75
14.14,1533196380.765625
4.26,1533196380.78125
-5.26,1533196380.796875
-14.4,1533196380.8125
-22.81,1533196380.828125
-29.9,1533196380.84375
-35.01,1533196380.859375
-37.68,1533196380.875
-37.83,1533196380.890625
-35.88,1533196380.90625
-32.7,1533196380.921875
-29.35,1533196380.9375
-26.77,1533196380.953125
-25.35,1533196380.96875
-24.81,1533196380.984375
-24.36,1533196381.0
-23.14,1533196381.015625
-20.87,1533196381.03125
-18.1,1533196381.046875
-16.0,1533196381.0625
-15.74,1533196381.078125
-17.8,1533196381.09375
-21.59,1533196381.109375
-25.64,1533196381.125
-28.11,1533196381.140625
-27.41,1533196381.15625
-22.47,1533196381.171875
-12.95,1533196381.1875
0.65,1533196381.203125
16.69,1533196381.21875
32.14,1533196381.234375
42.97,1533196381.25
45.18,1533196381.265625
36.3,1533196381.28125
16.67,1533196381.296875
-10.39,1533196381.3125
-39.63,1533196381.328125
-65.78,1533196381.34375
-85.18,1533196381.359375
-96.56,1533196381.375
-100.49,1533196381.390625
-98.4,1533196381.40625
-91.54,1533196381.421875
-80.75,1533196381.4375
-66.81,1533196381.453125
-50.91,1533196381.46875
-34.83,1533196381.484375
-20.55,1533196381.5
-9.61,1533196381.515625
-2.63,1533196381.53125
0.75,1533196381.546875
1.56,1533196381.5625
1.07,1533196381.578125
0.28,1533196381.59375
-0.25,1533196381.609375
-0.43,1533196381.625
-0.53,1533196381.640625
-0.92,1533196381.65625
-1.84,1533196381.671875
-3.25,1533196381.6875
-4.76,1533196381.703125
-5.87,1533196381.71875
-6.23,1533196381.734375
-5.85,1533196381.75
-5.25,1533196381.765625
-5.28,1533196381.78125
-6.73,1533196381.796875
-10.04,1533196381.8125
-14.94,1533196381.828125
-20.46,1533196381.84375
-25.25,1533196381.859375
-27.96,1533196381.875
-27.73,1533196381.890625
-24.42,1533196381.90625
-18.62,1533196381.921875
-11.33,1533196381.9375
-3.65,1533196381.953125
3.59,1533196381.96875
9.99,1533196381.984375
15.49,1533196382.0
20.26,1533196382.015625
24.41,1533196382.03125
27.98,1533196382.046875
30.84,1533196382.0625
32.79,1533196382.078125
33.61,1533196382.09375
33.17,1533196382.109375
31.58,1533196382.125
29.18,1533196382.140625
26.54,1533196382.15625
24.31,1533196382.171875
22.99,1533196382.1875
22.86,1533196382.203125
23.92,1533196382.21875
25.95,1533196382.234375
28.72,1533196382.25
32.0,1533196382.265625
35.58,1533196382.28125
39.24,1533196382.296875
42.7,1533196382.3125
45.65,1533196382.328125
47.83,1533196382.34375
49.06,1533196382.359375
49.23,1533196382.375
48.27,1533196382.390625
46.13,1533196382.40625
42.8,1533196382.421875
38.4,1533196382.4375
33.15,1533196382.453125
27.32,1533196382.46875
21.18,1533196382.484375
14.84,1533196382.5
8.18,1533196382.515625
0.94,1533196382.53125
-7.08,1533196382.546875
-15.87,1533196382.5625
-25.02,1533196382.578125
-33.72,1533196382.59375
-40.95,1533196382.609375
-45.7,1533196382.625
-47.38,1533196382.640625
-45.97,1533196382.65625
-42.05,1533196382.671875
-36.64,1533196382.6875
-30.84,1533196382.703125
-25.65,1533196382.71875
-21.7,1533196382.734375
-19.28,1533196382.75
-18.34,1533196382.765625
-18.58,1533196382.78125
-19.58,1533196382.796875
-20.84,1533196382.8125
-21.94,1533196382.828125
-22.58,1533196382.84375
-22.6,1533196382.859375
-21.99,1533196382.875
-20.76,1533196382.890625
-18.96,1533196382.90625
-16.6,1533196382.921875
-13.75,1533196382.9375
-10.62,1533196382.953125
-7.54,1533196382.96875
-4.95,1533196382.984375
-3.22,1533196383.0
-2.59,1533196383.015625
-3.09,1533196383.03125
-4.64,1533196383.046875
-7.2,1533196383.0625
-10.78,1533196383.078125
-15.47,1533196383.09375
-21.23,1533196383.109375
-27.82,1533196383.125
-34.75,1533196383.140625
-41.4,1533196383.15625
-47.25,1533196383.171875
-51.98,1533196383.1875
-55.54,1533196383.203125
-58.04,1533196383.21875
-59.65,1533196383.234375
-60.53,1533196383.25
-60.98,1533196383.265625
-61.42,1533196383.28125
-62.43,1533196383.296875
-64.44,1533196383.3125
-67.41,1533196383.328125
-70.68,1533196383.34375
-73.1,1533196383.359375
-73.43,1533196383.375
-70.9,1533196383.390625
-65.46,1533196383.40625
-57.74,1533196383.421875
-48.67,1533196383.4375
-39.03,1533196383.453125
-29.24,1533196383.46875
-19.3,1533196383.484375
-9.09,1533196383.5
1.45,1533196383.515625
12.13,1533196383.53125
22.52,1533196383.546875
32.1,1533196383.5625
40.43,1533196383.578125
47.21,1533196383.59375
52.36,1533196383.609375
56.02,1533196383.625
58.44,1533196383.640625
59.98,1533196383.65625
60.97,1533196383.671875
61.66,1533196383.6875
62.14,1533196383.703125
62.4,1533196383.71875
62.36,1533196383.734375
61.89,1533196383.75
60.9,1533196383.765625
59.26,1533196383.78125
56.85,1533196383.796875
53.55,1533196383.8125
49.32,1533196383.828125
44.27,1533196383.84375
38.68,1533196383.859375
32.94,1533196383.875
27.46,1533196383.890625
22.56,1533196383.90625
18.35,1533196383.921875
14.71,1533196383.9375
11.36,1533196383.953125
7.93,1533196383.96875
4.11,1533196383.984375
-0.36,1533196384.0
-5.6,1533196384.015625
-11.67,1533196384.03125
-18.51,1533196384.046875
-25.91,1533196384.0625
-33.43,1533196384.078125
-40.4,1533196384.09375
-45.9,1533196384.109375
-49.03,1533196384.125
-49.13,1533196384.140625
-45.96,1533196384.15625
-39.9,1533196384.171875
-31.78,1533196384.1875
-22.62,1533196384.203125
-13.34,1533196384.21875
-4.45,1533196384.234375
3.99,1533196384.25
12.26,1533196384.265625
20.71,1533196384.28125
29.42,1533196384.296875
37.99,1533196384.3125
45.67,1533196384.328125
51.51,1533196384.34375
54.81,1533196384.359375
55.37,1533196384.375
53.66,1533196384.390625
50.6,1533196384.40625
47.28,1533196384.421875
44.54,1533196384.4375
42.73,1533196384.453125
41.72,1533196384.46875
41.09,1533196384.484375
40.36,1533196384.5
39.27,1533196384.515625
37.78,1533196384.53125
35.97,1533196384.546875
33.92,1533196384.5625
31.61,1533196384.578125
28.89,1533196384.59375
25.62,1533196384.609375
21.78,1533196384.625
17.52,1533196384.640625
13.15,1533196384.65625
8.95,1533196384.671875
5.08,1533196384.6875
1.55,1533196384.703125
-1.71,1533196384.71875
-4.78,1533196384.734375
-7.72,1533196384.75
-10.61,1533196384.765625
-13.67,1533196384.78125
-17.25,1533196384.796875
-21.75,1533196384.8125
-27.33,1533196384.828125
-33.76,1533196384.84375
-40.3,1533196384.859375
-45.89,1533196384.875
-49.43,1533196384.890625
-50.09,1533196384.90625
-47.62,1533196384.921875
-42.28,1533196384.9375
-34.79,1533196384.953125
-26.11,1533196384.96875
-17.17,1533196384.984375
-8.72,1533196385.0
-1.19,1533196385.015625
5.27,1533196385.03125
10.76,1533196385.046875
15.47,1533196385.0625
19.53,1533196385.078125
22.99,1533196385.09375
25.78,1533196385.109375
27.8,1533196385.125
29.0,1533196385.140625
29.43,1533196385.15625
29.26,1533196385.171875
28.77,1533196385.1875
28.21,1533196385.203125
27.84,1533196385.21875
27.79,1533196385.234375
28.06,1533196385.25
28.55,1533196385.265625
29.0,1533196385.28125
29.18,1533196385.296875
28.87,1533196385.3125
28.01,1533196385.328125
26.63,1533196385.34375
24.78,1533196385.359375
22.56,1533196385.375
19.98,1533196385.390625
17.04,1533196385.40625
13.79,1533196385.421875
10.4,1533196385.4375
7.07,1533196385.453125
4.02,1533196385.46875
1.31,1533196385.484375
-1.17,1533196385.5
-3.66,1533196385.515625
-6.51,1533196385.53125
-9.98,1533196385.546875
-14.23,1533196385.5625
-19.3,1533196385.578125
-25.14,1533196385.59375
-31.54,1533196385.609375
-38.09,1533196385.625
-44.08,1533196385.640625
-48.58,1533196385.65625
-50.64,1533196385.671875
-49.61,1533196385.6875
-45.4,1533196385.703125
-38.55,1533196385.71875
-30.05,1533196385.734375
-20.94,1533196385.75
-11.99,1533196385.765625
-3.53,1533196385.78125
4.45,1533196385.796875
12.09,1533196385.8125
19.41,1533196385.828125
26.18,1533196385.84375
32.05,1533196385.859375
36.68,1533196385.875
39.9,1533196385.890625
41.79,1533196385.90625
42.63,1533196385.921875
42.81,1533196385.9375
42.72,1533196385.953125
42.64,1533196385.96875
42.72,1533196385.984375
42.97,1533196386.0
43.24,1533196386.015625
43.33,1533196386.03125
43.01,1533196386.046875
42.12,1533196386.0625
40.61,1533196386.078125
38.52,1533196386.09375
36.03,1533196386.109375
33.28,1533196386.125
30.33,1533196386.140625
27.13,1533196386.15625
23.51,1533196386.171875
19.31,1533196386.1875
14.48,1533196386.203125
9.18,1533196386.21875
3.72,1533196386.234375
-1.59,1533196386.25
-6.55,1533196386.265625
-11.18,1533196386.28125
-15.65,1533196386.296875
-20.2,1533196386.3125
-25.02,1533196386.328125
-30.27,1533196386.34375
-36.03,1533196386.359375
-42.34,1533196386.375
-49.0,1533196386.390625
-55.53,1533196386.40625
-61.07,1533196386.421875
-64.62,1533196386.4375
-65.33,1533196386.453125
-62.85,1533196386.46875
-57.49,1533196386.484375
-50.11,1533196386.5
-41.77,1533196386.515625
-33.34,1533196386.53125
-25.31,1533196386.546875
-17.76,1533196386.5625
-10.5,1533196386.578125
-3.37,1533196386.59375
3.71,1533196386.609375
10.59,1533196386.625
16.98,1533196386.640625
22.49,1533196386.65625
26.84,1533196386.671875
29.83,1533196386.6875
31.52,1533196386.703125
32.14,1533196386.71875
32.05,1533196386.734375
31.6,1533196386.75
31.06,1533196386.765625
30.55,1533196386.78125
30.06,1533196386.796875
29.58,1533196386.8125
29.03,1533196386.828125
28.3,1533196386.84375
27.27,1533196386.859375
25.81,1533196386.875
23.8,1533196386.890625
21.26,1533196386.90625
18.32,1533196386.921875
15.17,1533196386.9375
12.01,1533196386.953125
8.88,1533196386.96875
5.77,1533196386.984375
2.58,1533196387.0
-0.75,1533196387.015625
-4.2,1533196387.03125
-7.63,1533196387.046875
-10.91,1533196387.0625
-14.03,1533196387.078125
-17.09,1533196387.09375
-20.37,1533196387.109375
-24.16,1533196387.125
-28.79,1533196387.140625
-34.4,1533196387.15625
-40.9,1533196387.171875
-47.86,1533196387.1875
-54.45,1533196387.203125
-59.62,1533196387.21875
-62.28,1533196387.234375
-61.7,1533196387.25
-57.74,1533196387.265625
-50.94,1533196387.28125
-42.34,1533196387.296875
-33.15,1533196387.3125
-24.34,1533196387.328125
-16.41,1533196387.34375
-9.35,1533196387.359375
-2.86,1533196387.375
3.42,1533196387.390625
9.62,1533196387.40625
15.64,1533196387.421875
21.18,1533196387.4375
25.86,1533196387.453125
29.44,1533196387.46875
31.84,1533196387.484375
33.19,1533196387.5
33.76,1533196387.515625
33.84,1533196387.53125
33.64,1533196387.546875
33.3,1533196387.5625
32.87,1533196387.578125
32.33,1533196387.59375
31.67,1533196387.609375
30.91,1533196387.625
30.04,1533196387.640625
29.03,1533196387.65625
27.81,1533196387.671875
26.25,1533196387.6875
24.19,1533196387.703125
21.55,1533196387.71875
18.29,1533196387.734375
14.49,1533196387.75
10.33,1533196387.765625
6.01,1533196387.78125
1.81,1533196387.796875
-2.07,1533196387.8125
-5.5,1533196387.828125
-8.48,1533196387.84375
-11.14,1533196387.859375
-13.77,1533196387.875
-16.71,1533196387.890625
-20.28,1533196387.90625
-24.74,1533196387.921875
-30.04,1533196387.9375
-35.83,1533196387.953125
-41.38,1533196387.96875
-45.67,1533196387.984375
-47.7,1533196388.0
-46.78,1533196388.015625
-42.78,1533196388.03125
-36.2,1533196388.046875
-28.0,1533196388.0625
-19.26,1533196388.078125
-10.87,1533196388.09375
-3.32,1533196388.109375
3.32,1533196388.125
9.15,1533196388.140625
14.33,1533196388.15625
18.91,1533196388.171875
22.78,1533196388.1875
25.85,1533196388.203125
28.03,1533196388.21875
29.41,1533196388.234375
30.14,1533196388.25
30.46,1533196388.265625
30.57,1533196388.28125
30.61,1533196388.296875
30.59,1533196388.3125
30.46,1533196388.328125
30.11,1533196388.34375
29.41,1533196388.359375
28.3,1533196388.375
26.78,1533196388.390625
24.94,1533196388.40625
22.88,1533196388.421875
20.7,1533196388.4375
18.47,1533196388.453125
16.15,1533196388.46875
13.65,1533196388.484375
10.86,1533196388.5
7.77,1533196388.515625
4.45,1533196388.53125
1.09,1533196388.546875
-2.06,1533196388.5625
-4.85,1533196388.578125
-7.3,1533196388.59375
-9.59,1533196388.609375
-12.03,1533196388.625
-14.95,1533196388.640625
-18.6,1533196388.65625
-23.1,1533196388.671875
-28.43,1533196388.6875
-34.37,1533196388.703125
-40.42,1533196388.71875
-45.86,1533196388.734375
-49.75,1533196388.75
-51.16,1533196388.765625
-49.52,1533196388.78125
-44.76,1533196388.796875
-37.45,1533196388.8125
-28.56,1533196388.828125
-19.17,1533196388.84375
-10.12,1533196388.859375
-1.9,1533196388.875
5.36,1533196388.890625
11.69,1533196388.90625
17.17,1533196388.921875
21.82,1533196388.9375
25.65,1533196388.953125
28.67,1533196388.96875
30.94,1533196388.984375
32.57,1533196389.0
33.64,1533196389.015625
34.26,1533196389.03125
34.5,1533196389.046875
34.46,1533196389.0625
34.18,1533196389.078125
33.67,1533196389.09375
32.92,1533196389.109375
31.88,1533196389.125
30.53,1533196389.140625
28.9,1533196389.15625
27.07,1533196389.171875
25.14,1533196389.1875
23.15,1533196389.203125
21.05,1533196389.21875
18.65,1533196389.234375
15.71,1533196389.25
12.03,1533196389.265625
7.61,1533196389.28125
2.71,1533196389.296875
-2.22,1533196389.3125
-6.68,1533196389.328125
-10.31,1533196389.34375
-13.09,1533196389.359375
-15.31,1533196389.375
-17.47,1533196389.390625
-20.06,1533196389.40625
-23.44,1533196389.421875
-27.74,1533196389.4375
-32.84,1533196389.453125
-38.37,1533196389.46875
-43.74,1533196389.484375
-48.14,1533196389.5
-50.7,1533196389.515625
-50.71,1533196389.53125
-47.88,1533196389.546875
-42.42,1533196389.5625
-35.05,1533196389.578125
-26.75,1533196389.59375
-18.47,1533196389.609375
-10.87,1533196389.625
-4.17,1533196389.640625
1.73,1533196389.65625
7.14,1533196389.671875
12.29,1533196389.6875
17.25,1533196389.703125
21.87,1533196389.71875
25.92,1533196389.734375
29.19,1533196389.75
31.62,1533196389.765625
33.32,1533196389.78125
34.5,1533196389.796875
35.35,1533196389.8125
35.93,1533196389.828125
36.18,1533196389.84375
35.97,1533196389.859375
35.21,1533196389.875
33.9,1533196389.890625
32.17,1533196389.90625
30.22,1533196389.921875
28.18,1533196389.9375
26.18,1533196389.953125
24.26,1533196389.96875
22.39,1533196389.984375
20.49,1533196390.0
18.49,1533196390.015625
16.32,1533196390.03125
14.03,1533196390.046875
11.76,1533196390.0625
9.74,1533196390.078125
8.1,1533196390.09375
6.89,1533196390.109375
5.92,1533196390.125
4.9,1533196390.140625
3.54,1533196390.15625
1.66,1533196390.171875
-0.76,1533196390.1875
-3.6,1533196390.203125
-6.69,1533196390.21875
-9.83,1533196390.234375
-12.72,1533196390.25
-15.0,1533196390.265625
-16.2,1533196390.28125
-15.94,1533196390.296875
-14.1,1533196390.3125
-10.93,1533196390.328125
-7.07,1533196390.34375
-3.38,1533196390.359375
-0.59,1533196390.375
0.91,1533196390.390625
1.21,1533196390.40625
0.82,1533196390.421875
0.5,1533196390.4375
0.9,1533196390.453125
2.45,1533196390.46875
5.09,1533196390.484375
8.39,1533196390.5
11.59,1533196390.515625
13.84,1533196390.53125
14.43,1533196390.546875
13.11,1533196390.5625
10.12,1533196390.578125
6.26,1533196390.59375
2.6,1533196390.609375
0.08,1533196390.625
-0.86,1533196390.640625
-0.61,1533196390.65625
-0.17,1533196390.671875
-0.77,1533196390.6875
-3.28,1533196390.703125
-7.76,1533196390.71875
-13.32,1533196390.734375
-18.36,1533196390.75
-20.99,1533196390.765625
-19.48,1533196390.78125
-12.76,1533196390.796875
-0.96,1533196390.8125
14.11,1533196390.828125
28.79,1533196390.84375
38.17,1533196390.859375
37.38,1533196390.875
23.43,1533196390.890625
-3.45,1533196390.90625
-39.54,1533196390.921875
-78.83,1533196390.9375
-115.1,1533196390.953125
-143.86,1533196390.96875
-163.28,1533196390.984375
-173.69,1533196391.0
-176.28,1533196391.015625
-171.9,1533196391.03125
-160.75,1533196391.046875
-142.91,1533196391.0625
-119.25,1533196391.078125
-91.91,1533196391.09375
-63.96,1533196391.109375
-38.4,1533196391.125
-17.07,1533196391.140625
-0.24,1533196391.15625
13.15,1533196391.171875
24.62,1533196391.1875
35.25,1533196391.203125
45.1,1533196391.21875
53.45,1533196391.234375
59.31,1533196391.25
62.18,1533196391.265625
62.39,1533196391.28125
61.0,1533196391.296875
59.32,1533196391.3125
58.33,1533196391.328125
58.31,1533196391.34375
58.82,1533196391.359375
59.01,1533196391.375
58.12,1533196391.390625
55.73,1533196391.40625
51.92,1533196391.421875
47.19,1533196391.4375
42.19,1533196391.453125
37.52,1533196391.46875
33.47,1533196391.484375
29.97,1533196391.5
26.67,1533196391.515625
23.1,1533196391.53125
18.91,1533196391.546875
14.03,1533196391.5625
8.71,1533196391.578125
3.37,1533196391.59375
-1.62,1533196391.609375
-6.07,1533196391.625
-10.09,1533196391.640625
-13.91,1533196391.65625
-17.86,1533196391.671875
-22.19,1533196391.6875
-27.01,1533196391.703125
-32.35,1533196391.71875
-38.04,1533196391.734375
-43.7,1533196391.75
-48.67,1533196391.765625
-52.17,1533196391.78125
-53.44,1533196391.796875
-52.1,1533196391.8125
-48.25,1533196391.828125
-42.52,1533196391.84375
-35.74,1533196391.859375
-28.69,1533196391.875
-21.82,1533196391.890625
-15.17,1533196391.90625
-8.54,1533196391.921875
-1.78,1533196391.9375
5.0,1533196391.953125
11.37,1533196391.96875
16.75,1533196391.984375
20.67,1533196392.0
23.0,1533196392.015625
24.03,1533196392.03125
24.34,1533196392.046875
24.52,1533196392.0625
24.93,1533196392.078125
25.53,1533196392.09375
26.01,1533196392.109375
26.02,1533196392.125
25.3,1533196392.140625
23.87,1533196392.15625
21.97,1533196392.171875
19.9,1533196392.1875
17.91,1533196392.203125
16.16,1533196392.21875
14.66,1533196392.234375
13.32,1533196392.25
11.96,1533196392.265625
10.35,1533196392.28125
8.3,1533196392.296875
5.71,1533196392.3125
2.67,1533196392.328125
-0.58,1533196392.34375
-3.73,1533196392.359375
-6.52,1533196392.375
-8.89,1533196392.390625
-10.96,1533196392.40625
-12.97,1533196392.421875
-15.22,1533196392.4375
-17.99,1533196392.453125
-21.44,1533196392.46875
-25.66,1533196392.484375
-30.46,1533196392.5
-35.4,1533196392.515625
-39.67,1533196392.53125
-42.33,1533196392.546875
-42.5,1533196392.5625
-39.79,1533196392.578125
-34.45,1533196392.59375
-27.31,1533196392.609375
-19.49,1533196392.625
-12.03,1533196392.640625
-5.49,1533196392.65625
0.12,1533196392.671875
5.14,1533196392.6875
9.94,1533196392.703125
14.71,1533196392.71875
19.27,1533196392.734375
23.25,1533196392.75
26.29,1533196392.765625
28.23,1533196392.78125
29.19,1533196392.796875
29.46,1533196392.8125
29.36,1533196392.828125
29.07,1533196392.84375
28.61,1533196392.859375
27.9,1533196392.875
26.88,1533196392.890625
25.62,1533196392.90625
24.3,1533196392.921875
23.1,1533196392.9375
22.02,1533196392.953125
20.93,1533196392.96875
19.53,1533196392.984375
17.63,1533196393.0
15.15,1533196393.015625
12.24,1533196393.03125
9.1,1533196393.046875
5.87,1533196393.0625
2.55,1533196393.078125
-0.94,1533196393.09375
-4.68,1533196393.109375
-8.59,1533196393.125
-12.47,1533196393.140625
-16.11,1533196393.15625
-19.43,1533196393.171875
-22.56,1533196393.1875
-25.82,1533196393.203125
-29.61,1533196393.21875
-34.22,1533196393.234375
-39.74,1533196393.25
-45.94,1533196393.265625
-52.2,1533196393.28125
-57.64,1533196393.296875
-61.23,1533196393.3125
-62.11,1533196393.328125
-59.86,1533196393.34375
-54.68,1533196393.359375
-47.33,1533196393.375
-38.89,1533196393.390625
-30.41,1533196393.40625
-22.6,1533196393.421875
-15.72,1533196393.4375
-9.66,1533196393.453125
-4.14,1533196393.46875
1.0,1533196393.484375
5.81,1533196393.5
10.14,1533196393.515625
13.82,1533196393.53125
16.75,1533196393.546875
18.93,1533196393.5625
20.47,1533196393.578125
21.57,1533196393.59375
22.43,1533196393.609375
23.19,1533196393.625
23.93,1533196393.640625
24.6,1533196393.65625
25.12,1533196393.671875
25.4,1533196393.6875
25.4,1533196393.703125
25.12,1533196393.71875
24.59,1533196393.734375
23.77,1533196393.75
22.56,1533196393.765625
20.83,1533196393.78125
18.47,1533196393.796875
15.49,1533196393.8125
12.1,1533196393.828125
8.59,1533196393.84375
5.26,1533196393.859375
2.24,1533196393.875
-0.51,1533196393.890625
-3.22,1533196393.90625
-6.15,1533196393.921875
-9.51,1533196393.9375
-13.33,1533196393.953125
-17.52,1533196393.96875
-21.9,1533196393.984375
-26.29,1533196394.0
-30.54,1533196394.015625
-34.43,1533196394.03125
-37.62,1533196394.046875
-39.56,1533196394.0625
-39.58,1533196394.078125
-37.16,1533196394.09375
-32.16,1533196394.109375
-24.97,1533196394.125
-16.44,1533196394.140625
-7.57,1533196394.15625
0.81,1533196394.171875
8.28,1533196394.1875
14.8,1533196394.203125
20.47,1533196394.21875
25.33,1533196394.234375
29.24,1533196394.25
31.93,1533196394.265625
33.26,1533196394.28125
33.29,1533196394.296875
32.35,1533196394.3125
30.9,1533196394.328125
29.37,1533196394.34375
28.01,1533196394.359375
26.83,1533196394.375
25.7,1533196394.390625
24.41,1533196394.40625
22.8,1533196394.421875
20.8,1533196394.4375
18.52,1533196394.453125
16.18,1533196394.46875
14.01,1533196394.484375
12.15,1533196394.5
10.58,1533196394.515625
9.03,1533196394.53125
7.13,1533196394.546875
4.58,1533196394.5625
1.28,1533196394.578125
-2.56,1533196394.59375
-6.56,1533196394.609375
-10.31,1533196394.625
-13.55,1533196394.640625
-16.28,1533196394.65625
-18.67,1533196394.671875
-20.96,1533196394.6875
-23.37,1533196394.703125
-26.03,1533196394.71875
-29.08,1533196394.734375
-32.7,1533196394.75
-37.0,1533196394.765625
-41.93,1533196394.78125
-47.01,1533196394.796875
-51.42,1533196394.8125
-54.14,1533196394.828125
-54.4,1533196394.84375
-51.93,1533196394.859375
-47.16,1533196394.875
-40.91,1533196394.890625
-34.04,1533196394.90625
-27.09,1533196394.921875
-20.16,1533196394.9375
-13.04,1533196394.953125
-5.52,1533196394.96875
2.34,1533196394.984375
10.13,1533196395.0
17.2,1533196395.015625
22.94,1533196395.03125
26.98,1533196395.046875
29.41,1533196395.0625
30.61,1533196395.078125
31.1,1533196395.09375
31.22,1533196395.109375
31.03,1533196395.125
30.31,1533196395.140625
28.77,1533196395.15625
26.26,1533196395.171875
22.95,1533196395.1875
19.29,1533196395.203125
15.83,1533196395.21875
12.94,1533196395.234375
10.65,1533196395.25
8.68,1533196395.265625
6.59,1533196395.28125
3.99,1533196395.296875
0.75,1533196395.3125
-3.01,1533196395.328125
-6.97,1533196395.34375
-10.8,1533196395.359375
-14.33,1533196395.375
-17.62,1533196395.390625
-20.97,1533196395.40625
-24.74,1533196395.421875
-29.21,1533196395.4375
-34.38,1533196395.453125
-40.01,1533196395.46875
-45.7,1533196395.484375
-50.97,1533196395.5
-55.34,1533196395.515625
-58.39,1533196395.53125
-59.68,1533196395.546875
-58.88,1533196395.5625
-55.85,1533196395.578125
-50.72,1533196395.59375
-43.96,1533196395.609375
-36.15,1533196395.625
-27.89,1533196395.640625
-19.55,1533196395.65625
-11.24,1533196395.671875
-2.91,1533196395.6875
5.46,1533196395.703125
13.66,1533196395.71875
21.24,1533196395.734375
27.6,1533196395.75
32.26,1533196395.765625
35.05,1533196395.78125
36.21,1533196395.796875
36.25,1533196395.8125
35.75,1533196395.828125
35.1,1533196395.84375
34.41,1533196395.859375
33.51,1533196395.875
32.28,1533196395.890625
30.75,1533196395.90625
29.24,1533196395.921875
28.22,1533196395.9375
27.98,1533196395.953125
28.49,1533196395.96875
29.26,1533196395.984375
29.54,1533196396.0
28.6,1533196396.015625
26.1,1533196396.03125
22.15,1533196396.046875
17.31,1533196396.0625
12.25,1533196396.078125
7.47,1533196396.09375
3.08,1533196396.109375
-1.18,1533196396.125
-5.79,1533196396.140625
-11.16,1533196396.15625
-17.48,1533196396.171875
-24.62,1533196396.1875
-32.17,1533196396.203125
-39.45,1533196396.21875
-45.6,1533196396.234375
-49.68,1533196396.25
-50.81,1533196396.265625
-48.45,1533196396.28125
-42.62,1533196396.296875
-34.02,1533196396.3125
-23.8,1533196396.328125
-13.17,1533196396.34375
-2.96,1533196396.359375
6.57,1533196396.375
15.59,1533196396.390625
24.41,1533196396.40625
33.02,1533196396.421875
40.98,1533196396.4375
47.58,1533196396.453125
52.15,1533196396.46875
54.44,1533196396.484375
54.72,1533196396.5
53.62,1533196396.515625
51.88,1533196396.53125
50.02,1533196396.546875
48.31,1533196396.5625
46.81,1533196396.578125
45.5,1533196396.59375
44.42,1533196396.609375
43.65,1533196396.625
43.15,1533196396.640625
42.81,1533196396.65625
42.37,1533196396.671875
41.5,1533196396.6875
40.02,1533196396.703125
37.89,1533196396.71875
35.24,1533196396.734375
32.3,1533196396.75
29.25,1533196396.765625
26.16,1533196396.78125
22.9,1533196396.796875
19.2,1533196396.8125
14.67,1533196396.828125
9.01,1533196396.84375
2.12,1533196396.859375
-5.68,1533196396.875
-13.6,1533196396.890625
-20.51,1533196396.90625
-25.24,1533196396.921875
-26.93,1533196396.9375
-25.33,1533196396.953125
-20.91,1533196396.96875
-14.58,1533196396.984375
-7.43,1533196397.0
-0.39,1533196397.015625
5.96,1533196397.03125
11.38,1533196397.046875
15.77,1533196397.0625
19.12,1533196397.078125
21.4,1533196397.09375
22.63,1533196397.109375
22.96,1533196397.125
22.63,1533196397.140625
21.91,1533196397.15625
21.08,1533196397.171875
20.27,1533196397.1875
19.55,1533196397.203125
18.94,1533196397.21875
18.36,1533196397.234375
17.69,1533196397.25
16.78,1533196397.265625
