PPG GREEN,time
1825487.0,1533196320.022
1825627.0,1533196320.061
1825780.0,1533196320.101
1826432.0,1533196320.142
1826690.0,1533196320.181
1827181.0,1533196320.221
1827632.0,1533196320.263
1828232.0,1533196320.301
1828802.0,1533196320.341
1829276.0,1533196320.382
1830060.0,1533196320.421
1830853.0,1533196320.462
1830964.0,1533196320.502
1829738.0,1533196320.541
1828792.0,1533196320.581
1827758.0,1533196320.623
1826692.0,1533196320.662
1825824.0,1533196320.702
1825440.0,1533196320.743
1825011.0,1533196320.782
1825114.0,1533196320.822
1824876.0,1533196320.864
1824700.0,1533196320.902
1824663.0,1533196320.942
1824910.0,1533196320.983
1825135.0,1533196321.022
1825546.0,1533196321.063
1825996.0,1533196321.104
1826444.0,1533196321.143
1826618.0,1533196321.183
1827380.0,1533196321.224
1828173.0,1533196321.263
1828961.0,1533196321.303
1829687.0,1533196321.344
1829978.0,1533196321.383
1829559.0,1533196321.423
1828595.0,1533196321.465
1827350.0,1533196321.503
1826493.0,1533196321.543
1825187.0,1533196321.584
1824559.0,1533196321.624
1823933.0,1533196321.664
1823957.0,1533196321.705
1823924.0,1533196321.744
1823765.0,1533196321.784
1823779.0,1533196321.825
1823706.0,1533196321.865
1824123.0,1533196321.904
1824466.0,1533196321.945
1824806.0,1533196321.984
1825208.0,1533196322.024
1825801.0,1533196322.066
1826365.0,1533196322.105
1826881.0,1533196322.145
1827812.0,1533196322.186
1828309.0,1533196322.225
1829393.0,1533196322.266
1829866.0,1533196322.306
1829808.0,1533196322.345
1828426.0,1533196322.385
1827672.0,1533196322.426
1826873.0,1533196322.466
1826226.0,1533196322.505
1825675.0,1533196322.547
1825878.0,1533196322.586
1825578.0,1533196322.626
1825816.0,1533196322.667
1825828.0,1533196322.706
1826236.0,1533196322.746
1826715.0,1533196322.787
1827122.0,1533196322.826
1827949.0,1533196322.867
1828400.0,1533196322.907
1829222.0,1533196322.946
1830019.0,1533196322.986
1830768.0,1533196323.027
1831613.0,1533196323.067
1832564.0,1533196323.107
1833470.0,1533196323.148
1834028.0,1533196323.187
1834110.0,1533196323.228
1833369.0,1533196323.269
1832851.0,1533196323.307
1832313.0,1533196323.347
1831761.0,1533196323.388
1831775.0,1533196323.427
1831716.0,1533196323.468
1832119.0,1533196323.509
1832253.0,1533196323.548
1832372.0,1533196323.588
1832761.0,1533196323.629
1833343.0,1533196323.669
1833943.0,1533196323.708
1834691.0,1533196323.749
1835339.0,1533196323.786
1836171.0,1533196323.826
1836713.0,1533196323.868
1837534.0,1533196323.906
1838152.0,1533196323.947
1838815.0,1533196323.988
1839098.0,1533196324.068
1839718.0,1533196324.027
1837942.0,1533196324.108
1834831.0,1533196324.187
1833560.0,1533196324.228
1836272.0,1533196324.147
1832246.0,1533196324.268
1831575.0,1533196324.307
1830691.0,1533196324.388
1830461.0,1533196324.428
1830255.0,1533196324.508
1830170.0,1533196324.47
1831520.0,1533196324.349
1830293.0,1533196324.548
1830605.0,1533196324.589
1830708.0,1533196324.628
1831147.0,1533196324.669
1831261.0,1533196324.749
1830868.0,1533196324.83
1830092.0,1533196324.87
1831358.0,1533196324.789
1828005.0,1533196324.909
1826213.0,1533196324.95
1831208.0,1533196324.71
1824389.0,1533196324.989
1822412.0,1533196325.029
1820670.0,1533196325.071
1819914.0,1533196325.109
1819617.0,1533196325.15
1819527.0,1533196325.191
1818928.0,1533196325.23
1818494.0,1533196325.271
1818867.0,1533196325.311
1820268.0,1533196325.35
1821853.0,1533196325.39
1822717.0,1533196325.431
1823871.0,1533196325.471
1823004.0,1533196325.511
1822144.0,1533196325.552
1821398.0,1533196325.591
1821565.0,1533196325.631
1821218.0,1533196325.673
1819721.0,1533196325.711
1817152.0,1533196325.751
1814811.0,1533196325.792
1813000.0,1533196325.831
1812062.0,1533196325.872
1811569.0,1533196325.913
1810799.0,1533196325.952
1809328.0,1533196325.992
1808008.0,1533196326.073
1807821.0,1533196326.112
1808509.0,1533196326.033
1807708.0,1533196326.153
1807468.0,1533196326.192
1807077.0,1533196326.233
1807302.0,1533196326.274
1807091.0,1533196326.313
1806949.0,1533196326.353
1806411.0,1533196326.394
1805274.0,1533196326.433
1803532.0,1533196326.474
1801818.0,1533196326.514
1800278.0,1533196326.553
1797737.0,1533196326.635
1799097.0,1533196326.594
1796965.0,1533196326.714
1797424.0,1533196326.674
1796324.0,1533196326.794
1796540.0,1533196326.834
1796227.0,1533196326.876
1796388.0,1533196326.914
1796717.0,1533196326.955
1796616.0,1533196326.755
1797145.0,1533196326.996
1798327.0,1533196327.076
1797998.0,1533196327.035
1798615.0,1533196327.116
1797686.0,1533196327.155
1796242.0,1533196327.195
1795227.0,1533196327.237
1794306.0,1533196327.276
1793548.0,1533196327.316
1793411.0,1533196327.357
1793697.0,1533196327.396
1793588.0,1533196327.436
1794092.0,1533196327.478
1794381.0,1533196327.516
1794874.0,1533196327.557
1795614.0,1533196327.598
1796270.0,1533196327.637
1796976.0,1533196327.678
1797763.0,1533196327.718
1798615.0,1533196327.757
1798460.0,1533196327.797
1797493.0,1533196327.838
1796384.0,1533196327.878
1795555.0,1533196327.918
1795113.0,1533196327.959
1794637.0,1533196327.998
1794594.0,1533196328.038
1794972.0,1533196328.08
1795183.0,1533196328.118
1795510.0,1533196328.158
1796179.0,1533196328.2
1797380.0,1533196328.239
1798040.0,1533196328.279
1798665.0,1533196328.32
1799438.0,1533196328.359
1800110.0,1533196328.399
1799676.0,1533196328.44
1798829.0,1533196328.48
1797590.0,1533196328.519
1796682.0,1533196328.56
1795783.0,1533196328.599
1795085.0,1533196328.639
1794871.0,1533196328.681
1794968.0,1533196328.719
1794709.0,1533196328.76
1794849.0,1533196328.801
1794834.0,1533196328.84
1795122.0,1533196328.88
1795465.0,1533196328.921
1796203.0,1533196328.96
1796557.0,1533196329.0
1797356.0,1533196329.041
1797805.0,1533196329.081
1797996.0,1533196329.12
1796976.0,1533196329.161
1796234.0,1533196329.2
1795429.0,1533196329.24
1794338.0,1533196329.282
1794023.0,1533196329.321
1793562.0,1533196329.361
1793828.0,1533196329.402
1794463.0,1533196329.441
1794685.0,1533196329.482
1795314.0,1533196329.522
1795774.0,1533196329.561
1796620.0,1533196329.601
1797324.0,1533196329.642
1798476.0,1533196329.682
1798958.0,1533196329.721
1800452.0,1533196329.763
1801953.0,1533196329.802
1803203.0,1533196329.842
1803886.0,1533196329.883
1803686.0,1533196329.922
1803314.0,1533196329.962
1802527.0,1533196330.003
1802017.0,1533196330.042
1801371.0,1533196330.083
1801138.0,1533196330.123
1801643.0,1533196330.162
1801960.0,1533196330.202
1802555.0,1533196330.243
1802982.0,1533196330.283
1803770.0,1533196330.323
1804365.0,1533196330.364
1805019.0,1533196330.403
1805426.0,1533196330.443
1806661.0,1533196330.485
1807687.0,1533196330.523
1808746.0,1533196330.563
1809869.0,1533196330.604
1810786.0,1533196330.643
1811490.0,1533196330.684
1812212.0,1533196330.724
1812375.0,1533196330.763
1811928.0,1533196330.804
1811018.0,1533196330.845
1810505.0,1533196330.884
1810050.0,1533196330.924
1809800.0,1533196330.965
1809759.0,1533196331.004
1810320.0,1533196331.044
1810542.0,1533196331.086
1810972.0,1533196331.124
1811351.0,1533196331.164
1812168.0,1533196331.205
1812647.0,1533196331.244
1813084.0,1533196331.285
1813898.0,1533196331.325
1814755.0,1533196331.364
1815552.0,1533196331.405
1816252.0,1533196331.446
1816960.0,1533196331.485
1817697.0,1533196331.525
1818314.0,1533196331.566
1818240.0,1533196331.605
1818030.0,1533196331.645
1817382.0,1533196331.687
1816989.0,1533196331.725
1816557.0,1533196331.765
1816668.0,1533196331.806
1816557.0,1533196331.845
1817071.0,1533196331.886
1817336.0,1533196331.926
1817769.0,1533196331.965
1818088.0,1533196332.006
1818446.0,1533196332.047
1818813.0,1533196332.086
1819200.0,1533196332.126
1819810.0,1533196332.167
1820371.0,1533196332.206
1821179.0,1533196332.246
1821970.0,1533196332.288
1822469.0,1533196332.326
1823259.0,1533196332.366
1823840.0,1533196332.407
1823255.0,1533196332.446
1823066.0,1533196332.487
1822641.0,1533196332.528
1822204.0,1533196332.567
1822363.0,1533196332.607
1822460.0,1533196332.648
1822699.0,1533196332.688
1822681.0,1533196332.727
1823259.0,1533196332.768
1823284.0,1533196332.807
1823836.0,1533196332.847
1824325.0,1533196332.889
1824861.0,1533196332.927
1825620.0,1533196332.967
1826306.0,1533196333.008
1826993.0,1533196333.048
1827114.0,1533196333.088
1827534.0,1533196333.129
1827723.0,1533196333.168
1827003.0,1533196333.208
1826257.0,1533196333.249
1825483.0,1533196333.289
1824912.0,1533196333.328
1824507.0,1533196333.369
1823978.0,1533196333.408
1823746.0,1533196333.448
1824023.0,1533196333.49
1823693.0,1533196333.529
1823267.0,1533196333.569
1823474.0,1533196333.61
1823645.0,1533196333.649
1823616.0,1533196333.69
1823699.0,1533196333.73
1823850.0,1533196333.769
1823883.0,1533196333.809
1824046.0,1533196333.85
1823783.0,1533196333.89
1823091.0,1533196333.929
1822482.0,1533196333.971
1821777.0,1533196334.01
1821405.0,1533196334.05
1821316.0,1533196334.091
1821165.0,1533196334.13
1820736.0,1533196334.17
1820687.0,1533196334.211
1820718.0,1533196334.25
1820606.0,1533196334.291
1821158.0,1533196334.331
1821292.0,1533196334.37
1821895.0,1533196334.41
1822246.0,1533196334.451
1822831.0,1533196334.491
1823510.0,1533196334.531
1823619.0,1533196334.572
1822917.0,1533196334.611
1822537.0,1533196334.651
1821860.0,1533196334.693
1821429.0,1533196334.731
1821296.0,1533196334.771
1821348.0,1533196334.812
1821750.0,1533196334.851
1822001.0,1533196334.892
1822562.0,1533196334.932
1823218.0,1533196334.971
1823919.0,1533196335.012
1824449.0,1533196335.053
1825223.0,1533196335.092
1826041.0,1533196335.132
1826906.0,1533196335.173
1827925.0,1533196335.212
1828172.0,1533196335.252
1827976.0,1533196335.294
1827521.0,1533196335.332
1827202.0,1533196335.372
1826721.0,1533196335.414
1826872.0,1533196335.453
1826660.0,1533196335.493
1827045.0,1533196335.534
1827358.0,1533196335.573
1827503.0,1533196335.613
1827974.0,1533196335.654
1828650.0,1533196335.694
1829064.0,1533196335.733
1829645.0,1533196335.774
1830344.0,1533196335.816
1831095.0,1533196335.856
1832430.0,1533196335.937
1832811.0,1533196335.977
1832735.0,1533196336.018
1832169.0,1533196336.057
1831487.0,1533196336.098
1831146.0,1533196336.138
1830360.0,1533196336.177
1830314.0,1533196336.217
1830580.0,1533196336.258
1830707.0,1533196336.298
1831642.0,1533196335.898
1831115.0,1533196336.338
1831022.0,1533196336.379
1831605.0,1533196336.418
1832174.0,1533196336.458
1832708.0,1533196336.5
1833270.0,1533196336.538
1833858.0,1533196336.578
1834619.0,1533196336.619
1834925.0,1533196336.659
1835700.0,1533196336.699
1836394.0,1533196336.74
1836056.0,1533196336.779
1836087.0,1533196336.819
1835786.0,1533196336.86
1835841.0,1533196336.9
1835633.0,1533196336.939
1835469.0,1533196336.98
1835686.0,1533196337.019
1836188.0,1533196337.059
1836305.0,1533196337.101
1837010.0,1533196337.14
1837491.0,1533196337.18
1838086.0,1533196337.221
1838666.0,1533196337.26
1839247.0,1533196337.301
1840009.0,1533196337.341
1840667.0,1533196337.38
1841428.0,1533196337.42
1842479.0,1533196337.462
1843096.0,1533196337.501
1843231.0,1533196337.541
1843262.0,1533196337.582
1848342.0,1533196338.103
1843062.0,1533196337.621
1849275.0,1533196338.142
1842993.0,1533196337.661
1843265.0,1533196337.703
1847449.0,1533196338.063
1843458.0,1533196337.741
1843979.0,1533196337.781
1844426.0,1533196337.823
1844733.0,1533196337.862
1849676.0,1533196338.184
1845072.0,1533196337.902
1845594.0,1533196337.943
1846480.0,1533196337.982
1846847.0,1533196338.022
1851284.0,1533196338.263
1851872.0,1533196338.305
1852131.0,1533196338.343
1852432.0,1533196338.383
1850676.0,1533196338.223
1852531.0,1533196338.424
1852956.0,1533196338.463
1853449.0,1533196338.545
1854256.0,1533196338.624
1854925.0,1533196338.705
1853971.0,1533196338.584
1854322.0,1533196338.665
1853252.0,1533196338.504
1855624.0,1533196338.744
1856260.0,1533196338.785
1856849.0,1533196338.824
1857526.0,1533196338.864
1858151.0,1533196338.906
1858688.0,1533196338.944
1859641.0,1533196338.985
1860342.0,1533196339.026
1861189.0,1533196339.065
1861873.0,1533196339.106
1862085.0,1533196339.146
1863014.0,1533196339.185
1864224.0,1533196339.225
1866374.0,1533196339.266
1870823.0,1533196339.306
1877931.0,1533196339.345
1883809.0,1533196339.386
1889376.0,1533196339.425
1895176.0,1533196339.465
1901533.0,1533196339.507
1907976.0,1533196339.546
1913870.0,1533196339.586
1919092.0,1533196339.627
1924629.0,1533196339.666
1930097.0,1533196339.707
1934477.0,1533196339.747
1938991.0,1533196339.786
1943079.0,1533196339.826
1946560.0,1533196339.867
1948935.0,1533196339.907
1950901.0,1533196339.946
1952470.0,1533196339.987
1954135.0,1533196340.027
1955575.0,1533196340.067
1956594.0,1533196340.108
1957761.0,1533196340.147
1958977.0,1533196340.187
1960118.0,1533196340.228
1961337.0,1533196340.267
1963157.0,1533196340.308
1965167.0,1533196340.348
1967954.0,1533196340.387
1970020.0,1533196340.427
1971536.0,1533196340.468
1974070.0,1533196340.508
1976155.0,1533196340.548
1978166.0,1533196340.589
1979647.0,1533196340.628
1980254.0,1533196340.668
1981412.0,1533196340.71
1982818.0,1533196340.748
1984003.0,1533196340.788
1985077.0,1533196340.829
1986381.0,1533196340.868
1987391.0,1533196340.909
1988794.0,1533196340.949
1990525.0,1533196340.988
1992592.0,1533196341.029
1994556.0,1533196341.07
1996457.0,1533196341.109
1998285.0,1533196341.149
1999969.0,1533196341.19
2001650.0,1533196341.229
2002917.0,1533196341.269
2003148.0,1533196341.311
2003392.0,1533196341.349
2003256.0,1533196341.389
2003550.0,1533196341.43
2003640.0,1533196341.469
2004152.0,1533196341.51
2004863.0,1533196341.551
2005094.0,1533196341.59
2005789.0,1533196341.63
2005846.0,1533196341.671
2006648.0,1533196341.711
2007037.0,1533196341.75
2007447.0,1533196341.791
2008278.0,1533196341.83
2008482.0,1533196341.87
2009379.0,1533196341.912
2009266.0,1533196341.95
2008245.0,1533196341.991
2006884.0,1533196342.032
2005518.0,1533196342.071
2004402.0,1533196342.111
2003804.0,1533196342.152
2003687.0,1533196342.191
2003321.0,1533196342.231
2002971.0,1533196342.272
2002868.0,1533196342.312
2003061.0,1533196342.351
2003199.0,1533196342.392
2003948.0,1533196342.431
2004357.0,1533196342.472
2004888.0,1533196342.513
2006016.0,1533196342.552
2006880.0,1533196342.592
2007081.0,1533196342.633
2005890.0,1533196342.672
2004868.0,1533196342.713
2004274.0,1533196342.753
2003760.0,1533196342.792
2003315.0,1533196342.832
2002679.0,1533196342.873
2003403.0,1533196342.913
2002999.0,1533196342.952
2001995.0,1533196342.994
2001929.0,1533196343.033
2001431.0,1533196343.073
2000484.0,1533196343.115
1999706.0,1533196343.153
1998507.0,1533196343.193
1998286.0,1533196343.234
1998359.0,1533196343.273
1996678.0,1533196343.314
1993758.0,1533196343.354
1990509.0,1533196343.394
1986794.0,1533196343.434
1985975.0,1533196343.475
1985731.0,1533196343.515
1986674.0,1533196343.554
1989518.0,1533196343.595
1991819.0,1533196343.634
1993186.0,1533196343.674
1993506.0,1533196343.716
1992019.0,1533196343.754
1989088.0,1533196343.794
1986576.0,1533196343.836
1982664.0,1533196343.875
1977610.0,1533196343.915
1970909.0,1533196343.956
1966016.0,1533196343.995
1959374.0,1533196344.035
1952870.0,1533196344.076
1947088.0,1533196344.116
1942232.0,1533196344.155
1938068.0,1533196344.197
1933961.0,1533196344.236
1930089.0,1533196344.276
1926617.0,1533196344.317
1924098.0,1533196344.356
1923494.0,1533196344.396
1922472.0,1533196344.437
1926149.0,1533196344.476
1924759.0,1533196344.517
1921247.0,1533196344.557
1918797.0,1533196344.596
1916462.0,1533196344.636
1914152.0,1533196344.678
1912326.0,1533196344.717
1908878.0,1533196344.757
1904469.0,1533196344.798
1902210.0,1533196344.837
1900845.0,1533196344.877
1898780.0,1533196344.919
1896888.0,1533196344.957
1896059.0,1533196344.998
1894226.0,1533196345.039
1892744.0,1533196345.078
1891828.0,1533196345.118
1890859.0,1533196345.159
1890144.0,1533196345.198
1889849.0,1533196345.238
1889413.0,1533196345.279
1888922.0,1533196345.319
1888608.0,1533196345.358
1887886.0,1533196345.399
1885978.0,1533196345.439
1883680.0,1533196345.479
1881409.0,1533196345.52
1879381.0,1533196345.559
1877423.0,1533196345.599
1875461.0,1533196345.64
1874102.0,1533196345.679
1873509.0,1533196345.72
1871986.0,1533196345.76
1870849.0,1533196345.8
1869605.0,1533196345.84
1868529.0,1533196345.881
1868167.0,1533196345.921
1867918.0,1533196345.96
1867409.0,1533196346.001
1867186.0,1533196346.04
1866873.0,1533196346.08
1866526.0,1533196346.122
1864901.0,1533196346.161
1862961.0,1533196346.201
1861477.0,1533196346.242
1860080.0,1533196346.282
1858769.0,1533196346.322
1858176.0,1533196346.362
1857576.0,1533196346.401
1857424.0,1533196346.441
1857208.0,1533196346.482
1857379.0,1533196346.522
1857500.0,1533196346.562
1858076.0,1533196346.603
1858364.0,1533196346.642
1858764.0,1533196346.682
1859415.0,1533196346.724
1860355.0,1533196346.762
1860773.0,1533196346.802
1860535.0,1533196346.843
1860017.0,1533196346.882
1859364.0,1533196346.923
1859230.0,1533196346.964
1858683.0,1533196347.003
1858926.0,1533196347.043
1859434.0,1533196347.084
1860135.0,1533196347.124
1861463.0,1533196347.163
1862668.0,1533196347.204
1863939.0,1533196347.243
1864537.0,1533196347.283
1865303.0,1533196347.325
1866329.0,1533196347.364
1867296.0,1533196347.404
1867785.0,1533196347.445
1867755.0,1533196347.484
1866484.0,1533196347.525
1865662.0,1533196347.565
1864766.0,1533196347.604
1864077.0,1533196347.644
1863708.0,1533196347.686
1863785.0,1533196347.725
1863828.0,1533196347.765
1864164.0,1533196347.806
1864467.0,1533196347.893
1865164.0,1533196347.933
1865677.0,1533196347.975
1866068.0,1533196348.013
1867001.0,1533196348.053
1867711.0,1533196348.094
1868413.0,1533196348.133
1868476.0,1533196348.174
1867963.0,1533196348.215
1867218.0,1533196348.254
1866954.0,1533196348.294
1866410.0,1533196348.335
1866203.0,1533196348.375
1866711.0,1533196348.406
1866468.0,1533196348.438
1866992.0,1533196348.478
1867478.0,1533196348.518
1868142.0,1533196348.56
1868765.0,1533196348.598
1869331.0,1533196348.639
1869586.0,1533196348.68
1870281.0,1533196348.719
1871066.0,1533196348.76
1871944.0,1533196348.798
1871993.0,1533196348.838
1871191.0,1533196348.919
1871630.0,1533196348.878
1870845.0,1533196348.959
1870125.0,1533196348.995
1869853.0,1533196349.037
1869944.0,1533196349.076
1870133.0,1533196349.116
1870141.0,1533196349.157
1870203.0,1533196349.196
1870502.0,1533196349.236
1870860.0,1533196349.277
1871689.0,1533196349.316
1872051.0,1533196349.357
1872663.0,1533196349.397
1873106.0,1533196349.436
1873780.0,1533196349.476
1874531.0,1533196349.517
1874908.0,1533196349.557
1874431.0,1533196349.596
1873465.0,1533196349.638
1873041.0,1533196349.678
1872693.0,1533196349.718
1872323.0,1533196349.759
1872677.0,1533196349.798
1872943.0,1533196349.838
1873265.0,1533196349.879
1873602.0,1533196349.918
1874079.0,1533196349.959
1874755.0,1533196350.0
1875199.0,1533196350.039
1875905.0,1533196350.079
1876598.0,1533196350.121
1877269.0,1533196350.158
1878062.0,1533196350.198
1878456.0,1533196350.239
1878416.0,1533196350.279
1878134.0,1533196350.319
1877704.0,1533196350.361
1877598.0,1533196350.4
1877123.0,1533196350.44
1877232.0,1533196350.481
1877159.0,1533196350.561
1877411.0,1533196350.52
1878181.0,1533196350.68
1878618.0,1533196350.721
1877790.0,1533196350.64
1877615.0,1533196350.601
1879168.0,1533196350.761
1879596.0,1533196350.8
1880185.0,1533196350.841
1880692.0,1533196350.88
1881298.0,1533196350.921
1882149.0,1533196350.962
1882122.0,1533196350.998
1881863.0,1533196351.038
1881151.0,1533196351.08
1880578.0,1533196351.119
1880062.0,1533196351.16
1879695.0,1533196351.24
1879590.0,1533196351.2
1879514.0,1533196351.319
1879638.0,1533196351.28
1879624.0,1533196351.359
1879852.0,1533196351.399
1880306.0,1533196351.44
1880741.0,1533196351.479
1881204.0,1533196351.517
1881785.0,1533196351.551
1882596.0,1533196351.589
1883456.0,1533196351.629
1884443.0,1533196351.67
1885469.0,1533196351.709
1886063.0,1533196351.75
1886175.0,1533196351.83
1885392.0,1533196351.911
1886304.0,1533196351.79
1885829.0,1533196351.87
1884694.0,1533196351.95
1884275.0,1533196352.031
1884448.0,1533196351.99
1884528.0,1533196352.07
1884234.0,1533196352.11
1884055.0,1533196352.152
1884299.0,1533196352.19
1884655.0,1533196352.23
1884899.0,1533196352.273
1885099.0,1533196352.312
1885779.0,1533196352.347
1886129.0,1533196352.382
1886736.0,1533196352.419
1887144.0,1533196352.46
1887769.0,1533196352.501
1888250.0,1533196352.541
1887885.0,1533196352.581
1887266.0,1533196352.622
1886791.0,1533196352.661
1886185.0,1533196352.701
1885806.0,1533196352.74
1885745.0,1533196352.776
1885474.0,1533196352.816
1885414.0,1533196352.857
1885304.0,1533196352.896
1885150.0,1533196352.937
1885326.0,1533196352.977
1885492.0,1533196353.016
1885594.0,1533196353.056
1885726.0,1533196353.098
1885544.0,1533196353.137
1885690.0,1533196353.177
1885759.0,1533196353.218
1885818.0,1533196353.257
1886084.0,1533196353.297
1885526.0,1533196353.339
1884595.0,1533196353.377
1883752.0,1533196353.417
1882819.0,1533196353.459
1881906.0,1533196353.499
1881185.0,1533196353.54
1880882.0,1533196353.581
1880842.0,1533196353.62
1880380.0,1533196353.66
1880429.0,1533196353.702
1880288.0,1533196353.741
1880436.0,1533196353.781
1880466.0,1533196353.822
1880840.0,1533196353.862
1881416.0,1533196353.942
1881148.0,1533196353.902
1881822.0,1533196354.014
1881578.0,1533196353.974
1882184.0,1533196354.055
1881735.0,1533196354.094
1881129.0,1533196354.135
1880370.0,1533196354.176
1878958.0,1533196354.255
1879320.0,1533196354.215
1878508.0,1533196354.296
1878250.0,1533196354.336
1878261.0,1533196354.375
1878361.0,1533196354.416
1878511.0,1533196354.456
1878687.0,1533196354.496
1878928.0,1533196354.537
1879230.0,1533196354.576
1879761.0,1533196354.616
1880087.0,1533196354.656
1880569.0,1533196354.696
1881080.0,1533196354.737
1881283.0,1533196354.776
1881465.0,1533196354.812
1880786.0,1533196354.848
1879556.0,1533196354.889
1878578.0,1533196354.923
1877617.0,1533196354.959
1876783.0,1533196355.001
1876392.0,1533196355.04
1875768.0,1533196355.08
1875647.0,1533196355.122
1875444.0,1533196355.161
1875332.0,1533196355.201
1875285.0,1533196355.24
1875209.0,1533196355.279
1875532.0,1533196355.32
1875608.0,1533196355.36
1876081.0,1533196355.399
1876276.0,1533196355.439
1876724.0,1533196355.48
1877274.0,1533196355.52
1876615.0,1533196355.56
1875413.0,1533196355.601
1874693.0,1533196355.64
1873428.0,1533196355.68
1872353.0,1533196355.722
1871795.0,1533196355.76
1870964.0,1533196355.8
1870755.0,1533196355.841
1870489.0,1533196355.88
1870131.0,1533196355.921
1870066.0,1533196355.962
1870012.0,1533196356.001
1870300.0,1533196356.041
1870576.0,1533196356.082
1870726.0,1533196356.122
1870975.0,1533196356.16
1871420.0,1533196356.201
1871794.0,1533196356.24
1872473.0,1533196356.281
1872135.0,1533196356.323
1871187.0,1533196356.361
1870142.0,1533196356.401
1868798.0,1533196356.433
1867551.0,1533196356.472
1866880.0,1533196356.513
1866311.0,1533196356.554
1865557.0,1533196356.593
1865330.0,1533196356.633
1864652.0,1533196356.674
1864643.0,1533196356.714
1864266.0,1533196356.753
1864467.0,1533196356.794
1864501.0,1533196356.833
1864523.0,1533196356.873
1864715.0,1533196356.915
1865071.0,1533196356.954
1865281.0,1533196356.994
1865619.0,1533196357.035
1866004.0,1533196357.074
1865664.0,1533196357.115
1864622.0,1533196357.15
1863605.0,1533196357.183
1862512.0,1533196357.221
1861840.0,1533196357.263
1861371.0,1533196357.302
1860837.0,1533196357.342
1860917.0,1533196357.383
1860670.0,1533196357.423
1861031.0,1533196357.463
1861091.0,1533196357.503
1861086.0,1533196357.541
1861698.0,1533196357.582
1862100.0,1533196357.623
1862575.0,1533196357.661
1863241.0,1533196357.702
1863968.0,1533196357.742
1864497.0,1533196357.781
1864880.0,1533196357.821
1864573.0,1533196357.863
1863887.0,1533196357.902
1863052.0,1533196357.942
1862424.0,1533196357.983
1861827.0,1533196358.022
1861408.0,1533196358.062
1861082.0,1533196358.104
1861259.0,1533196358.142
1861135.0,1533196358.182
1861395.0,1533196358.223
1861424.0,1533196358.262
1861832.0,1533196358.303
1862502.0,1533196358.343
1862778.0,1533196358.383
1863435.0,1533196358.422
1863881.0,1533196358.463
1864250.0,1533196358.503
1864959.0,1533196358.542
1865400.0,1533196358.584
1865657.0,1533196358.623
1865016.0,1533196358.663
1864504.0,1533196358.705
1863801.0,1533196358.741
1863246.0,1533196358.782
1862543.0,1533196358.823
1862278.0,1533196358.862
1862520.0,1533196358.894
1862515.0,1533196358.935
1862721.0,1533196358.974
1862985.0,1533196359.014
1863310.0,1533196359.055
1864030.0,1533196359.095
1864666.0,1533196359.134
1865247.0,1533196359.176
1865950.0,1533196359.215
1866629.0,1533196359.255
1867552.0,1533196359.297
1868440.0,1533196359.335
1868952.0,1533196359.375
1868830.0,1533196359.416
1867789.0,1533196359.455
1866866.0,1533196359.496
1866017.0,1533196359.536
1865104.0,1533196359.575
1864922.0,1533196359.617
1864625.0,1533196359.655
1864493.0,1533196359.689
1864558.0,1533196359.724
1864590.0,1533196359.762
1864989.0,1533196359.801
1865512.0,1533196359.84
1866852.0,1533196359.918
1867325.0,1533196359.957
1866082.0,1533196359.879
1867915.0,1533196359.996
1868843.0,1533196360.035
1869493.0,1533196360.074
1870124.0,1533196360.113
1870602.0,1533196360.152
1870596.0,1533196360.191
1869858.0,1533196360.23
1869321.0,1533196360.269
1868775.0,1533196360.308
1868412.0,1533196360.347
1868177.0,1533196360.386
1868328.0,1533196360.425
1868632.0,1533196360.464
1868466.0,1533196360.503
1868585.0,1533196360.542
1869200.0,1533196360.581
1869597.0,1533196360.62
1870183.0,1533196360.659
1871233.0,1533196360.698
1872145.0,1533196360.737
1872972.0,1533196360.776
1874199.0,1533196360.815
1875103.0,1533196360.854
1875808.0,1533196360.893
1875953.0,1533196360.932
1875414.0,1533196360.971
1874878.0,1533196361.01
1874504.0,1533196361.049
1874094.0,1533196361.088
1874086.0,1533196361.127
1874186.0,1533196361.166
1874672.0,1533196361.205
1874852.0,1533196361.244
1875515.0,1533196361.283
1875896.0,1533196361.322
1876327.0,1533196361.361
1876979.0,1533196361.4
1877654.0,1533196361.439
1878372.0,1533196361.478
1879035.0,1533196361.517
1879859.0,1533196361.556
1880828.0,1533196361.595
1881521.0,1533196361.634
1881398.0,1533196361.673
1880639.0,1533196361.712
1879992.0,1533196361.751
1879490.0,1533196361.79
1878956.0,1533196361.829
1878437.0,1533196361.868
1878384.0,1533196361.907
1878102.0,1533196361.946
1878308.0,1533196361.985
1878333.0,1533196362.024
1878574.0,1533196362.063
1879031.0,1533196362.102
1879268.0,1533196362.141
1879676.0,1533196362.18
1880124.0,1533196362.219
1881127.0,1533196362.297
1881627.0,1533196362.336
1880680.0,1533196362.258
1881812.0,1533196362.414
1880155.0,1533196362.492
1878150.0,1533196362.57
1877501.0,1533196362.609
1877205.0,1533196362.648
1879148.0,1533196362.531
1880910.0,1533196362.453
1881892.0,1533196362.375
1877294.0,1533196362.687
1877116.0,1533196362.726
1876765.0,1533196362.765
1877026.0,1533196362.804
1877302.0,1533196362.843
1877609.0,1533196362.882
1877791.0,1533196362.921
1878221.0,1533196362.96
1878436.0,1533196362.999
1879062.0,1533196363.038
1879679.0,1533196363.077
1880027.0,1533196363.116
1879944.0,1533196363.155
1879329.0,1533196363.194
1878221.0,1533196363.233
1877272.0,1533196363.272
1876282.0,1533196363.311
1875748.0,1533196363.35
1875524.0,1533196363.389
1875452.0,1533196363.428
1875182.0,1533196363.467
1875109.0,1533196363.506
1875181.0,1533196363.545
1875638.0,1533196363.584
1875845.0,1533196363.623
1876375.0,1533196363.662
1876538.0,1533196363.701
1877159.0,1533196363.74
1877911.0,1533196363.779
1878627.0,1533196363.818
1879158.0,1533196363.857
1878906.0,1533196363.896
1878043.0,1533196363.935
1877258.0,1533196363.974
1876473.0,1533196364.013
1875507.0,1533196364.052
1875189.0,1533196364.091
1875109.0,1533196364.13
1875420.0,1533196364.169
1875428.0,1533196364.208
1875272.0,1533196364.247
1875623.0,1533196364.286
1876060.0,1533196364.326
1876389.0,1533196364.366
1877127.0,1533196364.406
1877304.0,1533196364.446
1878032.0,1533196364.486
1878883.0,1533196364.526
1879718.0,1533196364.566
1880592.0,1533196364.606
1880988.0,1533196364.646
1880540.0,1533196364.686
1879896.0,1533196364.726
1878976.0,1533196364.766
1878253.0,1533196364.806
1877424.0,1533196364.846
1877130.0,1533196364.886
1877379.0,1533196364.926
1877964.0,1533196364.966
1878257.0,1533196365.006
1878660.0,1533196365.046
1879335.0,1533196365.086
1879907.0,1533196365.126
1880624.0,1533196365.166
1881268.0,1533196365.206
1881967.0,1533196365.246
1882585.0,1533196365.286
1883190.0,1533196365.326
1883899.0,1533196365.366
1884449.0,1533196365.406
1885154.0,1533196365.446
1885156.0,1533196365.486
1884091.0,1533196365.526
1883287.0,1533196365.566
1882406.0,1533196365.606
1881471.0,1533196365.646
1880757.0,1533196365.686
1880220.0,1533196365.726
1880348.0,1533196365.766
1880417.0,1533196365.806
1880458.0,1533196365.846
1880791.0,1533196365.886
1880949.0,1533196365.926
1881338.0,1533196365.966
1881913.0,1533196366.006
1882794.0,1533196366.046
1883309.0,1533196366.086
1883611.0,1533196366.126
1884437.0,1533196366.166
1885198.0,1533196366.206
1885935.0,1533196366.246
1886493.0,1533196366.286
1886534.0,1533196366.326
1885625.0,1533196366.366
1885108.0,1533196366.406
1884341.0,1533196366.446
1883859.0,1533196366.486
1883416.0,1533196366.526
1883568.0,1533196366.566
1883837.0,1533196366.606
1883863.0,1533196366.646
1884212.0,1533196366.686
1884816.0,1533196366.726
1885445.0,1533196366.766
1886416.0,1533196366.806
1887263.0,1533196366.846
1888271.0,1533196366.886
1888964.0,1533196366.926
1889960.0,1533196366.966
1890586.0,1533196367.006
1891605.0,1533196367.046
1892264.0,1533196367.086
1892126.0,1533196367.126
1891453.0,1533196367.166
1890835.0,1533196367.206
1890290.0,1533196367.246
1889710.0,1533196367.286
1889402.0,1533196367.326
1888929.0,1533196367.366
1888826.0,1533196367.406
1888663.0,1533196367.446
1888561.0,1533196367.486
1888601.0,1533196367.526
1888799.0,1533196367.566
1889009.0,1533196367.606
1888669.0,1533196367.646
1888751.0,1533196367.686
1889011.0,1533196367.726
1888749.0,1533196367.766
1889014.0,1533196367.806
1889006.0,1533196367.846
1889035.0,1533196367.886
1889224.0,1533196367.926
1888043.0,1533196367.966
1886953.0,1533196368.006
1885703.0,1533196368.046
1884700.0,1533196368.086
1883784.0,1533196368.126
1883099.0,1533196368.166
1882717.0,1533196368.206
1882231.0,1533196368.246
1882252.0,1533196368.286
1881832.0,1533196368.326
1881865.0,1533196368.366
1882046.0,1533196368.406
1882046.0,1533196368.446
1882630.0,1533196368.486
1883006.0,1533196368.526
1883522.0,1533196368.566
1884124.0,1533196368.606
1884703.0,1533196368.646
1885462.0,1533196368.686
1886109.0,1533196368.726
1886044.0,1533196368.766
1885499.0,1533196368.806
1884760.0,1533196368.846
1884143.0,1533196368.886
1883313.0,1533196368.926
1882834.0,1533196368.966
1882814.0,1533196369.006
1882625.0,1533196369.046
1882343.0,1533196369.086
1882295.0,1533196369.126
1882773.0,1533196369.166
1883084.0,1533196369.206
1883557.0,1533196369.246
1883993.0,1533196369.286
1884288.0,1533196369.326
1885015.0,1533196369.366
1885808.0,1533196369.406
1886265.0,1533196369.446
1886928.0,1533196369.486
1887005.0,1533196369.526
1886301.0,1533196369.566
1886057.0,1533196369.606
1885656.0,1533196369.646
1885186.0,1533196369.686
1885108.0,1533196369.726
1885311.0,1533196369.766
1885280.0,1533196369.806
1885519.0,1533196369.846
1885939.0,1533196369.886
1886148.0,1533196369.926
1886607.0,1533196369.966
1887196.0,1533196370.006
1887640.0,1533196370.046
1888449.0,1533196370.086
1888957.0,1533196370.126
1889645.0,1533196370.166
1890424.0,1533196370.206
1890890.0,1533196370.246
1890240.0,1533196370.286
1889218.0,1533196370.326
1888340.0,1533196370.366
1887517.0,1533196370.406
1886859.0,1533196370.446
1886571.0,1533196370.486
1886498.0,1533196370.526
1886234.0,1533196370.566
1886318.0,1533196370.606
1886672.0,1533196370.646
1886834.0,1533196370.686
1887078.0,1533196370.726
1887576.0,1533196370.766
1887836.0,1533196370.806
1888595.0,1533196370.846
1889078.0,1533196370.886
1889556.0,1533196370.926
1890406.0,1533196370.966
1890103.0,1533196371.006
1889472.0,1533196371.046
1888522.0,1533196371.086
1887470.0,1533196371.126
1887470.0,1533196371.166
1886785.0,1533196371.206
1886133.0,1533196371.246
1885825.0,1533196371.286
1885864.0,1533196371.326
1886058.0,1533196371.366
1886216.0,1533196371.406
1886306.0,1533196371.446
1886433.0,1533196371.486
1887105.0,1533196371.526
1887483.0,1533196371.566
1888022.0,1533196371.606
1888570.0,1533196371.646
1903660.0,1533196383.587
1903982.0,1533196383.627
1904274.0,1533196383.669
1904412.0,1533196383.707
1904424.0,1533196383.747
1904794.0,1533196383.789
1906087.0,1533196383.868
1906102.0,1533196383.909
1905628.0,1533196383.828
1906711.0,1533196383.948
1907392.0,1533196383.988
1908408.0,1533196384.029
1908841.0,1533196384.069
1908640.0,1533196384.105
1908330.0,1533196384.139
1907973.0,1533196384.176
1907439.0,1533196384.216
1907274.0,1533196384.258
1907101.0,1533196384.296
1907221.0,1533196384.336
1907742.0,1533196384.377
1908248.0,1533196384.416
1908554.0,1533196384.457
1909050.0,1533196384.497
1909588.0,1533196384.536
1910143.0,1533196384.577
1911682.0,1533196384.657
1911217.0,1533196384.618
1912507.0,1533196384.697
1914031.0,1533196384.777
1914864.0,1533196384.817
1914783.0,1533196384.86
1913316.0,1533196384.738
1914407.0,1533196384.898
1914032.0,1533196384.936
1913341.0,1533196384.978
1913102.0,1533196385.017
1912731.0,1533196385.058
1912531.0,1533196385.099
1912569.0,1533196385.138
1912812.0,1533196385.178
1913008.0,1533196385.219
1913359.0,1533196385.257
1913567.0,1533196385.297
1913842.0,1533196385.338
1914618.0,1533196385.377
1915510.0,1533196385.459
1915939.0,1533196385.487
1915939.0,1533196385.527
1917014.0,1533196385.688
1916094.0,1533196385.727
1914616.0,1533196385.808
1913852.0,1533196385.848
1913567.0,1533196385.887
1913232.0,1533196385.929
1913400.0,1533196385.968
1913267.0,1533196386.008
1913395.0,1533196386.05
1913296.0,1533196386.088
1913504.0,1533196386.128
1913833.0,1533196386.169
1914332.0,1533196386.208
1914714.0,1533196386.25
1914964.0,1533196386.29
1915374.0,1533196385.767
1916272.0,1533196385.568
1917215.0,1533196385.648
1917021.0,1533196385.607
1915078.0,1533196385.417
1915467.0,1533196386.323
1915954.0,1533196386.364
1916487.0,1533196386.4
1916058.0,1533196386.476
1916480.0,1533196386.437
1914386.0,1533196386.557
1913558.0,1533196386.597
1912726.0,1533196386.639
1915119.0,1533196386.517
1912450.0,1533196386.718
1912598.0,1533196386.677
1912400.0,1533196386.759
1912356.0,1533196386.869
1912332.0,1533196386.828
1912315.0,1533196386.796
1912609.0,1533196386.908
1913070.0,1533196386.948
1913592.0,1533196386.989
1914067.0,1533196387.029
1914318.0,1533196387.068
1914884.0,1533196387.109
1915327.0,1533196387.148
1915526.0,1533196387.188
1915142.0,1533196387.23
1914367.0,1533196387.268
1913625.0,1533196387.308
1912814.0,1533196387.349
1912328.0,1533196387.388
1912288.0,1533196387.429
1912414.0,1533196387.47
1912458.0,1533196387.509
1912638.0,1533196387.544
1912774.0,1533196387.58
1913074.0,1533196387.618
1913592.0,1533196387.658
1914090.0,1533196387.699
1914675.0,1533196387.738
1914981.0,1533196387.778
1915829.0,1533196387.82
1916038.0,1533196387.859
1916779.0,1533196387.899
1917030.0,1533196387.94
1916391.0,1533196387.977
1915431.0,1533196388.018
1914630.0,1533196388.059
1913810.0,1533196388.098
1912829.0,1533196388.139
1912233.0,1533196388.18
1912069.0,1533196388.22
1912021.0,1533196388.259
1911929.0,1533196388.301
1911837.0,1533196388.338
1911744.0,1533196388.368
1911744.0,1533196388.41
1911888.0,1533196388.449
1912236.0,1533196388.489
1912379.0,1533196388.53
1912788.0,1533196388.569
1913484.0,1533196388.61
1913679.0,1533196388.65
1914191.0,1533196388.689
1914362.0,1533196388.729
1913883.0,1533196388.77
1912593.0,1533196388.81
1911486.0,1533196388.849
1910248.0,1533196388.89
1909380.0,1533196388.929
1908668.0,1533196388.97
1908689.0,1533196389.011
1908372.0,1533196389.05
1908086.0,1533196389.09
1907990.0,1533196389.131
1908013.0,1533196389.17
1908241.0,1533196389.211
1908187.0,1533196389.251
1908339.0,1533196389.29
1908862.0,1533196389.33
1909223.0,1533196389.372
1909695.0,1533196389.411
1909990.0,1533196389.451
1910640.0,1533196389.492
1910010.0,1533196389.531
1909173.0,1533196389.571
1908414.0,1533196389.613
1907561.0,1533196389.651
1906791.0,1533196389.691
1906565.0,1533196389.732
1906366.0,1533196389.771
1906128.0,1533196389.812
1906039.0,1533196389.853
1906191.0,1533196389.892
1906411.0,1533196389.932
1906652.0,1533196389.973
1906688.0,1533196390.013
1907054.0,1533196390.052
1907554.0,1533196390.093
1908024.0,1533196390.132
1908572.0,1533196390.172
1908867.0,1533196390.214
1908922.0,1533196390.252
1908195.0,1533196390.292
1907154.0,1533196390.334
1905816.0,1533196390.373
1904664.0,1533196390.413
1903851.0,1533196390.454
1903475.0,1533196390.493
1902935.0,1533196390.533
1902586.0,1533196390.574
1902359.0,1533196390.614
1902355.0,1533196390.653
1902211.0,1533196390.694
1902252.0,1533196390.733
1902604.0,1533196390.773
1902775.0,1533196390.815
1903346.0,1533196390.854
1903831.0,1533196390.894
1904157.0,1533196390.935
1904862.0,1533196390.974
1904312.0,1533196391.015
1903252.0,1533196391.055
1901803.0,1533196391.094
1900571.0,1533196391.134
1899363.0,1533196391.175
1898528.0,1533196391.215
1898050.0,1533196391.254
1897720.0,1533196391.295
1897207.0,1533196391.335
1897126.0,1533196391.375
1897058.0,1533196391.417
1896978.0,1533196391.455
1897556.0,1533196391.495
1897599.0,1533196391.536
1897831.0,1533196391.575
1898073.0,1533196391.616
1898614.0,1533196391.656
1898810.0,1533196391.695
1899515.0,1533196391.736
1899253.0,1533196391.777
1897922.0,1533196391.817
1896804.0,1533196391.856
1895372.0,1533196391.897
1894413.0,1533196391.936
1893290.0,1533196391.976
1893084.0,1533196392.018
1892768.0,1533196392.056
1892508.0,1533196392.096
1892581.0,1533196392.138
1892303.0,1533196392.177
1892634.0,1533196392.218
1892553.0,1533196392.258
1893108.0,1533196392.297
1893280.0,1533196392.337
1893760.0,1533196392.378
1894021.0,1533196392.418
1894947.0,1533196392.457
1895055.0,1533196392.498
1895471.0,1533196392.537
1894417.0,1533196392.577
1892951.0,1533196392.619
1891974.0,1533196392.657
1890737.0,1533196392.698
1889644.0,1533196392.739
1889163.0,1533196392.778
1889067.0,1533196392.819
1888708.0,1533196392.859
1888496.0,1533196392.898
1888453.0,1533196392.938
1888498.0,1533196392.98
1888935.0,1533196393.019
1889296.0,1533196393.058
1889847.0,1533196393.099
1890093.0,1533196393.138
1890477.0,1533196393.178
1891121.0,1533196393.22
1891669.0,1533196393.258
1891275.0,1533196393.299
1890074.0,1533196393.34
1888565.0,1533196393.379
1887315.0,1533196393.42
1885841.0,1533196393.46
1885023.0,1533196393.499
1884336.0,1533196393.539
1884019.0,1533196393.58
1883761.0,1533196393.62
1883287.0,1533196393.659
1883187.0,1533196393.7
1883552.0,1533196393.739
1883775.0,1533196393.779
1884014.0,1533196393.821
1883913.0,1533196393.86
1884459.0,1533196393.9
1884372.0,1533196393.941
1884616.0,1533196393.98
1884927.0,1533196394.021
1884244.0,1533196394.061
1882623.0,1533196394.1
1881006.0,1533196394.14
1879703.0,1533196394.181
1878272.0,1533196394.221
1877299.0,1533196394.26
1876629.0,1533196394.301
1876583.0,1533196394.341
1876240.0,1533196394.381
1876463.0,1533196394.423
1876459.0,1533196394.461
1877308.0,1533196394.501
1878291.0,1533196394.542
1878987.0,1533196394.581
1880291.0,1533196394.622
1881272.0,1533196394.662
1881886.0,1533196394.701
1882311.0,1533196394.741
1881796.0,1533196394.782
1880303.0,1533196394.822
1878508.0,1533196394.862
1876582.0,1533196394.903
1874615.0,1533196394.942
1873197.0,1533196394.982
1871562.0,1533196395.024
1870431.0,1533196395.062
1869344.0,1533196395.102
1867852.0,1533196395.143
1866661.0,1533196395.182
1865614.0,1533196395.223
1864527.0,1533196395.263
1863177.0,1533196395.302
1861984.0,1533196395.343
1860928.0,1533196395.384
1860092.0,1533196395.424
1858622.0,1533196395.463
1856706.0,1533196395.504
1854119.0,1533196395.544
1851951.0,1533196395.584
1850591.0,1533196395.626
1849361.0,1533196395.664
1849048.0,1533196395.704
1848498.0,1533196395.745
1848478.0,1533196395.784
1848678.0,1533196395.825
1848330.0,1533196395.866
1848215.0,1533196395.905
1848261.0,1533196395.945
1847830.0,1533196395.986
1847744.0,1533196396.026
1847554.0,1533196396.065
1847548.0,1533196396.106
1846987.0,1533196396.145
1845419.0,1533196396.185
1843734.0,1533196396.227
1842648.0,1533196396.265
1841429.0,1533196396.306
1840800.0,1533196396.347
1840393.0,1533196396.386
1839639.0,1533196396.427
1838652.0,1533196396.467
1837854.0,1533196396.506
1836273.0,1533196396.587
1836876.0,1533196396.546
1835562.0,1533196396.627
1834601.0,1533196396.666
1834570.0,1533196396.708
1834902.0,1533196396.747
1835413.0,1533196396.787
1834607.0,1533196396.829
1833951.0,1533196396.867
1833248.0,1533196396.907
1832797.0,1533196396.948
1832400.0,1533196396.988
1833192.0,1533196397.028
1833936.0,1533196397.068
1835629.0,1533196397.107
1837383.0,1533196397.147
1839336.0,1533196397.189
1840975.0,1533196397.229
1843075.0,1533196397.268
1844913.0,1533196397.309
1846613.0,1533196397.348
1848106.0,1533196397.388
1849267.0,1533196397.468
1849030.0,1533196397.43
1849034.0,1533196397.508
1848364.0,1533196397.549
1848020.0,1533196397.589
1847558.0,1533196397.63
1847538.0,1533196397.67
1848397.0,1533196397.709
1848783.0,1533196397.749
1849049.0,1533196397.79
1849962.0,1533196397.83
1850271.0,1533196397.869
1850854.0,1533196397.91
1851541.0,1533196397.949
1852558.0,1533196397.99
1853792.0,1533196398.032
1854648.0,1533196398.07
1854944.0,1533196398.11
1855371.0,1533196398.151
1855916.0,1533196398.19
1856152.0,1533196398.231
1855804.0,1533196398.271
1856037.0,1533196398.31
1858617.0,1533196398.432
1859464.0,1533196398.471
1860183.0,1533196398.512
1860832.0,1533196398.551
1858029.0,1533196398.392
1856939.0,1533196398.35
1861979.0,1533196398.633
1861448.0,1533196398.591
1862040.0,1533196398.711
1862009.0,1533196398.671
1860732.0,1533196398.752
1859174.0,1533196398.791
1857160.0,1533196398.833
1851613.0,1533196398.912
1854279.0,1533196398.873
1847685.0,1533196398.952
1845765.0,1533196398.994
1844635.0,1533196399.033
1844407.0,1533196399.072
1844354.0,1533196399.113
1845016.0,1533196399.152
1848531.0,1533196399.192
1854211.0,1533196399.234
1860041.0,1533196399.273
1865334.0,1533196399.313
1869240.0,1533196399.354
1871752.0,1533196399.393
1871898.0,1533196399.434
1871691.0,1533196399.474
1872109.0,1533196399.513
1872161.0,1533196399.553
1873168.0,1533196399.594
1875283.0,1533196399.634
1877175.0,1533196399.674
1878701.0,1533196399.715
1881813.0,1533196399.754
1885082.0,1533196399.794
1889226.0,1533196399.836
1894247.0,1533196399.874
1901355.0,1533196399.914
1907632.0,1533196399.955
1914170.0,1533196399.994
1919181.0,1533196400.035
1923223.0,1533196400.076
1928379.0,1533196400.115
1932644.0,1533196400.155
1935939.0,1533196400.196
1938686.0,1533196400.236
1942291.0,1533196400.275
1946417.0,1533196400.316
1949615.0,1533196400.355
1951171.0,1533196400.395
1953684.0,1533196400.437
1955474.0,1533196400.475
1956167.0,1533196400.516
1958031.0,1533196400.557
1960239.0,1533196400.596
1960709.0,1533196400.637
1960612.0,1533196400.677
1960018.0,1533196400.716
1960443.0,1533196400.756
1962305.0,1533196400.797
1963380.0,1533196400.837
1963586.0,1533196400.877
1964662.0,1533196400.918
1965610.0,1533196400.957
1966023.0,1533196400.997
1968001.0,1533196401.039
1970738.0,1533196401.077
1973019.0,1533196401.117
1974659.0,1533196401.158
1975809.0,1533196401.197
1977950.0,1533196401.239
1980087.0,1533196401.279
1981265.0,1533196401.318
1982116.0,1533196401.358
1981422.0,1533196401.399
1981914.0,1533196401.439
1982541.0,1533196401.478
1984563.0,1533196401.519
1986129.0,1533196401.558
1986490.0,1533196401.598
1986836.0,1533196401.641
1988514.0,1533196401.679
1989719.0,1533196401.719
1992359.0,1533196401.76
1994613.0,1533196401.799
1995510.0,1533196401.84
1996118.0,1533196401.88
1997321.0,1533196401.919
1997412.0,1533196401.959
1996180.0,1533196402.001
1993962.0,1533196402.041
1992096.0,1533196402.08
1992817.0,1533196402.121
1994188.0,1533196402.16
1995157.0,1533196402.2
1994697.0,1533196402.242
1994225.0,1533196402.28
1993828.0,1533196402.32
1994952.0,1533196402.361
1996246.0,1533196402.4
1997107.0,1533196402.482
1996837.0,1533196402.441
1995402.0,1533196402.521
1994927.0,1533196402.561
1993561.0,1533196402.602
1992501.0,1533196402.642
1990613.0,1533196402.681
1989350.0,1533196402.722
1989535.0,1533196402.762
1989540.0,1533196402.802
1990158.0,1533196402.844
1990088.0,1533196402.882
1990235.0,1533196402.922
1989968.0,1533196402.963
1990282.0,1533196403.003
1991438.0,1533196403.083
1991269.0,1533196403.043
1991652.0,1533196403.122
1991221.0,1533196403.162
1990252.0,1533196403.203
1989315.0,1533196403.243
1989271.0,1533196403.282
1989037.0,1533196403.323
1989053.0,1533196403.363
1989395.0,1533196403.403
1989655.0,1533196403.445
1990423.0,1533196403.483
1991278.0,1533196403.523
1991915.0,1533196403.564
1992699.0,1533196403.603
1992036.0,1533196403.644
1990862.0,1533196403.684
1989839.0,1533196403.723
1989256.0,1533196403.763
1988177.0,1533196403.804
1987684.0,1533196403.844
1987616.0,1533196403.884
1987271.0,1533196403.925
1987338.0,1533196403.964
1987052.0,1533196404.004
1987097.0,1533196404.046
1987111.0,1533196404.084
1987528.0,1533196404.124
1988009.0,1533196404.165
1987496.0,1533196404.204
1985978.0,1533196404.245
1984575.0,1533196404.286
1983107.0,1533196404.325
1981917.0,1533196404.365
1981269.0,1533196404.406
1980821.0,1533196404.446
1980692.0,1533196404.485
1980108.0,1533196404.526
1979753.0,1533196404.565
1979209.0,1533196404.605
1979032.0,1533196404.647
1978860.0,1533196404.685
1978779.0,1533196404.726
1976775.0,1533196404.767
1974444.0,1533196404.806
1971783.0,1533196404.847
1970040.0,1533196404.887
1967776.0,1533196404.926
1966009.0,1533196404.966
1964862.0,1533196405.007
1963901.0,1533196405.047
1962740.0,1533196405.086
1960744.0,1533196405.127
1959178.0,1533196405.167
1958414.0,1533196405.207
1957820.0,1533196405.249
1958523.0,1533196405.287
1957821.0,1533196405.327
1956753.0,1533196405.368
1953949.0,1533196405.407
1951038.0,1533196405.448
1948254.0,1533196405.488
1945737.0,1533196405.527
1944769.0,1533196405.568
1943330.0,1533196405.609
1942307.0,1533196405.649
1940798.0,1533196405.688
1940000.0,1533196405.729
1939031.0,1533196405.768
1938311.0,1533196405.808
1937954.0,1533196405.85
1937247.0,1533196405.888
1936666.0,1533196405.928
1936349.0,1533196405.97
1934890.0,1533196406.009
1932972.0,1533196406.05
1931229.0,1533196406.09
1928707.0,1533196406.129
1926603.0,1533196406.169
1924979.0,1533196406.21
1923115.0,1533196406.25
1922264.0,1533196406.289
1921533.0,1533196406.33
1920176.0,1533196406.369
1919238.0,1533196406.41
1918942.0,1533196406.452
1918368.0,1533196406.49
1918240.0,1533196406.53
1918018.0,1533196406.571
1917597.0,1533196406.61
1917392.0,1533196406.651
1916293.0,1533196406.691
1914465.0,1533196406.73
1912772.0,1533196406.77
1910890.0,1533196406.811
1909181.0,1533196406.851
1908141.0,1533196406.891
1907579.0,1533196406.932
1907350.0,1533196406.971
1906533.0,1533196407.011
1905951.0,1533196407.053
1906097.0,1533196407.091
1906246.0,1533196407.131
1907136.0,1533196407.212
1906723.0,1533196407.172
1907730.0,1533196407.253
1908049.0,1533196407.293
1908698.0,1533196407.332
1908663.0,1533196407.372
1907433.0,1533196407.413
1906458.0,1533196407.453
1905656.0,1533196407.492
1904943.0,1533196407.533
1904806.0,1533196407.57
1905062.0,1533196407.611
1905106.0,1533196407.653
1904990.0,1533196407.691
1905216.0,1533196407.731
1905392.0,1533196407.772
1905780.0,1533196407.811
1906191.0,1533196407.852
1906653.0,1533196407.892
1906843.0,1533196407.931
1907337.0,1533196407.972
1907089.0,1533196408.013
1906141.0,1533196408.053
1905111.0,1533196408.092
1903966.0,1533196408.133
1902777.0,1533196408.172
1901919.0,1533196408.212
1901831.0,1533196408.254
1901511.0,1533196408.292
1901699.0,1533196408.332
1901471.0,1533196408.413
1901573.0,1533196408.454
1901406.0,1533196408.374
1902480.0,1533196408.533
1902864.0,1533196408.573
1903145.0,1533196408.614
1904251.0,1533196408.693
1903671.0,1533196408.734
1902639.0,1533196408.773
1903986.0,1533196408.654
1901591.0,1533196408.814
1900373.0,1533196408.856
1899682.0,1533196408.894
1899079.0,1533196408.934
1898960.0,1533196408.975
1898888.0,1533196409.014
1898720.0,1533196409.055
1898849.0,1533196409.095
1900345.0,1533196409.216
1899475.0,1533196409.134
1901148.0,1533196409.256
1901798.0,1533196409.616
1901858.0,1533196409.295
1902807.0,1533196409.336
1904340.0,1533196409.415
1904640.0,1533196409.457
1904441.0,1533196409.495
1903306.0,1533196409.375
1903531.0,1533196409.535
1902902.0,1533196409.576
1901342.0,1533196409.657
1901408.0,1533196409.697
1901363.0,1533196409.736
1900956.0,1533196409.817
1902111.0,1533196409.937
1901225.0,1533196409.776
1901412.0,1533196409.857
1901596.0,1533196409.896
1902612.0,1533196409.976
1903985.0,1533196410.059
1899579.0,1533196409.175
1904294.0,1533196410.097
1903166.0,1533196410.017
1901941.0,1533196408.494
1904904.0,1533196410.137
1905514.0,1533196410.178
1906081.0,1533196410.217
1906127.0,1533196410.258
1904974.0,1533196410.298
1904310.0,1533196410.337
1903739.0,1533196410.378
1902871.0,1533196410.419
1902311.0,1533196410.459
1902535.0,1533196410.539
1902587.0,1533196410.618
1902355.0,1533196410.498
1902383.0,1533196410.578
1902624.0,1533196410.66
1904732.0,1533196410.819
1904259.0,1533196410.78
1903500.0,1533196410.739
1906718.0,1533196410.939
1905079.0,1533196410.86
1905817.0,1533196410.9
1907196.0,1533196410.979
1903053.0,1533196410.699
1907433.0,1533196411.021
1906881.0,1533196411.061
1905333.0,1533196411.1
1902147.0,1533196411.18
1900506.0,1533196411.22
1899168.0,1533196411.262
1898194.0,1533196411.3
1897100.0,1533196411.34
1903716.0,1533196411.141
1896084.0,1533196411.382
1895786.0,1533196411.421
1895086.0,1533196411.462
1894945.0,1533196411.502
1894730.0,1533196411.541
1894551.0,1533196411.581
1894650.0,1533196411.622
1895030.0,1533196411.701
1894897.0,1533196411.662
1895140.0,1533196411.743
1895751.0,1533196411.782
1896502.0,1533196411.822
1896624.0,1533196411.864
1896083.0,1533196411.902
1895396.0,1533196411.942
1894854.0,1533196411.983
1894253.0,1533196412.022
1893988.0,1533196412.143
1893851.0,1533196412.183
1894054.0,1533196412.224
1894268.0,1533196412.264
1894287.0,1533196412.104
1895144.0,1533196412.344
1895945.0,1533196412.383
1894723.0,1533196412.303
1894118.0,1533196412.063
1897154.0,1533196412.465
1897946.0,1533196412.503
1896372.0,1533196412.423
1898645.0,1533196412.544
1899429.0,1533196412.585
1899304.0,1533196412.624
1898405.0,1533196412.665
1897764.0,1533196412.705
1897202.0,1533196412.744
1896461.0,1533196412.825
1896315.0,1533196412.784
1896582.0,1533196412.865
1896497.0,1533196412.904
1896315.0,1533196412.945
1896339.0,1533196412.985
1896544.0,1533196413.025
1896753.0,1533196413.067
1897185.0,1533196413.105
1897567.0,1533196413.145
1897868.0,1533196413.186
1898587.0,1533196413.225
1898891.0,1533196413.266
1899373.0,1533196413.306
1899311.0,1533196413.345
1895204.0,1533196413.466
1893784.0,1533196413.506
1892998.0,1533196413.547
1892146.0,1533196413.586
1891389.0,1533196413.668
1890869.0,1533196413.706
1890854.0,1533196413.746
1890839.0,1533196413.787
1891044.0,1533196413.826
1891312.0,1533196413.867
1891663.0,1533196413.947
1891636.0,1533196413.626
1891411.0,1533196413.908
1896566.0,1533196413.426
1898206.0,1533196413.385
1892541.0,1533196414.028
1892009.0,1533196413.987
1892981.0,1533196414.068
1891974.0,1533196414.107
1890205.0,1533196414.148
1888586.0,1533196414.187
1886883.0,1533196414.227
1884288.0,1533196414.307
1885367.0,1533196414.269
1883810.0,1533196414.348
1883382.0,1533196414.389
1883161.0,1533196414.428
1882584.0,1533196414.469
1882508.0,1533196414.509
1882608.0,1533196414.548
1882692.0,1533196414.588
1882698.0,1533196414.629
1883564.0,1533196414.708
1883314.0,1533196414.669
1884155.0,1533196414.789
1884682.0,1533196414.829
1883707.0,1533196414.749
1883016.0,1533196414.909
1880967.0,1533196414.949
1879220.0,1533196414.99
1884549.0,1533196414.871
1877585.0,1533196415.029
1875920.0,1533196415.07
1874843.0,1533196415.149
1874945.0,1533196415.11
1874085.0,1533196415.189
1874029.0,1533196415.271
1873873.0,1533196415.231
1874429.0,1533196415.31
1874872.0,1533196415.39
1875107.0,1533196415.43
1874369.0,1533196415.351
1876100.0,1533196415.51
1875851.0,1533196415.472
1876815.0,1533196415.55
1877188.0,1533196415.591
1878140.0,1533196415.63
1878463.0,1533196415.672
1878275.0,1533196415.712
1876327.0,1533196415.751
1874391.0,1533196415.791
1872471.0,1533196415.832
1870639.0,1533196415.872
1868969.0,1533196415.911
1868292.0,1533196415.952
1867704.0,1533196415.991
1866799.0,1533196416.031
1866353.0,1533196416.074
1865962.0,1533196416.112
1865921.0,1533196416.152
1865838.0,1533196416.193
1865772.0,1533196416.232
1865716.0,1533196416.273
1865981.0,1533196416.313
1865996.0,1533196416.352
1866461.0,1533196416.392
1867183.0,1533196416.433
1867586.0,1533196416.474
1868647.0,1533196416.513
1868389.0,1533196416.554
1867090.0,1533196416.593
1865849.0,1533196416.633
1864686.0,1533196416.675
1863641.0,1533196416.713
1862698.0,1533196416.753
1862766.0,1533196416.794
1862929.0,1533196416.833
1863026.0,1533196416.875
1862985.0,1533196416.915
1863729.0,1533196416.954
1864465.0,1533196416.994
1864997.0,1533196417.035
1865774.0,1533196417.075
1866653.0,1533196417.114
1867660.0,1533196417.155
1868477.0,1533196417.195
1869419.0,1533196417.235
1870587.0,1533196417.277
1871898.0,1533196417.315
1872042.0,1533196417.355
1870872.0,1533196417.396
1870201.0,1533196417.435
1869368.0,1533196417.476
1868698.0,1533196417.517
1868418.0,1533196417.556
1868627.0,1533196417.596
1868904.0,1533196417.637
1869127.0,1533196417.677
1869641.0,1533196417.716
1870365.0,1533196417.757
1870900.0,1533196417.796
1871679.0,1533196417.836
1872492.0,1533196417.879
1873301.0,1533196417.917
1874160.0,1533196417.957
1875238.0,1533196417.998
1876250.0,1533196418.037
1877230.0,1533196418.078
1877697.0,1533196418.118
1877342.0,1533196418.157
1876121.0,1533196418.198
1874993.0,1533196418.239
1874034.0,1533196418.279
1873200.0,1533196418.318
1872766.0,1533196418.359
1872854.0,1533196418.398
1873121.0,1533196418.438
1873246.0,1533196418.48
1873531.0,1533196418.518
1874001.0,1533196418.558
1875004.0,1533196418.6
1875902.0,1533196418.639
1876747.0,1533196418.68
1877527.0,1533196418.72
1878801.0,1533196418.759
1879789.0,1533196418.799
1880806.0,1533196418.84
1882067.0,1533196418.88
1882562.0,1533196418.919
1882156.0,1533196418.961
1881019.0,1533196419.0
1880235.0,1533196419.04
1879795.0,1533196419.082
1879023.0,1533196419.12
1878782.0,1533196419.16
1878988.0,1533196419.201
1878998.0,1533196419.24
1879459.0,1533196419.282
1880008.0,1533196419.322
1880549.0,1533196419.361
1881294.0,1533196419.401
1882149.0,1533196419.442
1882768.0,1533196419.482
1883459.0,1533196419.521
1884528.0,1533196419.562
1885237.0,1533196419.606
1886272.0,1533196419.646
1887200.0,1533196419.688
1888184.0,1533196419.726
1887534.0,1533196419.766
1885858.0,1533196419.846
1885016.0,1533196419.887
1886746.0,1533196419.807
1883978.0,1533196419.927
1883612.0,1533196419.967
1883746.0,1533196420.007
1884013.0,1533196420.048
1884339.0,1533196420.088
1885436.0,1533196420.207
1886864.0,1533196420.289
1887884.0,1533196420.328
1884996.0,1533196420.168
1888487.0,1533196420.368
1889182.0,1533196420.409
1884489.0,1533196420.127
1890011.0,1533196420.448
1890649.0,1533196420.489
1891308.0,1533196420.529
1891765.0,1533196420.569
1887201.0,1533196420.689
1888727.0,1533196420.65
1890339.0,1533196420.609
1886339.0,1533196420.248
1885632.0,1533196420.729
1884206.0,1533196420.77
1883371.0,1533196420.809
1883108.0,1533196420.849
1882563.0,1533196420.891
1882462.0,1533196420.929
1882278.0,1533196420.969
1882993.0,1533196421.09
1883685.0,1533196421.131
1884284.0,1533196421.17
1884827.0,1533196421.21
1882647.0,1533196421.049
1882215.0,1533196421.01
1885650.0,1533196421.251
1886300.0,1533196421.291
1887249.0,1533196421.33
1887837.0,1533196421.371
1887412.0,1533196421.41
1886682.0,1533196421.45
1886008.0,1533196421.492
1885369.0,1533196421.53
1884877.0,1533196421.57
1884966.0,1533196421.612
1885494.0,1533196421.691
1885422.0,1533196421.651
1886074.0,1533196421.732
1886431.0,1533196421.771
1887026.0,1533196421.811
1889052.0,1533196421.892
1890439.0,1533196421.972
1887738.0,1533196421.852
1889566.0,1533196421.931
1891471.0,1533196422.011
1892276.0,1533196422.051
1893130.0,1533196422.093
1894074.0,1533196422.132
1894658.0,1533196422.172
1893596.0,1533196422.213
1892342.0,1533196422.252
1891333.0,1533196422.293
1890491.0,1533196422.333
1889722.0,1533196422.372
1888901.0,1533196422.412
1889105.0,1533196422.453
1888820.0,1533196422.493
1888865.0,1533196422.532
1889059.0,1533196422.574
1889584.0,1533196422.613
1890031.0,1533196422.653
1890566.0,1533196422.694
1891499.0,1533196422.733
1892690.0,1533196422.814
1893435.0,1533196422.853
1894330.0,1533196422.894
1894991.0,1533196422.934
1895684.0,1533196422.973
1895207.0,1533196423.013
1893961.0,1533196423.055
1890926.0,1533196423.175
1891886.0,1533196423.134
1890451.0,1533196423.214
1892104.0,1533196422.773
1892943.0,1533196423.094
1890582.0,1533196423.254
1890870.0,1533196423.334
1890785.0,1533196423.296
1890805.0,1533196423.374
1890918.0,1533196423.415
1892425.0,1533196423.495
1891562.0,1533196423.454
1892911.0,1533196423.536
1893676.0,1533196423.575
1893993.0,1533196423.615
1894790.0,1533196423.656
1895536.0,1533196423.696
1896603.0,1533196423.735
1896762.0,1533196423.776
1896239.0,1533196423.815
1895178.0,1533196423.855
1894031.0,1533196423.897
1893124.0,1533196423.936
1892333.0,1533196423.976
1892196.0,1533196424.017
1891903.0,1533196424.056
1892261.0,1533196424.097
1892360.0,1533196424.137
1892590.0,1533196424.176
1892980.0,1533196424.216
1893249.0,1533196424.257
1893842.0,1533196424.297
1894605.0,1533196424.336
1894896.0,1533196424.378
1895571.0,1533196424.417
1896112.0,1533196424.457
1897231.0,1533196424.498
1897150.0,1533196424.537
1896208.0,1533196424.577
1895372.0,1533196424.618
1894253.0,1533196424.657
1893475.0,1533196424.698
1892451.0,1533196424.738
1892198.0,1533196424.777
1892518.0,1533196424.818
1892612.0,1533196424.859
1892313.0,1533196424.898
1892799.0,1533196424.938
1893291.0,1533196424.979
1893795.0,1533196425.018
1894191.0,1533196425.058
1894910.0,1533196425.1
1895536.0,1533196425.138
1895830.0,1533196425.179
1896572.0,1533196425.22
1897450.0,1533196425.259
1898240.0,1533196425.299
1897400.0,1533196425.34
1896141.0,1533196425.379
1895017.0,1533196425.419
1894195.0,1533196425.46
1893437.0,1533196425.5
1893237.0,1533196425.539
1893309.0,1533196425.58
1893123.0,1533196425.62
1892974.0,1533196425.66
1893175.0,1533196425.701
1893666.0,1533196425.74
1894076.0,1533196425.78
1894821.0,1533196425.821
1895183.0,1533196425.86
1895865.0,1533196425.901
1896394.0,1533196425.941
1897164.0,1533196425.98
1898031.0,1533196426.02
1898910.0,1533196426.061
1899452.0,1533196426.101
1899334.0,1533196426.141
1898436.0,1533196426.182
1897517.0,1533196426.221
1896333.0,1533196426.261
1895661.0,1533196426.303
1895439.0,1533196426.341
1895318.0,1533196426.381
1895581.0,1533196426.422
1895430.0,1533196426.461
1895817.0,1533196426.502
1896479.0,1533196426.543
1896693.0,1533196426.582
1897407.0,1533196426.622
1898195.0,1533196426.663
1898969.0,1533196426.703
1899797.0,1533196426.742
1900564.0,1533196426.783
1901336.0,1533196426.822
1902624.0,1533196426.862
1903595.0,1533196426.904
1903333.0,1533196426.943
1902708.0,1533196426.983
1901812.0,1533196427.024
1901389.0,1533196427.063
1901126.0,1533196427.104
1901130.0,1533196427.144
1901580.0,1533196427.183
1902011.0,1533196427.223
1902282.0,1533196427.265
1902572.0,1533196427.304
1903143.0,1533196427.344
1904303.0,1533196427.385
1905110.0,1533196427.424
1905930.0,1533196427.464
1906676.0,1533196427.506
1907431.0,1533196427.544
1908378.0,1533196427.584
1909229.0,1533196427.626
1910372.0,1533196427.665
1911002.0,1533196427.705
1910395.0,1533196427.746
1909044.0,1533196427.785
1908129.0,1533196427.825
1906933.0,1533196427.866
1905431.0,1533196427.906
1904854.0,1533196427.945
1904519.0,1533196427.987
1903783.0,1533196428.026
1903296.0,1533196428.066
1903124.0,1533196428.108
1903131.0,1533196428.146
1903102.0,1533196428.186
1903348.0,1533196428.227
1903902.0,1533196428.266
1904110.0,1533196428.307
1904545.0,1533196428.348
1905174.0,1533196428.387
1905910.0,1533196428.427
1906298.0,1533196428.468
1906516.0,1533196428.508
1906180.0,1533196428.547
1905041.0,1533196428.588
1903908.0,1533196428.627
1902482.0,1533196428.668
1901495.0,1533196428.709
1900874.0,1533196428.748
1900582.0,1533196428.788
1900630.0,1533196428.829
1900565.0,1533196428.868
1900780.0,1533196428.909
1900873.0,1533196428.949
1901393.0,1533196428.988
1902385.0,1533196429.029
1902924.0,1533196429.07
1903533.0,1533196429.109
1904112.0,1533196429.149
1904637.0,1533196429.19
1905548.0,1533196429.229
1905921.0,1533196429.269
1905488.0,1533196429.311
1904605.0,1533196429.35
1903716.0,1533196429.39
1902475.0,1533196429.431
1901810.0,1533196429.47
1901691.0,1533196429.511
1901634.0,1533196429.551
1901914.0,1533196429.59
1902248.0,1533196429.63
1902184.0,1533196429.672
1902747.0,1533196429.711
1903445.0,1533196429.751
1904473.0,1533196429.792
1905206.0,1533196429.831
1906096.0,1533196429.871
1906556.0,1533196429.913
1907056.0,1533196429.951
1907722.0,1533196429.991
1907175.0,1533196430.032
1905832.0,1533196430.071
1904420.0,1533196430.112
1903091.0,1533196430.153
1901637.0,1533196430.192
1901136.0,1533196430.232
1900724.0,1533196430.273
1900680.0,1533196430.313
1900390.0,1533196430.352
1900426.0,1533196430.393
1900897.0,1533196430.432
1901334.0,1533196430.472
1902852.0,1533196430.552
1901990.0,1533196430.514
1903594.0,1533196430.592
1904322.0,1533196430.633
1904958.0,1533196430.673
1905516.0,1533196430.754
1904898.0,1533196430.793
1905531.0,1533196430.713
1903425.0,1533196430.833
1901633.0,1533196430.874
1900480.0,1533196430.914
1899041.0,1533196430.953
1898081.0,1533196430.994
1897615.0,1533196431.033
1897437.0,1533196431.073
1897365.0,1533196431.115
1897269.0,1533196431.153
1897599.0,1533196431.235
1897523.0,1533196431.194
1898704.0,1533196431.314
1898161.0,1533196431.274
1899113.0,1533196431.355
1899721.0,1533196431.394
1900871.0,1533196431.475
1900485.0,1533196431.434
1901723.0,1533196431.515
1902190.0,1533196431.554
1901456.0,1533196431.595
1899665.0,1533196431.633
1898376.0,1533196431.673
1897054.0,1533196431.715
1895837.0,1533196431.754
1895049.0,1533196431.794
1894982.0,1533196431.835
1894843.0,1533196431.915
1895057.0,1533196431.955
1895292.0,1533196431.994
1895677.0,1533196432.034
1896075.0,1533196432.075
1896748.0,1533196432.115
1897540.0,1533196432.155
1894767.0,1533196431.874
1898217.0,1533196432.196
1898944.0,1533196432.235
1899899.0,1533196432.275
1901050.0,1533196432.317
1901338.0,1533196432.355
1900717.0,1533196432.395
1899333.0,1533196432.436
1898267.0,1533196432.475
1896510.0,1533196432.557
1897374.0,1533196432.516
1896293.0,1533196432.596
1896567.0,1533196432.636
1896678.0,1533196432.677
1897025.0,1533196432.717
1897407.0,1533196432.756
1898291.0,1533196432.797
1899925.0,1533196432.876
1900746.0,1533196432.918
1898842.0,1533196432.836
1901505.0,1533196432.956
1902617.0,1533196432.997
1903593.0,1533196433.038
1904395.0,1533196433.077
1905451.0,1533196433.118
1905059.0,1533196433.158
1903598.0,1533196433.197
1901394.0,1533196433.278
1900147.0,1533196433.318
1899916.0,1533196433.357
1899566.0,1533196433.399
1899804.0,1533196433.438
1899780.0,1533196433.478
1899753.0,1533196433.519
1900390.0,1533196433.558
1900628.0,1533196433.598
1901353.0,1533196433.639
1902007.0,1533196433.678
1902461.0,1533196433.719
1903240.0,1533196433.759
1904199.0,1533196433.798
1904898.0,1533196433.838
1905752.0,1533196433.88
1906180.0,1533196433.919
1905635.0,1533196433.959
1904523.0,1533196434.0
1903083.0,1533196434.039
1901459.0,1533196434.079
1900296.0,1533196434.121
1899161.0,1533196434.159
1899128.0,1533196434.199
1898626.0,1533196434.24
1898486.0,1533196434.28
1898444.0,1533196434.32
1898787.0,1533196434.361
1899247.0,1533196434.4
1899680.0,1533196434.44
1900312.0,1533196434.481
1902259.0,1533196433.237
1901150.0,1533196434.521
1901806.0,1533196434.56
1902327.0,1533196434.601
1903198.0,1533196434.64
1906144.0,1533196434.761
1904109.0,1533196434.68
1904082.0,1533196434.842
1905403.0,1533196434.801
1905377.0,1533196434.722
1903240.0,1533196434.881
1901039.0,1533196434.962
1902127.0,1533196434.922
1900239.0,1533196435.001
1900432.0,1533196435.041
1900541.0,1533196435.082
1900611.0,1533196435.122
1900619.0,1533196435.162
1901137.0,1533196435.203
1901555.0,1533196435.242
1902175.0,1533196435.282
1902792.0,1533196435.324
1903344.0,1533196435.362
1903564.0,1533196435.402
1904111.0,1533196435.443
1904208.0,1533196435.482
1904662.0,1533196435.523
1904998.0,1533196435.564
1904720.0,1533196435.603
1903304.0,1533196435.643
1901593.0,1533196435.684
1900026.0,1533196435.724
1898581.0,1533196435.763
1897099.0,1533196435.804
1896321.0,1533196435.843
1896009.0,1533196435.883
1896202.0,1533196435.925
1895857.0,1533196435.963
1895629.0,1533196436.004
1895807.0,1533196436.045
1896062.0,1533196436.084
1896637.0,1533196436.125
1897275.0,1533196436.165
1898125.0,1533196436.204
1898489.0,1533196436.244
1899670.0,1533196436.285
1900534.0,1533196436.325
1901456.0,1533196436.365
1901459.0,1533196436.406
1900483.0,1533196436.445
1899545.0,1533196436.485
1898828.0,1533196436.527
1897621.0,1533196436.565
1897295.0,1533196436.605
1897870.0,1533196436.646
1897983.0,1533196436.686
1897862.0,1533196436.726
1898188.0,1533196436.767
1898536.0,1533196436.806
1899083.0,1533196436.846
1899738.0,1533196436.887
1900660.0,1533196436.927
1901181.0,1533196436.966
1901831.0,1533196437.007
1902345.0,1533196437.046
1903091.0,1533196437.087
1904248.0,1533196437.128
1904647.0,1533196437.167
1903709.0,1533196437.207
1902633.0,1533196437.248
1901132.0,1533196437.288
1900130.0,1533196437.328
1899046.0,1533196437.368
1898512.0,1533196437.408
1898336.0,1533196437.448
1897469.0,1533196437.489
1897694.0,1533196437.529
1897923.0,1533196437.568
1898101.0,1533196437.609
1898380.0,1533196437.648
1898979.0,1533196437.688
1899464.0,1533196437.73
1899983.0,1533196437.769
1900515.0,1533196437.809
1900964.0,1533196437.85
1901691.0,1533196437.889
1901971.0,1533196437.93
1902017.0,1533196437.97
1900936.0,1533196438.009
1899268.0,1533196438.049
1897601.0,1533196438.091
1895863.0,1533196438.13
1894518.0,1533196438.17
1893768.0,1533196438.211
1893257.0,1533196438.25
1892885.0,1533196438.29
1892784.0,1533196438.332
1893002.0,1533196438.37
1893273.0,1533196438.41
1893621.0,1533196438.452
1894134.0,1533196438.491
1894993.0,1533196438.531
1895659.0,1533196438.572
1896286.0,1533196438.611
1897085.0,1533196438.651
1898096.0,1533196438.692
1898823.0,1533196438.732
1898695.0,1533196438.771
1897739.0,1533196438.813
1894504.0,1533196438.892
1895942.0,1533196438.852
1893068.0,1533196438.934
1891814.0,1533196438.972
1891567.0,1533196439.012
1890936.0,1533196439.053
1890705.0,1533196439.092
1890145.0,1533196439.133
1890595.0,1533196439.173
1890543.0,1533196439.212
1890676.0,1533196439.253
1891323.0,1533196439.294
1891965.0,1533196439.333
1892545.0,1533196439.373
1893390.0,1533196439.414
1894023.0,1533196439.453
1894803.0,1533196439.493
1894680.0,1533196439.535
1893115.0,1533196439.573
1891604.0,1533196439.613
1890344.0,1533196439.654
1889073.0,1533196439.693
1888137.0,1533196439.734
1887559.0,1533196439.774
1887475.0,1533196439.813
1887525.0,1533196439.854
1887274.0,1533196439.895
1887399.0,1533196439.934
1887781.0,1533196439.974
1888274.0,1533196440.015
1888798.0,1533196440.054
1889375.0,1533196440.094
1889966.0,1533196440.136
1890660.0,1533196440.174
1891198.0,1533196440.214
1892060.0,1533196440.255
1891930.0,1533196440.294
1890859.0,1533196440.335
1889137.0,1533196440.376
1887446.0,1533196440.415
1885916.0,1533196440.455
1884489.0,1533196440.496
1884002.0,1533196440.536
1883719.0,1533196440.575
1883351.0,1533196440.616
1883337.0,1533196440.655
1883284.0,1533196440.695
1883990.0,1533196440.737
1884134.0,1533196440.775
1884594.0,1533196440.816
1885458.0,1533196440.857
1885846.0,1533196440.896
1886391.0,1533196440.937
1887366.0,1533196440.977
1888599.0,1533196441.016
1888974.0,1533196441.056
1888571.0,1533196441.097
1887368.0,1533196441.137
1886055.0,1533196441.176
1885039.0,1533196441.217
1883991.0,1533196441.256
1883283.0,1533196441.297
1883542.0,1533196441.338
1883836.0,1533196441.377
1883762.0,1533196441.417
1884153.0,1533196441.458
1884755.0,1533196441.497
1885478.0,1533196441.538
1886446.0,1533196441.578
1887287.0,1533196441.617
1888288.0,1533196441.657
1889271.0,1533196441.698
1890451.0,1533196441.738
1891383.0,1533196441.778
1892409.0,1533196441.819
1892653.0,1533196441.858
1892036.0,1533196441.898
1891359.0,1533196441.939
1890654.0,1533196441.978
1890147.0,1533196442.018
1890492.0,1533196442.059
1891260.0,1533196442.098
1891838.0,1533196442.139
1892536.0,1533196442.179
1893298.0,1533196442.218
1894167.0,1533196442.258
1895349.0,1533196442.3
1896273.0,1533196442.339
1897469.0,1533196442.379
1898371.0,1533196442.42
1899704.0,1533196442.459
1901036.0,1533196442.499
1902101.0,1533196442.541
1902963.0,1533196442.579
1902764.0,1533196442.619
1901486.0,1533196442.66
1900477.0,1533196442.699
1899871.0,1533196442.74
1898817.0,1533196442.781
1898638.0,1533196442.82
1899006.0,1533196442.86
1899315.0,1533196442.901
1899227.0,1533196442.941
1899682.0,1533196442.98
1900218.0,1533196443.021
1900952.0,1533196443.06
1901695.0,1533196443.1
1902545.0,1533196443.142
1903513.0,1533196443.181
1904432.0,1533196443.221
1905258.0,1533196443.262
1906082.0,1533196443.301
1905845.0,1533196443.342
1904453.0,1533196443.382
1903362.0,1533196443.421
1902256.0,1533196443.461
1901581.0,1533196443.502
1901132.0,1533196443.542
1901293.0,1533196443.581
1901169.0,1533196443.623
1901595.0,1533196443.663
1901967.0,1533196443.703
1902372.0,1533196443.745
1902849.0,1533196443.783
1903660.0,1533196443.823
1904419.0,1533196443.864
1906687.0,1533196443.984
1906416.0,1533196444.023
1905207.0,1533196443.903
1906157.0,1533196443.944
1905470.0,1533196444.063
1903946.0,1533196444.105
1902721.0,1533196444.144
1901564.0,1533196444.184
1900697.0,1533196444.225
1900461.0,1533196444.264
1900692.0,1533196444.304
1900697.0,1533196444.346
1901054.0,1533196444.384
1901005.0,1533196444.424
1901515.0,1533196444.466
1902118.0,1533196444.505
1902740.0,1533196444.545
1903417.0,1533196444.586
1903978.0,1533196444.625
1904796.0,1533196444.665
1905491.0,1533196444.706
1905017.0,1533196444.746
1903820.0,1533196444.785
1902504.0,1533196444.826
1901339.0,1533196444.865
1900279.0,1533196444.905
1899293.0,1533196444.947
1899076.0,1533196445.026
1899362.0,1533196444.986
1899085.0,1533196445.067
1900813.0,1533196445.226
1899977.0,1533196445.187
1899638.0,1533196445.147
1901307.0,1533196445.266
1899492.0,1533196445.106
1901886.0,1533196445.307
1902495.0,1533196445.347
1903207.0,1533196445.386
1904417.0,1533196445.428
1905292.0,1533196445.467
1904384.0,1533196445.549
1905342.0,1533196445.507
1903484.0,1533196445.587
1902327.0,1533196445.627
1901475.0,1533196445.668
1900940.0,1533196445.707
1900719.0,1533196445.748
1901021.0,1533196445.788
1901118.0,1533196445.827
1901663.0,1533196445.868
1901949.0,1533196445.909
1902559.0,1533196445.948
1903736.0,1533196445.988
1904431.0,1533196446.029
1905290.0,1533196446.068
1906298.0,1533196446.108
1906986.0,1533196446.15
1908047.0,1533196446.188
1909267.0,1533196446.228
1909534.0,1533196446.27
1908701.0,1533196446.309
1908004.0,1533196446.349
1907588.0,1533196446.39
1907308.0,1533196446.429
1907677.0,1533196446.469
1908027.0,1533196446.51
1908300.0,1533196446.55
1909035.0,1533196446.589
1909459.0,1533196446.631
1910221.0,1533196446.67
1911021.0,1533196446.71
1912005.0,1533196446.752
1912960.0,1533196446.79
1913656.0,1533196446.83
1914641.0,1533196446.871
1915742.0,1533196446.91
1916429.0,1533196446.951
1916972.0,1533196447.031
1917263.0,1533196446.992
1916093.0,1533196447.071
1915165.0,1533196447.112
1914228.0,1533196447.152
1913314.0,1533196447.191
1913049.0,1533196447.232
1912836.0,1533196447.271
1913240.0,1533196447.353
1913168.0,1533196447.311
1913352.0,1533196447.392
1913482.0,1533196447.432
1914160.0,1533196447.473
1914553.0,1533196447.512
1914850.0,1533196447.553
1915458.0,1533196447.593
1916281.0,1533196447.632
1917002.0,1533196447.672
1918277.0,1533196447.713
1919349.0,1533196447.753
1919733.0,1533196447.793
1919370.0,1533196447.834
1918745.0,1533196447.873
1918021.0,1533196447.913
1917112.0,1533196447.955
1916390.0,1533196447.993
1916310.0,1533196448.033
1916191.0,1533196448.075
1916307.0,1533196448.114
1916491.0,1533196448.154
1916501.0,1533196448.195
1916864.0,1533196448.234
1917561.0,1533196448.274
1917986.0,1533196448.315
1918544.0,1533196448.355
1919093.0,1533196448.395
1919630.0,1533196448.436
1919887.0,1533196448.475
1920653.0,1533196448.515
1921047.0,1533196448.557
1921181.0,1533196448.595
1919810.0,1533196448.635
1918184.0,1533196448.676
1916694.0,1533196448.715
1914963.0,1533196448.756
1913503.0,1533196448.797
1913074.0,1533196448.836
1912640.0,1533196448.876
1912472.0,1533196448.917
1912721.0,1533196448.957
1913565.0,1533196449.037
1914046.0,1533196449.076
1913042.0,1533196448.996
1915046.0,1533196449.116
1915627.0,1533196449.158
1916637.0,1533196449.196
1917519.0,1533196449.236
1918241.0,1533196449.278
1918975.0,1533196449.317
1919068.0,1533196449.357
1918473.0,1533196449.398
1917674.0,1533196449.437
1917289.0,1533196449.477
1916804.0,1533196449.518
1916852.0,1533196449.558
1917661.0,1533196449.638
1917260.0,1533196449.597
1917918.0,1533196449.677
1918487.0,1533196449.718
1919294.0,1533196449.759
1919834.0,1533196449.798
1920749.0,1533196449.838
1921390.0,1533196449.879
1922219.0,1533196449.918
1923168.0,1533196449.959
1923922.0,1533196449.999
1924889.0,1533196450.038
1925614.0,1533196450.078
1925317.0,1533196450.12
1924232.0,1533196450.159
1922869.0,1533196450.199
1921610.0,1533196450.24
1920747.0,1533196450.279
1920419.0,1533196450.319
1920096.0,1533196450.361
1919925.0,1533196450.399
1919541.0,1533196450.439
1919550.0,1533196450.481
1919827.0,1533196450.52
1920124.0,1533196450.56
1920510.0,1533196450.601
1920966.0,1533196450.64
1921421.0,1533196450.68
1921791.0,1533196450.721
1922521.0,1533196450.761
1923132.0,1533196450.8
1923771.0,1533196450.841
1923144.0,1533196450.88
1921773.0,1533196450.921
1920592.0,1533196450.962
1919910.0,1533196451.001
1918485.0,1533196451.041
1917633.0,1533196451.082
1917361.0,1533196451.121
1917077.0,1533196451.162
1916724.0,1533196451.202
1916792.0,1533196451.241
1917104.0,1533196451.282
1916947.0,1533196451.323
1917598.0,1533196451.362
1918167.0,1533196451.402
1918371.0,1533196451.443
1918789.0,1533196451.482
1919261.0,1533196451.522
1919922.0,1533196451.564
1920996.0,1533196451.602
1920687.0,1533196451.642
1919442.0,1533196451.683
1918032.0,1533196451.723
1916656.0,1533196451.763
1915764.0,1533196451.804
1915200.0,1533196451.843
1914905.0,1533196451.883
1914652.0,1533196451.924
1914505.0,1533196451.964
1914777.0,1533196452.003
1914884.0,1533196452.045
1915610.0,1533196452.084
1916150.0,1533196452.124
1916776.0,1533196452.166
1917246.0,1533196452.204
1917921.0,1533196452.244
1919836.0,1533196452.324
1918721.0,1533196452.285
1920832.0,1533196452.365
1920836.0,1533196452.405
1920194.0,1533196452.444
1919224.0,1533196452.485
1918429.0,1533196452.526
1917829.0,1533196452.565
1917454.0,1533196452.605
1917299.0,1533196452.646
1917584.0,1533196452.685
1917891.0,1533196452.725
1918196.0,1533196452.767
1918506.0,1533196452.805
1919172.0,1533196452.846
1920018.0,1533196452.887
1920947.0,1533196452.926
1921703.0,1533196452.967
1922228.0,1533196453.007
1923127.0,1533196453.046
1924242.0,1533196453.086
1925194.0,1533196453.127
1925439.0,1533196453.167
1924558.0,1533196453.207
1923967.0,1533196453.248
1922847.0,1533196453.287
1921787.0,1533196453.327
1921093.0,1533196453.369
1920662.0,1533196453.407
1920654.0,1533196453.447
1920376.0,1533196453.488
1920369.0,1533196453.527
1920554.0,1533196453.568
1920963.0,1533196453.608
1921458.0,1533196453.648
1921774.0,1533196453.688
1922253.0,1533196453.729
1922851.0,1533196453.769
1923462.0,1533196453.808
1924359.0,1533196453.849
1924817.0,1533196453.888
1925639.0,1533196453.928
1925784.0,1533196453.97
1924794.0,1533196454.008
1923634.0,1533196454.048
1922122.0,1533196454.09
1920324.0,1533196454.17
1921068.0,1533196454.129
1920224.0,1533196454.21
1920060.0,1533196454.249
1919924.0,1533196454.289
1919793.0,1533196454.33
1919889.0,1533196454.37
1920206.0,1533196454.41
1920695.0,1533196454.451
1921537.0,1533196454.49
1922099.0,1533196454.53
1922885.0,1533196454.572
1923595.0,1533196454.61
1924346.0,1533196454.65
1925493.0,1533196454.691
1926109.0,1533196454.73
1926924.0,1533196454.771
1926692.0,1533196454.811
1925876.0,1533196454.851
1924751.0,1533196454.891
1923754.0,1533196454.932
1923160.0,1533196454.971
1922590.0,1533196455.011
1922500.0,1533196455.052
1922887.0,1533196455.091
1922975.0,1533196455.131
1923074.0,1533196455.173
1923592.0,1533196455.211
1923998.0,1533196455.251
1924681.0,1533196455.293
1925267.0,1533196455.332
1925761.0,1533196455.372
1926349.0,1533196455.413
1927223.0,1533196455.452
1928012.0,1533196455.492
1928921.0,1533196455.533
1929506.0,1533196455.573
1929814.0,1533196455.612
1929294.0,1533196455.653
1928527.0,1533196455.692
1927628.0,1533196455.733
1926621.0,1533196455.774
1926294.0,1533196455.813
1926202.0,1533196455.853
1926526.0,1533196455.894
1926478.0,1533196455.933
1926914.0,1533196455.974
1926959.0,1533196456.014
1927421.0,1533196456.053
1928239.0,1533196456.093
1928741.0,1533196456.134
1929145.0,1533196456.174
1929852.0,1533196456.214
1930550.0,1533196456.255
1931045.0,1533196456.294
1931725.0,1533196456.334
1932412.0,1533196456.376
1933075.0,1533196456.414
1933622.0,1533196456.454
1932861.0,1533196456.495
1931744.0,1533196456.535
1930345.0,1533196456.575
1929135.0,1533196456.616
1928017.0,1533196456.655
1927367.0,1533196456.695
1927062.0,1533196456.736
1926573.0,1533196456.776
1926400.0,1533196456.815
1926415.0,1533196456.856
1926515.0,1533196456.896
1926965.0,1533196456.936
1926997.0,1533196456.977
1927332.0,1533196457.016
1927738.0,1533196457.056
1928169.0,1533196457.097
1928963.0,1533196457.136
1929844.0,1533196457.217
1929533.0,1533196457.177
1930652.0,1533196457.257
1931177.0,1533196457.297
1930285.0,1533196457.338
1929372.0,1533196457.378
1927954.0,1533196457.417
1927119.0,1533196457.458
1926129.0,1533196457.497
1925609.0,1533196457.537
1925406.0,1533196457.579
1925298.0,1533196457.618
1925025.0,1533196457.658
1925333.0,1533196457.699
1925782.0,1533196457.738
1926143.0,1533196457.779
1926646.0,1533196457.819
1927178.0,1533196457.858
1927681.0,1533196457.898
1929003.0,1533196457.979
1930410.0,1533196458.018
1931072.0,1533196458.059
1931977.0,1533196458.098
1931449.0,1533196458.139
1928540.0,1533196457.939
1930494.0,1533196458.18
1929353.0,1533196458.219
1928589.0,1533196458.259
1928481.0,1533196458.38
1928230.0,1533196458.339
1928707.0,1533196458.42
1928133.0,1533196458.3
1929159.0,1533196458.499
1930038.0,1533196458.58
1928979.0,1533196458.459
1930637.0,1533196458.619
1929521.0,1533196458.54
1931035.0,1533196458.661
1931881.0,1533196458.7
1932351.0,1533196458.74
1933175.0,1533196458.781
1933742.0,1533196458.82
1934348.0,1533196458.86
1934012.0,1533196458.901
1932575.0,1533196458.94
1931139.0,1533196458.981
1929687.0,1533196459.021
1928334.0,1533196459.06
1927160.0,1533196459.1
1926470.0,1533196459.141
1926190.0,1533196459.181
1925483.0,1533196459.22
1925360.0,1533196459.262
1925106.0,1533196459.301
1924825.0,1533196459.341
1924993.0,1533196459.383
1925243.0,1533196459.421
1925408.0,1533196459.461
1925636.0,1533196459.502
1926007.0,1533196459.541
1926236.0,1533196459.582
1926641.0,1533196459.622
1926696.0,1533196459.661
1925544.0,1533196459.701
1923453.0,1533196459.742
1921533.0,1533196459.782
1919659.0,1533196459.822
1918097.0,1533196459.863
1916496.0,1533196459.902
1915669.0,1533196459.942
1915146.0,1533196459.984
1914595.0,1533196460.022
1914226.0,1533196460.062
1913946.0,1533196460.103
1914154.0,1533196460.142
1914006.0,1533196460.183
1914315.0,1533196460.223
1914414.0,1533196460.263
1914471.0,1533196460.303
1914843.0,1533196460.344
1915465.0,1533196460.383
1915995.0,1533196460.423
1916309.0,1533196460.464
1915045.0,1533196460.503
1913244.0,1533196460.543
1911319.0,1533196460.585
1909392.0,1533196460.623
1908015.0,1533196460.663
1906754.0,1533196460.704
1906225.0,1533196460.744
1905499.0,1533196460.784
1905131.0,1533196460.825
1905108.0,1533196460.864
1905008.0,1533196460.904
1905389.0,1533196460.945
1905686.0,1533196460.985
1906139.0,1533196461.024
1906783.0,1533196461.065
1907598.0,1533196461.104
1908021.0,1533196461.144
1909008.0,1533196461.186
1909631.0,1533196461.225
1910481.0,1533196461.265
1910559.0,1533196461.306
1909509.0,1533196461.345
1907880.0,1533196461.386
1906934.0,1533196461.426
1905583.0,1533196461.465
1904671.0,1533196461.505
1904456.0,1533196461.546
1904660.0,1533196461.586
1904482.0,1533196461.625
1904688.0,1533196461.667
1905203.0,1533196461.706
1905719.0,1533196461.746
1906404.0,1533196461.788
1907156.0,1533196461.826
1907682.0,1533196461.866
1908684.0,1533196461.907
1909148.0,1533196461.946
1909945.0,1533196461.987
1910925.0,1533196462.027
1911801.0,1533196462.066
1912087.0,1533196462.106
1910744.0,1533196462.147
1909352.0,1533196462.187
1907480.0,1533196462.227
1906139.0,1533196462.268
1904719.0,1533196462.307
1904003.0,1533196462.347
1903632.0,1533196462.388
1903529.0,1533196462.427
1903423.0,1533196462.467
1903550.0,1533196462.508
1903734.0,1533196462.547
1904126.0,1533196462.588
1904558.0,1533196462.628
1904767.0,1533196462.667
1905530.0,1533196462.707
1906042.0,1533196462.748
1906620.0,1533196462.788
1907514.0,1533196462.828
1908031.0,1533196462.869
1908868.0,1533196462.908
1909210.0,1533196462.948
1908110.0,1533196462.99
1906808.0,1533196463.028
1905224.0,1533196463.068
1903331.0,1533196463.109
1901745.0,1533196463.148
1900815.0,1533196463.189
1900518.0,1533196463.229
1900006.0,1533196463.268
1900113.0,1533196463.309
1900074.0,1533196463.35
1900091.0,1533196463.389
1900385.0,1533196463.429
1901040.0,1533196463.47
1901335.0,1533196463.509
1902065.0,1533196463.549
1902574.0,1533196463.591
1903036.0,1533196463.629
1903769.0,1533196463.669
1904687.0,1533196463.71
1905674.0,1533196463.75
1906419.0,1533196463.79
1906129.0,1533196463.831
1905035.0,1533196463.87
1903442.0,1533196463.91
1901801.0,1533196463.951
1900468.0,1533196463.991
1899141.0,1533196464.03
1898803.0,1533196464.071
1898640.0,1533196464.11
1898783.0,1533196464.15
1898673.0,1533196464.192
1899117.0,1533196464.23
1899602.0,1533196464.27
1899897.0,1533196464.312
1900594.0,1533196464.351
1901456.0,1533196464.391
1902487.0,1533196464.432
1903378.0,1533196464.471
1903943.0,1533196464.511
1905114.0,1533196464.552
1906099.0,1533196464.592
1907128.0,1533196464.631
1907211.0,1533196464.672
1906510.0,1533196464.712
1905203.0,1533196464.752
1904023.0,1533196464.793
1903323.0,1533196464.832
1902812.0,1533196464.872
1902996.0,1533196464.913
1903044.0,1533196464.952
1903198.0,1533196464.993
1903479.0,1533196465.033
1904184.0,1533196465.072
1904804.0,1533196465.112
1905659.0,1533196465.153
1906398.0,1533196465.193
1907155.0,1533196465.233
1907781.0,1533196465.274
1908623.0,1533196465.313
1909398.0,1533196465.353
1910499.0,1533196465.395
1911446.0,1533196465.433
1911759.0,1533196465.473
1911396.0,1533196465.514
1910000.0,1533196465.553
1908701.0,1533196465.594
1907479.0,1533196465.634
1906193.0,1533196465.674
1905320.0,1533196465.714
1905448.0,1533196465.755
1905329.0,1533196465.795
1905140.0,1533196465.834
1905528.0,1533196465.875
1905897.0,1533196465.914
1906446.0,1533196465.954
1906841.0,1533196465.996
1907545.0,1533196466.034
1908556.0,1533196466.074
1909133.0,1533196466.116
1909699.0,1533196466.155
1910022.0,1533196466.196
1910937.0,1533196466.236
1911598.0,1533196466.275
1911862.0,1533196466.315
1911074.0,1533196466.356
1909251.0,1533196466.396
1907464.0,1533196466.435
1906010.0,1533196466.477
1904325.0,1533196466.516
1903233.0,1533196466.556
1902428.0,1533196466.598
1902237.0,1533196466.636
1901912.0,1533196466.676
1901619.0,1533196466.717
1901945.0,1533196466.756
1902002.0,1533196466.797
1902443.0,1533196466.838
1903042.0,1533196466.877
1903670.0,1533196466.917
1904143.0,1533196466.958
1904845.0,1533196466.998
1905586.0,1533196467.037
1906478.0,1533196467.078
1907226.0,1533196467.117
1907887.0,1533196467.157
1907198.0,1533196467.199
1905628.0,1533196467.237
1904315.0,1533196467.278
1902841.0,1533196467.319
1901642.0,1533196467.359
1901188.0,1533196467.399
1901033.0,1533196467.439
1900952.0,1533196467.478
1901323.0,1533196467.518
1901474.0,1533196467.559
1901152.0,1533196467.599
1901964.0,1533196467.639
1902136.0,1533196467.68
1902806.0,1533196467.718
1903213.0,1533196467.758
1904243.0,1533196467.8
1904709.0,1533196467.838
1906514.0,1533196467.919
1905592.0,1533196467.878
1907159.0,1533196467.999
1903809.0,1533196468.2
1903890.0,1533196468.16
1904409.0,1533196468.119
1905103.0,1533196468.079
1906147.0,1533196468.04
1904095.0,1533196468.28
1904990.0,1533196468.36
1904009.0,1533196468.239
1907553.0,1533196467.959
1904656.0,1533196468.32
1905600.0,1533196468.401
1906535.0,1533196468.44
1907185.0,1533196468.48
1907948.0,1533196468.521
1908734.0,1533196468.56
1909369.0,1533196468.601
1910014.0,1533196468.641
1910917.0,1533196468.68
1912060.0,1533196468.72
1911491.0,1533196468.761
1910073.0,1533196468.801
1908435.0,1533196468.841
1907095.0,1533196468.882
1903825.0,1533196469.003
1904376.0,1533196468.961
1903660.0,1533196469.041
1905649.0,1533196468.921
1903555.0,1533196469.081
1903531.0,1533196469.122
1903636.0,1533196469.161
1904408.0,1533196469.242
1903746.0,1533196469.202
1904827.0,1533196469.282
1905384.0,1533196469.322
1905855.0,1533196469.363
1906557.0,1533196469.402
1909070.0,1533196469.522
1906845.0,1533196469.642
1905245.0,1533196469.682
1903950.0,1533196469.723
1902404.0,1533196469.762
1909306.0,1533196469.562
1902230.0,1533196469.803
1901908.0,1533196469.844
1908176.0,1533196469.604
1901749.0,1533196469.883
1901711.0,1533196469.923
1907961.0,1533196469.483
1901619.0,1533196469.964
1907255.0,1533196469.442
1902230.0,1533196470.003
1902550.0,1533196470.043
1903265.0,1533196470.084
1903542.0,1533196470.123
1904276.0,1533196470.163
1905027.0,1533196470.205
1906529.0,1533196470.284
1907608.0,1533196470.325
1908115.0,1533196470.364
1907638.0,1533196470.405
1902699.0,1533196470.565
1905024.0,1533196470.484
1901949.0,1533196470.605
1902049.0,1533196470.644
1903710.0,1533196470.524
1905730.0,1533196470.243
1901844.0,1533196470.685
1906204.0,1533196470.445
1902043.0,1533196470.724
1902306.0,1533196470.765
1902488.0,1533196470.806
1903122.0,1533196470.845
1903760.0,1533196470.885
1904479.0,1533196470.926
1905169.0,1533196470.965
1905643.0,1533196471.006
1906587.0,1533196471.046
1907382.0,1533196471.085
1908680.0,1533196471.125
1909256.0,1533196471.166
1908962.0,1533196471.206
1907602.0,1533196471.246
1906833.0,1533196471.287
1906243.0,1533196471.326
1905794.0,1533196471.366
1905864.0,1533196471.408
1906339.0,1533196471.446
1906635.0,1533196471.486
1907174.0,1533196471.527
1907479.0,1533196471.566
1908217.0,1533196471.607
1909181.0,1533196471.647
1909957.0,1533196471.687
1910989.0,1533196471.727
1911425.0,1533196471.768
1912235.0,1533196471.808
1913246.0,1533196471.847
1914251.0,1533196471.888
1915056.0,1533196471.927
1914677.0,1533196471.967
1913184.0,1533196472.009
1911864.0,1533196472.047
1910588.0,1533196472.088
1909595.0,1533196472.129
1909165.0,1533196472.168
1909003.0,1533196472.209
1908725.0,1533196472.249
1909032.0,1533196472.288
1909155.0,1533196472.328
1909470.0,1533196472.369
1909935.0,1533196472.409
1910351.0,1533196472.449
1910906.0,1533196472.49
1911432.0,1533196472.529
1912061.0,1533196472.569
1912728.0,1533196472.611
1913782.0,1533196472.649
1914631.0,1533196472.689
1915157.0,1533196472.73
1913885.0,1533196472.769
1912617.0,1533196472.81
1911385.0,1533196472.85
1910405.0,1533196472.89
1909474.0,1533196472.93
1908894.0,1533196472.971
1908933.0,1533196473.01
1908787.0,1533196473.05
1908862.0,1533196473.091
1909435.0,1533196473.13
1909607.0,1533196473.17
1910271.0,1533196473.212
1910900.0,1533196473.25
1911311.0,1533196473.29
1912157.0,1533196473.332
1912975.0,1533196473.371
1913840.0,1533196473.411
1914585.0,1533196473.452
1915558.0,1533196473.491
1916125.0,1533196473.531
1915201.0,1533196473.572
1914357.0,1533196473.612
1913192.0,1533196473.651
1912565.0,1533196473.693
1911540.0,1533196473.732
1911246.0,1533196473.772
1911240.0,1533196473.814
1911018.0,1533196473.852
1911215.0,1533196473.892
1911411.0,1533196473.933
1911720.0,1533196473.972
1912219.0,1533196474.013
1913085.0,1533196474.053
1913583.0,1533196474.093
1914133.0,1533196474.133
1915135.0,1533196474.174
1915841.0,1533196474.214
1917027.0,1533196474.253
1917898.0,1533196474.294
1918517.0,1533196474.333
1918175.0,1533196474.373
1917139.0,1533196474.415
1916515.0,1533196474.453
1915834.0,1533196474.494
1915453.0,1533196474.535
1915430.0,1533196474.574
1915723.0,1533196474.615
1916172.0,1533196474.655
1916521.0,1533196474.694
1916939.0,1533196474.734
1917216.0,1533196474.775
1918507.0,1533196474.815
1919206.0,1533196474.854
1920043.0,1533196474.895
1921240.0,1533196474.935
1922129.0,1533196474.975
1923537.0,1533196475.016
1924801.0,1533196475.055
1925458.0,1533196475.095
1925265.0,1533196475.136
1924274.0,1533196475.175
1923852.0,1533196475.216
1923085.0,1533196475.256
1922786.0,1533196475.296
1922606.0,1533196475.336
1922668.0,1533196475.377
1922807.0,1533196475.417
1923005.0,1533196475.456
1923015.0,1533196475.497
1923550.0,1533196475.536
1924041.0,1533196475.576
1924785.0,1533196475.618
1925494.0,1533196475.657
1926127.0,1533196475.697
1926709.0,1533196475.738
1927317.0,1533196475.777
1928092.0,1533196475.818
1928910.0,1533196475.858
1928827.0,1533196475.897
1927773.0,1533196475.937
1926799.0,1533196475.979
1925353.0,1533196476.018
1924514.0,1533196476.058
1923603.0,1533196476.099
1923015.0,1533196476.138
1923029.0,1533196476.178
1923054.0,1533196476.22
1922961.0,1533196476.258
1923285.0,1533196476.298
1923444.0,1533196476.34
1924020.0,1533196476.379
1924345.0,1533196476.419
1925042.0,1533196476.46
1925667.0,1533196476.499
1926107.0,1533196476.539
1926585.0,1533196476.58
1927645.0,1533196476.62
1928241.0,1533196476.659
1927879.0,1533196476.701
1926544.0,1533196476.74
1925349.0,1533196476.78
1924369.0,1533196476.822
1923449.0,1533196476.86
1922413.0,1533196476.9
1922223.0,1533196476.941
1922218.0,1533196476.98
1922239.0,1533196477.021
1922142.0,1533196477.062
1922465.0,1533196477.101
1922655.0,1533196477.141
1923161.0,1533196477.182
1923768.0,1533196477.222
1924199.0,1533196477.261
1924978.0,1533196477.303
1925372.0,1533196477.342
1926108.0,1533196477.382
1926841.0,1533196477.424
1927298.0,1533196477.462
1926647.0,1533196477.502
1925355.0,1533196477.543
1924604.0,1533196477.582
1923726.0,1533196477.623
1923180.0,1533196477.663
1923099.0,1533196477.702
1923487.0,1533196477.742
1923889.0,1533196477.784
1924348.0,1533196477.823
1924886.0,1533196477.863
1925772.0,1533196477.904
1926819.0,1533196477.943
1927884.0,1533196477.983
1928892.0,1533196478.025
1930056.0,1533196478.063
1931212.0,1533196478.103
1932116.0,1533196478.144
1933441.0,1533196478.183
1934193.0,1533196478.224
1933831.0,1533196478.264
1933032.0,1533196478.303
1932328.0,1533196478.343
1931506.0,1533196478.385
1930898.0,1533196478.424
1930838.0,1533196478.464
1930591.0,1533196478.505
1930102.0,1533196478.544
1929627.0,1533196478.584
1929470.0,1533196478.626
1929292.0,1533196478.664
1929122.0,1533196478.704
1929156.0,1533196478.745
1929552.0,1533196478.784
1929694.0,1533196478.825
1930329.0,1533196478.866
1930654.0,1533196478.905
1931145.0,1533196478.945
1931398.0,1533196478.986
1930423.0,1533196479.026
1928877.0,1533196479.065
1927452.0,1533196479.106
1926213.0,1533196479.145
1925161.0,1533196479.185
1924262.0,1533196479.227
1924363.0,1533196479.265
1924274.0,1533196479.306
1923940.0,1533196479.347
1923873.0,1533196479.386
1923837.0,1533196479.427
1923985.0,1533196479.467
1924248.0,1533196479.506
1924713.0,1533196479.546
1924939.0,1533196479.587
1925044.0,1533196479.627
1925493.0,1533196479.666
1925981.0,1533196479.708
1925759.0,1533196479.748
1924638.0,1533196479.788
1923255.0,1533196479.83
1921822.0,1533196479.868
1920489.0,1533196479.908
1919498.0,1533196479.949
1918992.0,1533196479.988
1918554.0,1533196480.029
1918424.0,1533196480.069
1918383.0,1533196480.108
1918492.0,1533196480.148
1918806.0,1533196480.189
1919184.0,1533196480.229
1919451.0,1533196480.269
1919974.0,1533196480.31
1920158.0,1533196480.349
1920902.0,1533196480.389
1921449.0,1533196480.431
1922155.0,1533196480.469
1922729.0,1533196480.509
1922076.0,1533196480.55
1921312.0,1533196480.589
1920102.0,1533196480.63
1919406.0,1533196480.671
1918526.0,1533196480.71
1918286.0,1533196480.75
1917904.0,1533196480.791
1918005.0,1533196480.831
1917940.0,1533196480.87
1918118.0,1533196480.911
1918286.0,1533196480.95
1918830.0,1533196480.99
1919248.0,1533196481.032
1920114.0,1533196481.07
1920746.0,1533196481.111
1921765.0,1533196481.152
1923012.0,1533196481.191
1924429.0,1533196481.231
1924846.0,1533196481.272
1924273.0,1533196481.311
1923493.0,1533196481.351
1922831.0,1533196481.392
1922212.0,1533196481.432
1921244.0,1533196481.513
1921125.0,1533196481.552
1921131.0,1533196481.592
1921683.0,1533196481.471
1920830.0,1533196481.633
1921057.0,1533196481.672
1921133.0,1533196481.712
1921426.0,1533196481.753
1921880.0,1533196481.792
1921968.0,1533196481.833
1922096.0,1533196481.873
1923692.0,1533196481.994
1918368.0,1533196482.235
1924002.0,1533196482.034
1920618.0,1533196482.153
1917677.0,1533196482.314
1919663.0,1533196482.193
1921882.0,1533196482.114
1923086.0,1533196481.953
1923074.0,1533196482.073
1917951.0,1533196482.273
1922488.0,1533196481.912
1917661.0,1533196482.355
1917538.0,1533196482.394
1917501.0,1533196482.435
1917621.0,1533196482.475
1917767.0,1533196482.514
1918967.0,1533196482.674
1920008.0,1533196482.755
1920771.0,1533196482.795
1919353.0,1533196482.716
1918630.0,1533196482.595
1920521.0,1533196482.837
1918977.0,1533196482.875
1917975.0,1533196482.554
1918543.0,1533196482.635
1917622.0,1533196482.915
1916285.0,1533196482.956
1915219.0,1533196482.995
1914231.0,1533196483.036
1913728.0,1533196483.076
1913763.0,1533196483.115
1913618.0,1533196483.156
1913930.0,1533196483.197
1914163.0,1533196483.236
1914628.0,1533196483.276
1915472.0,1533196483.317
1916090.0,1533196483.356
1916805.0,1533196483.396
1917107.0,1533196483.438
1918138.0,1533196483.476
1918864.0,1533196483.516
1919885.0,1533196483.558
1920127.0,1533196483.597
1919583.0,1533196483.637
1918598.0,1533196483.678
1917779.0,1533196483.717
1916758.0,1533196483.757
1916376.0,1533196483.798
1916197.0,1533196483.838
1916597.0,1533196483.878
1916731.0,1533196483.919
1917031.0,1533196483.958
1917429.0,1533196483.998
1918301.0,1533196484.04
1918679.0,1533196484.078
1919711.0,1533196484.118
1920460.0,1533196484.159
1921268.0,1533196484.198
1922422.0,1533196484.239
1923327.0,1533196484.28
1924250.0,1533196484.319
1924016.0,1533196484.359
1922926.0,1533196484.4
1922070.0,1533196484.44
1921542.0,1533196484.479
1920728.0,1533196484.52
1920747.0,1533196484.559
1920647.0,1533196484.599
1920805.0,1533196484.641
1920822.0,1533196484.68
1921061.0,1533196484.72
1921731.0,1533196484.761
1921856.0,1533196484.8
1922634.0,1533196484.841
1922890.0,1533196484.881
1923879.0,1533196484.921
1924094.0,1533196484.961
1924597.0,1533196485.002
1925485.0,1533196485.042
1925963.0,1533196485.081
1925375.0,1533196485.122
1924033.0,1533196485.161
1922686.0,1533196485.201
1921390.0,1533196485.243
1920008.0,1533196485.281
1918784.0,1533196485.322
1918289.0,1533196485.363
1918139.0,1533196485.402
1917892.0,1533196485.443
1917721.0,1533196485.483
1918244.0,1533196485.522
1918321.0,1533196485.562
1918563.0,1533196485.604
1918997.0,1533196485.643
1919666.0,1533196485.683
1920128.0,1533196485.724
1920723.0,1533196485.763
1921089.0,1533196485.803
1921845.0,1533196485.845
1921833.0,1533196485.883
1920737.0,1533196485.923
1919191.0,1533196485.965
1918009.0,1533196486.004
1916266.0,1533196486.045
1914963.0,1533196486.085
1914177.0,1533196486.124
1913915.0,1533196486.164
1913873.0,1533196486.206
1913503.0,1533196486.245
1913764.0,1533196486.285
1913933.0,1533196486.326
1914029.0,1533196486.365
1914808.0,1533196486.447
1914436.0,1533196486.405
1915732.0,1533196486.525
1915149.0,1533196486.485
1916340.0,1533196486.566
1916963.0,1533196486.605
1916868.0,1533196486.646
1915441.0,1533196486.686
1914054.0,1533196486.725
1912631.0,1533196486.766
1911422.0,1533196486.807
1910242.0,1533196486.846
1909526.0,1533196486.927
1909994.0,1533196486.886
1909451.0,1533196486.966
1909180.0,1533196487.006
1909275.0,1533196487.048
1909578.0,1533196487.086
1910059.0,1533196487.126
1910309.0,1533196487.167
1910928.0,1533196487.207
1911536.0,1533196487.247
1911866.0,1533196487.288
1912710.0,1533196487.327
1913416.0,1533196487.367
1914082.0,1533196487.408
1913548.0,1533196487.448
1912694.0,1533196487.487
1911506.0,1533196487.528
1910480.0,1533196487.567
1909765.0,1533196487.608
1909530.0,1533196487.649
1909576.0,1533196487.688
1909817.0,1533196487.728
1909960.0,1533196487.769
1910368.0,1533196487.808
1911042.0,1533196487.849
1911687.0,1533196487.889
1912407.0,1533196487.928
1913504.0,1533196487.968
1914119.0,1533196488.009
1915059.0,1533196488.049
1916157.0,1533196488.088
1917335.0,1533196488.13
1918163.0,1533196488.169
1917451.0,1533196488.209
1916898.0,1533196488.251
1915987.0,1533196488.289
1915383.0,1533196488.329
1915310.0,1533196488.37
1915505.0,1533196488.409
1915745.0,1533196488.45
1916097.0,1533196488.49
1916221.0,1533196488.529
1916762.0,1533196488.569
1917282.0,1533196488.611
1918070.0,1533196488.65
1918850.0,1533196488.69
1919483.0,1533196488.731
1920123.0,1533196488.77
1921033.0,1533196488.81
1921387.0,1533196488.852
1922233.0,1533196488.89
1922419.0,1533196488.93
1921115.0,1533196488.971
1919821.0,1533196489.011
1918669.0,1533196489.051
1917373.0,1533196489.092
1916345.0,1533196489.131
1916142.0,1533196489.171
1915860.0,1533196489.212
1915893.0,1533196489.252
1915904.0,1533196489.291
1916108.0,1533196489.332
1916309.0,1533196489.371
1916891.0,1533196489.411
1917202.0,1533196489.453
1917788.0,1533196489.492
1918359.0,1533196489.532
1918834.0,1533196489.573
1919438.0,1533196489.612
1920581.0,1533196489.653
1920202.0,1533196489.693
1918973.0,1533196489.732
1917441.0,1533196489.772
1916158.0,1533196489.814
1914955.0,1533196489.853
1913802.0,1533196489.893
1913250.0,1533196489.934
1913454.0,1533196489.973
1913088.0,1533196490.013
1912939.0,1533196490.055
1913363.0,1533196490.093
1913483.0,1533196490.133
1913942.0,1533196490.175
1914183.0,1533196490.214
1914870.0,1533196490.254
1915224.0,1533196490.295
1915951.0,1533196490.334
1916610.0,1533196490.374
1917363.0,1533196490.415
1917126.0,1533196490.455
1915919.0,1533196490.495
1914570.0,1533196490.536
1913260.0,1533196490.575
1911854.0,1533196490.615
1910495.0,1533196490.657
1910108.0,1533196490.695
1909793.0,1533196490.735
1909550.0,1533196490.776
1909323.0,1533196490.815
1909576.0,1533196490.856
1909473.0,1533196490.897
1909887.0,1533196490.936
1910004.0,1533196490.976
1910330.0,1533196491.017
1910811.0,1533196491.057
1911463.0,1533196491.096
1912034.0,1533196491.138
1912515.0,1533196491.177
1912218.0,1533196491.217
1910629.0,1533196491.259
1909255.0,1533196491.297
1907737.0,1533196491.337
1906671.0,1533196491.378
1905585.0,1533196491.417
1905257.0,1533196491.458
1904898.0,1533196491.499
1904930.0,1533196491.538
1904596.0,1533196491.578
1904876.0,1533196491.619
1905318.0,1533196491.659
1905451.0,1533196491.698
1906114.0,1533196491.739
1906195.0,1533196491.778
1906605.0,1533196491.818
1907246.0,1533196491.86
1907872.0,1533196491.899
1908420.0,1533196491.939
1907228.0,1533196491.98
1905782.0,1533196492.019
1904461.0,1533196492.06
1902996.0,1533196492.1
1901992.0,1533196492.139
1901262.0,1533196492.18
1901206.0,1533196492.221
1900899.0,1533196492.26
1900769.0,1533196492.3
1900761.0,1533196492.341
1900699.0,1533196492.38
1901089.0,1533196492.42
1901802.0,1533196492.462
1902085.0,1533196492.5
1902584.0,1533196492.541
1903248.0,1533196492.582
1904004.0,1533196492.621
1903691.0,1533196492.662
1902284.0,1533196492.702
1900669.0,1533196492.741
1899366.0,1533196492.781
1898154.0,1533196492.823
1897455.0,1533196492.862
1897343.0,1533196492.902
1897058.0,1533196492.943
1897256.0,1533196492.982
1897152.0,1533196493.022
1898158.0,1533196493.102
1898603.0,1533196493.142
1897725.0,1533196493.064
1899291.0,1533196493.184
1900049.0,1533196493.223
1900700.0,1533196493.263
1901584.0,1533196493.304
1902426.0,1533196493.343
1901824.0,1533196493.383
1900822.0,1533196493.424
1899351.0,1533196493.464
1897694.0,1533196493.584
1897824.0,1533196493.545
1898404.0,1533196493.504
1897846.0,1533196493.624
1897975.0,1533196493.666
1898586.0,1533196493.704
1898728.0,1533196493.744
1899248.0,1533196493.785
1900027.0,1533196493.825
1900873.0,1533196493.865
1901385.0,1533196493.906
1902568.0,1533196493.945
1903100.0,1533196493.985
1904596.0,1533196494.066
1903909.0,1533196494.106
1904271.0,1533196494.026
1902628.0,1533196494.147
1901104.0,1533196494.186
1899825.0,1533196494.226
1898858.0,1533196494.268
1898221.0,1533196494.346
1898177.0,1533196494.306
1898213.0,1533196494.508
1897898.0,1533196494.467
1897931.0,1533196494.426
1897800.0,1533196494.388
1898446.0,1533196494.547
1899197.0,1533196494.587
1899980.0,1533196494.668
1899714.0,1533196494.628
1901515.0,1533196494.748
1900732.0,1533196494.707
1902271.0,1533196494.787
1902121.0,1533196494.827
1900613.0,1533196494.869
1898717.0,1533196494.908
1897139.0,1533196494.948
1895456.0,1533196494.989
1894077.0,1533196495.028
1893693.0,1533196495.069
1893326.0,1533196495.109
1892851.0,1533196495.148
1892601.0,1533196495.188
1892665.0,1533196495.23
1892839.0,1533196495.269
1893305.0,1533196495.309
1893490.0,1533196495.35
1894162.0,1533196495.389
1894577.0,1533196495.429
1895155.0,1533196495.471
1895777.0,1533196495.509
1896703.0,1533196495.549
1897070.0,1533196495.59
1896739.0,1533196495.629
1894951.0,1533196495.67
1893119.0,1533196495.71
1891609.0,1533196495.75
1889926.0,1533196495.79
1889013.0,1533196495.831
1888746.0,1533196495.87
1888660.0,1533196495.91
1888171.0,1533196495.951
1888453.0,1533196495.99
1888394.0,1533196496.03
1888765.0,1533196496.072
1889422.0,1533196496.11
1890060.0,1533196496.15
1890576.0,1533196496.192
1891368.0,1533196496.231
1892317.0,1533196496.271
1893002.0,1533196496.312
1893916.0,1533196496.351
1894940.0,1533196496.391
1894148.0,1533196496.432
1892979.0,1533196496.472
1891321.0,1533196496.511
1890349.0,1533196496.552
1889244.0,1533196496.591
1888816.0,1533196496.631
1889087.0,1533196496.673
1889036.0,1533196496.712
1889312.0,1533196496.752
1889524.0,1533196496.793
1890068.0,1533196496.832
1890994.0,1533196496.873
1891909.0,1533196496.913
1892673.0,1533196496.952
1893493.0,1533196496.992
1893854.0,1533196497.033
1894831.0,1533196497.073
1895851.0,1533196497.113
1896755.0,1533196497.154
1896696.0,1533196497.193
1895122.0,1533196497.233
1893472.0,1533196497.275
1892288.0,1533196497.313
1890889.0,1533196497.353
1889950.0,1533196497.394
1889781.0,1533196497.434
1889516.0,1533196497.474
1889146.0,1533196497.514
1889121.0,1533196497.553
1889428.0,1533196497.593
1889700.0,1533196497.635
1890106.0,1533196497.674
1890514.0,1533196497.714
1890963.0,1533196497.755
1891495.0,1533196497.794
1892196.0,1533196497.834
1892859.0,1533196497.876
1893556.0,1533196497.914
1894070.0,1533196497.954
1893689.0,1533196497.995
1891813.0,1533196498.035
1889774.0,1533196498.075
1888160.0,1533196498.116
1886830.0,1533196498.155
1885528.0,1533196498.195
1885264.0,1533196498.236
1885029.0,1533196498.276
1884834.0,1533196498.315
1884773.0,1533196498.356
1885007.0,1533196498.396
1885269.0,1533196498.436
1885749.0,1533196498.478
1886142.0,1533196498.516
1886838.0,1533196498.556
1887450.0,1533196498.597
1887946.0,1533196498.636
1888690.0,1533196498.677
1889351.0,1533196498.717
1890050.0,1533196498.757
1889759.0,1533196498.797
1887853.0,1533196498.838
1886034.0,1533196498.878
1884579.0,1533196498.917
1883088.0,1533196498.958
1881522.0,1533196498.997
1881223.0,1533196499.037
1880735.0,1533196499.079
1880712.0,1533196499.118
1880477.0,1533196499.158
1880629.0,1533196499.199
1880994.0,1533196499.238
1881401.0,1533196499.279
1881920.0,1533196499.319
1882567.0,1533196499.358
1882980.0,1533196499.398
1883701.0,1533196499.439
1884603.0,1533196499.479
1885622.0,1533196499.519
1886354.0,1533196499.56
1887344.0,1533196499.599
1887243.0,1533196499.639
1885376.0,1533196499.681
1884102.0,1533196499.719
1882590.0,1533196499.759
1881237.0,1533196499.8
1880242.0,1533196499.839
1880261.0,1533196499.88
1880007.0,1533196499.921
1880129.0,1533196499.96
1880146.0,1533196500.0
1880408.0,1533196500.041
1881134.0,1533196500.081
1882062.0,1533196500.12
1882897.0,1533196500.161
1883688.0,1533196500.2
1884650.0,1533196500.241
1885561.0,1533196500.282
1887067.0,1533196500.321
1888431.0,1533196500.361
1889296.0,1533196500.402
1888922.0,1533196500.441
1887880.0,1533196500.482
1886541.0,1533196500.522
1885665.0,1533196500.562
1885147.0,1533196500.602
1885108.0,1533196500.643
1885431.0,1533196500.683
1885674.0,1533196500.722
1886384.0,1533196500.763
1886717.0,1533196500.802
1887248.0,1533196500.842
1887806.0,1533196500.884
1888280.0,1533196500.923
1888733.0,1533196500.963
1889332.0,1533196501.004
1889599.0,1533196501.043
1890245.0,1533196501.084
1890691.0,1533196501.124
1891309.0,1533196501.163
1891348.0,1533196501.203
1889636.0,1533196501.245
1887064.0,1533196501.284
1884737.0,1533196501.324
1882617.0,1533196501.365
1880258.0,1533196501.404
1878873.0,1533196501.444
1878639.0,1533196501.486
1878131.0,1533196501.524
1878010.0,1533196501.564
1877846.0,1533196501.606
1877930.0,1533196501.645
1878447.0,1533196501.685
1879145.0,1533196501.726
1879707.0,1533196501.765
1880319.0,1533196501.805
1880934.0,1533196501.846
1881448.0,1533196501.886
1881950.0,1533196501.925
1882781.0,1533196501.967
1883048.0,1533196502.006
1882486.0,1533196502.046
1880769.0,1533196502.088
1879014.0,1533196502.126
1877647.0,1533196502.166
1875992.0,1533196502.207
1875119.0,1533196502.246
1874969.0,1533196502.287
1874862.0,1533196502.328
1874920.0,1533196502.367
1875047.0,1533196502.407
1875795.0,1533196502.448
1876602.0,1533196502.488
1877329.0,1533196502.527
1878015.0,1533196502.569
1878649.0,1533196502.608
1879189.0,1533196502.648
1880203.0,1533196502.69
1881215.0,1533196502.728
1882750.0,1533196502.768
1882147.0,1533196502.809
1880922.0,1533196502.848
1879552.0,1533196502.889
1878471.0,1533196502.93
1877944.0,1533196502.968
1877334.0,1533196503.009
1877471.0,1533196503.05
1877592.0,1533196503.089
1877517.0,1533196503.129
1877393.0,1533196503.17
1877853.0,1533196503.209
1878044.0,1533196503.249
1878528.0,1533196503.291
1878971.0,1533196503.329
1879611.0,1533196503.369
1880123.0,1533196503.41
1880991.0,1533196503.449
1881792.0,1533196503.49
1882666.0,1533196503.531
1882848.0,1533196503.57
1881689.0,1533196503.61
1879730.0,1533196503.651
1878093.0,1533196503.691
1876358.0,1533196503.73
1874711.0,1533196503.771
1873611.0,1533196503.861
1873426.0,1533196503.901
1873592.0,1533196503.943
1873200.0,1533196503.982
1873655.0,1533196504.022
1873909.0,1533196504.063
1874469.0,1533196504.102
1874930.0,1533196504.143
1875486.0,1533196504.183
1876381.0,1533196504.222
1877143.0,1533196504.262
1877682.0,1533196504.303
1878493.0,1533196504.344
1879613.0,1533196504.383
1880459.0,1533196504.425
1880239.0,1533196504.462
1878809.0,1533196504.502
1877167.0,1533196504.544
1875937.0,1533196504.583
1874928.0,1533196504.623
1874113.0,1533196504.664
1873970.0,1533196504.703
1874327.0,1533196504.744
1874558.0,1533196504.783
1874592.0,1533196504.812
1875310.0,1533196504.852
1876106.0,1533196504.893
1877264.0,1533196504.933
1878047.0,1533196504.973
1879065.0,1533196505.014
1880208.0,1533196505.053
1881097.0,1533196505.093
1882483.0,1533196505.135
1883990.0,1533196505.173
1884881.0,1533196505.213
1884839.0,1533196505.254
1883749.0,1533196505.293
1882766.0,1533196505.334
1882152.0,1533196505.375
1881527.0,1533196505.414
1881574.0,1533196505.454
1882009.0,1533196505.495
1882310.0,1533196505.53
1882802.0,1533196505.564
1883218.0,1533196505.602
1883659.0,1533196505.641
1884523.0,1533196505.682
1885270.0,1533196505.724
1886118.0,1533196505.762
1887159.0,1533196505.802
1887826.0,1533196505.844
1888274.0,1533196505.883
1889369.0,1533196505.922
1890241.0,1533196505.962
1890715.0,1533196506.002
1889567.0,1533196506.042
1887853.0,1533196506.077
1886258.0,1533196506.117
1884522.0,1533196506.156
1883682.0,1533196506.197
1882667.0,1533196506.236
1882703.0,1533196506.277
1882520.0,1533196506.318
1882188.0,1533196506.357
1882268.0,1533196506.397
1882455.0,1533196506.438
1882888.0,1533196506.477
1884311.0,1533196506.558
1884672.0,1533196506.597
1885431.0,1533196506.638
1883515.0,1533196506.518
1886253.0,1533196506.679
1886909.0,1533196506.718
1887759.0,1533196506.759
1887832.0,1533196506.798
1886019.0,1533196506.836
1884430.0,1533196506.871
1882472.0,1533196506.913
1880904.0,1533196506.944
1879743.0,1533196506.984
1879210.0,1533196507.022
1879137.0,1533196507.062
1878890.0,1533196507.103
1879132.0,1533196507.143
1879232.0,1533196507.183
1879636.0,1533196507.223
1880210.0,1533196507.264
1880704.0,1533196507.304
1881518.0,1533196507.344
1882341.0,1533196507.376
1883146.0,1533196507.415
1884125.0,1533196507.455
1885021.0,1533196507.497
1885949.0,1533196507.535
1886229.0,1533196507.575
1885192.0,1533196507.616
1883409.0,1533196507.655
1881767.0,1533196507.696
1880582.0,1533196507.736
1879481.0,1533196507.776
1879128.0,1533196507.816
1879221.0,1533196507.857
1879351.0,1533196507.897
1879473.0,1533196507.936
1879873.0,1533196507.977
1880276.0,1533196508.016
1881201.0,1533196508.056
1882129.0,1533196508.099
1882835.0,1533196508.135
1883519.0,1533196508.17
1884659.0,1533196508.205
1885801.0,1533196508.242
1886701.0,1533196508.283
1888065.0,1533196508.323
1887819.0,1533196508.362
1886361.0,1533196508.403
1885294.0,1533196508.444
1884655.0,1533196508.484
1883897.0,1533196508.519
1883903.0,1533196508.56
1884508.0,1533196508.599
1885089.0,1533196508.639
1885545.0,1533196508.681
1886296.0,1533196508.72
1887107.0,1533196508.76
1888291.0,1533196508.801
1889417.0,1533196508.84
1890355.0,1533196508.881
1891833.0,1533196508.921
1893517.0,1533196508.96
1894739.0,1533196509.001
1895753.0,1533196509.042
1896650.0,1533196509.081
1896072.0,1533196509.121
1894574.0,1533196509.162
1892684.0,1533196509.202
1890959.0,1533196509.242
1889550.0,1533196509.284
1888638.0,1533196509.322
1888309.0,1533196509.362
1888294.0,1533196509.404
1888240.0,1533196509.443
1888416.0,1533196509.484
1888839.0,1533196509.524
1889239.0,1533196509.564
1889910.0,1533196509.604
1890820.0,1533196509.643
1891365.0,1533196509.683
1891965.0,1533196509.722
1892947.0,1533196509.758
1894184.0,1533196509.797
1895106.0,1533196509.837
1895463.0,1533196509.879
1894114.0,1533196509.917
1892353.0,1533196509.957
1890823.0,1533196509.999
1889316.0,1533196510.038
1887975.0,1533196510.079
1887300.0,1533196510.119
1887195.0,1533196510.158
1887356.0,1533196510.198
1887376.0,1533196510.239
1887548.0,1533196510.279
1888198.0,1533196510.318
1888597.0,1533196510.36
1889364.0,1533196510.399
1889957.0,1533196510.439
1891146.0,1533196510.481
1892211.0,1533196510.52
1893796.0,1533196510.56
1895326.0,1533196510.602
1897091.0,1533196510.642
1898709.0,1533196510.683
1898732.0,1533196510.724
1897581.0,1533196510.762
1896230.0,1533196510.802
1894856.0,1533196510.843
1894076.0,1533196510.883
1893742.0,1533196510.922
1893994.0,1533196510.963
1894199.0,1533196511.003
1894140.0,1533196511.043
1894530.0,1533196511.085
1894578.0,1533196511.123
1894778.0,1533196511.164
1895089.0,1533196511.205
1895178.0,1533196511.242
1895451.0,1533196511.283
1895317.0,1533196511.323
1895551.0,1533196511.362
1895743.0,1533196511.403
1895954.0,1533196511.444
1895817.0,1533196511.483
1894222.0,1533196511.523
1892165.0,1533196511.564
1890350.0,1533196511.603
1888838.0,1533196511.643
1887731.0,1533196511.685
1887460.0,1533196511.723
1887864.0,1533196511.763
1888350.0,1533196511.804
1889055.0,1533196511.843
1889951.0,1533196511.884
1891120.0,1533196511.925
1892243.0,1533196511.964
1893515.0,1533196512.004
1894531.0,1533196512.045
1895099.0,1533196512.084
1895977.0,1533196512.124
1896829.0,1533196512.165
1897892.0,1533196512.204
1898528.0,1533196512.242
1897646.0,1533196512.284
1896092.0,1533196512.323
1894448.0,1533196512.363
1893182.0,1533196512.404
1892221.0,1533196512.444
1891360.0,1533196512.485
1890893.0,1533196512.519
1890804.0,1533196512.558
1890837.0,1533196512.598
1891140.0,1533196512.639
1891191.0,1533196512.679
1891730.0,1533196512.719
1892131.0,1533196512.76
1892599.0,1533196512.799
1893010.0,1533196512.839
1893619.0,1533196512.881
1894360.0,1533196512.919
1895101.0,1533196512.959
1895857.0,1533196513.0
1896123.0,1533196513.04
1894479.0,1533196513.08
1892640.0,1533196513.121
1890919.0,1533196513.16
1889698.0,1533196513.2
1888272.0,1533196513.239
1887368.0,1533196513.279
1887460.0,1533196513.317
1887382.0,1533196513.354
1887116.0,1533196513.385
1887396.0,1533196513.426
1887766.0,1533196513.465
1888506.0,1533196513.504
1889378.0,1533196513.544
1889933.0,1533196513.585
1890691.0,1533196513.624
1891647.0,1533196513.665
1892548.0,1533196513.704
1892548.0,1533196513.741
1893562.0,1533196513.781
1894792.0,1533196513.822
1894621.0,1533196513.862
1893207.0,1533196513.901
1891671.0,1533196513.942
1890048.0,1533196513.981
1888900.0,1533196514.021
1888159.0,1533196514.063
1888259.0,1533196514.102
1888421.0,1533196514.142
1888593.0,1533196514.183
1888645.0,1533196514.222
1889113.0,1533196514.263
1889893.0,1533196514.303
1890909.0,1533196514.342
1891613.0,1533196514.382
1892661.0,1533196514.424
1893555.0,1533196514.464
1895166.0,1533196514.504
1896383.0,1533196514.545
1897532.0,1533196514.584
1897128.0,1533196514.624
1895838.0,1533196514.666
1894652.0,1533196514.705
1893725.0,1533196514.745
1893114.0,1533196514.786
1893049.0,1533196514.825
1893311.0,1533196514.866
1893524.0,1533196514.906
1893861.0,1533196514.945
1894218.0,1533196514.986
1894742.0,1533196515.027
1895324.0,1533196515.059
1896213.0,1533196515.098
1896973.0,1533196515.139
1897824.0,1533196515.179
1898753.0,1533196515.219
1899491.0,1533196515.261
1900685.0,1533196515.299
1900652.0,1533196515.339
1899635.0,1533196515.38
1898041.0,1533196515.419
1896098.0,1533196515.46
1894437.0,1533196515.501
1892882.0,1533196515.54
1892206.0,1533196515.58
1892141.0,1533196515.621
1892049.0,1533196515.661
1891992.0,1533196515.7
1892194.0,1533196515.741
1892507.0,1533196515.78
1893006.0,1533196515.819
1893683.0,1533196515.858
1894504.0,1533196515.897
1895115.0,1533196515.936
1895863.0,1533196515.975
1896845.0,1533196516.014
1897916.0,1533196516.053
1898465.0,1533196516.092
1897598.0,1533196516.131
1895977.0,1533196516.17
1894408.0,1533196516.209
1892860.0,1533196516.248
1890914.0,1533196516.326
1891160.0,1533196516.365
1891553.0,1533196516.287
1891273.0,1533196516.404
1891666.0,1533196516.443
1891821.0,1533196516.482
1892396.0,1533196516.521
1892876.0,1533196516.56
1893579.0,1533196516.599
1894487.0,1533196516.638
1895155.0,1533196516.677
1895946.0,1533196516.716
1897247.0,1533196516.755
1898301.0,1533196516.794
1899375.0,1533196516.833
1899981.0,1533196516.872
1898684.0,1533196516.911
1896814.0,1533196516.95
1895273.0,1533196516.989
1893561.0,1533196517.028
1892606.0,1533196517.067
1891848.0,1533196517.106
1891815.0,1533196517.145
1892084.0,1533196517.184
1891654.0,1533196517.223
1891756.0,1533196517.262
1891805.0,1533196517.301
