bvp,time
64.0,1588333256.0
-0.0,1588333256.015625
-0.0,1588333256.03125
-0.0,1588333256.046875
-0.0,1588333256.0625
-0.0,1588333256.078125
-0.0,1588333256.09375
-0.0,1588333256.109375
-0.0,1588333256.125
-0.0,1588333256.140625
-0.0,1588333256.15625
0.0,1588333256.171875
0.01,1588333256.1875
0.01,1588333256.203125
-0.0,1588333256.21875
-0.03,1588333256.234375
-0.05,1588333256.25
-0.05,1588333256.265625
0.0,1588333256.28125
0.13,1588333256.296875
0.36,1588333256.3125
0.66,1588333256.328125
1.01,1588333256.34375
1.37,1588333256.359375
1.72,1588333256.375
2.06,1588333256.390625
2.4,1588333256.40625
2.79,1588333256.421875
3.24,1588333256.4375
3.8,1588333256.453125
4.42,1588333256.46875
5.06,1588333256.484375
5.66,1588333256.5
6.2,1588333256.515625
6.68,1588333256.53125
7.15,1588333256.546875
7.68,1588333256.5625
8.31,1588333256.578125
9.14,1588333256.59375
10.09,1588333256.609375
11.04,1588333256.625
11.88,1588333256.640625
12.56,1588333256.65625
13.14,1588333256.671875
13.76,1588333256.6875
14.65,1588333256.703125
15.96,1588333256.71875
17.91,1588333256.734375
20.32,1588333256.75
22.9,1588333256.765625
25.38,1588333256.78125
27.58,1588333256.796875
29.57,1588333256.8125
31.68,1588333256.828125
34.32,1588333256.84375
37.81,1588333256.859375
42.54,1588333256.875
48.15,1588333256.890625
54.1,1588333256.90625
59.83,1588333256.921875
64.97,1588333256.9375
69.58,1588333256.953125
74.14,1588333256.96875
79.34,1588333256.984375
85.71,1588333257.0
93.76,1588333257.015625
103.0,1588333257.03125
112.62,1588333257.046875
121.73,1588333257.0625
129.77,1588333257.078125
136.75,1588333257.09375
143.3,1588333257.109375
150.75,1588333257.125
157.77,1588333257.140625
166.64,1588333257.15625
177.95,1588333257.171875
191.79,1588333257.1875
206.97,1588333257.203125
220.57,1588333257.21875
228.25,1588333257.234375
225.36,1588333257.25
208.53,1588333257.265625
176.87,1588333257.28125
132.76,1588333257.296875
80.05,1588333257.3125
23.07,1588333257.328125
-34.94,1588333257.34375
-92.44,1588333257.359375
-149.16,1588333257.375
-205.23,1588333257.390625
-260.37,1588333257.40625
-313.74,1588333257.421875
-363.87,1588333257.4375
-409.82,1588333257.453125
-450.89,1588333257.46875
-486.47,1588333257.484375
-515.68,1588333257.5
-537.14,1588333257.515625
-549.1,1588333257.53125
-549.81,1588333257.546875
-538.17,1588333257.5625
-513.96,1588333257.578125
-478.37,1588333257.59375
-433.52,1588333257.609375
-382.03,1588333257.625
-326.53,1588333257.640625
-269.28,1588333257.65625
-212.01,1588333257.671875
-155.96,1588333257.6875
-102.18,1588333257.703125
-51.52,1588333257.71875
-4.97,1588333257.734375
36.6,1588333257.75
72.54,1588333257.765625
102.56,1588333257.78125
126.82,1588333257.796875
145.82,1588333257.8125
160.26,1588333257.828125
170.87,1588333257.84375
178.25,1588333257.859375
182.81,1588333257.875
184.84,1588333257.890625
184.56,1588333257.90625
182.25,1588333257.921875
178.26,1588333257.9375
172.99,1588333257.953125
166.86,1588333257.96875
160.2,1588333257.984375
153.28,1588333258.0
146.24,1588333258.015625
139.13,1588333258.03125
132.02,1588333258.046875
124.94,1588333258.0625
117.95,1588333258.078125
111.12,1588333258.09375
104.54,1588333258.109375
98.24,1588333258.125
92.26,1588333258.140625
86.63,1588333258.15625
81.34,1588333258.171875
76.42,1588333258.1875
71.86,1588333258.203125
67.68,1588333258.21875
63.88,1588333258.234375
60.46,1588333258.25
57.43,1588333258.265625
54.8,1588333258.28125
52.56,1588333258.296875
50.7,1588333258.3125
49.2,1588333258.328125
48.04,1588333258.34375
47.17,1588333258.359375
46.49,1588333258.375
45.89,1588333258.390625
45.22,1588333258.40625
44.31,1588333258.421875
42.96,1588333258.4375
41.02,1588333258.453125
38.35,1588333258.46875
34.86,1588333258.484375
30.52,1588333258.5
25.41,1588333258.515625
19.6,1588333258.53125
13.27,1588333258.546875
6.67,1588333258.5625
0.05,1588333258.578125
-6.3,1588333258.59375
-12.14,1588333258.609375
-17.25,1588333258.625
-21.48,1588333258.640625
-24.75,1588333258.65625
-27.0,1588333258.671875
-28.29,1588333258.6875
-28.68,1588333258.703125
-28.29,1588333258.71875
-27.26,1588333258.734375
-25.72,1588333258.75
-23.82,1588333258.765625
-21.65,1588333258.78125
-19.29,1588333258.796875
-16.79,1588333258.8125
-14.18,1588333258.828125
-11.48,1588333258.84375
-8.7,1588333258.859375
-5.85,1588333258.875
-2.88,1588333258.890625
0.2,1588333258.90625
3.44,1588333258.921875
6.83,1588333258.9375
10.42,1588333258.953125
14.2,1588333258.96875
18.11,1588333258.984375
22.1,1588333259.0
26.11,1588333259.015625
30.11,1588333259.03125
34.07,1588333259.046875
37.97,1588333259.0625
41.81,1588333259.078125
45.63,1588333259.09375
49.49,1588333259.109375
53.3,1588333259.125
57.01,1588333259.140625
60.63,1588333259.15625
64.17,1588333259.171875
67.64,1588333259.1875
71.07,1588333259.203125
74.52,1588333259.21875
78.09,1588333259.234375
81.87,1588333259.25
85.76,1588333259.265625
89.71,1588333259.28125
93.71,1588333259.296875
97.78,1588333259.3125
101.96,1588333259.328125
106.31,1588333259.34375
110.87,1588333259.359375
115.7,1588333259.375
120.86,1588333259.390625
126.05,1588333259.40625
131.03,1588333259.421875
135.54,1588333259.4375
139.32,1588333259.453125
142.02,1588333259.46875
143.23,1588333259.484375
142.41,1588333259.5
138.82,1588333259.515625
133.83,1588333259.53125
127.96,1588333259.546875
121.54,1588333259.5625
114.82,1588333259.578125
108.0,1588333259.59375
101.25,1588333259.609375
94.76,1588333259.625
88.67,1588333259.640625
83.17,1588333259.65625
78.45,1588333259.671875
74.4,1588333259.6875
70.95,1588333259.703125
68.06,1588333259.71875
65.74,1588333259.734375
63.98,1588333259.75
62.79,1588333259.765625
62.2,1588333259.78125
62.22,1588333259.796875
62.91,1588333259.8125
64.03,1588333259.828125
65.41,1588333259.84375
66.88,1588333259.859375
68.32,1588333259.875
69.59,1588333259.890625
70.63,1588333259.90625
71.41,1588333259.921875
71.94,1588333259.9375
72.21,1588333259.953125
72.05,1588333259.96875
71.3,1588333259.984375
69.78,1588333260.0
67.29,1588333260.015625
63.71,1588333260.03125
58.94,1588333260.046875
53.01,1588333260.0625
46.01,1588333260.078125
38.09,1588333260.09375
29.37,1588333260.109375
19.95,1588333260.125
9.99,1588333260.140625
-0.35,1588333260.15625
-10.86,1588333260.171875
-21.24,1588333260.1875
-31.11,1588333260.203125
-40.07,1588333260.21875
-47.8,1588333260.234375
-54.17,1588333260.25
-59.25,1588333260.265625
-63.33,1588333260.28125
-66.79,1588333260.296875
-69.98,1588333260.3125
-73.07,1588333260.328125
-76.02,1588333260.34375
-78.65,1588333260.359375
-80.8,1588333260.375
-82.49,1588333260.390625
-84.05,1588333260.40625
-86.04,1588333260.421875
-89.08,1588333260.4375
-93.53,1588333260.453125
-99.39,1588333260.46875
-106.13,1588333260.484375
-113.05,1588333260.5
-119.47,1588333260.515625
-125.16,1588333260.53125
-130.5,1588333260.546875
-136.32,1588333260.5625
-143.59,1588333260.578125
-153.01,1588333260.59375
-164.62,1588333260.609375
-177.79,1588333260.625
-191.61,1588333260.640625
-205.2,1588333260.65625
-218.2,1588333260.671875
-230.89,1588333260.6875
-244.01,1588333260.703125
-258.61,1588333260.71875
-275.83,1588333260.734375
-296.79,1588333260.75
-322.21,1588333260.765625
-351.82,1588333260.78125
-383.57,1588333260.796875
-413.47,1588333260.8125
-436.15,1588333260.828125
-446.49,1588333260.84375
-441.43,1588333260.859375
-421.25,1588333260.875
-389.42,1588333260.890625
-351.2,1588333260.90625
-311.77,1588333260.921875
-274.62,1588333260.9375
-241.24,1588333260.953125
-211.71,1588333260.96875
-185.72,1588333260.984375
-163.19,1588333261.0
-144.21,1588333261.015625
-128.61,1588333261.03125
-115.67,1588333261.046875
-104.32,1588333261.0625
-93.69,1588333261.078125
-83.71,1588333261.09375
-75.09,1588333261.109375
-68.91,1588333261.125
-65.94,1588333261.140625
-66.08,1588333261.15625
-68.25,1588333261.171875
-70.85,1588333261.1875
-72.52,1588333261.203125
-72.76,1588333261.21875
-72.15,1588333261.234375
-72.22,1588333261.25
-74.85,1588333261.265625
-81.5,1588333261.28125
-92.48,1588333261.296875
-106.42,1588333261.3125
-120.19,1588333261.328125
-129.34,1588333261.34375
-129.3,1588333261.359375
-116.84,1588333261.375
-91.36,1588333261.390625
-55.45,1588333261.40625
-14.27,1588333261.421875
26.06,1588333261.4375
60.36,1588333261.453125
85.77,1588333261.46875
102.13,1588333261.484375
111.23,1588333261.5
115.5,1588333261.515625
116.93,1588333261.53125
116.49,1588333261.546875
114.48,1588333261.5625
111.01,1588333261.578125
106.53,1588333261.59375
101.92,1588333261.609375
98.16,1588333261.625
95.9,1588333261.640625
95.2,1588333261.65625
95.54,1588333261.671875
96.07,1588333261.6875
96.06,1588333261.703125
95.04,1588333261.71875
92.99,1588333261.734375
90.11,1588333261.75
86.64,1588333261.765625
82.7,1588333261.78125
78.24,1588333261.796875
73.11,1588333261.8125
67.11,1588333261.828125
60.17,1588333261.84375
52.31,1588333261.859375
43.66,1588333261.875
34.54,1588333261.890625
25.33,1588333261.90625
16.43,1588333261.921875
8.15,1588333261.9375
0.59,1588333261.953125
-6.39,1588333261.96875
-13.12,1588333261.984375
-20.09,1588333262.0
-27.83,1588333262.015625
-37.0,1588333262.03125
-48.27,1588333262.046875
-62.03,1588333262.0625
-77.91,1588333262.078125
-94.27,1588333262.09375
-108.13,1588333262.109375
-115.76,1588333262.125
-113.87,1588333262.140625
-100.96,1588333262.15625
-78.08,1588333262.171875
-48.63,1588333262.1875
-17.2,1588333262.203125
11.92,1588333262.21875
35.99,1588333262.234375
54.19,1588333262.25
67.14,1588333262.265625
76.0,1588333262.28125
81.67,1588333262.296875
84.59,1588333262.3125
84.83,1588333262.328125
82.59,1588333262.34375
78.45,1588333262.359375
73.39,1588333262.375
68.5,1588333262.390625
64.67,1588333262.40625
62.24,1588333262.421875
61.03,1588333262.4375
60.42,1588333262.453125
59.74,1588333262.46875
58.46,1588333262.484375
56.33,1588333262.5
53.25,1588333262.515625
49.21,1588333262.53125
44.12,1588333262.546875
37.86,1588333262.5625
30.28,1588333262.578125
21.41,1588333262.59375
11.37,1588333262.609375
0.38,1588333262.625
-11.31,1588333262.640625
-23.37,1588333262.65625
-35.46,1588333262.671875
-47.17,1588333262.6875
-58.14,1588333262.703125
-68.19,1588333262.71875
-77.39,1588333262.734375
-86.21,1588333262.75
-95.33,1588333262.765625
-105.57,1588333262.78125
-117.75,1588333262.796875
-132.34,1588333262.8125
-149.28,1588333262.828125
-167.58,1588333262.84375
-185.21,1588333262.859375
-199.29,1588333262.875
-206.87,1588333262.890625
-205.86,1588333262.90625
-195.98,1588333262.921875
-178.95,1588333262.9375
-157.96,1588333262.953125
-136.45,1588333262.96875
-116.98,1588333262.984375
-100.5,1588333263.0
-86.42,1588333263.015625
-73.31,1588333263.03125
-59.59,1588333263.046875
-44.12,1588333263.0625
-26.32,1588333263.078125
-5.96,1588333263.09375
16.97,1588333263.109375
42.38,1588333263.125
69.9,1588333263.140625
98.78,1588333263.15625
127.83,1588333263.171875
155.63,1588333263.1875
180.79,1588333263.203125
202.26,1588333263.21875
219.37,1588333263.234375
231.88,1588333263.25
239.72,1588333263.265625
242.97,1588333263.28125
241.78,1588333263.296875
236.43,1588333263.3125
227.48,1588333263.328125
215.75,1588333263.34375
202.26,1588333263.359375
188.04,1588333263.375
173.9,1588333263.390625
160.26,1588333263.40625
147.1,1588333263.421875
134.15,1588333263.4375
121.05,1588333263.453125
107.63,1588333263.46875
94.08,1588333263.484375
80.83,1588333263.5
68.44,1588333263.515625
57.27,1588333263.53125
47.3,1588333263.546875
38.06,1588333263.5625
28.77,1588333263.578125
18.45,1588333263.59375
6.29,1588333263.609375
-7.98,1588333263.625
-23.68,1588333263.640625
-38.92,1588333263.65625
-50.86,1588333263.671875
-56.37,1588333263.6875
-53.12,1588333263.703125
-40.47,1588333263.71875
-19.86,1588333263.734375
5.71,1588333263.75
32.67,1588333263.765625
58.04,1588333263.78125
80.24,1588333263.796875
99.03,1588333263.8125
115.11,1588333263.828125
129.35,1588333263.84375
142.33,1588333263.859375
154.14,1588333263.875
164.55,1588333263.890625
173.34,1588333263.90625
180.42,1588333263.921875
185.98,1588333263.9375
190.36,1588333263.953125
193.87,1588333263.96875
196.61,1588333263.984375
198.45,1588333264.0
199.08,1588333264.015625
198.24,1588333264.03125
195.87,1588333264.046875
192.14,1588333264.0625
187.32,1588333264.078125
181.52,1588333264.09375
174.56,1588333264.109375
165.93,1588333264.125
155.09,1588333264.140625
141.72,1588333264.15625
126.01,1588333264.171875
108.65,1588333264.1875
90.7,1588333264.203125
73.3,1588333264.21875
57.35,1588333264.234375
43.4,1588333264.25
31.58,1588333264.265625
21.63,1588333264.28125
13.09,1588333264.296875
5.45,1588333264.3125
-1.76,1588333264.328125
-8.83,1588333264.34375
-15.82,1588333264.359375
-22.63,1588333264.375
-29.08,1588333264.390625
-34.95,1588333264.40625
-40.16,1588333264.421875
-44.75,1588333264.4375
-48.93,1588333264.453125
-53.04,1588333264.46875
-57.44,1588333264.484375
-62.5,1588333264.5
-68.34,1588333264.515625
-74.75,1588333264.53125
-80.91,1588333264.546875
-85.49,1588333264.5625
-86.75,1588333264.578125
-83.13,1588333264.59375
-73.72,1588333264.609375
-58.8,1588333264.625
-39.85,1588333264.640625
-19.16,1588333264.65625
0.83,1588333264.671875
18.2,1588333264.6875
31.91,1588333264.703125
41.86,1588333264.71875
48.53,1588333264.734375
52.68,1588333264.75
55.09,1588333264.765625
56.35,1588333264.78125
56.89,1588333264.796875
56.9,1588333264.8125
56.42,1588333264.828125
55.45,1588333264.84375
54.09,1588333264.859375
52.7,1588333264.875
51.87,1588333264.890625
52.31,1588333264.90625
54.57,1588333264.921875
58.75,1588333264.9375
64.48,1588333264.953125
70.95,1588333264.96875
77.17,1588333264.984375
82.27,1588333265.0
85.63,1588333265.015625
87.08,1588333265.03125
86.93,1588333265.046875
85.81,1588333265.0625
84.51,1588333265.078125
83.78,1588333265.09375
84.18,1588333265.109375
85.93,1588333265.125
88.84,1588333265.140625
92.05,1588333265.15625
93.97,1588333265.171875
92.39,1588333265.1875
84.96,1588333265.203125
70.06,1588333265.21875
47.58,1588333265.234375
19.2,1588333265.25
-11.97,1588333265.265625
-42.4,1588333265.28125
-69.19,1588333265.296875
-90.68,1588333265.3125
-106.52,1588333265.328125
-117.06,1588333265.34375
-122.92,1588333265.359375
-124.68,1588333265.375
-123.01,1588333265.390625
-119.01,1588333265.40625
-114.16,1588333265.421875
-110.02,1588333265.4375
-107.52,1588333265.453125
-106.49,1588333265.46875
-105.74,1588333265.484375
-103.45,1588333265.5
-98.15,1588333265.515625
-89.42,1588333265.53125
-78.06,1588333265.546875
-65.83,1588333265.5625
-54.69,1588333265.578125
-46.07,1588333265.59375
-40.48,1588333265.609375
-37.63,1588333265.625
-36.84,1588333265.640625
-37.53,1588333265.65625
-39.35,1588333265.671875
-42.06,1588333265.6875
-45.22,1588333265.703125
-48.04,1588333265.71875
-49.41,1588333265.734375
-48.45,1588333265.75
-44.82,1588333265.765625
-39.04,1588333265.78125
-32.32,1588333265.796875
-26.16,1588333265.8125
-21.73,1588333265.828125
-19.56,1588333265.84375
-19.43,1588333265.859375
-20.61,1588333265.875
-22.32,1588333265.890625
-24.03,1588333265.90625
-25.64,1588333265.921875
-27.38,1588333265.9375
-29.54,1588333265.953125
-32.3,1588333265.96875
-35.49,1588333265.984375
-38.7,1588333266.0
-41.44,1588333266.015625
-43.38,1588333266.03125
-44.45,1588333266.046875
-44.88,1588333266.0625
-45.05,1588333266.078125
-45.32,1588333266.09375
-45.8,1588333266.109375
-46.36,1588333266.125
-46.68,1588333266.140625
-46.38,1588333266.15625
-45.34,1588333266.171875
-43.66,1588333266.1875
-41.72,1588333266.203125
-40.09,1588333266.21875
-39.4,1588333266.234375
-40.16,1588333266.25
-42.6,1588333266.265625
-46.45,1588333266.28125
-50.81,1588333266.296875
-54.15,1588333266.3125
-54.6,1588333266.328125
-50.45,1588333266.34375
-40.83,1588333266.359375
-26.18,1588333266.375
-8.22,1588333266.390625
10.43,1588333266.40625
27.08,1588333266.421875
39.79,1588333266.4375
47.79,1588333266.453125
51.53,1588333266.46875
52.14,1588333266.484375
50.9,1588333266.5
48.75,1588333266.515625
46.13,1588333266.53125
43.14,1588333266.546875
39.81,1588333266.5625
36.33,1588333266.578125
33.01,1588333266.59375
30.16,1588333266.609375
27.95,1588333266.625
26.26,1588333266.640625
24.8,1588333266.65625
23.25,1588333266.671875
21.4,1588333266.6875
19.2,1588333266.703125
16.73,1588333266.71875
14.06,1588333266.734375
11.12,1588333266.75
7.78,1588333266.765625
3.88,1588333266.78125
-0.64,1588333266.796875
-5.62,1588333266.8125
-10.78,1588333266.828125
-15.82,1588333266.84375
-20.5,1588333266.859375
-24.75,1588333266.875
-28.67,1588333266.890625
-32.33,1588333266.90625
-35.76,1588333266.921875
-38.8,1588333266.9375
-41.23,1588333266.953125
-42.87,1588333266.96875
-43.79,1588333266.984375
-44.33,1588333267.0
-45.09,1588333267.015625
-46.76,1588333267.03125
-49.89,1588333267.046875
-54.63,1588333267.0625
-60.55,1588333267.078125
-66.55,1588333267.09375
-71.01,1588333267.109375
-72.09,1588333267.125
-68.32,1588333267.140625
-59.17,1588333267.15625
-45.33,1588333267.171875
-28.67,1588333267.1875
-11.67,1588333267.203125
3.36,1588333267.21875
14.87,1588333267.234375
22.36,1588333267.25
26.25,1588333267.265625
27.44,1588333267.28125
26.9,1588333267.296875
25.39,1588333267.3125
23.42,1588333267.328125
21.33,1588333267.34375
19.35,1588333267.359375
17.61,1588333267.375
16.15,1588333267.390625
14.92,1588333267.40625
13.8,1588333267.421875
12.7,1588333267.4375
11.56,1588333267.453125
10.44,1588333267.46875
9.41,1588333267.484375
8.65,1588333267.5
8.26,1588333267.515625
8.27,1588333267.53125
8.47,1588333267.546875
8.49,1588333267.5625
7.82,1588333267.578125
6.04,1588333267.59375
3.02,1588333267.609375
-0.98,1588333267.625
-5.35,1588333267.640625
-9.4,1588333267.65625
-12.69,1588333267.671875
-15.22,1588333267.6875
-17.46,1588333267.703125
-20.05,1588333267.71875
-23.56,1588333267.734375
-28.1,1588333267.75
-33.33,1588333267.765625
-38.56,1588333267.78125
-43.08,1588333267.796875
-46.43,1588333267.8125
-48.66,1588333267.828125
-50.31,1588333267.84375
-52.23,1588333267.859375
-55.42,1588333267.875
-60.61,1588333267.890625
-67.97,1588333267.90625
-76.81,1588333267.921875
-85.47,1588333267.9375
-91.48,1588333267.953125
-92.13,1588333267.96875
-85.27,1588333267.984375
-70.19,1588333268.0
-48.09,1588333268.015625
-21.9,1588333268.03125
4.5,1588333268.046875
27.47,1588333268.0625
44.66,1588333268.078125
55.49,1588333268.09375
60.91,1588333268.109375
62.69,1588333268.125
62.51,1588333268.140625
61.46,1588333268.15625
59.9,1588333268.171875
57.83,1588333268.1875
55.22,1588333268.203125
52.38,1588333268.21875
49.86,1588333268.234375
48.2,1588333268.25
47.63,1588333268.265625
47.87,1588333268.28125
48.24,1588333268.296875
48.02,1588333268.3125
46.79,1588333268.328125
44.71,1588333268.34375
42.43,1588333268.359375
40.73,1588333268.375
40.08,1588333268.390625
40.3,1588333268.40625
40.61,1588333268.421875
40.0,1588333268.4375
37.76,1588333268.453125
33.88,1588333268.46875
29.08,1588333268.484375
24.5,1588333268.5
21.14,1588333268.515625
19.45,1588333268.53125
19.08,1588333268.546875
19.18,1588333268.5625
18.71,1588333268.578125
16.94,1588333268.59375
13.75,1588333268.609375
9.55,1588333268.625
5.18,1588333268.640625
1.43,1588333268.65625
-1.28,1588333268.671875
-3.03,1588333268.6875
-4.46,1588333268.703125
-6.56,1588333268.71875
-10.29,1588333268.734375
-16.34,1588333268.75
-24.72,1588333268.765625
-34.59,1588333268.78125
-44.26,1588333268.796875
-51.42,1588333268.8125
-53.76,1588333268.828125
-49.75,1588333268.84375
-39.29,1588333268.859375
-23.99,1588333268.875
-6.6,1588333268.890625
9.79,1588333268.90625
22.84,1588333268.921875
31.56,1588333268.9375
36.33,1588333268.953125
38.36,1588333268.96875
38.92,1588333268.984375
38.81,1588333269.0
38.26,1588333269.015625
37.15,1588333269.03125
35.43,1588333269.046875
33.34,1588333269.0625
31.37,1588333269.078125
30.05,1588333269.09375
29.74,1588333269.109375
30.31,1588333269.125
31.22,1588333269.140625
31.72,1588333269.15625
31.11,1588333269.171875
29.06,1588333269.1875
25.7,1588333269.203125
21.52,1588333269.21875
17.09,1588333269.234375
12.71,1588333269.25
8.32,1588333269.265625
3.59,1588333269.28125
-1.87,1588333269.296875
-8.25,1588333269.3125
-15.35,1588333269.328125
-22.68,1588333269.34375
-29.6,1588333269.359375
-35.57,1588333269.375
-40.32,1588333269.390625
-43.89,1588333269.40625
-46.59,1588333269.421875
-48.94,1588333269.4375
-51.43,1588333269.453125
-54.36,1588333269.46875
-57.61,1588333269.484375
-60.72,1588333269.5
-63.06,1588333269.515625
-64.04,1588333269.53125
-63.55,1588333269.546875
-61.89,1588333269.5625
-59.84,1588333269.578125
-58.35,1588333269.59375
-58.35,1588333269.609375
-60.38,1588333269.625
-64.37,1588333269.640625
-69.41,1588333269.65625
-73.67,1588333269.671875
-74.69,1588333269.6875
-70.01,1588333269.703125
-58.12,1588333269.71875
-39.23,1588333269.734375
-15.53,1588333269.75
9.42,1588333269.765625
31.8,1588333269.78125
48.88,1588333269.796875
59.71,1588333269.8125
65.11,1588333269.828125
66.8,1588333269.84375
66.52,1588333269.859375
65.29,1588333269.875
63.33,1588333269.890625
60.51,1588333269.90625
56.81,1588333269.921875
52.58,1588333269.9375
48.41,1588333269.953125
44.81,1588333269.96875
41.88,1588333269.984375
39.32,1588333270.0
36.64,1588333270.015625
33.53,1588333270.03125
30.04,1588333270.046875
26.54,1588333270.0625
23.55,1588333270.078125
21.34,1588333270.09375
19.85,1588333270.109375
18.59,1588333270.125
16.96,1588333270.140625
14.36,1588333270.15625
10.52,1588333270.171875
5.57,1588333270.1875
0.04,1588333270.203125
-5.29,1588333270.21875
-9.71,1588333270.234375
-12.77,1588333270.25
-14.55,1588333270.265625
-15.67,1588333270.28125
-16.98,1588333270.296875
-19.27,1588333270.3125
-22.77,1588333270.328125
-27.14,1588333270.34375
-31.61,1588333270.359375
-35.32,1588333270.375
-37.8,1588333270.390625
-39.12,1588333270.40625
-39.85,1588333270.421875
-40.82,1588333270.4375
-42.88,1588333270.453125
-46.58,1588333270.46875
-52.04,1588333270.484375
-58.76,1588333270.5
-65.47,1588333270.515625
-70.29,1588333270.53125
-71.01,1588333270.546875
-65.78,1588333270.5625
-53.88,1588333270.578125
-36.19,1588333270.59375
-15.16,1588333270.609375
5.88,1588333270.625
23.79,1588333270.640625
36.56,1588333270.65625
43.72,1588333270.671875
46.2,1588333270.6875
45.58,1588333270.703125
43.33,1588333270.71875
40.34,1588333270.734375
36.91,1588333270.75
33.01,1588333270.765625
28.72,1588333270.78125
24.37,1588333270.796875
20.43,1588333270.8125
17.33,1588333270.828125
15.21,1588333270.84375
13.89,1588333270.859375
13.08,1588333270.875
12.53,1588333270.890625
12.09,1588333270.90625
11.66,1588333270.921875
11.03,1588333270.9375
9.73,1588333270.953125
7.22,1588333270.96875
3.07,1588333270.984375
-2.77,1588333271.0
-9.88,1588333271.015625
-17.73,1588333271.03125
-25.99,1588333271.046875
-34.75,1588333271.0625
-44.52,1588333271.078125
-55.78,1588333271.09375
-68.47,1588333271.109375
-81.67,1588333271.125
-93.69,1588333271.140625
-102.55,1588333271.15625
-106.77,1588333271.171875
-105.9,1588333271.1875
-100.7,1588333271.203125
-92.86,1588333271.21875
-84.47,1588333271.234375
-77.43,1588333271.25
-73.03,1588333271.265625
-71.68,1588333271.28125
-72.75,1588333271.296875
-74.52,1588333271.3125
-74.39,1588333271.328125
-69.5,1588333271.34375
-57.73,1588333271.359375
-38.63,1588333271.375
-13.86,1588333271.390625
13.29,1588333271.40625
39.12,1588333271.421875
60.83,1588333271.4375
77.49,1588333271.453125
89.96,1588333271.46875
99.91,1588333271.484375
108.75,1588333271.5
116.91,1588333271.515625
123.89,1588333271.53125
128.96,1588333271.546875
131.88,1588333271.5625
133.27,1588333271.578125
134.31,1588333271.59375
136.12,1588333271.609375
139.15,1588333271.625
142.99,1588333271.640625
146.4,1588333271.65625
147.68,1588333271.671875
145.19,1588333271.6875
137.8,1588333271.703125
125.25,1588333271.71875
108.31,1588333271.734375
88.61,1588333271.75
68.15,1588333271.765625
48.69,1588333271.78125
31.29,1588333271.796875
16.2,1588333271.8125
3.12,1588333271.828125
-8.39,1588333271.84375
-18.47,1588333271.859375
-26.92,1588333271.875
-33.39,1588333271.890625
-37.81,1588333271.90625
-40.62,1588333271.921875
-42.69,1588333271.9375
-44.98,1588333271.953125
-48.14,1588333271.96875
-52.16,1588333271.984375
-56.41,1588333272.0
-59.91,1588333272.015625
-61.74,1588333272.03125
-61.31,1588333272.046875
-58.49,1588333272.0625
-53.37,1588333272.078125
-46.1,1588333272.09375
-36.72,1588333272.109375
-25.34,1588333272.125
-12.49,1588333272.140625
0.7,1588333272.15625
12.69,1588333272.171875
22.06,1588333272.1875
28.05,1588333272.203125
30.91,1588333272.21875
31.6,1588333272.234375
31.22,1588333272.25
30.34,1588333272.265625
28.79,1588333272.28125
25.91,1588333272.296875
21.14,1588333272.3125
14.52,1588333272.328125
6.74,1588333272.34375
-1.21,1588333272.359375
-8.53,1588333272.375
-14.98,1588333272.390625
-20.81,1588333272.40625
-26.48,1588333272.421875
-32.22,1588333272.4375
-37.8,1588333272.453125
-42.66,1588333272.46875
-46.14,1588333272.484375
-47.9,1588333272.5
-48.15,1588333272.515625
-47.59,1588333272.53125
-47.19,1588333272.546875
-47.75,1588333272.5625
-49.64,1588333272.578125
-52.69,1588333272.59375
-56.31,1588333272.609375
-59.84,1588333272.625
-62.8,1588333272.640625
-65.11,1588333272.65625
-66.95,1588333272.671875
-68.62,1588333272.6875
-70.28,1588333272.703125
-71.85,1588333272.71875
-73.03,1588333272.734375
-73.46,1588333272.75
-72.93,1588333272.765625
-71.49,1588333272.78125
-69.43,1588333272.796875
-67.3,1588333272.8125
-65.68,1588333272.828125
-65.13,1588333272.84375
-65.95,1588333272.859375
-68.07,1588333272.875
-70.92,1588333272.890625
-73.42,1588333272.90625
-74.23,1588333272.921875
-72.01,1588333272.9375
-65.81,1588333272.953125
-55.33,1588333272.96875
-41.05,1588333272.984375
-24.13,1588333273.0
-6.18,1588333273.015625
11.07,1588333273.03125
26.1,1588333273.046875
37.85,1588333273.0625
45.88,1588333273.078125
50.33,1588333273.09375
51.84,1588333273.109375
51.23,1588333273.125
49.34,1588333273.140625
46.85,1588333273.15625
44.22,1588333273.171875
41.82,1588333273.1875
39.92,1588333273.203125
38.74,1588333273.21875
38.28,1588333273.234375
38.33,1588333273.25
38.44,1588333273.265625
38.13,1588333273.28125
37.09,1588333273.296875
35.28,1588333273.3125
32.98,1588333273.328125
30.57,1588333273.34375
28.31,1588333273.359375
26.18,1588333273.375
23.88,1588333273.390625
21.06,1588333273.40625
17.44,1588333273.421875
13.11,1588333273.4375
8.47,1588333273.453125
4.09,1588333273.46875
0.5,1588333273.484375
-2.08,1588333273.5
-3.82,1588333273.515625
-5.21,1588333273.53125
-6.86,1588333273.546875
-9.3,1588333273.5625
-12.73,1588333273.578125
-16.91,1588333273.59375
-21.29,1588333273.609375
-25.19,1588333273.625
-28.15,1588333273.640625
-30.08,1588333273.65625
-31.34,1588333273.671875
-32.54,1588333273.6875
-34.39,1588333273.703125
-37.44,1588333273.71875
-41.85,1588333273.734375
-47.35,1588333273.75
-53.16,1588333273.765625
-57.99,1588333273.78125
-60.18,1588333273.796875
-58.01,1588333273.8125
-50.25,1588333273.828125
-36.68,1588333273.84375
-18.44,1588333273.859375
2.12,1588333273.875
22.1,1588333273.890625
38.96,1588333273.90625
51.24,1588333273.921875
58.89,1588333273.9375
62.92,1588333273.953125
64.77,1588333273.96875
65.54,1588333273.984375
65.66,1588333274.0
64.93,1588333274.015625
63.01,1588333274.03125
59.82,1588333274.046875
55.75,1588333274.0625
51.59,1588333274.078125
47.99,1588333274.09375
45.23,1588333274.109375
43.0,1588333274.125
40.72,1588333274.140625
37.79,1588333274.15625
33.93,1588333274.171875
29.27,1588333274.1875
24.19,1588333274.203125
19.09,1588333274.21875
14.19,1588333274.234375
9.55,1588333274.25
5.12,1588333274.265625
0.93,1588333274.28125
-2.9,1588333274.296875
-6.23,1588333274.3125
-8.97,1588333274.328125
-11.22,1588333274.34375
-13.2,1588333274.359375
-15.18,1588333274.375
-17.31,1588333274.390625
-19.63,1588333274.40625
-22.03,1588333274.421875
-24.34,1588333274.4375
-26.52,1588333274.453125
-28.72,1588333274.46875
-31.26,1588333274.484375
-34.56,1588333274.5
-38.88,1588333274.515625
-43.99,1588333274.53125
-49.06,1588333274.546875
-52.7,1588333274.5625
-53.24,1588333274.578125
-49.4,1588333274.59375
-40.71,1588333274.609375
-27.88,1588333274.625
-12.59,1588333274.640625
2.97,1588333274.65625
16.85,1588333274.671875
27.81,1588333274.6875
35.54,1588333274.703125
40.38,1588333274.71875
42.99,1588333274.734375
43.93,1588333274.75
43.58,1588333274.765625
42.14,1588333274.78125
39.89,1588333274.796875
37.18,1588333274.8125
34.49,1588333274.828125
32.17,1588333274.84375
30.37,1588333274.859375
29.0,1588333274.875
27.79,1588333274.890625
26.48,1588333274.90625
24.84,1588333274.921875
22.8,1588333274.9375
20.36,1588333274.953125
17.54,1588333274.96875
14.4,1588333274.984375
11.03,1588333275.0
7.58,1588333275.015625
4.2,1588333275.03125
1.03,1588333275.046875
-1.92,1588333275.0625
-4.77,1588333275.078125
-7.71,1588333275.09375
-10.91,1588333275.109375
-14.44,1588333275.125
-18.19,1588333275.140625
-21.94,1588333275.15625
-25.41,1588333275.171875
-28.42,1588333275.1875
-30.92,1588333275.203125
-33.05,1588333275.21875
-35.11,1588333275.234375
-37.49,1588333275.25
-40.65,1588333275.265625
-44.96,1588333275.28125
-50.55,1588333275.296875
-57.11,1588333275.3125
-63.63,1588333275.328125
-68.48,1588333275.34375
-69.65,1588333275.359375
-65.38,1588333275.375
-54.86,1588333275.390625
-38.74,1588333275.40625
-19.06,1588333275.421875
1.34,1588333275.4375
19.73,1588333275.453125
34.38,1588333275.46875
44.91,1588333275.484375
52.05,1588333275.5
56.96,1588333275.515625
60.58,1588333275.53125
63.25,1588333275.546875
64.81,1588333275.5625
65.04,1588333275.578125
63.98,1588333275.59375
62.01,1588333275.609375
59.67,1588333275.625
57.38,1588333275.640625
55.21,1588333275.65625
52.92,1588333275.671875
50.18,1588333275.6875
46.81,1588333275.703125
42.87,1588333275.71875
38.69,1588333275.734375
34.65,1588333275.75
30.97,1588333275.765625
27.63,1588333275.78125
24.39,1588333275.796875
20.87,1588333275.8125
16.81,1588333275.828125
12.2,1588333275.84375
7.35,1588333275.859375
2.77,1588333275.875
-1.05,1588333275.890625
-3.89,1588333275.90625
-6.01,1588333275.921875
-7.94,1588333275.9375
-10.34,1588333275.953125
-13.56,1588333275.96875
-17.51,1588333275.984375
-21.68,1588333276.0
-25.38,1588333276.015625
-28.14,1588333276.03125
-29.89,1588333276.046875
-31.06,1588333276.0625
-32.38,1588333276.078125
-34.6,1588333276.09375
-38.16,1588333276.109375
-43.03,1588333276.125
-48.56,1588333276.140625
-53.59,1588333276.15625
-56.69,1588333276.171875
-56.33,1588333276.1875
-51.49,1588333276.203125
-41.85,1588333276.21875
-28.13,1588333276.234375
-11.97,1588333276.25
4.56,1588333276.265625
19.47,1588333276.28125
31.45,1588333276.296875
40.17,1588333276.3125
46.11,1588333276.328125
50.15,1588333276.34375
53.06,1588333276.359375
55.14,1588333276.375
56.28,1588333276.390625
56.16,1588333276.40625
54.68,1588333276.421875
52.11,1588333276.4375
49.08,1588333276.453125
46.25,1588333276.46875
44.07,1588333276.484375
42.5,1588333276.5
41.21,1588333276.515625
39.74,1588333276.53125
37.83,1588333276.546875
35.55,1588333276.5625
33.22,1588333276.578125
31.25,1588333276.59375
29.81,1588333276.609375
28.84,1588333276.625
28.01,1588333276.640625
26.99,1588333276.65625
25.61,1588333276.671875
23.95,1588333276.6875
22.39,1588333276.703125
21.38,1588333276.71875
21.29,1588333276.734375
22.25,1588333276.75
24.07,1588333276.765625
26.3,1588333276.78125
28.42,1588333276.796875
30.01,1588333276.8125
30.95,1588333276.828125
31.47,1588333276.84375
31.94,1588333276.859375
32.77,1588333276.875
34.09,1588333276.890625
35.76,1588333276.90625
37.41,1588333276.921875
38.67,1588333276.9375
39.32,1588333276.953125
39.36,1588333276.96875
38.98,1588333276.984375
38.35,1588333277.0
37.72,1588333277.015625
37.4,1588333277.03125
37.91,1588333277.046875
39.84,1588333277.0625
43.7,1588333277.078125
49.54,1588333277.09375
56.74,1588333277.109375
64.15,1588333277.125
70.5,1588333277.140625
74.82,1588333277.15625
76.8,1588333277.171875
76.74,1588333277.1875
75.28,1588333277.203125
72.97,1588333277.21875
70.11,1588333277.234375
66.65,1588333277.25
62.5,1588333277.265625
57.58,1588333277.28125
52.04,1588333277.296875
46.2,1588333277.3125
40.34,1588333277.328125
34.69,1588333277.34375
29.27,1588333277.359375
23.98,1588333277.375
18.62,1588333277.390625
13.06,1588333277.40625
7.26,1588333277.421875
1.33,1588333277.4375
-4.51,1588333277.453125
-10.0,1588333277.46875
-14.97,1588333277.484375
-19.37,1588333277.5
-23.29,1588333277.515625
-26.91,1588333277.53125
-30.43,1588333277.546875
-33.93,1588333277.5625
-37.4,1588333277.578125
-40.65,1588333277.59375
-43.44,1588333277.609375
-45.57,1588333277.625
-46.99,1588333277.640625
-47.86,1588333277.65625
-48.5,1588333277.671875
-49.25,1588333277.6875
-50.32,1588333277.703125
-51.7,1588333277.71875
-53.11,1588333277.734375
-54.21,1588333277.75
-54.67,1588333277.765625
-54.38,1588333277.78125
-53.52,1588333277.796875
-52.32,1588333277.8125
-51.13,1588333277.828125
-50.12,1588333277.84375
-49.37,1588333277.859375
-48.8,1588333277.875
-48.3,1588333277.890625
-47.78,1588333277.90625
-47.11,1588333277.921875
-46.12,1588333277.9375
-44.58,1588333277.953125
-42.33,1588333277.96875
-39.3,1588333277.984375
-35.76,1588333278.0
-32.2,1588333278.015625
-29.25,1588333278.03125
-27.44,1588333278.046875
-26.95,1588333278.0625
-27.6,1588333278.078125
-28.88,1588333278.09375
-30.24,1588333278.109375
-31.21,1588333278.125
-31.57,1588333278.140625
-31.32,1588333278.15625
-30.61,1588333278.171875
-29.55,1588333278.1875
-28.26,1588333278.203125
-26.82,1588333278.21875
-25.3,1588333278.234375
-23.83,1588333278.25
-22.54,1588333278.265625
-21.56,1588333278.28125
-21.01,1588333278.296875
-20.86,1588333278.3125
-21.0,1588333278.328125
-21.19,1588333278.34375
-21.18,1588333278.359375
-20.79,1588333278.375
-20.08,1588333278.390625
-19.31,1588333278.40625
-18.84,1588333278.421875
-18.94,1588333278.4375
-19.62,1588333278.453125
-20.66,1588333278.46875
-21.69,1588333278.484375
-22.39,1588333278.5
-22.61,1588333278.515625
-22.36,1588333278.53125
-21.73,1588333278.546875
-20.78,1588333278.5625
-19.51,1588333278.578125
-17.94,1588333278.59375
-16.16,1588333278.609375
-14.39,1588333278.625
-12.89,1588333278.640625
-11.82,1588333278.65625
-11.26,1588333278.671875
-11.1,1588333278.6875
-11.18,1588333278.703125
-11.39,1588333278.71875
-11.56,1588333278.734375
-11.45,1588333278.75
-10.66,1588333278.765625
-8.82,1588333278.78125
-5.75,1588333278.796875
-1.67,1588333278.8125
2.74,1588333278.828125
6.55,1588333278.84375
8.91,1588333278.859375
9.49,1588333278.875
8.55,1588333278.890625
6.8,1588333278.90625
5.01,1588333278.921875
3.69,1588333278.9375
2.83,1588333278.953125
2.12,1588333278.96875
1.21,1588333278.984375
-0.08,1588333279.0
-1.59,1588333279.015625
-3.0,1588333279.03125
-3.96,1588333279.046875
-4.32,1588333279.0625
-4.12,1588333279.078125
-3.63,1588333279.09375
-3.13,1588333279.109375
-2.81,1588333279.125
-2.69,1588333279.140625
-2.7,1588333279.15625
-2.71,1588333279.171875
-2.7,1588333279.1875
-2.72,1588333279.203125
-2.86,1588333279.21875
-3.17,1588333279.234375
-3.6,1588333279.25
-3.98,1588333279.265625
-4.15,1588333279.28125
-4.08,1588333279.296875
-3.87,1588333279.3125
-3.78,1588333279.328125
-4.04,1588333279.34375
-4.7,1588333279.359375
-5.63,1588333279.375
-6.58,1588333279.390625
-7.27,1588333279.40625
-7.6,1588333279.421875
-7.62,1588333279.4375
-7.53,1588333279.453125
-7.62,1588333279.46875
-8.16,1588333279.484375
-9.29,1588333279.5
-10.98,1588333279.515625
-12.94,1588333279.53125
-14.56,1588333279.546875
-15.01,1588333279.5625
-13.5,1588333279.578125
-9.59,1588333279.59375
-3.48,1588333279.609375
3.9,1588333279.625
11.15,1588333279.640625
16.84,1588333279.65625
20.01,1588333279.671875
20.46,1588333279.6875
18.75,1588333279.703125
15.79,1588333279.71875
12.48,1588333279.734375
9.37,1588333279.75
6.63,1588333279.765625
4.23,1588333279.78125
2.11,1588333279.796875
0.35,1588333279.8125
-0.87,1588333279.828125
-1.51,1588333279.84375
-1.67,1588333279.859375
-1.65,1588333279.875
-1.76,1588333279.890625
-2.13,1588333279.90625
-2.66,1588333279.921875
-3.05,1588333279.9375
-2.97,1588333279.953125
-2.34,1588333279.96875
-1.32,1588333279.984375
-0.32,1588333280.0
0.23,1588333280.015625
0.09,1588333280.03125
-0.7,1588333280.046875
-1.84,1588333280.0625
-2.97,1588333280.078125
-3.83,1588333280.09375
-4.4,1588333280.109375
-4.84,1588333280.125
-5.38,1588333280.140625
-6.13,1588333280.15625
-7.01,1588333280.171875
-7.83,1588333280.1875
-8.34,1588333280.203125
-8.41,1588333280.21875
-8.07,1588333280.234375
-7.52,1588333280.25
-7.06,1588333280.265625
-6.98,1588333280.28125
-7.52,1588333280.296875
-8.76,1588333280.3125
-10.61,1588333280.328125
-12.78,1588333280.34375
-14.97,1588333280.359375
-16.91,1588333280.375
-18.55,1588333280.390625
-20.07,1588333280.40625
-21.73,1588333280.421875
-23.79,1588333280.4375
-26.26,1588333280.453125
-28.98,1588333280.46875
-31.51,1588333280.484375
-33.35,1588333280.5
-34.03,1588333280.515625
-33.16,1588333280.53125
-30.62,1588333280.546875
-26.59,1588333280.5625
-21.62,1588333280.578125
-16.48,1588333280.59375
-11.93,1588333280.609375
-8.39,1588333280.625
-5.78,1588333280.640625
-3.62,1588333280.65625
-1.26,1588333280.671875
1.71,1588333280.6875
5.21,1588333280.703125
8.82,1588333280.71875
12.04,1588333280.734375
14.51,1588333280.75
16.29,1588333280.765625
17.59,1588333280.78125
18.63,1588333280.796875
19.42,1588333280.8125
19.74,1588333280.828125
19.3,1588333280.84375
17.97,1588333280.859375
15.9,1588333280.875
13.54,1588333280.890625
11.36,1588333280.90625
9.68,1588333280.921875
8.56,1588333280.9375
7.76,1588333280.953125
6.94,1588333280.96875
5.82,1588333280.984375
4.27,1588333281.0
2.4,1588333281.015625
0.39,1588333281.03125
-1.58,1588333281.046875
-3.42,1588333281.0625
-5.16,1588333281.078125
-6.91,1588333281.09375
-8.77,1588333281.109375
-10.79,1588333281.125
-12.98,1588333281.140625
-15.29,1588333281.15625
-17.63,1588333281.171875
-19.83,1588333281.1875
-21.65,1588333281.203125
-22.73,1588333281.21875
-22.69,1588333281.234375
-21.23,1588333281.25
-18.3,1588333281.265625
-14.19,1588333281.28125
-9.45,1588333281.296875
-4.72,1588333281.3125
-0.41,1588333281.328125
3.47,1588333281.34375
7.31,1588333281.359375
11.64,1588333281.375
16.82,1588333281.390625
22.77,1588333281.40625
29.03,1588333281.421875
35.02,1588333281.4375
40.23,1588333281.453125
44.41,1588333281.46875
47.39,1588333281.484375
48.82,1588333281.5
48.16,1588333281.515625
44.73,1588333281.53125
38.2,1588333281.546875
28.97,1588333281.5625
18.18,1588333281.578125
7.55,1588333281.59375
-1.32,1588333281.609375
-7.47,1588333281.625
-10.86,1588333281.640625
-12.2,1588333281.65625
-12.5,1588333281.671875
-12.62,1588333281.6875
-13.03,1588333281.703125
-13.85,1588333281.71875
-14.99,1588333281.734375
-16.44,1588333281.75
-18.28,1588333281.765625
-20.69,1588333281.78125
-23.69,1588333281.796875
-27.14,1588333281.8125
-30.6,1588333281.828125
-33.54,1588333281.84375
-35.52,1588333281.859375
-36.41,1588333281.875
-36.44,1588333281.890625
-36.08,1588333281.90625
-35.89,1588333281.921875
-36.25,1588333281.9375
-37.34,1588333281.953125
-39.07,1588333281.96875
-41.27,1588333281.984375
-43.74,1588333282.0
-46.19,1588333282.015625
-48.24,1588333282.03125
-49.26,1588333282.046875
-48.5,1588333282.0625
-45.39,1588333282.078125
-39.9,1588333282.09375
-32.6,1588333282.109375
-24.69,1588333282.125
-17.48,1588333282.140625
-11.97,1588333282.15625
-8.51,1588333282.171875
-6.78,1588333282.1875
-6.06,1588333282.203125
-5.59,1588333282.21875
-4.79,1588333282.234375
-3.37,1588333282.25
-1.21,1588333282.265625
1.67,1588333282.28125
5.17,1588333282.296875
9.0,1588333282.3125
12.73,1588333282.328125
15.78,1588333282.34375
17.73,1588333282.359375
18.42,1588333282.375
18.02,1588333282.390625
16.94,1588333282.40625
15.62,1588333282.421875
14.39,1588333282.4375
13.38,1588333282.453125
12.61,1588333282.46875
12.05,1588333282.484375
11.69,1588333282.5
11.56,1588333282.515625
11.66,1588333282.53125
11.91,1588333282.546875
12.16,1588333282.5625
12.21,1588333282.578125
11.86,1588333282.59375
10.97,1588333282.609375
9.53,1588333282.625
7.65,1588333282.640625
5.56,1588333282.65625
3.56,1588333282.671875
1.94,1588333282.6875
0.85,1588333282.703125
0.26,1588333282.71875
-0.12,1588333282.734375
-0.77,1588333282.75
-2.16,1588333282.765625
-4.67,1588333282.78125
-8.34,1588333282.796875
-12.76,1588333282.8125
-17.02,1588333282.828125
-19.91,1588333282.84375
-20.21,1588333282.859375
-17.1,1588333282.875
-10.47,1588333282.890625
-1.1,1588333282.90625
9.56,1588333282.921875
19.78,1588333282.9375
28.06,1588333282.953125
33.58,1588333282.96875
36.37,1588333282.984375
37.08,1588333283.0
36.65,1588333283.015625
35.73,1588333283.03125
34.58,1588333283.046875
33.02,1588333283.0625
30.75,1588333283.078125
27.71,1588333283.09375
24.2,1588333283.109375
20.8,1588333283.125
18.06,1588333283.140625
16.25,1588333283.15625
15.22,1588333283.171875
14.58,1588333283.1875
13.92,1588333283.203125
13.02,1588333283.21875
11.89,1588333283.234375
10.62,1588333283.25
9.2,1588333283.265625
7.54,1588333283.28125
5.47,1588333283.296875
2.97,1588333283.3125
0.25,1588333283.328125
-2.38,1588333283.34375
-4.65,1588333283.359375
-6.49,1588333283.375
-8.1,1588333283.390625
-9.78,1588333283.40625
-11.75,1588333283.421875
-13.98,1588333283.4375
-16.27,1588333283.453125
-18.39,1588333283.46875
-20.25,1588333283.484375
-22.06,1588333283.5
-24.19,1588333283.515625
-27.09,1588333283.53125
-31.05,1588333283.546875
-36.03,1588333283.5625
-41.55,1588333283.578125
-46.79,1588333283.59375
-50.64,1588333283.609375
-51.9,1588333283.625
-49.47,1588333283.640625
-42.59,1588333283.65625
-31.07,1588333283.671875
-15.42,1588333283.6875
3.06,1588333283.703125
22.54,1588333283.71875
41.08,1588333283.734375
57.05,1588333283.75
69.52,1588333283.765625
78.33,1588333283.78125
83.89,1588333283.796875
86.87,1588333283.8125
87.92,1588333283.828125
87.48,1588333283.84375
85.95,1588333283.859375
83.72,1588333283.875
81.27,1588333283.890625
79.07,1588333283.90625
77.41,1588333283.921875
76.43,1588333283.9375
76.1,1588333283.953125
76.33,1588333283.96875
77.1,1588333283.984375
78.38,1588333284.0
80.01,1588333284.015625
81.62,1588333284.03125
82.55,1588333284.046875
82.04,1588333284.0625
79.4,1588333284.078125
74.3,1588333284.09375
66.93,1588333284.109375
57.96,1588333284.125
48.49,1588333284.140625
39.75,1588333284.15625
32.86,1588333284.171875
28.52,1588333284.1875
26.82,1588333284.203125
27.23,1588333284.21875
28.74,1588333284.234375
30.25,1588333284.25
30.85,1588333284.265625
30.19,1588333284.28125
28.5,1588333284.296875
26.38,1588333284.3125
24.49,1588333284.328125
23.17,1588333284.34375
22.28,1588333284.359375
21.18,1588333284.375
18.98,1588333284.390625
14.84,1588333284.40625
8.22,1588333284.421875
-0.94,1588333284.4375
-12.17,1588333284.453125
-24.52,1588333284.46875
-36.74,1588333284.484375
-47.5,1588333284.5
-55.68,1588333284.515625
-60.56,1588333284.53125
-62.03,1588333284.546875
-60.55,1588333284.5625
-56.99,1588333284.578125
-52.43,1588333284.59375
-47.86,1588333284.609375
-44.0,1588333284.625
-41.2,1588333284.640625
-39.47,1588333284.65625
-38.59,1588333284.671875
-38.2,1588333284.6875
-37.92,1588333284.703125
-37.38,1588333284.71875
-36.29,1588333284.734375
-34.49,1588333284.75
-31.99,1588333284.765625
-28.96,1588333284.78125
-25.79,1588333284.796875
-22.88,1588333284.8125
-20.51,1588333284.828125
-18.76,1588333284.84375
-17.38,1588333284.859375
-16.01,1588333284.875
-14.3,1588333284.890625
-12.16,1588333284.90625
-9.77,1588333284.921875
-7.5,1588333284.9375
-5.76,1588333284.953125
-4.82,1588333284.96875
-4.71,1588333284.984375
-5.27,1588333285.0
-6.21,1588333285.015625
-7.23,1588333285.03125
-8.12,1588333285.046875
-8.8,1588333285.0625
-9.31,1588333285.078125
-9.71,1588333285.09375
-10.05,1588333285.109375
-10.27,1588333285.125
-10.24,1588333285.140625
-9.88,1588333285.15625
-9.24,1588333285.171875
-8.58,1588333285.1875
-8.3,1588333285.203125
-8.77,1588333285.21875
-10.13,1588333285.234375
-12.16,1588333285.25
-14.3,1588333285.265625
-15.82,1588333285.28125
-16.11,1588333285.296875
-14.94,1588333285.3125
-12.51,1588333285.328125
-9.4,1588333285.34375
-6.32,1588333285.359375
-3.92,1588333285.375
-2.55,1588333285.390625
-2.19,1588333285.40625
-2.5,1588333285.421875
-3.02,1588333285.4375
-3.34,1588333285.453125
-3.2,1588333285.46875
-2.66,1588333285.484375
-1.93,1588333285.5
-1.34,1588333285.515625
-1.12,1588333285.53125
-1.37,1588333285.546875
-2.0,1588333285.5625
-2.77,1588333285.578125
-3.46,1588333285.59375
-3.94,1588333285.609375
-4.19,1588333285.625
-4.25,1588333285.640625
-4.21,1588333285.65625
-4.04,1588333285.671875
-3.72,1588333285.6875
-3.25,1588333285.703125
-2.73,1588333285.71875
-2.34,1588333285.734375
-2.27,1588333285.75
-2.63,1588333285.765625
-3.36,1588333285.78125
-4.27,1588333285.796875
-5.05,1588333285.8125
-5.47,1588333285.828125
-5.41,1588333285.84375
-4.93,1588333285.859375
-4.22,1588333285.875
-3.53,1588333285.890625
-3.09,1588333285.90625
-3.02,1588333285.921875
-3.32,1588333285.9375
-3.86,1588333285.953125
-4.37,1588333285.96875
-4.59,1588333285.984375
-4.41,1588333286.0
-3.91,1588333286.015625
-3.33,1588333286.03125
-3.0,1588333286.046875
-3.15,1588333286.0625
-3.81,1588333286.078125
-4.81,1588333286.09375
-5.87,1588333286.109375
-6.57,1588333286.125
-6.53,1588333286.140625
-5.41,1588333286.15625
-3.03,1588333286.171875
0.5,1588333286.1875
4.71,1588333286.203125
8.87,1588333286.21875
12.16,1588333286.234375
14.0,1588333286.25
14.27,1588333286.265625
13.26,1588333286.28125
11.49,1588333286.296875
9.48,1588333286.3125
7.5,1588333286.328125
5.66,1588333286.34375
3.91,1588333286.359375
2.29,1588333286.375
0.88,1588333286.390625
-0.18,1588333286.40625
-0.82,1588333286.421875
-1.02,1588333286.4375
-0.82,1588333286.453125
-0.3,1588333286.46875
0.51,1588333286.484375
1.56,1588333286.5
2.75,1588333286.515625
3.97,1588333286.53125
5.04,1588333286.546875
5.77,1588333286.5625
6.06,1588333286.578125
5.92,1588333286.59375
5.47,1588333286.609375
5.07,1588333286.625
5.16,1588333286.640625
6.21,1588333286.65625
8.52,1588333286.671875
12.04,1588333286.6875
16.31,1588333286.703125
20.56,1588333286.71875
23.92,1588333286.734375
25.73,1588333286.75
25.71,1588333286.765625
24.02,1588333286.78125
21.07,1588333286.796875
17.3,1588333286.8125
12.91,1588333286.828125
7.82,1588333286.84375
1.82,1588333286.859375
-5.26,1588333286.875
-13.39,1588333286.890625
-22.17,1588333286.90625
-30.97,1588333286.921875
-38.9,1588333286.9375
-44.98,1588333286.953125
-48.23,1588333286.96875
-47.91,1588333286.984375
-43.78,1588333287.0
-36.37,1588333287.015625
-26.97,1588333287.03125
-17.33,1588333287.046875
-9.17,1588333287.0625
-3.55,1588333287.078125
-0.58,1588333287.09375
0.51,1588333287.109375
0.94,1588333287.125
1.76,1588333287.140625
3.4,1588333287.15625
5.6,1588333287.171875
7.7,1588333287.1875
9.0,1588333287.203125
9.21,1588333287.21875
8.43,1588333287.234375
7.07,1588333287.25
5.5,1588333287.265625
3.89,1588333287.28125
2.18,1588333287.296875
0.26,1588333287.3125
-1.79,1588333287.328125
-3.67,1588333287.34375
-4.97,1588333287.359375
-5.31,1588333287.375
-4.64,1588333287.390625
-3.32,1588333287.40625
-1.95,1588333287.421875
-1.15,1588333287.4375
-1.22,1588333287.453125
-2.07,1588333287.46875
-3.37,1588333287.484375
-4.69,1588333287.5
-5.74,1588333287.515625
-6.47,1588333287.53125
-6.98,1588333287.546875
-7.33,1588333287.5625
-7.45,1588333287.578125
-7.12,1588333287.59375
-6.16,1588333287.609375
-4.52,1588333287.625
-2.44,1588333287.640625
-0.38,1588333287.65625
1.21,1588333287.671875
2.09,1588333287.6875
2.31,1588333287.703125
2.17,1588333287.71875
2.19,1588333287.734375
2.83,1588333287.75
4.38,1588333287.765625
6.82,1588333287.78125
9.83,1588333287.796875
12.82,1588333287.8125
15.11,1588333287.828125
16.16,1588333287.84375
15.63,1588333287.859375
13.65,1588333287.875
10.67,1588333287.890625
7.37,1588333287.90625
4.44,1588333287.921875
2.33,1588333287.9375
1.19,1588333287.953125
0.92,1588333287.96875
1.21,1588333287.984375
1.73,1588333288.0
2.2,1588333288.015625
2.39,1588333288.03125
2.11,1588333288.046875
1.32,1588333288.0625
0.02,1588333288.078125
-1.64,1588333288.09375
-3.41,1588333288.109375
-5.0,1588333288.125
-6.21,1588333288.140625
-7.0,1588333288.15625
-7.53,1588333288.171875
-8.09,1588333288.1875
-8.93,1588333288.203125
-10.23,1588333288.21875
-11.94,1588333288.234375
-13.82,1588333288.25
-15.54,1588333288.265625
-16.78,1588333288.28125
-17.35,1588333288.296875
-17.19,1588333288.3125
-16.47,1588333288.328125
-15.43,1588333288.34375
-14.41,1588333288.359375
-13.69,1588333288.375
-13.42,1588333288.390625
-13.57,1588333288.40625
-13.95,1588333288.421875
-14.26,1588333288.4375
-14.27,1588333288.453125
-13.93,1588333288.46875
-13.4,1588333288.484375
-13.0,1588333288.5
-13.13,1588333288.515625
-14.01,1588333288.53125
-15.7,1588333288.546875
-17.97,1588333288.5625
-20.39,1588333288.578125
-22.35,1588333288.59375
-23.12,1588333288.609375
-22.01,1588333288.625
-18.55,1588333288.640625
-12.85,1588333288.65625
-5.63,1588333288.671875
1.83,1588333288.6875
8.16,1588333288.703125
12.38,1588333288.71875
14.29,1588333288.734375
14.43,1588333288.75
13.75,1588333288.765625
13.09,1588333288.78125
12.82,1588333288.796875
12.82,1588333288.8125
12.73,1588333288.828125
12.3,1588333288.84375
11.58,1588333288.859375
10.87,1588333288.875
10.47,1588333288.890625
10.48,1588333288.90625
10.73,1588333288.921875
10.87,1588333288.9375
10.65,1588333288.953125
10.0,1588333288.96875
9.12,1588333288.984375
8.31,1588333289.0
7.82,1588333289.015625
7.66,1588333289.03125
7.65,1588333289.046875
7.46,1588333289.0625
6.88,1588333289.078125
5.84,1588333289.09375
4.56,1588333289.109375
3.44,1588333289.125
2.85,1588333289.140625
3.01,1588333289.15625
3.83,1588333289.171875
4.95,1588333289.1875
5.89,1588333289.203125
6.18,1588333289.21875
5.6,1588333289.234375
4.22,1588333289.25
2.37,1588333289.265625
0.48,1588333289.28125
-1.11,1588333289.296875
-2.23,1588333289.3125
-2.96,1588333289.328125
-3.59,1588333289.34375
-4.48,1588333289.359375
-5.91,1588333289.375
-8.03,1588333289.390625
-10.8,1588333289.40625
-13.94,1588333289.421875
-17.0,1588333289.4375
-19.32,1588333289.453125
-20.2,1588333289.46875
-19.04,1588333289.484375
-15.62,1588333289.5
-10.21,1588333289.515625
-3.61,1588333289.53125
3.05,1588333289.546875
8.68,1588333289.5625
12.55,1588333289.578125
14.45,1588333289.59375
14.73,1588333289.609375
13.99,1588333289.625
12.86,1588333289.640625
11.74,1588333289.65625
10.81,1588333289.671875
10.03,1588333289.6875
9.37,1588333289.703125
8.82,1588333289.71875
8.45,1588333289.734375
8.35,1588333289.75
8.57,1588333289.765625
9.03,1588333289.78125
9.6,1588333289.796875
10.14,1588333289.8125
10.52,1588333289.828125
10.7,1588333289.84375
10.73,1588333289.859375
10.64,1588333289.875
10.45,1588333289.890625
10.1,1588333289.90625
9.51,1588333289.921875
8.6,1588333289.9375
7.41,1588333289.953125
6.07,1588333289.96875
4.77,1588333289.984375
3.7,1588333290.0
2.95,1588333290.015625
2.52,1588333290.03125
2.26,1588333290.046875
1.97,1588333290.0625
1.4,1588333290.078125
0.37,1588333290.09375
-1.16,1588333290.109375
-3.02,1588333290.125
-4.9,1588333290.140625
-6.38,1588333290.15625
-7.15,1588333290.171875
-7.14,1588333290.1875
-6.61,1588333290.203125
-6.01,1588333290.21875
-5.89,1588333290.234375
-6.64,1588333290.25
-8.4,1588333290.265625
-10.99,1588333290.28125
-13.96,1588333290.296875
-16.6,1588333290.3125
-18.19,1588333290.328125
-18.04,1588333290.34375
-15.74,1588333290.359375
-11.34,1588333290.375
-5.42,1588333290.390625
1.02,1588333290.40625
6.8,1588333290.421875
10.92,1588333290.4375
12.92,1588333290.453125
12.96,1588333290.46875
11.72,1588333290.484375
9.99,1588333290.5
8.45,1588333290.515625
7.41,1588333290.53125
6.83,1588333290.546875
6.53,1588333290.5625
6.27,1588333290.578125
5.96,1588333290.59375
5.54,1588333290.609375
5.03,1588333290.625
4.42,1588333290.640625
3.76,1588333290.65625
3.16,1588333290.671875
2.79,1588333290.6875
2.81,1588333290.703125
3.27,1588333290.71875
4.05,1588333290.734375
4.88,1588333290.75
5.4,1588333290.765625
5.4,1588333290.78125
4.8,1588333290.796875
3.78,1588333290.8125
2.55,1588333290.828125
1.35,1588333290.84375
0.26,1588333290.859375
-0.77,1588333290.875
-1.83,1588333290.890625
-3.03,1588333290.90625
-4.29,1588333290.921875
-5.49,1588333290.9375
-6.43,1588333290.953125
-6.99,1588333290.96875
-7.16,1588333290.984375
-7.09,1588333291.0
-7.0,1588333291.015625
-7.14,1588333291.03125
-7.77,1588333291.046875
-9.08,1588333291.0625
-11.11,1588333291.078125
-13.64,1588333291.09375
-16.09,1588333291.109375
-17.65,1588333291.125
-17.46,1588333291.140625
-15.01,1588333291.15625
-10.31,1588333291.171875
-4.06,1588333291.1875
2.64,1588333291.203125
8.56,1588333291.21875
12.81,1588333291.234375
15.01,1588333291.25
15.4,1588333291.265625
14.56,1588333291.28125
13.25,1588333291.296875
12.05,1588333291.3125
11.21,1588333291.328125
10.71,1588333291.34375
10.35,1588333291.359375
9.93,1588333291.375
9.4,1588333291.390625
8.89,1588333291.40625
8.58,1588333291.421875
8.54,1588333291.4375
8.71,1588333291.453125
8.9,1588333291.46875
8.9,1588333291.484375
8.64,1588333291.5
8.17,1588333291.515625
7.59,1588333291.53125
6.96,1588333291.546875
6.18,1588333291.5625
5.1,1588333291.578125
3.57,1588333291.59375
1.64,1588333291.609375
-0.44,1588333291.625
-2.32,1588333291.640625
-3.72,1588333291.65625
-4.55,1588333291.671875
-5.03,1588333291.6875
-5.56,1588333291.703125
-6.51,1588333291.71875
-8.03,1588333291.734375
-9.97,1588333291.75
-11.98,1588333291.765625
-13.7,1588333291.78125
-14.94,1588333291.796875
-15.81,1588333291.8125
-16.68,1588333291.828125
-18.0,1588333291.84375
-20.01,1588333291.859375
-22.64,1588333291.875
-25.33,1588333291.890625
-27.2,1588333291.90625
-27.26,1588333291.921875
-24.79,1588333291.9375
-19.61,1588333291.953125
-12.27,1588333291.96875
-3.87,1588333291.984375
4.25,1588333292.0
11.01,1588333292.015625
15.81,1588333292.03125
18.7,1588333292.046875
20.11,1588333292.0625
20.61,1588333292.078125
20.57,1588333292.09375
20.14,1588333292.109375
19.29,1588333292.125
18.02,1588333292.140625
16.46,1588333292.15625
14.89,1588333292.171875
13.58,1588333292.1875
12.71,1588333292.203125
12.22,1588333292.21875
11.84,1588333292.234375
11.33,1588333292.25
10.48,1588333292.265625
9.34,1588333292.28125
8.03,1588333292.296875
6.72,1588333292.3125
5.49,1588333292.328125
4.31,1588333292.34375
3.14,1588333292.359375
1.97,1588333292.375
0.92,1588333292.390625
0.18,1588333292.40625
-0.12,1588333292.421875
0.02,1588333292.4375
0.41,1588333292.453125
0.75,1588333292.46875
0.77,1588333292.484375
0.32,1588333292.5
-0.55,1588333292.515625
-1.61,1588333292.53125
-2.63,1588333292.546875
-3.42,1588333292.5625
-3.96,1588333292.578125
-4.39,1588333292.59375
-4.93,1588333292.609375
-5.77,1588333292.625
-7.07,1588333292.640625
-8.89,1588333292.65625
-11.2,1588333292.671875
-13.84,1588333292.6875
-16.39,1588333292.703125
-18.15,1588333292.71875
-18.25,1588333292.734375
-15.8,1588333292.75
-10.38,1588333292.765625
-2.23,1588333292.78125
7.67,1588333292.796875
17.88,1588333292.8125
27.0,1588333292.828125
34.07,1588333292.84375
38.79,1588333292.859375
41.45,1588333292.875
42.59,1588333292.890625
42.76,1588333292.90625
42.23,1588333292.921875
41.11,1588333292.9375
39.41,1588333292.953125
37.22,1588333292.96875
34.8,1588333292.984375
32.51,1588333293.0
30.67,1588333293.015625
29.43,1588333293.03125
28.63,1588333293.046875
27.94,1588333293.0625
26.9,1588333293.078125
25.24,1588333293.09375
22.93,1588333293.109375
20.2,1588333293.125
17.43,1588333293.140625
14.88,1588333293.15625
12.62,1588333293.171875
10.44,1588333293.1875
8.03,1588333293.203125
5.14,1588333293.21875
1.75,1588333293.234375
-1.95,1588333293.25
-5.62,1588333293.265625
-8.95,1588333293.28125
-11.73,1588333293.296875
-13.85,1588333293.3125
-15.28,1588333293.328125
-16.04,1588333293.34375
-16.16,1588333293.359375
-15.77,1588333293.375
-15.06,1588333293.390625
-14.26,1588333293.40625
-13.61,1588333293.421875
-13.21,1588333293.4375
-13.09,1588333293.453125
-13.23,1588333293.46875
-13.58,1588333293.484375
-14.16,1588333293.5
-15.03,1588333293.515625
-16.26,1588333293.53125
-17.88,1588333293.546875
-19.84,1588333293.5625
-21.86,1588333293.578125
-23.47,1588333293.59375
-24.0,1588333293.609375
-22.79,1588333293.625
-19.44,1588333293.640625
-14.05,1588333293.65625
-7.31,1588333293.671875
-0.3,1588333293.6875
5.82,1588333293.703125
10.3,1588333293.71875
12.91,1588333293.734375
14.01,1588333293.75
14.21,1588333293.765625
14.11,1588333293.78125
14.0,1588333293.796875
13.92,1588333293.8125
13.73,1588333293.828125
13.35,1588333293.84375
12.86,1588333293.859375
12.5,1588333293.875
12.49,1588333293.890625
12.96,1588333293.90625
13.79,1588333293.921875
14.74,1588333293.9375
15.52,1588333293.953125
16.03,1588333293.96875
16.34,1588333293.984375
16.71,1588333294.0
17.42,1588333294.015625
18.62,1588333294.03125
20.28,1588333294.046875
22.13,1588333294.0625
23.86,1588333294.078125
25.19,1588333294.09375
26.03,1588333294.109375
26.53,1588333294.125
27.02,1588333294.140625
27.83,1588333294.15625
29.09,1588333294.171875
30.64,1588333294.1875
32.04,1588333294.203125
32.79,1588333294.21875
32.53,1588333294.234375
31.18,1588333294.25
28.97,1588333294.265625
26.26,1588333294.28125
23.33,1588333294.296875
20.3,1588333294.3125
17.14,1588333294.328125
13.7,1588333294.34375
9.9,1588333294.359375
5.7,1588333294.375
1.12,1588333294.390625
-3.78,1588333294.40625
-8.88,1588333294.421875
-13.86,1588333294.4375
-18.24,1588333294.453125
-21.36,1588333294.46875
-22.7,1588333294.484375
-22.03,1588333294.5
-19.68,1588333294.515625
-16.44,1588333294.53125
-13.39,1588333294.546875
-11.44,1588333294.5625
-11.07,1588333294.578125
-12.14,1588333294.59375
-14.06,1588333294.609375
-16.1,1588333294.625
-17.74,1588333294.640625
-18.8,1588333294.65625
-19.52,1588333294.671875
-20.22,1588333294.6875
-21.16,1588333294.703125
-22.35,1588333294.71875
-23.52,1588333294.734375
-24.4,1588333294.75
-24.77,1588333294.765625
-24.61,1588333294.78125
-24.03,1588333294.796875
-23.2,1588333294.8125
-22.2,1588333294.828125
-21.05,1588333294.84375
-19.78,1588333294.859375
-18.43,1588333294.875
-17.16,1588333294.890625
-16.16,1588333294.90625
-15.59,1588333294.921875
-15.48,1588333294.9375
-15.76,1588333294.953125
-16.29,1588333294.96875
-16.86,1588333294.984375
-17.26,1588333295.0
-17.35,1588333295.015625
-17.09,1588333295.03125
-16.62,1588333295.046875
-16.25,1588333295.0625
-16.32,1588333295.078125
-17.02,1588333295.09375
-18.24,1588333295.109375
-19.55,1588333295.125
-20.43,1588333295.140625
-20.41,1588333295.15625
-19.45,1588333295.171875
-17.91,1588333295.1875
-16.38,1588333295.203125
-15.43,1588333295.21875
-15.43,1588333295.234375
-16.39,1588333295.25
-17.98,1588333295.265625
-19.68,1588333295.28125
-20.77,1588333295.296875
-20.59,1588333295.3125
-18.55,1588333295.328125
-14.44,1588333295.34375
-8.51,1588333295.359375
-1.57,1588333295.375
5.2,1588333295.390625
10.65,1588333295.40625
13.97,1588333295.421875
15.04,1588333295.4375
14.31,1588333295.453125
12.65,1588333295.46875
10.82,1588333295.484375
9.29,1588333295.5
8.1,1588333295.515625
7.04,1588333295.53125
5.94,1588333295.546875
4.76,1588333295.5625
3.74,1588333295.578125
3.16,1588333295.59375
3.21,1588333295.609375
3.86,1588333295.625
4.84,1588333295.640625
5.8,1588333295.65625
6.39,1588333295.671875
6.41,1588333295.6875
5.86,1588333295.703125
4.93,1588333295.71875
3.83,1588333295.734375
2.76,1588333295.75
1.77,1588333295.765625
0.78,1588333295.78125
-0.36,1588333295.796875
-1.74,1588333295.8125
-3.28,1588333295.828125
-4.73,1588333295.84375
-5.74,1588333295.859375
-6.09,1588333295.875
-5.86,1588333295.890625
-5.45,1588333295.90625
-5.41,1588333295.921875
-6.2,1588333295.9375
-7.98,1588333295.953125
-10.5,1588333295.96875
-13.22,1588333295.984375
-15.56,1588333296.0
-17.19,1588333296.015625
-18.21,1588333296.03125
-19.07,1588333296.046875
-20.42,1588333296.0625
-22.7,1588333296.078125
-25.79,1588333296.09375
-28.95,1588333296.109375
-30.99,1588333296.125
-30.7,1588333296.140625
-27.39,1588333296.15625
-21.22,1588333296.171875
-13.15,1588333296.1875
-4.62,1588333296.203125
2.84,1588333296.21875
7.94,1588333296.234375
9.82,1588333296.25
8.09,1588333296.265625
2.95,1588333296.28125
-4.76,1588333296.296875
-13.54,1588333296.3125
-21.49,1588333296.328125
-26.79,1588333296.34375
-28.33,1588333296.359375
-26.01,1588333296.375
-20.64,1588333296.390625
-13.58,1588333296.40625
-5.95,1588333296.421875
1.54,1588333296.4375
8.72,1588333296.453125
15.55,1588333296.46875
21.85,1588333296.484375
27.12,1588333296.5
30.72,1588333296.515625
32.11,1588333296.53125
31.15,1588333296.546875
28.16,1588333296.5625
23.84,1588333296.578125
18.95,1588333296.59375
14.2,1588333296.609375
10.0,1588333296.625
6.51,1588333296.640625
3.65,1588333296.65625
1.22,1588333296.671875
-1.06,1588333296.6875
-3.41,1588333296.703125
-5.95,1588333296.71875
-8.67,1588333296.734375
-11.43,1588333296.75
-13.89,1588333296.765625
-15.66,1588333296.78125
-16.34,1588333296.796875
-15.68,1588333296.8125
-13.7,1588333296.828125
-10.75,1588333296.84375
-7.45,1588333296.859375
-4.53,1588333296.875
-2.63,1588333296.890625
-2.13,1588333296.90625
-3.1,1588333296.921875
-5.16,1588333296.9375
-7.61,1588333296.953125
-9.6,1588333296.96875
-10.41,1588333296.984375
-9.75,1588333297.0
-7.92,1588333297.015625
-5.72,1588333297.03125
-4.06,1588333297.046875
-3.6,1588333297.0625
-4.32,1588333297.078125
-5.65,1588333297.09375
-6.69,1588333297.109375
-6.75,1588333297.125
-5.67,1588333297.140625
-3.88,1588333297.15625
-2.15,1588333297.171875
-1.16,1588333297.1875
-1.13,1588333297.203125
-1.84,1588333297.21875
-2.75,1588333297.234375
-3.38,1588333297.25
-3.48,1588333297.265625
-3.11,1588333297.28125
-2.51,1588333297.296875
-1.81,1588333297.3125
-1.05,1588333297.328125
-0.12,1588333297.34375
0.99,1588333297.359375
2.13,1588333297.375
2.93,1588333297.390625
2.96,1588333297.40625
1.92,1588333297.421875
-0.15,1588333297.4375
-2.83,1588333297.453125
-5.46,1588333297.46875
-7.39,1588333297.484375
-8.19,1588333297.5
-7.85,1588333297.515625
-6.76,1588333297.53125
-5.55,1588333297.546875
-4.85,1588333297.5625
-5.12,1588333297.578125
-6.43,1588333297.59375
-8.5,1588333297.609375
-10.83,1588333297.625
-12.88,1588333297.640625
-14.34,1588333297.65625
-15.25,1588333297.671875
-15.97,1588333297.6875
-17.12,1588333297.703125
-19.27,1588333297.71875
-22.76,1588333297.734375
-27.53,1588333297.75
-33.05,1588333297.765625
-38.37,1588333297.78125
-42.32,1588333297.796875
-43.77,1588333297.8125
-41.94,1588333297.828125
-36.53,1588333297.84375
-27.91,1588333297.859375
-17.01,1588333297.875
-5.17,1588333297.890625
6.24,1588333297.90625
16.16,1588333297.921875
24.05,1588333297.9375
29.85,1588333297.953125
33.87,1588333297.96875
36.53,1588333297.984375
38.12,1588333298.0
38.77,1588333298.015625
38.54,1588333298.03125
37.55,1588333298.046875
36.06,1588333298.0625
34.44,1588333298.078125
33.05,1588333298.09375
32.09,1588333298.109375
31.57,1588333298.125
31.3,1588333298.140625
31.06,1588333298.15625
30.65,1588333298.171875
29.95,1588333298.1875
28.91,1588333298.203125
27.48,1588333298.21875
25.59,1588333298.234375
23.18,1588333298.25
20.28,1588333298.265625
17.02,1588333298.28125
13.63,1588333298.296875
10.46,1588333298.3125
7.79,1588333298.328125
5.74,1588333298.34375
4.28,1588333298.359375
3.17,1588333298.375
2.02,1588333298.390625
0.47,1588333298.40625
-1.69,1588333298.421875
-4.48,1588333298.4375
-7.58,1588333298.453125
-10.55,1588333298.46875
-12.98,1588333298.484375
-14.59,1588333298.5
-15.45,1588333298.515625
-15.98,1588333298.53125
-16.78,1588333298.546875
-18.44,1588333298.5625
-21.28,1588333298.578125
-25.07,1588333298.59375
-29.02,1588333298.609375
-31.91,1588333298.625
-32.4,1588333298.640625
-29.46,1588333298.65625
-22.69,1588333298.671875
-12.51,1588333298.6875
-0.11,1588333298.703125
12.93,1588333298.71875
25.01,1588333298.734375
34.94,1588333298.75
42.15,1588333298.765625
46.65,1588333298.78125
48.81,1588333298.796875
49.1,1588333298.8125
47.86,1588333298.828125
45.32,1588333298.84375
41.7,1588333298.859375
37.37,1588333298.875
32.87,1588333298.890625
28.82,1588333298.90625
25.72,1588333298.921875
23.65,1588333298.9375
22.29,1588333298.953125
21.08,1588333298.96875
19.5,1588333298.984375
17.29,1588333299.0
14.55,1588333299.015625
11.59,1588333299.03125
8.7,1588333299.046875
6.03,1588333299.0625
3.54,1588333299.078125
1.09,1588333299.09375
-1.41,1588333299.109375
-3.95,1588333299.125
-6.43,1588333299.140625
-8.76,1588333299.15625
-10.94,1588333299.171875
-12.99,1588333299.1875
-14.97,1588333299.203125
-16.88,1588333299.21875
-18.69,1588333299.234375
-20.3,1588333299.25
-21.65,1588333299.265625
-22.77,1588333299.28125
-23.77,1588333299.296875
-24.87,1588333299.3125
-26.38,1588333299.328125
-28.58,1588333299.34375
-31.64,1588333299.359375
-35.39,1588333299.375
-39.23,1588333299.390625
-42.17,1588333299.40625
-43.0,1588333299.421875
-40.61,1588333299.4375
-34.48,1588333299.453125
-24.8,1588333299.46875
-12.51,1588333299.484375
0.89,1588333299.5
13.78,1588333299.515625
24.84,1588333299.53125
33.29,1588333299.546875
38.98,1588333299.5625
42.19,1588333299.578125
43.36,1588333299.59375
42.92,1588333299.609375
41.12,1588333299.625
38.12,1588333299.640625
34.13,1588333299.65625
29.57,1588333299.671875
24.99,1588333299.6875
20.99,1588333299.703125
17.97,1588333299.71875
15.98,1588333299.734375
14.82,1588333299.75
14.13,1588333299.765625
13.59,1588333299.78125
13.03,1588333299.796875
12.37,1588333299.8125
11.52,1588333299.828125
10.29,1588333299.84375
8.43,1588333299.859375
5.69,1588333299.875
2.06,1588333299.890625
-2.2,1588333299.90625
-6.65,1588333299.921875
-10.77,1588333299.9375
-14.22,1588333299.953125
-16.93,1588333299.96875
-19.16,1588333299.984375
-21.36,1588333300.0
-24.01,1588333300.015625
-27.37,1588333300.03125
-31.4,1588333300.046875
-35.68,1588333300.0625
-39.54,1588333300.078125
-42.37,1588333300.09375
-43.87,1588333300.109375
-44.23,1588333300.125
-44.18,1588333300.140625
-44.79,1588333300.15625
-47.03,1588333300.171875
-51.42,1588333300.1875
-57.64,1588333300.203125
-64.5,1588333300.21875
-70.1,1588333300.234375
-72.22,1588333300.25
-68.97,1588333300.265625
-59.33,1588333300.28125
-43.68,1588333300.296875
-23.75,1588333300.3125
-2.24,1588333300.328125
17.96,1588333300.34375
34.67,1588333300.359375
46.92,1588333300.375
55.01,1588333300.390625
60.03,1588333300.40625
63.16,1588333300.421875
65.11,1588333300.4375
65.92,1588333300.453125
65.32,1588333300.46875
63.09,1588333300.484375
59.47,1588333300.5
55.2,1588333300.515625
51.14,1588333300.53125
47.9,1588333300.546875
45.57,1588333300.5625
43.73,1588333300.578125
41.77,1588333300.59375
39.22,1588333300.609375
35.97,1588333300.625
32.31,1588333300.640625
28.71,1588333300.65625
25.55,1588333300.671875
22.96,1588333300.6875
20.74,1588333300.703125
18.5,1588333300.71875
15.71,1588333300.734375
12.02,1588333300.75
7.3,1588333300.765625
1.86,1588333300.78125
-3.68,1588333300.796875
-8.54,1588333300.8125
-12.13,1588333300.828125
-14.33,1588333300.84375
-15.65,1588333300.859375
-17.0,1588333300.875
-19.36,1588333300.890625
-23.3,1588333300.90625
-28.77,1588333300.921875
-35.08,1588333300.9375
-41.24,1588333300.953125
-46.37,1588333300.96875
-50.13,1588333300.984375
-52.74,1588333301.0
-54.93,1588333301.015625
-57.6,1588333301.03125
-61.55,1588333301.046875
-67.38,1588333301.0625
-75.26,1588333301.078125
-84.76,1588333301.09375
-94.58,1588333301.109375
-102.51,1588333301.125
-105.65,1588333301.140625
-101.27,1588333301.15625
-87.88,1588333301.171875
-66.07,1588333301.1875
-38.69,1588333301.203125
-10.05,1588333301.21875
15.56,1588333301.234375
35.31,1588333301.25
48.5,1588333301.265625
56.39,1588333301.28125
61.13,1588333301.296875
64.56,1588333301.3125
67.59,1588333301.328125
70.12,1588333301.34375
71.67,1588333301.359375
71.94,1588333301.375
71.17,1588333301.390625
70.02,1588333301.40625
69.11,1588333301.421875
68.65,1588333301.4375
68.32,1588333301.453125
67.51,1588333301.46875
65.67,1588333301.484375
62.64,1588333301.5
58.79,1588333301.515625
54.83,1588333301.53125
51.39,1588333301.546875
48.72,1588333301.5625
46.54,1588333301.578125
44.14,1588333301.59375
40.82,1588333301.609375
36.24,1588333301.625
30.65,1588333301.640625
24.79,1588333301.65625
19.57,1588333301.671875
15.66,1588333301.6875
13.19,1588333301.703125
11.79,1588333301.71875
10.68,1588333301.734375
9.14,1588333301.75
6.65,1588333301.765625
3.15,1588333301.78125
-1.1,1588333301.796875
-5.58,1588333301.8125
-9.71,1588333301.828125
-12.94,1588333301.84375
-14.93,1588333301.859375
-15.65,1588333301.875
-15.44,1588333301.890625
-15.1,1588333301.90625
-15.68,1588333301.921875
-18.21,1588333301.9375
-23.24,1588333301.953125
-30.53,1588333301.96875
-38.83,1588333301.984375
-46.04,1588333302.0
-49.81,1588333302.015625
-48.11,1588333302.03125
-39.99,1588333302.046875
-25.88,1588333302.0625
-7.51,1588333302.078125
12.53,1588333302.09375
31.46,1588333302.109375
47.05,1588333302.125
58.05,1588333302.140625
64.24,1588333302.15625
66.34,1588333302.171875
65.49,1588333302.1875
62.84,1588333302.203125
59.3,1588333302.21875
55.35,1588333302.234375
51.22,1588333302.25
47.01,1588333302.265625
42.84,1588333302.28125
38.88,1588333302.296875
35.3,1588333302.3125
32.11,1588333302.328125
29.23,1588333302.34375
26.51,1588333302.359375
23.83,1588333302.375
21.22,1588333302.390625
18.86,1588333302.40625
17.01,1588333302.421875
15.75,1588333302.4375
14.99,1588333302.453125
14.35,1588333302.46875
13.4,1588333302.484375
11.83,1588333302.5
9.64,1588333302.515625
7.15,1588333302.53125
4.82,1588333302.546875
3.06,1588333302.5625
2.01,1588333302.578125
1.54,1588333302.59375
1.3,1588333302.609375
0.91,1588333302.625
0.16,1588333302.640625
-1.04,1588333302.65625
-2.61,1588333302.671875
-4.46,1588333302.6875
-6.54,1588333302.703125
-8.8,1588333302.71875
-11.2,1588333302.734375
-13.57,1588333302.75
-15.75,1588333302.765625
-17.55,1588333302.78125
-18.92,1588333302.796875
-20.0,1588333302.8125
-21.04,1588333302.828125
-22.38,1588333302.84375
-24.27,1588333302.859375
-26.87,1588333302.875
-30.07,1588333302.890625
-33.46,1588333302.90625
-36.32,1588333302.921875
-37.7,1588333302.9375
-36.83,1588333302.953125
-33.31,1588333302.96875
-27.53,1588333302.984375
-20.54,1588333303.0
-13.79,1588333303.015625
-8.55,1588333303.03125
-5.47,1588333303.046875
-4.46,1588333303.0625
-4.89,1588333303.078125
-6.0,1588333303.09375
-7.3,1588333303.109375
-8.67,1588333303.125
-10.16,1588333303.140625
-11.82,1588333303.15625
-13.44,1588333303.171875
-14.62,1588333303.1875
-15.0,1588333303.203125
-14.49,1588333303.21875
-13.32,1588333303.234375
-11.93,1588333303.25
-10.75,1588333303.265625
-10.07,1588333303.28125
-9.96,1588333303.296875
-10.4,1588333303.3125
-11.39,1588333303.328125
-12.95,1588333303.34375
-15.06,1588333303.359375
-17.55,1588333303.375
-20.05,1588333303.390625
-22.12,1588333303.40625
-23.37,1588333303.421875
-23.63,1588333303.4375
-23.01,1588333303.453125
-21.78,1588333303.46875
-20.29,1588333303.484375
-18.76,1588333303.5
-17.39,1588333303.515625
-16.31,1588333303.53125
-15.67,1588333303.546875
-15.56,1588333303.5625
-15.93,1588333303.578125
-16.55,1588333303.59375
-17.08,1588333303.609375
-17.23,1588333303.625
-16.93,1588333303.640625
-16.38,1588333303.65625
-16.03,1588333303.671875
-16.4,1588333303.6875
-17.79,1588333303.703125
-20.16,1588333303.71875
-23.02,1588333303.734375
-25.47,1588333303.75
-26.44,1588333303.765625
-24.96,1588333303.78125
-20.5,1588333303.796875
-13.22,1588333303.8125
-4.03,1588333303.828125
5.62,1588333303.84375
14.15,1588333303.859375
20.33,1588333303.875
23.64,1588333303.890625
24.29,1588333303.90625
23.03,1588333303.921875
20.74,1588333303.9375
18.07,1588333303.953125
15.41,1588333303.96875
12.86,1588333303.984375
10.48,1588333304.0
8.44,1588333304.015625
6.98,1588333304.03125
6.36,1588333304.046875
6.66,1588333304.0625
7.61,1588333304.078125
8.7,1588333304.09375
9.42,1588333304.109375
9.52,1588333304.125
9.07,1588333304.140625
8.42,1588333304.15625
7.91,1588333304.171875
7.62,1588333304.1875
7.28,1588333304.203125
6.5,1588333304.21875
4.99,1588333304.234375
2.83,1588333304.25
0.44,1588333304.265625
-1.63,1588333304.28125
-3.03,1588333304.296875
-3.77,1588333304.3125
-4.2,1588333304.328125
-4.8,1588333304.34375
-5.86,1588333304.359375
-7.39,1588333304.375
-9.12,1588333304.390625
-10.66,1588333304.40625
-11.74,1588333304.421875
-12.31,1588333304.4375
-12.55,1588333304.453125
-12.77,1588333304.46875
-13.31,1588333304.484375
-14.42,1588333304.5
-16.26,1588333304.515625
-18.79,1588333304.53125
-21.76,1588333304.546875
-24.71,1588333304.5625
-26.91,1588333304.578125
-27.62,1588333304.59375
-26.22,1588333304.609375
-22.51,1588333304.625
-16.81,1588333304.640625
-9.92,1588333304.65625
-2.94,1588333304.671875
3.09,1588333304.6875
7.45,1588333304.703125
9.93,1588333304.71875
10.78,1588333304.734375
10.54,1588333304.75
9.78,1588333304.765625
8.95,1588333304.78125
8.3,1588333304.796875
7.88,1588333304.8125
7.59,1588333304.828125
7.35,1588333304.84375
7.12,1588333304.859375
6.9,1588333304.875
6.75,1588333304.890625
6.65,1588333304.90625
6.57,1588333304.921875
6.45,1588333304.9375
6.28,1588333304.953125
6.12,1588333304.96875
6.07,1588333304.984375
6.24,1588333305.0
6.61,1588333305.015625
6.94,1588333305.03125
6.92,1588333305.046875
6.25,1588333305.0625
4.86,1588333305.078125
2.99,1588333305.09375
1.16,1588333305.109375
-0.11,1588333305.125
-0.54,1588333305.140625
-0.23,1588333305.15625
0.35,1588333305.171875
0.62,1588333305.1875
0.18,1588333305.203125
-1.0,1588333305.21875
-2.61,1588333305.234375
-4.23,1588333305.25
-5.57,1588333305.265625
-6.59,1588333305.28125
-7.54,1588333305.296875
-8.77,1588333305.3125
-10.6,1588333305.328125
-13.25,1588333305.34375
-16.66,1588333305.359375
-20.53,1588333305.375
-24.21,1588333305.390625
-26.83,1588333305.40625
-27.43,1588333305.421875
-25.31,1588333305.4375
-20.29,1588333305.453125
-12.91,1588333305.46875
-4.28,1588333305.484375
4.19,1588333305.5
11.31,1588333305.515625
16.4,1588333305.53125
19.43,1588333305.546875
20.89,1588333305.5625
21.46,1588333305.578125
21.7,1588333305.59375
21.83,1588333305.609375
21.77,1588333305.625
21.32,1588333305.640625
20.34,1588333305.65625
18.91,1588333305.671875
17.24,1588333305.6875
15.62,1588333305.703125
14.24,1588333305.71875
13.12,1588333305.734375
12.18,1588333305.75
11.35,1588333305.765625
10.59,1588333305.78125
10.0,1588333305.796875
9.65,1588333305.8125
9.63,1588333305.828125
9.85,1588333305.84375
10.14,1588333305.859375
10.25,1588333305.875
9.9,1588333305.890625
8.93,1588333305.90625
7.34,1588333305.921875
5.34,1588333305.9375
3.31,1588333305.953125
1.63,1588333305.96875
0.59,1588333305.984375
0.18,1588333306.0
0.1,1588333306.015625
-0.11,1588333306.03125
-0.88,1588333306.046875
-2.37,1588333306.0625
-4.44,1588333306.078125
-6.73,1588333306.09375
-8.75,1588333306.109375
-10.22,1588333306.125
-11.07,1588333306.140625
-11.46,1588333306.15625
-11.74,1588333306.171875
-12.29,1588333306.1875
-13.44,1588333306.203125
-15.35,1588333306.21875
-17.98,1588333306.234375
-20.92,1588333306.25
-23.46,1588333306.265625
-24.71,1588333306.28125
-23.8,1588333306.296875
-20.24,1588333306.3125
-14.11,1588333306.328125
-6.14,1588333306.34375
2.45,1588333306.359375
10.33,1588333306.375
16.46,1588333306.390625
20.35,1588333306.40625
22.19,1588333306.421875
22.6,1588333306.4375
22.41,1588333306.453125
22.34,1588333306.46875
22.75,1588333306.484375
23.68,1588333306.5
24.94,1588333306.515625
26.27,1588333306.53125
27.54,1588333306.546875
28.85,1588333306.5625
30.41,1588333306.578125
32.4,1588333306.59375
34.87,1588333306.609375
37.55,1588333306.625
40.0,1588333306.640625
41.77,1588333306.65625
42.5,1588333306.671875
42.01,1588333306.6875
40.24,1588333306.703125
37.14,1588333306.71875
32.59,1588333306.734375
26.54,1588333306.75
19.13,1588333306.765625
10.86,1588333306.78125
2.53,1588333306.796875
-4.97,1588333306.8125
-10.96,1588333306.828125
-15.19,1588333306.84375
-17.9,1588333306.859375
-19.56,1588333306.875
-20.7,1588333306.890625
-21.68,1588333306.90625
-22.7,1588333306.921875
-23.87,1588333306.9375
-25.29,1588333306.953125
-27.04,1588333306.96875
-29.12,1588333306.984375
-31.39,1588333307.0
-33.55,1588333307.015625
-35.23,1588333307.03125
-36.14,1588333307.046875
-36.26,1588333307.0625
-35.85,1588333307.078125
-35.4,1588333307.09375
-35.55,1588333307.109375
-36.76,1588333307.125
-39.17,1588333307.140625
-42.37,1588333307.15625
-45.43,1588333307.171875
-47.04,1588333307.1875
-45.9,1588333307.203125
-41.17,1588333307.21875
-32.92,1588333307.234375
-22.17,1588333307.25
-10.67,1588333307.265625
-0.31,1588333307.28125
7.51,1588333307.296875
12.28,1588333307.3125
14.43,1588333307.328125
14.95,1588333307.34375
14.9,1588333307.359375
15.01,1588333307.375
15.48,1588333307.390625
16.09,1588333307.40625
16.5,1588333307.421875
16.47,1588333307.4375
16.02,1588333307.453125
15.34,1588333307.46875
14.71,1588333307.484375
14.27,1588333307.5
14.0,1588333307.515625
13.73,1588333307.53125
13.31,1588333307.546875
12.65,1588333307.5625
11.75,1588333307.578125
10.71,1588333307.59375
9.56,1588333307.609375
8.32,1588333307.625
6.94,1588333307.640625
5.41,1588333307.65625
3.77,1588333307.671875
2.11,1588333307.6875
0.56,1588333307.703125
-0.77,1588333307.71875
-1.82,1588333307.734375
-2.62,1588333307.75
-3.26,1588333307.765625
-3.91,1588333307.78125
-4.7,1588333307.796875
-5.69,1588333307.8125
-6.83,1588333307.828125
-7.93,1588333307.84375
-8.83,1588333307.859375
-9.52,1588333307.875
-10.2,1588333307.890625
-11.29,1588333307.90625
-13.21,1588333307.921875
-16.19,1588333307.9375
-20.09,1588333307.953125
-24.34,1588333307.96875
-27.97,1588333307.984375
-29.84,1588333308.0
-28.93,1588333308.015625
-24.69,1588333308.03125
-17.34,1588333308.046875
-7.9,1588333308.0625
1.98,1588333308.078125
10.63,1588333308.09375
16.82,1588333308.109375
20.19,1588333308.125
21.25,1588333308.140625
21.0,1588333308.15625
20.38,1588333308.171875
19.89,1588333308.1875
19.44,1588333308.203125
18.69,1588333308.21875
17.32,1588333308.234375
15.42,1588333308.25
13.38,1588333308.265625
11.69,1588333308.28125
10.65,1588333308.296875
10.21,1588333308.3125
10.0,1588333308.328125
9.6,1588333308.34375
8.75,1588333308.359375
7.49,1588333308.375
6.06,1588333308.390625
4.77,1588333308.40625
3.77,1588333308.421875
3.02,1588333308.4375
2.33,1588333308.453125
1.54,1588333308.46875
0.58,1588333308.484375
-0.56,1588333308.5
-1.85,1588333308.515625
-3.26,1588333308.53125
-4.81,1588333308.546875
-6.46,1588333308.5625
-8.08,1588333308.578125
-9.52,1588333308.59375
-10.66,1588333308.609375
-11.5,1588333308.625
-12.24,1588333308.640625
-13.19,1588333308.65625
-14.66,1588333308.671875
-16.85,1588333308.6875
-19.8,1588333308.703125
-23.33,1588333308.71875
-27.0,1588333308.734375
-30.11,1588333308.75
-31.77,1588333308.765625
-31.03,1588333308.78125
-27.26,1588333308.796875
-20.47,1588333308.8125
-11.48,1588333308.828125
-1.75,1588333308.84375
7.05,1588333308.859375
13.68,1588333308.875
17.65,1588333308.890625
19.33,1588333308.90625
19.56,1588333308.921875
19.15,1588333308.9375
18.55,1588333308.953125
17.81,1588333308.96875
16.67,1588333308.984375
15.02,1588333309.0
12.98,1588333309.015625
10.92,1588333309.03125
9.18,1588333309.046875
7.96,1588333309.0625
7.22,1588333309.078125
6.76,1588333309.09375
6.46,1588333309.109375
6.2,1588333309.125
6.0,1588333309.140625
5.84,1588333309.15625
5.52,1588333309.171875
4.78,1588333309.1875
3.35,1588333309.203125
1.17,1588333309.21875
-1.56,1588333309.234375
-4.42,1588333309.25
-6.97,1588333309.265625
-8.88,1588333309.28125
-10.11,1588333309.296875
-10.88,1588333309.3125
-11.58,1588333309.328125
-12.62,1588333309.34375
-14.28,1588333309.359375
-16.6,1588333309.375
-19.4,1588333309.390625
-22.33,1588333309.40625
-25.09,1588333309.421875
-27.54,1588333309.4375
-29.85,1588333309.453125
-32.4,1588333309.46875
-35.69,1588333309.484375
-40.01,1588333309.5
-45.15,1588333309.515625
-50.28,1588333309.53125
-54.06,1588333309.546875
-55.05,1588333309.5625
-52.14,1588333309.578125
-44.99,1588333309.59375
-34.09,1588333309.609375
-20.65,1588333309.625
-6.24,1588333309.640625
7.71,1588333309.65625
20.2,1588333309.671875
30.79,1588333309.6875
39.56,1588333309.703125
46.84,1588333309.71875
52.87,1588333309.734375
57.61,1588333309.75
60.74,1588333309.765625
61.82,1588333309.78125
60.64,1588333309.796875
57.44,1588333309.8125
52.96,1588333309.828125
48.2,1588333309.84375
44.04,1588333309.859375
40.87,1588333309.875
38.57,1588333309.890625
36.75,1588333309.90625
34.98,1588333309.921875
33.05,1588333309.9375
30.99,1588333309.953125
28.93,1588333309.96875
26.88,1588333309.984375
24.74,1588333310.0
22.33,1588333310.015625
19.57,1588333310.03125
16.59,1588333310.046875
13.73,1588333310.0625
11.37,1588333310.078125
9.75,1588333310.09375
8.83,1588333310.109375
8.33,1588333310.125
7.86,1588333310.140625
7.1,1588333310.15625
5.98,1588333310.171875
4.63,1588333310.1875
3.39,1588333310.203125
2.56,1588333310.21875
2.25,1588333310.234375
2.34,1588333310.25
2.55,1588333310.265625
2.44,1588333310.28125
1.61,1588333310.296875
-0.21,1588333310.3125
-3.05,1588333310.328125
-6.53,1588333310.34375
-9.86,1588333310.359375
-11.96,1588333310.375
-11.8,1588333310.390625
-8.8,1588333310.40625
-3.07,1588333310.421875
4.5,1588333310.4375
12.59,1588333310.453125
19.81,1588333310.46875
25.19,1588333310.484375
28.38,1588333310.5
29.66,1588333310.515625
29.63,1588333310.53125
28.98,1588333310.546875
28.19,1588333310.5625
27.52,1588333310.578125
26.98,1588333310.59375
26.47,1588333310.609375
25.79,1588333310.625
24.76,1588333310.640625
23.23,1588333310.65625
21.13,1588333310.671875
18.5,1588333310.6875
15.46,1588333310.703125
12.21,1588333310.71875
8.9,1588333310.734375
5.64,1588333310.75
2.43,1588333310.765625
-0.78,1588333310.78125
-4.04,1588333310.796875
-7.29,1588333310.8125
-10.38,1588333310.828125
-13.12,1588333310.84375
-15.36,1588333310.859375
-17.11,1588333310.875
-18.48,1588333310.890625
-19.64,1588333310.90625
-20.74,1588333310.921875
-21.8,1588333310.9375
-22.73,1588333310.953125
-23.45,1588333310.96875
-23.86,1588333310.984375
-24.04,1588333311.0
-24.16,1588333311.015625
-24.4,1588333311.03125
-24.92,1588333311.046875
-25.71,1588333311.0625
-26.62,1588333311.078125
-27.47,1588333311.09375
-28.04,1588333311.109375
-28.19,1588333311.125
-27.94,1588333311.140625
-27.42,1588333311.15625
-26.95,1588333311.171875
-26.9,1588333311.1875
-27.67,1588333311.203125
-29.55,1588333311.21875
-32.54,1588333311.234375
-36.23,1588333311.25
-39.65,1588333311.265625
-41.44,1588333311.28125
-40.23,1588333311.296875
-35.1,1588333311.3125
-26.11,1588333311.328125
-14.44,1588333311.34375
-2.05,1588333311.359375
8.87,1588333311.375
16.72,1588333311.390625
20.95,1588333311.40625
22.13,1588333311.421875
21.58,1588333311.4375
20.69,1588333311.453125
20.39,1588333311.46875
20.86,1588333311.484375
21.65,1588333311.5
22.06,1588333311.515625
21.56,1588333311.53125
20.02,1588333311.546875
17.76,1588333311.5625
15.28,1588333311.578125
13.06,1588333311.59375
11.29,1588333311.609375
9.81,1588333311.625
8.28,1588333311.640625
6.44,1588333311.65625
4.25,1588333311.671875
1.99,1588333311.6875
0.06,1588333311.703125
-1.2,1588333311.71875
-1.81,1588333311.734375
-2.15,1588333311.75
-2.77,1588333311.765625
-4.09,1588333311.78125
-6.18,1588333311.796875
-8.68,1588333311.8125
-10.99,1588333311.828125
-12.57,1588333311.84375
-13.11,1588333311.859375
-12.8,1588333311.875
-12.16,1588333311.890625
-11.84,1588333311.90625
-12.33,1588333311.921875
-13.77,1588333311.9375
-15.9,1588333311.953125
-18.16,1588333311.96875
-19.94,1588333311.984375
-20.83,1588333312.0
-20.76,1588333312.015625
-20.04,1588333312.03125
-19.21,1588333312.046875
-18.84,1588333312.0625
-19.43,1588333312.078125
-21.23,1588333312.09375
-24.22,1588333312.109375
-28.1,1588333312.125
-32.08,1588333312.140625
-35.0,1588333312.15625
-35.39,1588333312.171875
-31.99,1588333312.1875
-24.3,1588333312.203125
-12.97,1588333312.21875
0.23,1588333312.234375
12.88,1588333312.25
22.79,1588333312.265625
28.81,1588333312.28125
31.09,1588333312.296875
30.8,1588333312.3125
29.42,1588333312.328125
28.08,1588333312.34375
27.15,1588333312.359375
26.35,1588333312.375
25.22,1588333312.390625
23.44,1588333312.40625
21.12,1588333312.421875
18.66,1588333312.4375
16.53,1588333312.453125
14.95,1588333312.46875
13.83,1588333312.484375
12.87,1588333312.5
11.71,1588333312.515625
10.19,1588333312.53125
8.47,1588333312.546875
6.85,1588333312.5625
5.69,1588333312.578125
5.16,1588333312.59375
5.08,1588333312.609375
5.0,1588333312.625
4.38,1588333312.640625
2.85,1588333312.65625
0.37,1588333312.671875
-2.64,1588333312.6875
-5.55,1588333312.703125
-7.67,1588333312.71875
-8.6,1588333312.734375
-8.39,1588333312.75
-7.55,1588333312.765625
-6.79,1588333312.78125
-6.79,1588333312.796875
-7.83,1588333312.8125
-9.77,1588333312.828125
-12.06,1588333312.84375
-14.09,1588333312.859375
-15.39,1588333312.875
-15.87,1588333312.890625
-15.81,1588333312.90625
-15.7,1588333312.921875
-16.1,1588333312.9375
-17.46,1588333312.953125
-20.06,1588333312.96875
-23.88,1588333312.984375
-28.54,1588333313.0
-33.18,1588333313.015625
-36.47,1588333313.03125
-36.87,1588333313.046875
-33.2,1588333313.0625
-25.15,1588333313.078125
-13.61,1588333313.09375
-0.58,1588333313.109375
11.56,1588333313.125
20.85,1588333313.140625
26.36,1588333313.15625
28.38,1588333313.171875
28.02,1588333313.1875
26.61,1588333313.203125
25.06,1588333313.21875
23.7,1588333313.234375
22.4,1588333313.25
20.97,1588333313.265625
19.39,1588333313.28125
17.85,1588333313.296875
16.64,1588333313.3125
15.87,1588333313.328125
15.47,1588333313.34375
15.16,1588333313.359375
14.69,1588333313.375
13.94,1588333313.390625
12.93,1588333313.40625
11.76,1588333313.421875
10.5,1588333313.4375
9.07,1588333313.453125
7.32,1588333313.46875
5.18,1588333313.484375
2.67,1588333313.5
-0.06,1588333313.515625
-2.71,1588333313.53125
-5.04,1588333313.546875
-6.89,1588333313.5625
-8.2,1588333313.578125
-9.07,1588333313.59375
-9.78,1588333313.609375
-10.64,1588333313.625
-11.91,1588333313.640625
-13.66,1588333313.65625
-15.67,1588333313.671875
-17.54,1588333313.6875
-18.88,1588333313.703125
-19.53,1588333313.71875
-19.76,1588333313.734375
-20.08,1588333313.75
-21.14,1588333313.765625
-23.39,1588333313.78125
-26.8,1588333313.796875
-30.75,1588333313.8125
-34.09,1588333313.828125
-35.35,1588333313.84375
-33.27,1588333313.859375
-27.25,1588333313.875
-17.72,1588333313.890625
-6.09,1588333313.90625
5.61,1588333313.921875
15.49,1588333313.9375
22.35,1588333313.953125
26.05,1588333313.96875
27.24,1588333313.984375
26.98,1588333314.0
26.11,1588333314.015625
25.12,1588333314.03125
24.11,1588333314.046875
23.04,1588333314.0625
21.92,1588333314.078125
20.81,1588333314.09375
19.73,1588333314.109375
18.53,1588333314.125
16.9,1588333314.140625
14.53,1588333314.15625
11.33,1588333314.171875
7.57,1588333314.1875
3.81,1588333314.203125
0.77,1588333314.21875
-1.03,1588333314.234375
-1.49,1588333314.25
-0.92,1588333314.265625
0.01,1588333314.28125
0.64,1588333314.296875
0.55,1588333314.3125
-0.3,1588333314.328125
-1.59,1588333314.34375
-2.9,1588333314.359375
-3.91,1588333314.375
-4.56,1588333314.390625
-4.99,1588333314.40625
-5.52,1588333314.421875
-6.4,1588333314.4375
-7.74,1588333314.453125
-9.43,1588333314.46875
-11.26,1588333314.484375
-12.95,1588333314.5
-14.34,1588333314.515625
-15.44,1588333314.53125
-16.42,1588333314.546875
-17.59,1588333314.5625
-19.28,1588333314.578125
-21.62,1588333314.59375
-24.42,1588333314.609375
-27.06,1588333314.625
-28.56,1588333314.640625
-27.9,1588333314.65625
-24.37,1588333314.671875
-17.89,1588333314.6875
-9.16,1588333314.703125
0.57,1588333314.71875
9.81,1588333314.734375
17.33,1588333314.75
22.38,1588333314.765625
24.83,1588333314.78125
24.99,1588333314.796875
23.39,1588333314.8125
20.62,1588333314.828125
17.23,1588333314.84375
13.76,1588333314.859375
10.61,1588333314.875
8.09,1588333314.890625
6.27,1588333314.90625
5.03,1588333314.921875
4.11,1588333314.9375
3.31,1588333314.953125
2.53,1588333314.96875
1.84,1588333314.984375
1.39,1588333315.0
1.27,1588333315.015625
1.42,1588333315.03125
1.67,1588333315.046875
1.77,1588333315.0625
1.52,1588333315.078125
0.85,1588333315.09375
-0.15,1588333315.109375
-1.32,1588333315.125
-2.43,1588333315.140625
-3.31,1588333315.15625
-3.86,1588333315.171875
-4.03,1588333315.1875
-3.93,1588333315.203125
-3.77,1588333315.21875
-3.79,1588333315.234375
-4.08,1588333315.25
-4.49,1588333315.265625
-4.61,1588333315.28125
-3.98,1588333315.296875
-2.32,1588333315.3125
0.18,1588333315.328125
2.9,1588333315.34375
5.02,1588333315.359375
5.91,1588333315.375
5.33,1588333315.390625
3.53,1588333315.40625
0.95,1588333315.421875
-2.0,1588333315.4375
-4.96,1588333315.453125
-7.63,1588333315.46875
-9.59,1588333315.484375
-10.34,1588333315.5
-9.51,1588333315.515625
-7.07,1588333315.53125
-3.49,1588333315.546875
0.43,1588333315.5625
3.92,1588333315.578125
6.55,1588333315.59375
8.4,1588333315.609375
9.81,1588333315.625
11.1,1588333315.640625
12.29,1588333315.65625
13.01,1588333315.671875
12.79,1588333315.6875
11.36,1588333315.703125
8.82,1588333315.71875
5.68,1588333315.734375
2.54,1588333315.75
-0.1,1588333315.765625
-2.05,1588333315.78125
-3.35,1588333315.796875
-4.2,1588333315.8125
-4.75,1588333315.828125
-5.12,1588333315.84375
-5.38,1588333315.859375
-5.68,1588333315.875
-6.21,1588333315.890625
-7.15,1588333315.90625
-8.52,1588333315.921875
-10.15,1588333315.9375
-11.72,1588333315.953125
-12.91,1588333315.96875
-13.59,1588333315.984375
-13.9,1588333316.0
-14.11,1588333316.015625
-14.52,1588333316.03125
-15.2,1588333316.046875
-16.09,1588333316.0625
-16.97,1588333316.078125
-17.67,1588333316.09375
-18.19,1588333316.109375
-18.73,1588333316.125
-19.55,1588333316.140625
-20.93,1588333316.15625
-23.0,1588333316.171875
-25.75,1588333316.1875
-28.98,1588333316.203125
-32.31,1588333316.21875
-35.11,1588333316.234375
-36.53,1588333316.25
-35.66,1588333316.265625
-31.8,1588333316.28125
-24.82,1588333316.296875
-15.35,1588333316.3125
-4.62,1588333316.328125
5.81,1588333316.34375
14.65,1588333316.359375
21.18,1588333316.375
25.41,1588333316.390625
27.81,1588333316.40625
29.03,1588333316.421875
29.51,1588333316.4375
29.37,1588333316.453125
28.55,1588333316.46875
27.04,1588333316.484375
24.99,1588333316.5
22.79,1588333316.515625
20.88,1588333316.53125
19.57,1588333316.546875
18.85,1588333316.5625
18.5,1588333316.578125
18.12,1588333316.59375
17.43,1588333316.609375
16.29,1588333316.625
14.7,1588333316.640625
12.77,1588333316.65625
10.6,1588333316.671875
8.28,1588333316.6875
5.84,1588333316.703125
3.29,1588333316.71875
0.61,1588333316.734375
-2.18,1588333316.75
-5.07,1588333316.765625
-7.97,1588333316.78125
-10.73,1588333316.796875
-13.22,1588333316.8125
-15.41,1588333316.828125
-17.42,1588333316.84375
-19.4,1588333316.859375
-21.52,1588333316.875
-23.75,1588333316.890625
-25.92,1588333316.90625
-27.81,1588333316.921875
-29.36,1588333316.9375
-30.76,1588333316.953125
-32.35,1588333316.96875
-34.39,1588333316.984375
-36.66,1588333317.0
-38.41,1588333317.015625
-38.44,1588333317.03125
-35.48,1588333317.046875
-28.71,1588333317.0625
-18.1,1588333317.078125
-4.54,1588333317.09375
10.4,1588333317.109375
24.84,1588333317.125
37.09,1588333317.140625
46.04,1588333317.15625
51.29,1588333317.171875
53.13,1588333317.1875
52.23,1588333317.203125
49.42,1588333317.21875
45.42,1588333317.234375
40.77,1588333317.25
35.86,1588333317.265625
31.1,1588333317.28125
26.9,1588333317.296875
23.62,1588333317.3125
21.41,1588333317.328125
20.12,1588333317.34375
19.23,1588333317.359375
18.12,1588333317.375
16.26,1588333317.390625
13.48,1588333317.40625
10.06,1588333317.421875
6.58,1588333317.4375
3.6,1588333317.453125
1.5,1588333317.46875
0.21,1588333317.484375
-0.72,1588333317.5
-1.85,1588333317.515625
-3.66,1588333317.53125
-6.27,1588333317.546875
-9.46,1588333317.5625
-12.75,1588333317.578125
-15.64,1588333317.59375
-17.81,1588333317.609375
-19.2,1588333317.625
-20.02,1588333317.640625
-20.61,1588333317.65625
-21.4,1588333317.671875
-22.78,1588333317.6875
-24.98,1588333317.703125
-28.08,1588333317.71875
-31.76,1588333317.734375
-35.28,1588333317.75
-37.47,1588333317.765625
-36.92,1588333317.78125
-32.3,1588333317.796875
-22.92,1588333317.8125
-9.08,1588333317.828125
7.87,1588333317.84375
25.78,1588333317.859375
42.28,1588333317.875
55.52,1588333317.890625
64.52,1588333317.90625
69.3,1588333317.921875
70.61,1588333317.9375
69.41,1588333317.953125
66.55,1588333317.96875
62.57,1588333317.984375
57.79,1588333318.0
52.47,1588333318.015625
47.01,1588333318.03125
41.86,1588333318.046875
37.39,1588333318.0625
33.7,1588333318.078125
30.62,1588333318.09375
27.77,1588333318.109375
24.75,1588333318.125
21.39,1588333318.140625
17.84,1588333318.15625
14.43,1588333318.171875
11.62,1588333318.1875
9.76,1588333318.203125
8.94,1588333318.21875
8.94,1588333318.234375
9.33,1588333318.25
9.57,1588333318.265625
9.24,1588333318.28125
8.18,1588333318.296875
6.56,1588333318.3125
4.76,1588333318.328125
3.25,1588333318.34375
2.26,1588333318.359375
1.76,1588333318.375
1.47,1588333318.390625
0.96,1588333318.40625
-0.08,1588333318.421875
-1.83,1588333318.4375
-4.33,1588333318.453125
-7.54,1588333318.46875
-11.38,1588333318.484375
-15.6,1588333318.5
-19.71,1588333318.515625
-22.93,1588333318.53125
-24.43,1588333318.546875
-23.63,1588333318.5625
-20.57,1588333318.578125
-15.94,1588333318.59375
-10.94,1588333318.609375
-6.76,1588333318.625
-4.2,1588333318.640625
-3.38,1588333318.65625
-3.8,1588333318.671875
-4.66,1588333318.6875
-5.09,1588333318.703125
-4.49,1588333318.71875
-2.62,1588333318.734375
0.43,1588333318.75
4.28,1588333318.765625
8.41,1588333318.78125
12.27,1588333318.796875
15.4,1588333318.8125
17.56,1588333318.828125
18.67,1588333318.84375
18.79,1588333318.859375
18.14,1588333318.875
16.95,1588333318.890625
15.53,1588333318.90625
14.2,1588333318.921875
13.2,1588333318.9375
12.65,1588333318.953125
12.45,1588333318.96875
12.36,1588333318.984375
12.12,1588333319.0
11.54,1588333319.015625
10.6,1588333319.03125
9.37,1588333319.046875
7.92,1588333319.0625
6.22,1588333319.078125
4.12,1588333319.09375
1.46,1588333319.109375
-1.86,1588333319.125
-5.77,1588333319.140625
-10.02,1588333319.15625
-14.22,1588333319.171875
-18.01,1588333319.1875
-21.06,1588333319.203125
-23.26,1588333319.21875
-24.66,1588333319.234375
-25.5,1588333319.25
-26.13,1588333319.265625
-26.95,1588333319.28125
-28.23,1588333319.296875
-30.13,1588333319.3125
-32.53,1588333319.328125
-35.05,1588333319.34375
-37.09,1588333319.359375
-37.97,1588333319.375
-37.19,1588333319.390625
-34.62,1588333319.40625
-30.58,1588333319.421875
-25.74,1588333319.4375
-20.86,1588333319.453125
-16.51,1588333319.46875
-12.9,1588333319.484375
-9.91,1588333319.5
-7.28,1588333319.515625
-4.84,1588333319.53125
-2.6,1588333319.546875
-0.71,1588333319.5625
0.65,1588333319.578125
1.45,1588333319.59375
1.86,1588333319.609375
2.15,1588333319.625
2.56,1588333319.640625
3.21,1588333319.65625
4.03,1588333319.671875
4.87,1588333319.6875
5.57,1588333319.703125
6.02,1588333319.71875
6.25,1588333319.734375
6.35,1588333319.75
6.34,1588333319.765625
6.21,1588333319.78125
5.87,1588333319.796875
5.27,1588333319.8125
4.49,1588333319.828125
3.7,1588333319.84375
3.13,1588333319.859375
2.88,1588333319.875
2.88,1588333319.890625
2.94,1588333319.90625
2.81,1588333319.921875
2.37,1588333319.9375
1.6,1588333319.953125
0.54,1588333319.96875
-0.74,1588333319.984375
-2.25,1588333320.0
-3.94,1588333320.015625
-5.66,1588333320.03125
-7.05,1588333320.046875
-7.7,1588333320.0625
-7.33,1588333320.078125
-6.02,1588333320.09375
-4.21,1588333320.109375
-2.54,1588333320.125
-1.61,1588333320.140625
-1.66,1588333320.15625
-2.52,1588333320.171875
-3.68,1588333320.1875
-4.48,1588333320.203125
-4.38,1588333320.21875
-3.07,1588333320.234375
-0.59,1588333320.25
2.77,1588333320.265625
6.49,1588333320.28125
10.01,1588333320.296875
12.85,1588333320.3125
14.75,1588333320.328125
15.68,1588333320.34375
15.8,1588333320.359375
15.32,1588333320.375
14.38,1588333320.390625
13.11,1588333320.40625
11.64,1588333320.421875
10.19,1588333320.4375
9.1,1588333320.453125
8.77,1588333320.46875
9.46,1588333320.484375
11.22,1588333320.5
13.79,1588333320.515625
16.65,1588333320.53125
19.18,1588333320.546875
20.78,1588333320.5625
21.03,1588333320.578125
19.74,1588333320.59375
16.93,1588333320.609375
12.75,1588333320.625
7.47,1588333320.640625
1.48,1588333320.65625
-4.78,1588333320.671875
-10.86,1588333320.6875
-16.36,1588333320.703125
-21.04,1588333320.71875
-24.75,1588333320.734375
-27.47,1588333320.75
-29.15,1588333320.765625
-29.71,1588333320.78125
-29.06,1588333320.796875
-27.26,1588333320.8125
-24.63,1588333320.828125
-21.71,1588333320.84375
-19.16,1588333320.859375
-17.45,1588333320.875
-16.75,1588333320.890625
-16.94,1588333320.90625
-17.62,1588333320.921875
-18.54,1588333320.9375
-19.59,1588333320.953125
-20.88,1588333320.96875
-22.54,1588333320.984375
-24.56,1588333321.0
-26.69,1588333321.015625
-28.5,1588333321.03125
-29.51,1588333321.046875
-29.41,1588333321.0625
-28.17,1588333321.078125
-25.97,1588333321.09375
-23.15,1588333321.109375
-20.01,1588333321.125
-16.77,1588333321.140625
-13.47,1588333321.15625
-10.06,1588333321.171875
-6.5,1588333321.1875
-2.83,1588333321.203125
0.71,1588333321.21875
3.77,1588333321.234375
5.98,1588333321.25
7.16,1588333321.265625
7.34,1588333321.28125
6.81,1588333321.296875
5.97,1588333321.3125
5.16,1588333321.328125
4.6,1588333321.34375
4.36,1588333321.359375
4.42,1588333321.375
4.75,1588333321.390625
5.32,1588333321.40625
6.07,1588333321.421875
6.9,1588333321.4375
7.69,1588333321.453125
8.31,1588333321.46875
8.7,1588333321.484375
8.85,1588333321.5
8.86,1588333321.515625
8.85,1588333321.53125
9.02,1588333321.546875
9.54,1588333321.5625
10.51,1588333321.578125
11.98,1588333321.59375
13.76,1588333321.609375
15.49,1588333321.625
16.62,1588333321.640625
16.6,1588333321.65625
15.11,1588333321.671875
12.14,1588333321.6875
8.19,1588333321.703125
3.98,1588333321.71875
0.31,1588333321.734375
-2.33,1588333321.75
-3.87,1588333321.765625
-4.64,1588333321.78125
-5.16,1588333321.796875
-5.73,1588333321.8125
-6.31,1588333321.828125
-6.49,1588333321.84375
-5.79,1588333321.859375
-3.93,1588333321.875
-1.09,1588333321.890625
2.18,1588333321.90625
5.14,1588333321.921875
7.23,1588333321.9375
8.19,1588333321.953125
8.13,1588333321.96875
7.34,1588333321.984375
6.14,1588333322.0
4.77,1588333322.015625
3.37,1588333322.03125
2.01,1588333322.046875
0.78,1588333322.0625
-0.28,1588333322.078125
-1.16,1588333322.09375
-1.9,1588333322.109375
-2.51,1588333322.125
-3.0,1588333322.140625
-3.33,1588333322.15625
-3.45,1588333322.171875
-3.37,1588333322.1875
-3.27,1588333322.203125
-3.34,1588333322.21875
-3.82,1588333322.234375
-4.79,1588333322.25
-6.2,1588333322.265625
-7.78,1588333322.28125
-9.25,1588333322.296875
-10.37,1588333322.3125
-11.11,1588333322.328125
-11.51,1588333322.34375
-11.73,1588333322.359375
-11.92,1588333322.375
-12.14,1588333322.390625
-12.39,1588333322.40625
-12.66,1588333322.421875
-12.99,1588333322.4375
-13.45,1588333322.453125
-14.11,1588333322.46875
-15.03,1588333322.484375
-16.15,1588333322.5
-17.44,1588333322.515625
-18.89,1588333322.53125
-20.59,1588333322.546875
-22.54,1588333322.5625
-24.62,1588333322.578125
-26.42,1588333322.59375
-27.29,1588333322.609375
-26.56,1588333322.625
-23.82,1588333322.640625
-19.09,1588333322.65625
-12.87,1588333322.671875
-5.98,1588333322.6875
0.73,1588333322.703125
6.61,1588333322.71875
11.32,1588333322.734375
14.82,1588333322.75
17.23,1588333322.765625
18.68,1588333322.78125
19.32,1588333322.796875
19.32,1588333322.8125
18.8,1588333322.828125
17.99,1588333322.84375
17.08,1588333322.859375
16.31,1588333322.875
15.83,1588333322.890625
15.68,1588333322.90625
15.77,1588333322.921875
15.96,1588333322.9375
16.15,1588333322.953125
16.23,1588333322.96875
16.22,1588333322.984375
16.05,1588333323.0
15.71,1588333323.015625
15.13,1588333323.03125
14.27,1588333323.046875
13.15,1588333323.0625
11.8,1588333323.078125
10.27,1588333323.09375
8.57,1588333323.109375
6.67,1588333323.125
4.57,1588333323.140625
2.32,1588333323.15625
0.09,1588333323.171875
-1.95,1588333323.1875
-3.65,1588333323.203125
-4.97,1588333323.21875
-5.97,1588333323.234375
-6.78,1588333323.25
-7.51,1588333323.265625
-8.31,1588333323.28125
-9.32,1588333323.296875
-10.72,1588333323.3125
-12.61,1588333323.328125
-14.88,1588333323.34375
-17.17,1588333323.359375
-18.79,1588333323.375
-19.0,1588333323.390625
-17.23,1588333323.40625
-13.33,1588333323.421875
-7.69,1588333323.4375
-1.12,1588333323.453125
5.42,1588333323.46875
11.09,1588333323.484375
15.42,1588333323.5
18.25,1588333323.515625
19.73,1588333323.53125
20.14,1588333323.546875
19.79,1588333323.5625
18.94,1588333323.578125
17.79,1588333323.59375
16.47,1588333323.609375
15.1,1588333323.625
13.76,1588333323.640625
12.52,1588333323.65625
11.42,1588333323.671875
10.5,1588333323.6875
9.75,1588333323.703125
9.15,1588333323.71875
8.65,1588333323.734375
8.17,1588333323.75
7.62,1588333323.765625
6.95,1588333323.78125
6.16,1588333323.796875
5.29,1588333323.8125
4.42,1588333323.828125
3.65,1588333323.84375
2.99,1588333323.859375
2.41,1588333323.875
1.78,1588333323.890625
0.97,1588333323.90625
-0.11,1588333323.921875
-1.41,1588333323.9375
-2.76,1588333323.953125
-3.99,1588333323.96875
-4.94,1588333323.984375
-5.6,1588333324.0
-6.11,1588333324.015625
-6.63,1588333324.03125
-7.39,1588333324.046875
-8.55,1588333324.0625
-10.23,1588333324.078125
-12.44,1588333324.09375
-15.06,1588333324.109375
-17.75,1588333324.125
-19.94,1588333324.140625
-20.93,1588333324.15625
-20.08,1588333324.171875
-17.11,1588333324.1875
-12.22,1588333324.203125
-6.1,1588333324.21875
0.24,1588333324.234375
5.85,1588333324.25
10.1,1588333324.265625
12.78,1588333324.28125
14.05,1588333324.296875
14.35,1588333324.3125
14.08,1588333324.328125
13.57,1588333324.34375
12.97,1588333324.359375
12.31,1588333324.375
11.54,1588333324.390625
10.66,1588333324.40625
9.77,1588333324.421875
9.05,1588333324.4375
8.66,1588333324.453125
8.68,1588333324.46875
8.95,1588333324.484375
9.18,1588333324.5
9.02,1588333324.515625
8.24,1588333324.53125
6.84,1588333324.546875
5.04,1588333324.5625
3.16,1588333324.578125
1.51,1588333324.59375
0.25,1588333324.609375
-0.64,1588333324.625
-1.31,1588333324.640625
-1.92,1588333324.65625
-2.64,1588333324.671875
-3.57,1588333324.6875
-4.7,1588333324.703125
-5.97,1588333324.71875
-7.29,1588333324.734375
-8.52,1588333324.75
-9.58,1588333324.765625
-10.49,1588333324.78125
-11.3,1588333324.796875
-12.18,1588333324.8125
-13.29,1588333324.828125
-14.79,1588333324.84375
-16.79,1588333324.859375
-19.16,1588333324.875
-21.51,1588333324.890625
-23.17,1588333324.90625
-23.37,1588333324.921875
-21.52,1588333324.9375
-17.39,1588333324.953125
-11.36,1588333324.96875
-4.28,1588333324.984375
2.71,1588333325.0
8.55,1588333325.015625
12.5,1588333325.03125
14.4,1588333325.046875
14.57,1588333325.0625
13.61,1588333325.078125
12.2,1588333325.09375
10.82,1588333325.109375
9.64,1588333325.125
8.6,1588333325.140625
7.51,1588333325.15625
6.29,1588333325.171875
5.04,1588333325.1875
3.99,1588333325.203125
3.37,1588333325.21875
3.17,1588333325.234375
3.18,1588333325.25
3.04,1588333325.265625
2.51,1588333325.28125
1.58,1588333325.296875
0.55,1588333325.3125
-0.21,1588333325.328125
-0.41,1588333325.34375
-0.05,1588333325.359375
0.65,1588333325.375
1.32,1588333325.390625
1.61,1588333325.40625
1.41,1588333325.421875
0.75,1588333325.4375
-0.17,1588333325.453125
-1.08,1588333325.46875
-1.72,1588333325.484375
-1.92,1588333325.5
-1.66,1588333325.515625
-1.11,1588333325.53125
-0.63,1588333325.546875
-0.65,1588333325.5625
-1.54,1588333325.578125
-3.38,1588333325.59375
-5.87,1588333325.609375
-8.3,1588333325.625
-9.75,1588333325.640625
-9.35,1588333325.65625
-6.51,1588333325.671875
-1.18,1588333325.6875
6.06,1588333325.703125
14.13,1588333325.71875
21.74,1588333325.734375
27.71,1588333325.75
31.28,1588333325.765625
32.29,1588333325.78125
31.08,1588333325.796875
28.18,1588333325.8125
24.14,1588333325.828125
19.31,1588333325.84375
14.0,1588333325.859375
8.53,1588333325.875
3.44,1588333325.890625
-0.7,1588333325.90625
-3.37,1588333325.921875
-4.48,1588333325.9375
-4.35,1588333325.953125
-3.63,1588333325.96875
-3.01,1588333325.984375
-2.95,1588333326.0
-3.58,1588333326.015625
-4.73,1588333326.03125
-6.13,1588333326.046875
-7.54,1588333326.0625
-8.86,1588333326.078125
-10.06,1588333326.09375
-11.23,1588333326.109375
-12.45,1588333326.125
-13.8,1588333326.140625
-15.32,1588333326.15625
-17.0,1588333326.171875
-18.74,1588333326.1875
-20.43,1588333326.203125
-21.94,1588333326.21875
-23.21,1588333326.234375
-24.29,1588333326.25
-25.37,1588333326.265625
-26.72,1588333326.28125
-28.63,1588333326.296875
-31.23,1588333326.3125
-34.34,1588333326.328125
-37.35,1588333326.34375
-39.35,1588333326.359375
-39.27,1588333326.375
-36.22,1588333326.390625
-29.82,1588333326.40625
-20.28,1588333326.421875
-8.45,1588333326.4375
4.46,1588333326.453125
17.11,1588333326.46875
28.35,1588333326.484375
37.41,1588333326.5
43.9,1588333326.515625
47.86,1588333326.53125
49.5,1588333326.546875
49.21,1588333326.5625
47.38,1588333326.578125
44.4,1588333326.59375
40.72,1588333326.609375
36.86,1588333326.625
33.38,1588333326.640625
30.75,1588333326.65625
29.19,1588333326.671875
28.58,1588333326.6875
28.43,1588333326.703125
28.14,1588333326.71875
27.2,1588333326.734375
25.36,1588333326.75
22.79,1588333326.765625
19.86,1588333326.78125
17.06,1588333326.796875
14.74,1588333326.8125
12.95,1588333326.828125
11.52,1588333326.84375
10.13,1588333326.859375
8.53,1588333326.875
6.67,1588333326.890625
4.65,1588333326.90625
2.72,1588333326.921875
1.08,1588333326.9375
-0.17,1588333326.953125
-1.15,1588333326.96875
-2.05,1588333326.984375
-3.06,1588333327.0
-4.33,1588333327.015625
-5.98,1588333327.03125
-8.12,1588333327.046875
-10.84,1588333327.0625
-14.14,1588333327.078125
-17.76,1588333327.09375
-21.04,1588333327.109375
-23.01,1588333327.125
-22.68,1588333327.140625
-19.45,1588333327.15625
-13.42,1588333327.171875
-5.49,1588333327.1875
3.0,1588333327.203125
10.65,1588333327.21875
16.52,1588333327.234375
20.3,1588333327.25
22.22,1588333327.265625
22.82,1588333327.28125
22.63,1588333327.296875
22.04,1588333327.3125
21.3,1588333327.328125
20.56,1588333327.34375
19.99,1588333327.359375
19.72,1588333327.375
19.86,1588333327.390625
20.42,1588333327.40625
21.32,1588333327.421875
22.46,1588333327.4375
23.69,1588333327.453125
24.86,1588333327.46875
25.83,1588333327.484375
26.42,1588333327.5
26.49,1588333327.515625
25.91,1588333327.53125
24.62,1588333327.546875
22.65,1588333327.5625
20.06,1588333327.578125
17.01,1588333327.59375
13.63,1588333327.609375
10.09,1588333327.625
6.55,1588333327.640625
3.12,1588333327.65625
-0.05,1588333327.671875
-2.88,1588333327.6875
-5.3,1588333327.703125
-7.33,1588333327.71875
-9.0,1588333327.734375
-10.41,1588333327.75
-11.64,1588333327.765625
-12.83,1588333327.78125
-14.1,1588333327.796875
-15.59,1588333327.8125
-17.41,1588333327.828125
-19.66,1588333327.84375
-22.43,1588333327.859375
-25.71,1588333327.875
-29.3,1588333327.890625
-32.8,1588333327.90625
-35.52,1588333327.921875
-36.76,1588333327.9375
-36.03,1588333327.953125
-33.28,1588333327.96875
-28.95,1588333327.984375
-23.88,1588333328.0
-18.94,1588333328.015625
-14.74,1588333328.03125
-11.51,1588333328.046875
-9.13,1588333328.0625
-7.38,1588333328.078125
-6.02,1588333328.09375
-4.94,1588333328.109375
-4.02,1588333328.125
-3.08,1588333328.140625
-1.94,1588333328.15625
-0.5,1588333328.171875
1.09,1588333328.1875
2.34,1588333328.203125
2.56,1588333328.21875
1.06,1588333328.234375
-2.51,1588333328.25
-8.0,1588333328.265625
-14.73,1588333328.28125
-21.66,1588333328.296875
-27.68,1588333328.3125
-32.0,1588333328.328125
-34.27,1588333328.34375
-34.67,1588333328.359375
-33.75,1588333328.375
-32.06,1588333328.390625
-29.99,1588333328.40625
-27.68,1588333328.421875
-25.04,1588333328.4375
-21.98,1588333328.453125
-18.56,1588333328.46875
-15.06,1588333328.484375
-11.92,1588333328.5
-9.58,1588333328.515625
-8.3,1588333328.53125
-8.15,1588333328.546875
-8.92,1588333328.5625
-10.32,1588333328.578125
-11.99,1588333328.59375
-13.6,1588333328.609375
-14.9,1588333328.625
-15.82,1588333328.640625
-16.43,1588333328.65625
-16.95,1588333328.671875
-17.71,1588333328.6875
-19.01,1588333328.703125
-20.95,1588333328.71875
-23.38,1588333328.734375
-25.87,1588333328.75
-27.71,1588333328.765625
-28.06,1588333328.78125
-26.13,1588333328.796875
-21.43,1588333328.8125
-13.96,1588333328.828125
-4.31,1588333328.84375
6.46,1588333328.859375
17.0,1588333328.875
26.14,1588333328.890625
33.1,1588333328.90625
37.7,1588333328.921875
40.24,1588333328.9375
41.15,1588333328.953125
40.81,1588333328.96875
39.36,1588333328.984375
36.71,1588333329.0
32.78,1588333329.015625
27.69,1588333329.03125
21.89,1588333329.046875
16.09,1588333329.0625
11.01,1588333329.078125
7.12,1588333329.09375
4.46,1588333329.109375
2.65,1588333329.125
1.13,1588333329.140625
-0.6,1588333329.15625
-2.67,1588333329.171875
-4.89,1588333329.1875
-6.87,1588333329.203125
-8.29,1588333329.21875
-9.04,1588333329.234375
-9.34,1588333329.25
-9.53,1588333329.265625
-9.9,1588333329.28125
-10.58,1588333329.296875
-11.47,1588333329.3125
-12.37,1588333329.328125
-13.15,1588333329.34375
-13.82,1588333329.359375
-14.6,1588333329.375
-15.84,1588333329.390625
-17.85,1588333329.40625
-20.74,1588333329.421875
-24.33,1588333329.4375
-28.19,1588333329.453125
-31.83,1588333329.46875
-34.86,1588333329.484375
-37.23,1588333329.5
-39.22,1588333329.515625
-41.4,1588333329.53125
-44.37,1588333329.546875
-48.44,1588333329.5625
-53.47,1588333329.578125
-58.81,1588333329.59375
-63.37,1588333329.609375
-65.79,1588333329.625
-64.64,1588333329.640625
-58.82,1588333329.65625
-47.84,1588333329.671875
-32.14,1588333329.6875
-13.17,1588333329.703125
6.91,1588333329.71875
25.81,1588333329.734375
41.72,1588333329.75
53.76,1588333329.765625
61.96,1588333329.78125
66.88,1588333329.796875
69.16,1588333329.8125
69.19,1588333329.828125
67.15,1588333329.84375
63.3,1588333329.859375
58.18,1588333329.875
52.71,1588333329.890625
47.8,1588333329.90625
44.08,1588333329.921875
41.59,1588333329.9375
39.82,1588333329.953125
38.02,1588333329.96875
35.54,1588333329.984375
32.15,1588333330.0
28.09,1588333330.015625
23.86,1588333330.03125
19.99,1588333330.046875
16.77,1588333330.0625
14.18,1588333330.078125
11.92,1588333330.09375
9.58,1588333330.109375
6.84,1588333330.125
3.56,1588333330.140625
-0.15,1588333330.15625
-3.96,1588333330.171875
-7.49,1588333330.1875
-10.39,1588333330.203125
-12.59,1588333330.21875
-14.27,1588333330.234375
-15.87,1588333330.25
-17.89,1588333330.265625
-20.76,1588333330.28125
-24.59,1588333330.296875
-29.2,1588333330.3125
-34.07,1588333330.328125
-38.5,1588333330.34375
-41.6,1588333330.359375
-42.43,1588333330.375
-40.11,1588333330.390625
-34.02,1588333330.40625
-24.1,1588333330.421875
-11.03,1588333330.4375
3.8,1588333330.453125
18.55,1588333330.46875
31.44,1588333330.484375
41.25,1588333330.5
47.5,1588333330.515625
50.41,1588333330.53125
50.57,1588333330.546875
48.61,1588333330.5625
45.06,1588333330.578125
40.34,1588333330.59375
34.96,1588333330.609375
29.53,1588333330.625
24.77,1588333330.640625
21.21,1588333330.65625
19.05,1588333330.671875
18.06,1588333330.6875
17.68,1588333330.703125
17.28,1588333330.71875
16.37,1588333330.734375
14.75,1588333330.75
12.46,1588333330.765625
9.78,1588333330.78125
6.96,1588333330.796875
4.24,1588333330.8125
1.81,1588333330.828125
-0.31,1588333330.84375
-2.15,1588333330.859375
-3.85,1588333330.875
-5.61,1588333330.890625
-7.66,1588333330.90625
-10.1,1588333330.921875
-12.93,1588333330.9375
-15.98,1588333330.953125
-18.96,1588333330.96875
-21.57,1588333330.984375
-23.74,1588333331.0
-25.56,1588333331.015625
-27.49,1588333331.03125
-30.11,1588333331.046875
-33.92,1588333331.0625
-39.03,1588333331.078125
-44.96,1588333331.09375
-50.57,1588333331.109375
-54.32,1588333331.125
-54.7,1588333331.140625
-50.64,1588333331.15625
-41.88,1588333331.171875
-29.04,1588333331.1875
-13.45,1588333331.203125
3.11,1588333331.21875
18.83,1588333331.234375
32.19,1588333331.25
42.25,1588333331.265625
48.73,1588333331.28125
51.91,1588333331.296875
52.48,1588333331.3125
51.2,1588333331.328125
48.69,1588333331.34375
45.3,1588333331.359375
41.27,1588333331.375
36.88,1588333331.390625
32.54,1588333331.40625
28.82,1588333331.421875
26.17,1588333331.4375
24.72,1588333331.453125
24.2,1588333331.46875
24.02,1588333331.484375
23.55,1588333331.5
22.38,1588333331.515625
20.43,1588333331.53125
17.87,1588333331.546875
14.93,1588333331.5625
11.73,1588333331.578125
8.27,1588333331.59375
4.56,1588333331.609375
0.7,1588333331.625
-3.09,1588333331.640625
-6.56,1588333331.65625
-9.58,1588333331.671875
-12.24,1588333331.6875
-14.77,1588333331.703125
-17.35,1588333331.71875
-20.04,1588333331.734375
-22.69,1588333331.75
-25.07,1588333331.765625
-27.03,1588333331.78125
-28.61,1588333331.796875
-30.01,1588333331.8125
-31.55,1588333331.828125
-33.65,1588333331.84375
-36.63,1588333331.859375
-40.62,1588333331.875
-45.35,1588333331.890625
-49.99,1588333331.90625
-53.23,1588333331.921875
-53.51,1588333331.9375
-49.54,1588333331.953125
-40.79,1588333331.96875
-27.8,1588333331.984375
-12.11,1588333332.0
4.19,1588333332.015625
19.04,1588333332.03125
30.97,1588333332.046875
39.34,1588333332.0625
44.34,1588333332.078125
46.57,1588333332.09375
46.83,1588333332.109375
45.75,1588333332.125
43.73,1588333332.140625
41.01,1588333332.15625
37.83,1588333332.171875
34.44,1588333332.1875
31.17,1588333332.203125
28.26,1588333332.21875
25.81,1588333332.234375
23.68,1588333332.25
21.65,1588333332.265625
19.44,1588333332.28125
16.85,1588333332.296875
13.8,1588333332.3125
10.28,1588333332.328125
6.37,1588333332.34375
2.15,1588333332.359375
-2.23,1588333332.375
-6.62,1588333332.390625
-10.88,1588333332.40625
-14.89,1588333332.421875
-18.57,1588333332.4375
-21.98,1588333332.453125
-25.21,1588333332.46875
-28.39,1588333332.484375
-31.63,1588333332.5
-34.94,1588333332.515625
-38.27,1588333332.53125
-41.46,1588333332.546875
-44.34,1588333332.5625
-46.81,1588333332.578125
-48.94,1588333332.59375
-51.03,1588333332.609375
-53.57,1588333332.625
-57.06,1588333332.640625
-61.77,1588333332.65625
-67.47,1588333332.671875
-73.25,1588333332.6875
-77.58,1588333332.703125
-78.45,1588333332.71875
-73.97,1588333332.734375
-63.0,1588333332.75
-45.72,1588333332.765625
-23.79,1588333332.78125
-0.01,1588333332.796875
22.53,1588333332.8125
41.43,1588333332.828125
55.49,1588333332.84375
64.83,1588333332.859375
70.37,1588333332.875
73.16,1588333332.890625
73.9,1588333332.90625
72.83,1588333332.921875
70.12,1588333332.9375
66.1,1588333332.953125
61.47,1588333332.96875
57.12,1588333332.984375
53.69,1588333333.0
51.33,1588333333.015625
49.61,1588333333.03125
47.82,1588333333.046875
45.31,1588333333.0625
41.81,1588333333.078125
37.52,1588333333.09375
32.89,1588333333.109375
28.37,1588333333.125
24.04,1588333333.140625
19.6,1588333333.15625
14.51,1588333333.171875
8.34,1588333333.1875
1.12,1588333333.203125
-6.6,1588333333.21875
-13.91,1588333333.234375
-20.02,1588333333.25
-24.62,1588333333.265625
-28.06,1588333333.28125
-31.24,1588333333.296875
-35.14,1588333333.3125
-40.37,1588333333.328125
-46.87,1588333333.34375
-53.96,1588333333.359375
-60.66,1588333333.375
-66.16,1588333333.390625
-70.23,1588333333.40625
-73.31,1588333333.421875
-76.41,1588333333.4375
-80.71,1588333333.453125
-87.19,1588333333.46875
-96.2,1588333333.484375
-107.18,1588333333.5
-118.38,1588333333.515625
