PPG GREEN,time
2075894.0,1590566737.822
2075424.0,1590566737.78
2076569.0,1590566737.899
2076092.0,1590566737.859
2076317.0,1590566737.941
2075873.0,1590566737.979
2075907.0,1590566738.019
2075511.0,1590566738.061
2075379.0,1590566738.1
2075459.0,1590566738.141
2075530.0,1590566738.181
2075984.0,1590566738.221
2076303.0,1590566738.261
2076445.0,1590566738.3
2076730.0,1590566738.34
2077181.0,1590566738.38
2077316.0,1590566738.421
2077441.0,1590566738.46
2078027.0,1590566738.5
2078567.0,1590566738.542
2078674.0,1590566738.581
2078358.0,1590566738.621
2077690.0,1590566738.662
2077012.0,1590566738.699
2076745.0,1590566738.74
2075968.0,1590566738.781
2075823.0,1590566738.82
2075959.0,1590566738.86
2075394.0,1590566738.902
2075700.0,1590566738.942
2075423.0,1590566738.981
2075267.0,1590566739.022
2075458.0,1590566739.062
2075601.0,1590566739.1
2075970.0,1590566739.142
2076176.0,1590566739.18
2076444.0,1590566739.221
2076859.0,1590566739.262
2076997.0,1590566739.301
2077288.0,1590566739.342
2076767.0,1590566739.383
2075762.0,1590566739.422
2075229.0,1590566739.462
2074465.0,1590566739.501
2073712.0,1590566739.541
2073500.0,1590566739.581
2073334.0,1590566739.622
2072901.0,1590566739.661
2072905.0,1590566739.701
2072462.0,1590566739.743
2072594.0,1590566739.782
2072679.0,1590566739.822
2072870.0,1590566739.863
2072822.0,1590566739.901
2073223.0,1590566739.941
2073126.0,1590566739.982
2073090.0,1590566740.021
2072955.0,1590566740.062
2073172.0,1590566740.103
2072820.0,1590566740.143
2071414.0,1590566740.182
2069532.0,1590566740.224
2067483.0,1590566740.261
2065919.0,1590566740.301
2065185.0,1590566740.343
2064516.0,1590566740.382
2064363.0,1590566740.422
2063741.0,1590566740.466
2063792.0,1590566740.5
2063171.0,1590566740.541
2063013.0,1590566740.581
2062657.0,1590566740.62
2062941.0,1590566740.661
2063047.0,1590566740.702
2063196.0,1590566740.742
2063274.0,1590566740.781
2063566.0,1590566740.823
2063547.0,1590566740.862
2063812.0,1590566740.902
2063628.0,1590566740.945
2062373.0,1590566740.983
2061106.0,1590566741.023
2060142.0,1590566741.064
2059111.0,1590566741.103
2058746.0,1590566741.144
2059041.0,1590566741.184
2059812.0,1590566741.223
2059932.0,1590566741.263
2059110.0,1590566741.304
2058622.0,1590566741.344
2058515.0,1590566741.383
2058546.0,1590566741.424
2058644.0,1590566741.463
2058942.0,1590566741.503
2059053.0,1590566741.545
2059326.0,1590566741.583
2058993.0,1590566741.624
2058553.0,1590566741.665
2058378.0,1590566741.704
2058306.0,1590566741.744
2056193.0,1590566741.785
2054368.0,1590566741.824
2053172.0,1590566741.864
2052139.0,1590566741.905
2050872.0,1590566741.945
2049794.0,1590566741.984
2049563.0,1590566742.025
2048621.0,1590566742.064
2048181.0,1590566742.104
2047907.0,1590566742.146
2047875.0,1590566742.184
2048083.0,1590566742.223
2048557.0,1590566742.264
2048915.0,1590566742.303
2049484.0,1590566742.344
2049539.0,1590566742.385
2049779.0,1590566742.424
2049833.0,1590566742.464
2049664.0,1590566742.505
2048386.0,1590566742.545
2046564.0,1590566742.585
2044972.0,1590566742.624
2043938.0,1590566742.663
2042603.0,1590566742.703
2041650.0,1590566742.745
2041133.0,1590566742.784
2040470.0,1590566742.824
2040211.0,1590566742.866
2039885.0,1590566742.905
2039404.0,1590566742.946
2039414.0,1590566742.985
2039492.0,1590566743.023
2040034.0,1590566743.064
2039849.0,1590566743.105
2040244.0,1590566743.144
2040362.0,1590566743.184
2040303.0,1590566743.225
2039171.0,1590566743.264
2037635.0,1590566743.304
2036540.0,1590566743.346
2035873.0,1590566743.385
2035491.0,1590566743.425
2035400.0,1590566743.466
2034969.0,1590566743.506
2034406.0,1590566743.544
2033644.0,1590566743.585
2033225.0,1590566743.624
2032614.0,1590566743.664
2032278.0,1590566743.706
2032562.0,1590566743.746
2032275.0,1590566743.785
2032660.0,1590566743.826
2032506.0,1590566743.866
2031271.0,1590566743.904
2029808.0,1590566743.946
2028633.0,1590566743.984
2027860.0,1590566744.025
2027106.0,1590566744.066
2026860.0,1590566744.105
2026087.0,1590566744.146
2025344.0,1590566744.187
2024797.0,1590566744.226
2024624.0,1590566744.266
2024626.0,1590566744.306
2024978.0,1590566744.345
2025276.0,1590566744.385
2025021.0,1590566744.426
2025326.0,1590566744.465
2025526.0,1590566744.506
2026080.0,1590566744.548
2025344.0,1590566744.586
2024330.0,1590566744.627
2024377.0,1590566744.666
2024769.0,1590566744.705
2025762.0,1590566744.746
2030601.0,1590566744.786
2035409.0,1590566744.826
2037876.0,1590566744.866
2038373.0,1590566744.907
2038434.0,1590566744.947
2038590.0,1590566744.987
2038526.0,1590566745.028
2038199.0,1590566745.065
2037468.0,1590566745.105
2036914.0,1590566745.147
2036367.0,1590566745.186
2036107.0,1590566745.226
2035834.0,1590566745.267
2035115.0,1590566745.307
2033563.0,1590566745.348
2031982.0,1590566745.388
2030570.0,1590566745.427
2028885.0,1590566745.465
2027603.0,1590566745.507
2026741.0,1590566745.547
2026146.0,1590566745.586
2025470.0,1590566745.627
2025044.0,1590566745.666
2024601.0,1590566745.706
2024509.0,1590566745.748
2024761.0,1590566745.787
2024749.0,1590566745.827
2024869.0,1590566745.868
2025063.0,1590566745.908
2025218.0,1590566745.947
2025452.0,1590566745.988
2025979.0,1590566746.026
2026336.0,1590566746.067
2025592.0,1590566746.108
2022996.0,1590566746.187
2024423.0,1590566746.148
2020914.0,1590566746.268
2021918.0,1590566746.229
2019738.0,1590566746.306
2019339.0,1590566746.348
2018813.0,1590566746.387
2018551.0,1590566746.427
2018256.0,1590566746.468
2018075.0,1590566746.508
2018050.0,1590566746.548
2018200.0,1590566746.589
2018173.0,1590566746.628
2018448.0,1590566746.668
2018687.0,1590566746.708
2018587.0,1590566746.747
2019227.0,1590566746.787
2019444.0,1590566746.828
2019591.0,1590566746.868
2019795.0,1590566746.908
2018555.0,1590566746.95
2017167.0,1590566746.988
2016257.0,1590566747.029
2014862.0,1590566747.068
2013982.0,1590566747.107
2013300.0,1590566747.148
2012899.0,1590566747.189
2012682.0,1590566747.228
2012287.0,1590566747.268
2012047.0,1590566747.309
2012165.0,1590566747.349
2012198.0,1590566747.389
2012131.0,1590566747.43
2012519.0,1590566747.467
2012602.0,1590566747.508
2012912.0,1590566747.55
2013139.0,1590566747.588
2014208.0,1590566747.67
2013538.0,1590566747.628
2014776.0,1590566747.709
2014917.0,1590566747.75
2014809.0,1590566747.79
2013722.0,1590566747.83
2013129.0,1590566747.868
2011999.0,1590566747.909
2011409.0,1590566747.949
2010876.0,1590566747.989
2010913.0,1590566748.03
2011449.0,1590566748.069
2011737.0,1590566748.109
2011841.0,1590566748.149
2012912.0,1590566748.187
2013245.0,1590566748.227
2012909.0,1590566748.269
2012916.0,1590566748.308
2012548.0,1590566748.349
2013033.0,1590566748.389
2013440.0,1590566748.428
2013658.0,1590566748.468
2014057.0,1590566748.51
2014917.0,1590566748.55
2015353.0,1590566748.589
2015772.0,1590566748.63
2015152.0,1590566748.67
2013483.0,1590566748.71
2012357.0,1590566748.752
2011163.0,1590566748.79
2009457.0,1590566748.828
2008249.0,1590566748.87
2007976.0,1590566748.909
2007226.0,1590566748.95
2006504.0,1590566748.991
2006145.0,1590566749.03
2005903.0,1590566749.07
2005538.0,1590566749.111
2005826.0,1590566749.151
2005554.0,1590566749.189
2005698.0,1590566749.23
2005628.0,1590566749.269
2005863.0,1590566749.31
2006244.0,1590566749.352
2006599.0,1590566749.39
2005923.0,1590566749.43
2004269.0,1590566749.472
2003019.0,1590566749.511
2001612.0,1590566749.55
2000690.0,1590566749.59
2000275.0,1590566749.63
1999712.0,1590566749.67
1998973.0,1590566749.711
1998508.0,1590566749.751
1998006.0,1590566749.79
1997880.0,1590566749.832
1997932.0,1590566749.871
1997747.0,1590566749.909
1997923.0,1590566749.951
1998412.0,1590566749.99
1998541.0,1590566750.03
1998179.0,1590566750.071
1998579.0,1590566750.111
1998904.0,1590566750.152
1997574.0,1590566750.192
1995696.0,1590566750.231
1993972.0,1590566750.272
1992359.0,1590566750.311
1990764.0,1590566750.351
1989455.0,1590566750.39
1988374.0,1590566750.432
1987561.0,1590566750.471
1986871.0,1590566750.511
1985929.0,1590566750.553
1985285.0,1590566750.592
1984825.0,1590566750.632
1984658.0,1590566750.671
1984645.0,1590566750.71
1984611.0,1590566750.751
1984193.0,1590566750.791
1984130.0,1590566750.831
1984214.0,1590566750.912
1984213.0,1590566750.871
1982789.0,1590566750.952
1980564.0,1590566750.992
1977923.0,1590566751.033
1975497.0,1590566751.072
1973190.0,1590566751.112
1970947.0,1590566751.152
1969617.0,1590566751.191
1968354.0,1590566751.231
1966795.0,1590566751.272
1965563.0,1590566751.312
1964608.0,1590566751.353
1963644.0,1590566751.393
1962854.0,1590566751.432
1962423.0,1590566751.473
1962192.0,1590566751.514
1961808.0,1590566751.552
1961608.0,1590566751.591
1961619.0,1590566751.633
1961341.0,1590566751.672
1960932.0,1590566751.712
1958104.0,1590566751.754
1955300.0,1590566751.792
1952799.0,1590566751.833
1950375.0,1590566751.874
1947842.0,1590566751.911
1945622.0,1590566751.952
1944349.0,1590566751.993
1943323.0,1590566752.032
1942079.0,1590566752.072
1941337.0,1590566752.114
1940417.0,1590566752.154
1940158.0,1590566752.193
1939705.0,1590566752.234
1939425.0,1590566752.272
1939669.0,1590566752.312
1939628.0,1590566752.354
1939671.0,1590566752.392
1939645.0,1590566752.433
1939971.0,1590566752.474
1940063.0,1590566752.513
1939708.0,1590566752.554
1937492.0,1590566752.595
1934593.0,1590566752.634
1932243.0,1590566752.672
1929849.0,1590566752.713
1927685.0,1590566752.753
1926418.0,1590566752.793
1924819.0,1590566752.834
1922900.0,1590566752.914
1923809.0,1590566752.873
1922019.0,1590566752.957
1921522.0,1590566752.996
1921158.0,1590566753.036
1921042.0,1590566753.077
1920656.0,1590566753.116
1920456.0,1590566753.157
1920469.0,1590566753.197
1920452.0,1590566753.236
1920741.0,1590566753.276
1920942.0,1590566753.317
1920929.0,1590566753.357
1921477.0,1590566753.396
1920328.0,1590566753.437
1917823.0,1590566753.476
1915195.0,1590566753.514
1913126.0,1590566753.556
1910889.0,1590566753.594
1909224.0,1590566753.634
1908034.0,1590566753.676
1906938.0,1590566753.715
1905636.0,1590566753.756
1904473.0,1590566753.796
1904061.0,1590566753.836
1903568.0,1590566753.876
1903426.0,1590566753.915
1903158.0,1590566753.955
1903111.0,1590566753.994
1903178.0,1590566754.036
1903327.0,1590566754.075
1903447.0,1590566754.115
1903931.0,1590566754.157
1903752.0,1590566754.196
1902226.0,1590566754.236
1900378.0,1590566754.277
1899835.0,1590566754.314
1899199.0,1590566754.355
1898658.0,1590566754.396
1898367.0,1590566754.435
1898502.0,1590566754.475
1898024.0,1590566754.517
1897882.0,1590566754.556
1897651.0,1590566754.596
1897562.0,1590566754.637
1897926.0,1590566754.677
1898484.0,1590566754.715
1898871.0,1590566754.757
1899257.0,1590566754.795
1899411.0,1590566754.835
1899856.0,1590566754.877
1900476.0,1590566754.916
1899877.0,1590566754.957
1897916.0,1590566754.998
1896229.0,1590566755.037
1894461.0,1590566755.075
1892693.0,1590566755.116
1891658.0,1590566755.156
1890953.0,1590566755.196
1890380.0,1590566755.237
1889715.0,1590566755.276
1888959.0,1590566755.317
1888580.0,1590566755.359
1888100.0,1590566755.397
1888175.0,1590566755.435
1888032.0,1590566755.477
1887937.0,1590566755.516
1888078.0,1590566755.557
1887985.0,1590566755.597
1887412.0,1590566755.637
1886937.0,1590566755.677
1886387.0,1590566755.718
1885610.0,1590566755.758
1882836.0,1590566755.798
1879778.0,1590566755.836
1877381.0,1590566755.875
1874807.0,1590566755.915
1872213.0,1590566755.957
1869913.0,1590566755.996
1868102.0,1590566756.036
1866832.0,1590566756.077
1864902.0,1590566756.116
1864169.0,1590566756.157
1863631.0,1590566756.198
1863113.0,1590566756.237
1862819.0,1590566756.277
1862989.0,1590566756.319
1863033.0,1590566756.358
1862986.0,1590566756.398
1863591.0,1590566756.437
1864146.0,1590566756.476
1864846.0,1590566756.517
1862869.0,1590566756.559
1860207.0,1590566756.597
1858564.0,1590566756.638
1856998.0,1590566756.679
1855221.0,1590566756.718
1854074.0,1590566756.759
1853609.0,1590566756.8
1852936.0,1590566756.837
1852278.0,1590566756.877
1852181.0,1590566756.918
1852476.0,1590566756.958
1852471.0,1590566756.998
1853440.0,1590566757.039
1854671.0,1590566757.078
1855264.0,1590566757.119
1856409.0,1590566757.16
1857386.0,1590566757.197
1858427.0,1590566757.237
1859731.0,1590566757.279
1861073.0,1590566757.318
1861158.0,1590566757.359
1859645.0,1590566757.399
1857799.0,1590566757.438
1856240.0,1590566757.479
1854882.0,1590566757.52
1853738.0,1590566757.56
1853118.0,1590566757.597
1852750.0,1590566757.639
1852586.0,1590566757.678
1852116.0,1590566757.718
1852059.0,1590566757.76
1852301.0,1590566757.799
1852569.0,1590566757.839
1853137.0,1590566757.88
1853699.0,1590566757.92
1854493.0,1590566757.958
1855217.0,1590566757.999
1855943.0,1590566758.038
1856575.0,1590566758.078
1857461.0,1590566758.12
1858384.0,1590566758.16
1857872.0,1590566758.199
1856072.0,1590566758.241
1853978.0,1590566758.28
1852526.0,1590566758.318
1851495.0,1590566758.36
1850090.0,1590566758.398
1849831.0,1590566758.438
1849501.0,1590566758.479
1848964.0,1590566758.519
1848776.0,1590566758.56
1848696.0,1590566758.6
1848808.0,1590566758.64
1849354.0,1590566758.68
1849890.0,1590566758.721
1850125.0,1590566758.761
1850958.0,1590566758.798
1851521.0,1590566758.84
1852257.0,1590566758.879
1853010.0,1590566758.919
1853818.0,1590566758.961
1853378.0,1590566759.0
1851295.0,1590566759.04
1849656.0,1590566759.081
1848150.0,1590566759.121
1847231.0,1590566759.159
1846753.0,1590566759.2
1846351.0,1590566759.239
1846215.0,1590566759.279
1845734.0,1590566759.321
1845657.0,1590566759.361
1845799.0,1590566759.4
1846219.0,1590566759.441
1846625.0,1590566759.481
1847209.0,1590566759.521
1847888.0,1590566759.561
1848616.0,1590566759.599
1849481.0,1590566759.64
1850289.0,1590566759.681
1850774.0,1590566759.72
1849442.0,1590566759.761
1847762.0,1590566759.802
1846564.0,1590566759.841
1845320.0,1590566759.881
1844670.0,1590566759.92
1844280.0,1590566759.96
1844312.0,1590566760.0
1844202.0,1590566760.041
1844308.0,1590566760.08
1844623.0,1590566760.121
1844976.0,1590566760.163
1845557.0,1590566760.201
1846220.0,1590566760.241
1847258.0,1590566760.281
1847874.0,1590566760.32
1848671.0,1590566760.361
1849552.0,1590566760.401
1850465.0,1590566760.441
1851147.0,1590566760.48
1850284.0,1590566760.521
1848262.0,1590566760.56
1846837.0,1590566760.6
1845347.0,1590566760.641
1844129.0,1590566760.68
1843510.0,1590566760.72
1843149.0,1590566760.762
1842976.0,1590566760.8
1842846.0,1590566760.881
1842870.0,1590566760.84
1842907.0,1590566760.92
1843441.0,1590566760.961
1844408.0,1590566761.04
1844843.0,1590566761.08
1843895.0,1590566761.001
1846056.0,1590566761.161
1845473.0,1590566761.121
1847901.0,1590566761.242
1848351.0,1590566761.281
1846861.0,1590566761.2
1847450.0,1590566761.321
1843598.0,1590566761.401
1840890.0,1590566761.482
1840048.0,1590566761.521
1839836.0,1590566761.561
1845163.0,1590566761.362
1842350.0,1590566761.441
1839508.0,1590566761.602
1839874.0,1590566761.681
1839501.0,1590566761.641
1840617.0,1590566761.722
1841349.0,1590566761.762
1842052.0,1590566761.801
1844429.0,1590566761.921
1842819.0,1590566761.842
1843583.0,1590566761.881
1845156.0,1590566761.963
1845985.0,1590566762.001
1846838.0,1590566762.041
1847457.0,1590566762.082
1845501.0,1590566762.162
1842882.0,1590566762.241
1844072.0,1590566762.202
1846835.0,1590566762.121
1841849.0,1590566762.281
1841189.0,1590566762.362
1841343.0,1590566762.322
1841171.0,1590566762.401
1841068.0,1590566762.442
1841103.0,1590566762.481
1841370.0,1590566762.522
1843761.0,1590566762.602
1845084.0,1590566762.642
1846684.0,1590566762.683
1842266.0,1590566762.563
1848694.0,1590566762.722
1851340.0,1590566762.762
1857530.0,1590566762.803
1864582.0,1590566762.842
1869047.0,1590566762.882
1870751.0,1590566762.923
1870388.0,1590566762.963
1869568.0,1590566763.002
1868390.0,1590566763.043
1867311.0,1590566763.082
1866716.0,1590566763.122
1866639.0,1590566763.164
1865211.0,1590566763.242
1865848.0,1590566763.202
1865357.0,1590566763.322
1865752.0,1590566763.363
1865953.0,1590566763.403
1866755.0,1590566763.442
1866926.0,1590566763.482
1865240.0,1590566763.283
1867505.0,1590566763.523
1868111.0,1590566763.563
1868587.0,1590566763.643
1868606.0,1590566763.602
1865144.0,1590566763.722
1863948.0,1590566763.764
1862844.0,1590566763.803
1862219.0,1590566763.843
1861999.0,1590566763.884
1861678.0,1590566763.923
1861443.0,1590566763.963
1861022.0,1590566764.005
1861200.0,1590566764.043
1866630.0,1590566763.682
1861723.0,1590566764.083
1862923.0,1590566764.164
1863427.0,1590566764.203
1864089.0,1590566764.244
1864426.0,1590566764.283
1864843.0,1590566764.323
1865179.0,1590566764.365
1863482.0,1590566764.403
1861441.0,1590566764.443
1862349.0,1590566764.124
1859731.0,1590566764.484
1858063.0,1590566764.523
1856628.0,1590566764.564
1855672.0,1590566764.604
1855326.0,1590566764.643
1854807.0,1590566764.683
1854813.0,1590566764.725
1854800.0,1590566764.764
1854617.0,1590566764.804
1855003.0,1590566764.845
1855605.0,1590566764.884
1856107.0,1590566764.924
1856807.0,1590566764.976
1857341.0,1590566765.015
1858238.0,1590566765.055
1858844.0,1590566765.096
1859017.0,1590566765.135
1853284.0,1590566765.255
1851642.0,1590566765.295
1857413.0,1590566765.175
1855061.0,1590566765.216
1850316.0,1590566765.336
1849205.0,1590566765.376
1848364.0,1590566765.456
1849022.0,1590566765.415
1848155.0,1590566765.493
1847935.0,1590566765.534
1848167.0,1590566765.576
1848243.0,1590566765.614
1848715.0,1590566765.654
1849529.0,1590566765.696
1849828.0,1590566765.735
1850302.0,1590566765.776
1851119.0,1590566765.816
1851585.0,1590566765.854
1852148.0,1590566765.894
1852959.0,1590566765.935
1852058.0,1590566765.975
1850176.0,1590566766.015
1848219.0,1590566766.056
1846519.0,1590566766.093
1844982.0,1590566766.133
1843848.0,1590566766.175
1843366.0,1590566766.214
1842545.0,1590566766.254
1841794.0,1590566766.296
1841485.0,1590566766.334
1841072.0,1590566766.375
1841367.0,1590566766.416
1841399.0,1590566766.455
1841964.0,1590566766.495
1842379.0,1590566766.536
1842914.0,1590566766.576
1843326.0,1590566766.616
1844084.0,1590566766.657
1844748.0,1590566766.696
1845130.0,1590566766.734
1843742.0,1590566766.776
1841595.0,1590566766.815
1840349.0,1590566766.855
1839008.0,1590566766.896
1838286.0,1590566766.936
1838060.0,1590566766.977
1837701.0,1590566767.017
1837352.0,1590566767.056
1837014.0,1590566767.095
1837062.0,1590566767.136
1837435.0,1590566767.176
1837885.0,1590566767.215
1838534.0,1590566767.257
1839199.0,1590566767.296
1839740.0,1590566767.336
1840440.0,1590566767.378
1841063.0,1590566767.417
1841521.0,1590566767.455
1840267.0,1590566767.496
1838424.0,1590566767.536
1836800.0,1590566767.577
1835628.0,1590566767.617
1834266.0,1590566767.656
1833650.0,1590566767.696
1832851.0,1590566767.738
1832334.0,1590566767.778
1832222.0,1590566767.817
1831896.0,1590566767.856
1832048.0,1590566767.896
1832417.0,1590566767.936
1832669.0,1590566767.978
1833043.0,1590566768.016
1833819.0,1590566768.057
1834147.0,1590566768.098
1834708.0,1590566768.137
1835149.0,1590566768.178
1834809.0,1590566768.217
1832368.0,1590566768.256
1830182.0,1590566768.296
1827802.0,1590566768.337
1825992.0,1590566768.377
1824319.0,1590566768.417
1823156.0,1590566768.458
1822474.0,1590566768.497
1821519.0,1590566768.538
1820869.0,1590566768.58
1820181.0,1590566768.616
1819950.0,1590566768.656
1819951.0,1590566768.697
1820296.0,1590566768.736
1820369.0,1590566768.777
1820767.0,1590566768.818
1821321.0,1590566768.857
1821848.0,1590566768.897
1822331.0,1590566768.938
1822264.0,1590566768.978
1820265.0,1590566769.018
1817954.0,1590566769.059
1815815.0,1590566769.098
1813925.0,1590566769.136
1812107.0,1590566769.178
1810930.0,1590566769.217
1810320.0,1590566769.257
1809902.0,1590566769.299
1809278.0,1590566769.338
1809235.0,1590566769.379
1809215.0,1590566769.419
1809150.0,1590566769.458
1809742.0,1590566769.499
1810089.0,1590566769.538
1810522.0,1590566769.578
1811101.0,1590566769.617
1811806.0,1590566769.659
1812721.0,1590566769.698
1813232.0,1590566769.738
1813811.0,1590566769.78
1812292.0,1590566769.819
1810168.0,1590566769.859
1808367.0,1590566769.9
1806943.0,1590566769.937
1804827.0,1590566770.019
1805686.0,1590566769.978
1804324.0,1590566770.058
1804042.0,1590566770.098
1803995.0,1590566770.139
1803745.0,1590566770.179
1803981.0,1590566770.219
1804549.0,1590566770.26
1804920.0,1590566770.299
1805501.0,1590566770.338
1806003.0,1590566770.38
1806807.0,1590566770.418
1807666.0,1590566770.458
1808470.0,1590566770.5
1809541.0,1590566770.539
1810415.0,1590566770.58
1810616.0,1590566770.62
1809003.0,1590566770.659
1807447.0,1590566770.7
1806181.0,1590566770.739
1805192.0,1590566770.779
1804422.0,1590566770.818
1804143.0,1590566770.86
1804113.0,1590566770.899
1803993.0,1590566770.939
1804033.0,1590566770.981
1803922.0,1590566771.02
1804804.0,1590566771.06
1805407.0,1590566771.099
1806252.0,1590566771.138
1807796.0,1590566771.179
1809782.0,1590566771.22
1811828.0,1590566771.259
1813520.0,1590566771.299
1815411.0,1590566771.34
1817094.0,1590566771.38
1817027.0,1590566771.419
1816965.0,1590566771.461
1817168.0,1590566771.5
1817670.0,1590566771.54
1818384.0,1590566771.582
1819037.0,1590566771.619
1820169.0,1590566771.659
1820969.0,1590566771.7
1821646.0,1590566771.739
1822337.0,1590566771.78
1823173.0,1590566771.821
1824178.0,1590566771.86
1825081.0,1590566771.9
1826060.0,1590566771.942
1827216.0,1590566771.98
1827967.0,1590566772.019
1828874.0,1590566772.061
1829693.0,1590566772.1
1830717.0,1590566772.14
1830887.0,1590566772.182
1829797.0,1590566772.221
1828601.0,1590566772.261
1827668.0,1590566772.302
1827006.0,1590566772.339
1826418.0,1590566772.38
1826665.0,1590566772.421
1827248.0,1590566772.46
1827451.0,1590566772.5
1827620.0,1590566772.541
1828050.0,1590566772.581
1828820.0,1590566772.621
1829827.0,1590566772.662
1830791.0,1590566772.701
1831830.0,1590566772.74
1832706.0,1590566772.782
1833489.0,1590566772.82
1834422.0,1590566772.86
1835209.0,1590566772.902
1835871.0,1590566772.941
1836422.0,1590566772.982
1835417.0,1590566773.023
1834494.0,1590566773.062
1833562.0,1590566773.1
1833135.0,1590566773.141
1832866.0,1590566773.181
1832989.0,1590566773.221
1833282.0,1590566773.262
1833911.0,1590566773.301
1834282.0,1590566773.341
1835075.0,1590566773.383
1835570.0,1590566773.422
1836449.0,1590566773.462
1837508.0,1590566773.501
1838519.0,1590566773.541
1839662.0,1590566773.582
1840650.0,1590566773.622
1841907.0,1590566773.661
1843209.0,1590566773.702
1844042.0,1590566773.743
1844136.0,1590566773.82
1844687.0,1590566773.78
1843155.0,1590566773.862
1843113.0,1590566773.901
1843085.0,1590566773.941
1843227.0,1590566773.983
1843921.0,1590566774.021
1844221.0,1590566774.061
1844865.0,1590566774.103
1845398.0,1590566774.142
1845924.0,1590566774.183
1846764.0,1590566774.224
1847362.0,1590566774.263
1848504.0,1590566774.301
1849175.0,1590566774.342
1850319.0,1590566774.382
1851228.0,1590566774.422
1852205.0,1590566774.463
1852978.0,1590566774.502
1854250.0,1590566774.542
1855430.0,1590566774.584
1854754.0,1590566774.623
1853804.0,1590566774.702
1853546.0,1590566774.783
1853579.0,1590566774.742
1854025.0,1590566774.663
1853487.0,1590566774.823
1853900.0,1590566774.862
1854399.0,1590566774.903
1854448.0,1590566774.944
1855063.0,1590566774.984
1855566.0,1590566775.023
1856161.0,1590566775.065
1857120.0,1590566775.102
1857922.0,1590566775.142
1858531.0,1590566775.184
1859479.0,1590566775.222
1860096.0,1590566775.263
1861202.0,1590566775.304
1861381.0,1590566775.343
1860827.0,1590566775.384
1860071.0,1590566775.425
1859684.0,1590566775.464
1859359.0,1590566775.502
1859031.0,1590566775.543
1859505.0,1590566775.583
1859671.0,1590566775.623
1859803.0,1590566775.664
1860001.0,1590566775.703
1860436.0,1590566775.744
1860884.0,1590566775.785
1861317.0,1590566775.824
1861856.0,1590566775.864
1862584.0,1590566775.903
1863417.0,1590566775.943
1864249.0,1590566775.984
1865178.0,1590566776.024
1865311.0,1590566776.064
1864705.0,1590566776.104
1864003.0,1590566776.145
1863528.0,1590566776.185
1863091.0,1590566776.225
1862807.0,1590566776.264
1862984.0,1590566776.303
1862876.0,1590566776.343
1862989.0,1590566776.385
1862933.0,1590566776.423
1863092.0,1590566776.464
1863412.0,1590566776.505
1863886.0,1590566776.544
1864575.0,1590566776.585
1864915.0,1590566776.626
1865669.0,1590566776.665
1865470.0,1590566776.703
1864178.0,1590566776.744
1863324.0,1590566776.784
1862693.0,1590566776.824
1862158.0,1590566776.865
1861735.0,1590566776.904
1862070.0,1590566776.945
1861585.0,1590566776.985
1861690.0,1590566777.023
1861663.0,1590566777.063
1862116.0,1590566777.104
1862420.0,1590566777.143
1862609.0,1590566777.184
1863083.0,1590566777.224
1863668.0,1590566777.263
1864023.0,1590566777.303
1863398.0,1590566777.344
1862304.0,1590566777.384
1861218.0,1590566777.421
1860804.0,1590566777.463
1860171.0,1590566777.502
1860235.0,1590566777.542
1860224.0,1590566777.584
1860127.0,1590566777.622
1859977.0,1590566777.662
1860409.0,1590566777.704
1860366.0,1590566777.743
1860985.0,1590566777.784
1861270.0,1590566777.824
1862206.0,1590566777.864
1862853.0,1590566777.904
1863797.0,1590566777.943
1864060.0,1590566777.983
1863118.0,1590566778.023
1862537.0,1590566778.064
1861831.0,1590566778.103
1863305.0,1590566778.143
1868047.0,1590566778.185
1872515.0,1590566778.224
1875488.0,1590566778.264
1876219.0,1590566778.305
1876503.0,1590566778.342
1876056.0,1590566778.383
1876097.0,1590566778.424
1876174.0,1590566778.463
1876856.0,1590566778.503
1877909.0,1590566778.545
1878801.0,1590566778.585
1879903.0,1590566778.624
1880609.0,1590566778.665
1881122.0,1590566778.705
1881553.0,1590566778.743
1880837.0,1590566778.785
1879686.0,1590566778.823
1878252.0,1590566778.864
1877214.0,1590566778.905
1876182.0,1590566778.944
1875224.0,1590566778.985
1874967.0,1590566779.025
1874491.0,1590566779.064
1874415.0,1590566779.105
1873881.0,1590566779.146
1874008.0,1590566779.184
1874071.0,1590566779.223
1874135.0,1590566779.265
1874925.0,1590566779.304
1874887.0,1590566779.344
1875260.0,1590566779.386
1875808.0,1590566779.425
1876120.0,1590566779.465
1876955.0,1590566779.506
1877420.0,1590566779.543
1876692.0,1590566779.584
1875539.0,1590566779.625
1873922.0,1590566779.664
1873017.0,1590566779.705
1871884.0,1590566779.746
1871001.0,1590566779.786
1870956.0,1590566779.825
1870484.0,1590566779.866
1870313.0,1590566779.906
1870148.0,1590566779.944
1869842.0,1590566779.986
1870492.0,1590566780.024
1870637.0,1590566780.065
1871057.0,1590566780.106
1871537.0,1590566780.145
1871890.0,1590566780.186
1872367.0,1590566780.227
1873719.0,1590566780.306
1873036.0,1590566780.266
1874585.0,1590566780.345
1874869.0,1590566780.385
1874129.0,1590566780.425
1872907.0,1590566780.466
1872093.0,1590566780.505
1871247.0,1590566780.545
1870619.0,1590566780.587
1870428.0,1590566780.626
1870341.0,1590566780.666
1870475.0,1590566780.706
1870441.0,1590566780.745
1870723.0,1590566780.786
1871182.0,1590566780.826
1871480.0,1590566780.865
1872038.0,1590566780.906
1872514.0,1590566780.947
1872910.0,1590566780.987
1873528.0,1590566781.027
1874379.0,1590566781.066
1874769.0,1590566781.105
1875385.0,1590566781.145
1876025.0,1590566781.187
1875624.0,1590566781.226
1874450.0,1590566781.266
1873673.0,1590566781.307
1872847.0,1590566781.347
1872630.0,1590566781.388
1871875.0,1590566781.428
1872072.0,1590566781.464
1872117.0,1590566781.505
1872027.0,1590566781.547
1872349.0,1590566781.586
1872371.0,1590566781.625
1873087.0,1590566781.667
1873461.0,1590566781.706
1874223.0,1590566781.746
1874950.0,1590566781.788
1875534.0,1590566781.827
1876313.0,1590566781.867
1876852.0,1590566781.908
1877955.0,1590566781.946
1878602.0,1590566781.987
1878441.0,1590566782.027
1877498.0,1590566782.066
1876772.0,1590566782.107
1876259.0,1590566782.148
1875757.0,1590566782.188
1875656.0,1590566782.227
1875668.0,1590566782.269
1875639.0,1590566782.306
1875874.0,1590566782.346
1876092.0,1590566782.388
1876530.0,1590566782.427
1876935.0,1590566782.467
1877694.0,1590566782.508
1878332.0,1590566782.547
1879042.0,1590566782.588
1879745.0,1590566782.629
1880455.0,1590566782.668
1881153.0,1590566782.706
1881971.0,1590566782.748
1882886.0,1590566782.787
1883670.0,1590566782.827
1884025.0,1590566782.868
1883470.0,1590566782.907
1882363.0,1590566782.948
1881413.0,1590566782.99
1881211.0,1590566783.028
1880714.0,1590566783.069
1880380.0,1590566783.108
1880367.0,1590566783.147
1880485.0,1590566783.188
1880557.0,1590566783.228
1880868.0,1590566783.268
1881166.0,1590566783.308
1881944.0,1590566783.349
1882626.0,1590566783.389
1883291.0,1590566783.429
1884404.0,1590566783.47
1885011.0,1590566783.507
1885913.0,1590566783.547
1886971.0,1590566783.589
1887509.0,1590566783.628
1888631.0,1590566783.668
1889345.0,1590566783.709
1890065.0,1590566783.749
1889921.0,1590566783.789
1889417.0,1590566783.83
1888814.0,1590566783.869
1888663.0,1590566783.907
1888071.0,1590566783.949
1888204.0,1590566783.989
1888591.0,1590566784.028
1888821.0,1590566784.069
1888908.0,1590566784.108
1889564.0,1590566784.149
1890255.0,1590566784.229
1889541.0,1590566784.191
1890713.0,1590566784.269
1891511.0,1590566784.311
1892317.0,1590566784.348
1892961.0,1590566784.389
1893597.0,1590566784.429
1894301.0,1590566784.468
1895055.0,1590566784.509
1895970.0,1590566784.55
1896469.0,1590566784.59
1896074.0,1590566784.629
1895268.0,1590566784.671
1894986.0,1590566784.71
1894609.0,1590566784.748
1895285.0,1590566784.869
1895488.0,1590566784.91
1895129.0,1590566784.829
1895815.0,1590566784.949
1894889.0,1590566784.79
1896755.0,1590566785.031
1896194.0,1590566784.99
1897581.0,1590566785.07
1898241.0,1590566785.108
1898663.0,1590566785.15
1899542.0,1590566785.19
1900297.0,1590566785.229
1901117.0,1590566785.27
1901754.0,1590566785.31
1902569.0,1590566785.35
1902337.0,1590566785.392
1901610.0,1590566785.43
1900636.0,1590566785.469
1900221.0,1590566785.51
1899808.0,1590566785.549
1899836.0,1590566785.59
1899771.0,1590566785.631
1899949.0,1590566785.67
1899955.0,1590566785.71
1900069.0,1590566785.751
1900443.0,1590566785.791
1900641.0,1590566785.831
1901080.0,1590566785.87
1901615.0,1590566785.909
1902884.0,1590566785.992
1902352.0,1590566785.95
1903601.0,1590566786.03
1904547.0,1590566786.112
1904108.0,1590566786.07
1905216.0,1590566786.151
1904764.0,1590566786.192
1903390.0,1590566786.23
1902112.0,1590566786.27
1901285.0,1590566786.31
1900460.0,1590566786.351
1899554.0,1590566786.391
1899435.0,1590566786.431
1899096.0,1590566786.472
1899164.0,1590566786.511
1898939.0,1590566786.554
1899035.0,1590566786.591
1899437.0,1590566786.63
1899736.0,1590566786.67
1900294.0,1590566786.711
1900765.0,1590566786.75
1901325.0,1590566786.791
1901691.0,1590566786.832
1902275.0,1590566786.871
1903020.0,1590566786.911
1903528.0,1590566786.952
1903488.0,1590566786.992
1902240.0,1590566787.032
1900896.0,1590566787.071
1899617.0,1590566787.11
1898616.0,1590566787.151
1897685.0,1590566787.193
1897094.0,1590566787.231
1896863.0,1590566787.271
1896319.0,1590566787.313
1896135.0,1590566787.352
1896062.0,1590566787.393
1896092.0,1590566787.433
1896306.0,1590566787.471
1896568.0,1590566787.511
1896796.0,1590566787.552
1897435.0,1590566787.592
1897812.0,1590566787.631
1898185.0,1590566787.673
1898876.0,1590566787.712
1899186.0,1590566787.752
1899973.0,1590566787.794
1900298.0,1590566787.833
1899064.0,1590566787.871
1897484.0,1590566787.912
1896122.0,1590566787.951
1895053.0,1590566787.992
1893748.0,1590566788.033
1893427.0,1590566788.072
1892673.0,1590566788.112
1892505.0,1590566788.154
1891967.0,1590566788.194
1891817.0,1590566788.231
1891606.0,1590566788.272
1891839.0,1590566788.312
1891756.0,1590566788.352
1892088.0,1590566788.394
1892419.0,1590566788.432
1892531.0,1590566788.473
1893067.0,1590566788.514
1893366.0,1590566788.553
1893805.0,1590566788.594
1894299.0,1590566788.632
1893125.0,1590566788.672
1891253.0,1590566788.712
1889917.0,1590566788.753
1888850.0,1590566788.793
1887940.0,1590566788.833
1887566.0,1590566788.874
1887179.0,1590566788.913
1886826.0,1590566788.954
1886238.0,1590566788.997
1886072.0,1590566789.036
1885936.0,1590566789.076
1886096.0,1590566789.117
1886286.0,1590566789.156
1886715.0,1590566789.196
1886752.0,1590566789.237
1886995.0,1590566789.276
1887072.0,1590566789.316
1887327.0,1590566789.357
1887636.0,1590566789.397
1887419.0,1590566789.436
1885609.0,1590566789.477
1883974.0,1590566789.514
1882669.0,1590566789.554
1881418.0,1590566789.596
1880332.0,1590566789.635
1879814.0,1590566789.675
1879688.0,1590566789.717
1879601.0,1590566789.756
1879155.0,1590566789.797
1878826.0,1590566789.837
1878677.0,1590566789.876
1878682.0,1590566789.915
1878705.0,1590566789.956
1878973.0,1590566789.996
1879365.0,1590566790.035
1879542.0,1590566790.077
1879734.0,1590566790.116
1880153.0,1590566790.156
1880263.0,1590566790.198
1878924.0,1590566790.237
1876372.0,1590566790.275
1873876.0,1590566790.316
1871460.0,1590566790.355
1869116.0,1590566790.396
1866754.0,1590566790.437
1865633.0,1590566790.476
1864514.0,1590566790.516
1863363.0,1590566790.558
1861982.0,1590566790.597
1861382.0,1590566790.637
1860987.0,1590566790.676
1860266.0,1590566790.715
1860070.0,1590566790.756
1859917.0,1590566790.798
1859779.0,1590566790.836
1860082.0,1590566790.876
1859851.0,1590566790.918
1860124.0,1590566790.957
1860565.0,1590566790.998
1859738.0,1590566791.037
1857394.0,1590566791.076
1854821.0,1590566791.116
1852883.0,1590566791.157
1851324.0,1590566791.197
1850144.0,1590566791.237
1849093.0,1590566791.278
1847838.0,1590566791.317
1847510.0,1590566791.358
1847521.0,1590566791.398
1848322.0,1590566791.436
1852197.0,1590566791.476
1857113.0,1590566791.518
1860585.0,1590566791.557
1862346.0,1590566791.598
1863281.0,1590566791.638
1863816.0,1590566791.678
1864148.0,1590566791.715
1864518.0,1590566791.756
1865296.0,1590566791.796
1865933.0,1590566791.836
1866521.0,1590566791.878
1865155.0,1590566791.916
1862645.0,1590566791.957
1860509.0,1590566791.999
1858414.0,1590566792.037
1856747.0,1590566792.077
1855218.0,1590566792.119
1854186.0,1590566792.158
1853128.0,1590566792.199
1852170.0,1590566792.239
1851618.0,1590566792.279
1850991.0,1590566792.317
1850833.0,1590566792.358
1850619.0,1590566792.398
1850862.0,1590566792.437
1850997.0,1590566792.479
1851054.0,1590566792.518
1851421.0,1590566792.558
1851619.0,1590566792.6
1852351.0,1590566792.639
1852480.0,1590566792.679
1850246.0,1590566792.718
1847751.0,1590566792.757
1845748.0,1590566792.798
1844017.0,1590566792.839
1842579.0,1590566792.878
1842049.0,1590566792.918
1841405.0,1590566792.96
1840758.0,1590566793.0
1840027.0,1590566793.039
1839885.0,1590566793.078
1839588.0,1590566793.118
1840076.0,1590566793.158
1840135.0,1590566793.2
1840705.0,1590566793.238
1840852.0,1590566793.279
1841593.0,1590566793.32
1842166.0,1590566793.359
1842771.0,1590566793.4
1842721.0,1590566793.441
1840398.0,1590566793.478
1837783.0,1590566793.518
1835994.0,1590566793.559
1834417.0,1590566793.599
1833047.0,1590566793.639
1832283.0,1590566793.68
1831671.0,1590566793.719
1830945.0,1590566793.759
1830629.0,1590566793.801
1830290.0,1590566793.84
1830380.0,1590566793.878
1830809.0,1590566793.919
1831073.0,1590566793.959
1831688.0,1590566794.0
1832253.0,1590566794.041
1832841.0,1590566794.079
1833793.0,1590566794.12
1834504.0,1590566794.161
1835381.0,1590566794.201
1834806.0,1590566794.238
1832042.0,1590566794.28
1829602.0,1590566794.318
1827266.0,1590566794.358
1825370.0,1590566794.4
1823465.0,1590566794.439
1822740.0,1590566794.479
1821948.0,1590566794.52
1821334.0,1590566794.56
1820707.0,1590566794.601
1820632.0,1590566794.641
1820574.0,1590566794.68
1820773.0,1590566794.719
1821286.0,1590566794.76
1821818.0,1590566794.8
1822289.0,1590566794.839
1822956.0,1590566794.881
1823635.0,1590566794.92
1824367.0,1590566794.96
1825021.0,1590566795.002
1825724.0,1590566795.041
1823949.0,1590566795.079
1821342.0,1590566795.12
1819032.0,1590566795.16
1817236.0,1590566795.2
1815577.0,1590566795.241
1814211.0,1590566795.28
1813680.0,1590566795.321
1813319.0,1590566795.362
1813002.0,1590566795.402
1812730.0,1590566795.441
1812825.0,1590566795.48
1813224.0,1590566795.52
1813783.0,1590566795.56
1814428.0,1590566795.602
1815549.0,1590566795.64
1816464.0,1590566795.681
1817021.0,1590566795.722
1817972.0,1590566795.761
1818981.0,1590566795.802
1820092.0,1590566795.843
1821342.0,1590566795.88
1821257.0,1590566795.92
1819143.0,1590566795.961
1817135.0,1590566796.001
1816097.0,1590566796.041
1814130.0,1590566796.121
1814789.0,1590566796.082
1813638.0,1590566796.162
1813570.0,1590566796.24
1813523.0,1590566796.28
1813655.0,1590566796.322
1813937.0,1590566796.204
1814245.0,1590566796.361
1814824.0,1590566796.402
1816221.0,1590566796.482
1815775.0,1590566796.442
1817281.0,1590566796.522
1817965.0,1590566796.563
1818981.0,1590566796.603
1819979.0,1590566796.64
1821018.0,1590566796.682
1821744.0,1590566796.721
1820417.0,1590566796.761
1818796.0,1590566796.803
1817743.0,1590566796.841
1817186.0,1590566796.882
1816750.0,1590566796.923
1816750.0,1590566796.962
1817300.0,1590566797.003
1817194.0,1590566797.042
1817314.0,1590566797.081
1817832.0,1590566797.121
1818395.0,1590566797.163
1819493.0,1590566797.202
1820222.0,1590566797.242
1821120.0,1590566797.283
1822221.0,1590566797.322
1823008.0,1590566797.363
1824105.0,1590566797.405
1825286.0,1590566797.441
1826072.0,1590566797.481
1825601.0,1590566797.523
1823709.0,1590566797.562
1822591.0,1590566797.603
1821679.0,1590566797.643
1821071.0,1590566797.683
1820656.0,1590566797.723
1820581.0,1590566797.764
1821035.0,1590566797.804
1821115.0,1590566797.841
1821382.0,1590566797.883
1821814.0,1590566797.922
1822643.0,1590566797.962
1823379.0,1590566798.004
1824325.0,1590566798.043
1826229.0,1590566798.124
1825275.0,1590566798.083
1828161.0,1590566798.202
1827263.0,1590566798.164
1829633.0,1590566798.243
1830380.0,1590566798.282
1831705.0,1590566798.322
1831086.0,1590566798.364
1829331.0,1590566798.404
1827940.0,1590566798.443
1827118.0,1590566798.484
1826175.0,1590566798.524
1825662.0,1590566798.564
1825690.0,1590566798.604
1825795.0,1590566798.642
1825900.0,1590566798.683
1826227.0,1590566798.724
1826690.0,1590566798.763
1827470.0,1590566798.804
1828046.0,1590566798.845
1828788.0,1590566798.884
1829897.0,1590566798.924
1830586.0,1590566798.963
1831615.0,1590566799.003
1832695.0,1590566799.043
1833551.0,1590566799.084
1834812.0,1590566799.123
1835864.0,1590566799.164
1835895.0,1590566799.206
1834005.0,1590566799.244
1833159.0,1590566799.284
1832441.0,1590566799.324
1831854.0,1590566799.363
1831491.0,1590566799.404
1831597.0,1590566799.444
1832125.0,1590566799.483
1832173.0,1590566799.524
1832740.0,1590566799.565
1833308.0,1590566799.605
1834287.0,1590566799.644
1835521.0,1590566799.686
1836274.0,1590566799.725
1837260.0,1590566799.763
1838130.0,1590566799.805
1839280.0,1590566799.844
1840347.0,1590566799.884
1841456.0,1590566799.925
1842677.0,1590566799.964
1843730.0,1590566800.005
1843653.0,1590566800.046
1842635.0,1590566800.085
1841675.0,1590566800.123
1841238.0,1590566800.165
1840914.0,1590566800.205
1841174.0,1590566800.244
1841547.0,1590566800.285
1841863.0,1590566800.325
1842097.0,1590566800.365
1842566.0,1590566800.407
1843314.0,1590566800.445
1843968.0,1590566800.484
1844934.0,1590566800.525
1845798.0,1590566800.564
1846615.0,1590566800.605
1847494.0,1590566800.646
1848378.0,1590566800.685
1849249.0,1590566800.725
1850314.0,1590566800.766
1851229.0,1590566800.806
1850865.0,1590566800.846
1849229.0,1590566800.885
1848602.0,1590566800.924
1847994.0,1590566800.965
1847759.0,1590566801.004
1847836.0,1590566801.043
1847784.0,1590566801.083
1847984.0,1590566801.124
1848210.0,1590566801.163
1848268.0,1590566801.204
1848781.0,1590566801.244
1849447.0,1590566801.283
1850223.0,1590566801.323
1851123.0,1590566801.364
1851828.0,1590566801.404
1852698.0,1590566801.443
1853402.0,1590566801.484
1854239.0,1590566801.524
1855289.0,1590566801.564
1855433.0,1590566801.606
1854094.0,1590566801.644
1852680.0,1590566801.685
1851731.0,1590566801.724
1850815.0,1590566801.763
1850168.0,1590566801.804
1849971.0,1590566801.845
1850265.0,1590566801.884
1850099.0,1590566801.924
1850032.0,1590566801.965
1850447.0,1590566802.005
1850831.0,1590566802.044
1851490.0,1590566802.085
1852042.0,1590566802.125
1852867.0,1590566802.165
1853590.0,1590566802.207
1854342.0,1590566802.243
1855202.0,1590566802.283
1856087.0,1590566802.325
1856958.0,1590566802.364
1857813.0,1590566802.405
1856904.0,1590566802.446
1855296.0,1590566802.485
1854083.0,1590566802.525
1852862.0,1590566802.566
1851976.0,1590566802.606
1851418.0,1590566802.644
1851380.0,1590566802.685
1851299.0,1590566802.724
1851278.0,1590566802.764
1851294.0,1590566802.806
1851290.0,1590566802.845
1851878.0,1590566802.885
1852257.0,1590566802.926
1852787.0,1590566802.966
1853618.0,1590566803.005
1854350.0,1590566803.045
1855010.0,1590566803.084
1855835.0,1590566803.125
1856788.0,1590566803.166
1857445.0,1590566803.206
1858419.0,1590566803.245
1858556.0,1590566803.287
1856766.0,1590566803.326
1855486.0,1590566803.364
1854491.0,1590566803.406
1853635.0,1590566803.445
1853086.0,1590566803.485
1852732.0,1590566803.526
1852747.0,1590566803.566
1852743.0,1590566803.607
1852461.0,1590566803.647
1852795.0,1590566803.686
1853152.0,1590566803.727
1853597.0,1590566803.766
1854228.0,1590566803.805
1855007.0,1590566803.845
1855522.0,1590566803.886
1856227.0,1590566803.926
1856937.0,1590566803.966
1857831.0,1590566804.008
1858680.0,1590566804.046
1859284.0,1590566804.087
1858782.0,1590566804.126
1857388.0,1590566804.165
1856045.0,1590566804.206
1855237.0,1590566804.247
1854599.0,1590566804.286
1854267.0,1590566804.326
1854119.0,1590566804.367
1853711.0,1590566804.407
1853382.0,1590566804.447
1853371.0,1590566804.488
1853333.0,1590566804.527
1853671.0,1590566804.565
1854421.0,1590566804.607
1854861.0,1590566804.646
1855414.0,1590566804.686
1856008.0,1590566804.727
1856806.0,1590566804.767
1857770.0,1590566804.808
1858190.0,1590566804.848
1857939.0,1590566804.887
1856240.0,1590566804.927
1854983.0,1590566804.967
1853982.0,1590566805.007
1853318.0,1590566805.046
1852827.0,1590566805.087
1852889.0,1590566805.127
1852795.0,1590566805.167
1852656.0,1590566805.209
1852858.0,1590566805.247
1852896.0,1590566805.288
1853338.0,1590566805.329
1853842.0,1590566805.366
1854640.0,1590566805.407
1855210.0,1590566805.448
1855876.0,1590566805.487
1856692.0,1590566805.527
1857534.0,1590566805.568
1858197.0,1590566805.608
1858064.0,1590566805.648
1854927.0,1590566805.728
1856327.0,1590566805.689
1853798.0,1590566805.766
1852770.0,1590566805.808
1852261.0,1590566805.847
1852110.0,1590566805.887
1852483.0,1590566805.928
1852583.0,1590566805.968
1852832.0,1590566806.009
1853134.0,1590566806.049
1853617.0,1590566806.088
1854103.0,1590566806.127
1854611.0,1590566806.168
1855472.0,1590566806.208
1856165.0,1590566806.247
1856701.0,1590566806.289
1857454.0,1590566806.328
1858427.0,1590566806.368
1858949.0,1590566806.41
1860106.0,1590566806.449
1858949.0,1590566806.489
1857418.0,1590566806.528
1855883.0,1590566806.567
1854694.0,1590566806.608
1853866.0,1590566806.649
1852948.0,1590566806.688
1852659.0,1590566806.728
1852510.0,1590566806.77
1852497.0,1590566806.809
1852296.0,1590566806.849
1852577.0,1590566806.89
1852863.0,1590566806.927
1853452.0,1590566806.968
1854288.0,1590566807.01
1854632.0,1590566807.046
1855405.0,1590566807.087
1856271.0,1590566807.129
1856823.0,1590566807.168
1857809.0,1590566807.208
1858652.0,1590566807.249
1859333.0,1590566807.288
1858460.0,1590566807.328
1856703.0,1590566807.37
1855768.0,1590566807.409
1854599.0,1590566807.449
1853930.0,1590566807.49
1853572.0,1590566807.529
1853406.0,1590566807.57
1853257.0,1590566807.61
1853375.0,1590566807.648
1853263.0,1590566807.688
1853596.0,1590566807.73
1853953.0,1590566807.769
1854573.0,1590566807.81
1855377.0,1590566807.851
1856068.0,1590566807.89
1856784.0,1590566807.93
1857529.0,1590566807.969
1858210.0,1590566808.009
1859105.0,1590566808.049
1859868.0,1590566808.09
1859832.0,1590566808.129
1858506.0,1590566808.17
1857616.0,1590566808.212
1856823.0,1590566808.25
1856389.0,1590566808.29
1856453.0,1590566808.332
1856446.0,1590566808.369
1856568.0,1590566808.41
1856675.0,1590566808.45
1856847.0,1590566808.489
1856952.0,1590566808.53
1857702.0,1590566808.571
1858294.0,1590566808.611
1859360.0,1590566808.65
1860435.0,1590566808.692
1861310.0,1590566808.731
1862141.0,1590566808.769
1863046.0,1590566808.811
1863747.0,1590566808.849
1864574.0,1590566808.89
1864223.0,1590566808.931
1863735.0,1590566808.97
1863649.0,1590566809.011
1863003.0,1590566809.052
1862647.0,1590566809.091
1862689.0,1590566809.129
1862578.0,1590566809.171
1862966.0,1590566809.211
1863428.0,1590566809.25
1863692.0,1590566809.291
1864558.0,1590566809.331
1864949.0,1590566809.371
1865650.0,1590566809.413
1866346.0,1590566809.451
1866984.0,1590566809.49
1867891.0,1590566809.531
1868442.0,1590566809.57
1869128.0,1590566809.61
1869972.0,1590566809.649
1868956.0,1590566809.689
1867686.0,1590566809.73
1866281.0,1590566809.772
1865636.0,1590566809.811
1864912.0,1590566809.85
1864261.0,1590566809.891
1864528.0,1590566809.93
1864450.0,1590566809.971
1864360.0,1590566810.013
1864488.0,1590566810.051
1864721.0,1590566810.092
1865360.0,1590566810.133
1865725.0,1590566810.172
1866426.0,1590566810.211
1866818.0,1590566810.252
1867734.0,1590566810.291
1868322.0,1590566810.331
1869263.0,1590566810.372
1869981.0,1590566810.412
1870633.0,1590566810.452
1869892.0,1590566810.493
1868221.0,1590566810.532
1867288.0,1590566810.572
1866273.0,1590566810.612
1865876.0,1590566810.651
1865093.0,1590566810.691
1865208.0,1590566810.732
1865029.0,1590566810.772
1865199.0,1590566810.813
1865331.0,1590566810.853
1865507.0,1590566810.892
1865906.0,1590566810.933
1866548.0,1590566810.972
1867371.0,1590566811.012
1867641.0,1590566811.051
1868707.0,1590566811.093
1869183.0,1590566811.132
1869904.0,1590566811.172
1870799.0,1590566811.214
1871676.0,1590566811.253
1872504.0,1590566811.293
1873361.0,1590566811.334
1872833.0,1590566811.371
1871720.0,1590566811.412
1870441.0,1590566811.453
1870009.0,1590566811.492
1869295.0,1590566811.532
1869008.0,1590566811.574
1868937.0,1590566811.613
1869027.0,1590566811.653
1869328.0,1590566811.694
1869330.0,1590566811.733
1869860.0,1590566811.772
1870250.0,1590566811.814
1870994.0,1590566811.852
1871750.0,1590566811.892
1872432.0,1590566811.934
1873075.0,1590566811.973
1873945.0,1590566812.014
1874789.0,1590566812.055
1875448.0,1590566812.094
1876289.0,1590566812.132
1877185.0,1590566812.173
1878181.0,1590566812.213
1877762.0,1590566812.252
1876499.0,1590566812.293
1875686.0,1590566812.332
1875390.0,1590566812.372
1874805.0,1590566812.414
1874689.0,1590566812.453
1874824.0,1590566812.493
1874821.0,1590566812.534
1875144.0,1590566812.573
1875190.0,1590566812.614
1875499.0,1590566812.655
1875877.0,1590566812.694
1876449.0,1590566812.732
1877113.0,1590566812.774
1877696.0,1590566812.814
1878388.0,1590566812.853
1878880.0,1590566812.894
1879850.0,1590566812.934
1880599.0,1590566812.974
1880796.0,1590566813.006
1880051.0,1590566813.044
1878937.0,1590566813.084
1878275.0,1590566813.125
1877627.0,1590566813.164
1877457.0,1590566813.205
1877479.0,1590566813.245
1877765.0,1590566813.284
1877962.0,1590566813.325
1877681.0,1590566813.366
1878076.0,1590566813.405
1878668.0,1590566813.445
1878939.0,1590566813.486
1879772.0,1590566813.525
1880140.0,1590566813.563
1880932.0,1590566813.605
1881734.0,1590566813.644
1882257.0,1590566813.684
1883037.0,1590566813.725
1882499.0,1590566813.764
1880905.0,1590566813.805
1879699.0,1590566813.846
1879008.0,1590566813.885
1877769.0,1590566813.925
1877159.0,1590566813.965
1876941.0,1590566814.004
1876707.0,1590566814.044
1876628.0,1590566814.085
1876554.0,1590566814.124
1876705.0,1590566814.165
1877082.0,1590566814.207
1877424.0,1590566814.245
1877677.0,1590566814.285
1878097.0,1590566814.327
1878691.0,1590566814.364
1879092.0,1590566814.405
1879798.0,1590566814.445
1880417.0,1590566814.485
1880161.0,1590566814.525
1878832.0,1590566814.566
1876822.0,1590566814.606
1875610.0,1590566814.646
1874239.0,1590566814.687
1873270.0,1590566814.723
1872583.0,1590566814.764
1872389.0,1590566814.806
1872135.0,1590566814.844
1871744.0,1590566814.884
1871646.0,1590566814.926
1871793.0,1590566814.965
1871997.0,1590566815.006
1872452.0,1590566815.046
1872738.0,1590566815.086
1873268.0,1590566815.126
1873764.0,1590566815.167
1874114.0,1590566815.207
1874632.0,1590566815.245
1875417.0,1590566815.286
1875126.0,1590566815.325
1873452.0,1590566815.365
1871936.0,1590566815.407
1870329.0,1590566815.446
1868872.0,1590566815.486
1867926.0,1590566815.527
1866913.0,1590566815.567
1866448.0,1590566815.608
1866226.0,1590566815.646
1865756.0,1590566815.685
1865759.0,1590566815.726
1865523.0,1590566815.767
1865895.0,1590566815.807
1866053.0,1590566815.846
1866614.0,1590566815.887
1866792.0,1590566815.927
1867312.0,1590566815.967
1868186.0,1590566816.007
1868669.0,1590566816.046
1869360.0,1590566816.086
1870108.0,1590566816.127
1870655.0,1590566816.166
1870478.0,1590566816.207
1868612.0,1590566816.248
1867061.0,1590566816.287
1865439.0,1590566816.327
1864212.0,1590566816.369
1863101.0,1590566816.406
1862284.0,1590566816.446
1861825.0,1590566816.487
1861405.0,1590566816.526
1860885.0,1590566816.567
1860984.0,1590566816.609
1860846.0,1590566816.647
1860929.0,1590566816.687
1861270.0,1590566816.729
1861774.0,1590566816.766
1861992.0,1590566816.807
1862207.0,1590566816.848
1862815.0,1590566816.887
1863255.0,1590566816.927
1863891.0,1590566816.968
1863170.0,1590566817.008
1861386.0,1590566817.048
1860134.0,1590566817.089
1858816.0,1590566817.128
1857812.0,1590566817.166
1857645.0,1590566817.208
1857157.0,1590566817.247
1856860.0,1590566817.287
1856797.0,1590566817.328
1856996.0,1590566817.367
1857666.0,1590566817.408
1858082.0,1590566817.449
1858745.0,1590566817.488
1860243.0,1590566817.528
1864479.0,1590566817.57
1869775.0,1590566817.607
1873647.0,1590566817.647
1875662.0,1590566817.688
1876950.0,1590566817.727
1877114.0,1590566817.768
1875942.0,1590566817.81
1875019.0,1590566817.848
1874309.0,1590566817.889
1873934.0,1590566817.93
1873781.0,1590566817.967
1874060.0,1590566818.008
1874019.0,1590566818.049
1874120.0,1590566818.088
1874101.0,1590566818.128
1874061.0,1590566818.169
1874205.0,1590566818.209
1874090.0,1590566818.249
1874516.0,1590566818.29
1875072.0,1590566818.327
1875531.0,1590566818.368
1876226.0,1590566818.41
1876739.0,1590566818.448
1877683.0,1590566818.488
1877962.0,1590566818.53
1876567.0,1590566818.569
1875180.0,1590566818.61
1873463.0,1590566818.65
1872200.0,1590566818.69
1870915.0,1590566818.728
1870219.0,1590566818.769
1870321.0,1590566818.809
1869988.0,1590566818.848
1869977.0,1590566818.89
1869959.0,1590566818.929
1869900.0,1590566818.969
1870109.0,1590566819.011
1870655.0,1590566819.05
1871290.0,1590566819.09
1871937.0,1590566819.129
1872603.0,1590566819.168
1874309.0,1590566819.209
1875922.0,1590566819.25
1877813.0,1590566819.289
1878760.0,1590566819.329
1879025.0,1590566819.371
1880121.0,1590566819.41
1880328.0,1590566819.45
1880281.0,1590566819.491
1880253.0,1590566819.528
1879872.0,1590566819.569
1879664.0,1590566819.611
1879274.0,1590566819.649
1878850.0,1590566819.689
1878517.0,1590566819.731
1878317.0,1590566819.77
1878861.0,1590566819.811
1878797.0,1590566819.849
1879141.0,1590566819.889
1879479.0,1590566819.929
1880207.0,1590566819.97
1880854.0,1590566820.009
1881416.0,1590566820.049
1882297.0,1590566820.09
1882476.0,1590566820.13
1881388.0,1590566820.17
1879461.0,1590566820.212
1878170.0,1590566820.25
1876897.0,1590566820.291
1875851.0,1590566820.332
1875393.0,1590566820.369
1874896.0,1590566820.41
1874725.0,1590566820.451
1874652.0,1590566820.49
1874391.0,1590566820.53
1874781.0,1590566820.571
1874881.0,1590566820.611
1875181.0,1590566820.651
1875756.0,1590566820.692
1876087.0,1590566820.731
1876641.0,1590566820.769
1877094.0,1590566820.811
1877801.0,1590566820.85
1878533.0,1590566820.89
1877358.0,1590566820.931
1876652.0,1590566820.97
1877056.0,1590566821.011
1877569.0,1590566821.052
1878056.0,1590566821.091
1879800.0,1590566821.131
1880777.0,1590566821.173
1881390.0,1590566821.211
1881869.0,1590566821.25
1882190.0,1590566821.291
1882524.0,1590566821.331
1883038.0,1590566821.371
1883273.0,1590566821.413
1883625.0,1590566821.451
1883999.0,1590566821.492
1884466.0,1590566821.533
1884793.0,1590566821.57
1885251.0,1590566821.611
1885024.0,1590566821.652
1883276.0,1590566821.691
1881468.0,1590566821.731
1879608.0,1590566821.772
1878181.0,1590566821.812
1877187.0,1590566821.852
1876807.0,1590566821.893
1876466.0,1590566821.932
1876011.0,1590566821.971
1875909.0,1590566822.012
1875756.0,1590566822.051
1875745.0,1590566822.091
1876152.0,1590566822.132
1876645.0,1590566822.172
1877129.0,1590566822.213
1878010.0,1590566822.253
1878436.0,1590566822.292
1878944.0,1590566822.333
1879535.0,1590566822.372
1880453.0,1590566822.412
1880318.0,1590566822.451
1878595.0,1590566822.492
1877042.0,1590566822.532
1875759.0,1590566822.572
1874418.0,1590566822.614
1873784.0,1590566822.652
1872966.0,1590566822.693
1872920.0,1590566822.734
1872671.0,1590566822.773
1872372.0,1590566822.812
1872323.0,1590566822.853
1872446.0,1590566822.892
1872768.0,1590566822.932
1873274.0,1590566822.973
1874241.0,1590566823.053
1874836.0,1590566823.094
1873709.0,1590566823.013
1875604.0,1590566823.133
1875831.0,1590566823.172
1876586.0,1590566823.214
1876540.0,1590566823.252
1872741.0,1590566823.334
1871417.0,1590566823.373
1874941.0,1590566823.292
1869968.0,1590566823.414
1868781.0,1590566823.454
1868292.0,1590566823.494
1867810.0,1590566823.534
1867551.0,1590566823.573
1867216.0,1590566823.613
1866957.0,1590566823.652
1867145.0,1590566823.694
1867335.0,1590566823.733
1867942.0,1590566823.773
1868382.0,1590566823.815
1869034.0,1590566823.854
1869804.0,1590566823.894
1870176.0,1590566823.935
1870914.0,1590566823.972
1871330.0,1590566824.013
1872204.0,1590566824.055
1872504.0,1590566824.093
1871592.0,1590566824.133
1869530.0,1590566824.175
1868248.0,1590566824.215
1867017.0,1590566824.254
1865904.0,1590566824.295
1865314.0,1590566824.333
1864824.0,1590566824.373
1864515.0,1590566824.415
1864143.0,1590566824.453
1863756.0,1590566824.494
1863946.0,1590566824.535
1864395.0,1590566824.574
1864586.0,1590566824.615
1865065.0,1590566824.656
1865614.0,1590566824.695
1866154.0,1590566824.733
1866607.0,1590566824.774
1867381.0,1590566824.814
1867466.0,1590566824.854
1865987.0,1590566824.895
1864618.0,1590566824.934
1863372.0,1590566824.972
1862654.0,1590566825.022
1862247.0,1590566825.06
1861971.0,1590566825.1
1862030.0,1590566825.141
1862001.0,1590566825.18
1861589.0,1590566825.221
1861663.0,1590566825.261
1861841.0,1590566825.3
1862560.0,1590566825.34
1863176.0,1590566825.381
1864019.0,1590566825.421
1864321.0,1590566825.46
1865170.0,1590566825.501
1865800.0,1590566825.54
1866586.0,1590566825.581
1867306.0,1590566825.622
1866441.0,1590566825.66
1864461.0,1590566825.701
1863187.0,1590566825.74
1861805.0,1590566825.776
1861070.0,1590566825.817
1860344.0,1590566825.852
1860237.0,1590566825.887
1859980.0,1590566825.925
1859761.0,1590566825.967
1859797.0,1590566826.006
1859863.0,1590566826.046
1860116.0,1590566826.087
1860463.0,1590566826.126
1860963.0,1590566826.167
1861403.0,1590566826.209
1862143.0,1590566826.247
1862577.0,1590566826.285
1863256.0,1590566826.327
1863894.0,1590566826.366
1864000.0,1590566826.407
1862197.0,1590566826.447
1860314.0,1590566826.486
1858625.0,1590566826.527
1857219.0,1590566826.568
1855858.0,1590566826.608
1855199.0,1590566826.647
1855124.0,1590566826.687
1854629.0,1590566826.726
1854175.0,1590566826.766
1854246.0,1590566826.808
1854278.0,1590566826.846
1854573.0,1590566826.887
1855333.0,1590566826.928
1855610.0,1590566826.967
1856229.0,1590566827.008
1857095.0,1590566827.047
1857402.0,1590566827.086
1858262.0,1590566827.126
1859057.0,1590566827.168
1859635.0,1590566827.207
1858806.0,1590566827.247
1856767.0,1590566827.289
1854925.0,1590566827.328
1853514.0,1590566827.368
1852059.0,1590566827.408
1851119.0,1590566827.446
1850611.0,1590566827.487
1850353.0,1590566827.527
1849902.0,1590566827.567
1849503.0,1590566827.608
1849536.0,1590566827.648
1849765.0,1590566827.687
1850029.0,1590566827.728
1850503.0,1590566827.769
1851014.0,1590566827.809
1851562.0,1590566827.846
1852152.0,1590566827.888
1852706.0,1590566827.927
1853496.0,1590566827.967
1854307.0,1590566828.01
1855057.0,1590566828.048
1855596.0,1590566828.088
1854031.0,1590566828.13
1852405.0,1590566828.169
1851110.0,1590566828.207
1850113.0,1590566828.248
1849598.0,1590566828.287
1848982.0,1590566828.328
1849070.0,1590566828.369
1848824.0,1590566828.409
1848614.0,1590566828.448
1848972.0,1590566828.49
1848758.0,1590566828.529
1849378.0,1590566828.567
1849746.0,1590566828.609
1850522.0,1590566828.647
1851073.0,1590566828.688
1851698.0,1590566828.729
1852303.0,1590566828.768
1853081.0,1590566828.809
1853629.0,1590566828.85
1853452.0,1590566828.889
1851806.0,1590566828.929
1850525.0,1590566828.969
1849453.0,1590566829.008
1848812.0,1590566829.048
1848544.0,1590566829.09
1848887.0,1590566829.128
1848848.0,1590566829.169
1848622.0,1590566829.211
1848652.0,1590566829.249
1848832.0,1590566829.289
1849457.0,1590566829.331
1849799.0,1590566829.368
1850575.0,1590566829.409
1851190.0,1590566829.449
1851746.0,1590566829.488
1852288.0,1590566829.529
1853122.0,1590566829.57
1853655.0,1590566829.61
1853937.0,1590566829.649
1852515.0,1590566829.691
1850758.0,1590566829.73
1849339.0,1590566829.768
1848322.0,1590566829.81
1847522.0,1590566829.849
1847073.0,1590566829.889
1846976.0,1590566829.93
1846578.0,1590566829.97
1846310.0,1590566830.011
1846456.0,1590566830.051
1846645.0,1590566830.089
1846803.0,1590566830.13
1847371.0,1590566830.17
1847630.0,1590566830.209
1848459.0,1590566830.249
1848789.0,1590566830.291
1849386.0,1590566830.33
1850121.0,1590566830.37
1850695.0,1590566830.412
1850267.0,1590566830.45
1848193.0,1590566830.491
1846479.0,1590566830.53
1844895.0,1590566830.569
1843648.0,1590566830.61
1842546.0,1590566830.651
1842443.0,1590566830.69
1841914.0,1590566830.73
1841560.0,1590566830.772
1841356.0,1590566830.811
1841234.0,1590566830.851
1841603.0,1590566830.892
1841782.0,1590566830.929
1842303.0,1590566830.97
1842980.0,1590566831.012
1843422.0,1590566831.05
1843982.0,1590566831.09
1844865.0,1590566831.132
1845638.0,1590566831.171
1846129.0,1590566831.212
1844928.0,1590566831.253
1842789.0,1590566831.289
1841079.0,1590566831.33
1839713.0,1590566831.371
1838462.0,1590566831.411
1837875.0,1590566831.45
1837705.0,1590566831.492
1837145.0,1590566831.531
1837145.0,1590566831.571
1837221.0,1590566831.613
1837159.0,1590566831.652
1837359.0,1590566831.69
1837932.0,1590566831.731
1838413.0,1590566831.77
1839213.0,1590566831.811
1839575.0,1590566831.852
1840251.0,1590566831.891
1840965.0,1590566831.931
1841946.0,1590566831.973
1842855.0,1590566832.013
1843409.0,1590566832.05
1843532.0,1590566832.092
1841590.0,1590566832.131
1839779.0,1590566832.171
1838572.0,1590566832.213
1837250.0,1590566832.251
1836002.0,1590566832.292
1835265.0,1590566832.333
1834756.0,1590566832.372
1834322.0,1590566832.413
1833934.0,1590566832.452
1833793.0,1590566832.491
1833928.0,1590566832.531
1834086.0,1590566832.573
1834471.0,1590566832.612
1834967.0,1590566832.651
1835291.0,1590566832.69
1835683.0,1590566832.729
1836282.0,1590566832.769
1836803.0,1590566832.81
1835842.0,1590566832.85
1834217.0,1590566832.89
1832429.0,1590566832.932
1831340.0,1590566832.971
1830591.0,1590566833.012
1830424.0,1590566833.053
1830138.0,1590566833.092
1830002.0,1590566833.131
1830002.0,1590566833.165
1829765.0,1590566833.205
1829606.0,1590566833.244
1829662.0,1590566833.285
1830123.0,1590566833.324
1830842.0,1590566833.364
1831235.0,1590566833.406
1831726.0,1590566833.444
1832562.0,1590566833.485
1833013.0,1590566833.526
1833743.0,1590566833.565
1834218.0,1590566833.605
1833097.0,1590566833.646
1830756.0,1590566833.685
1828932.0,1590566833.725
1827511.0,1590566833.766
1826218.0,1590566833.805
1825466.0,1590566833.843
1825005.0,1590566833.876
1824614.0,1590566833.913
1824159.0,1590566833.951
1823942.0,1590566833.993
1824152.0,1590566834.031
1824113.0,1590566834.072
1824499.0,1590566834.113
1824920.0,1590566834.152
1825524.0,1590566834.193
1826102.0,1590566834.234
1826582.0,1590566834.273
1827119.0,1590566834.313
1827738.0,1590566834.354
1826504.0,1590566834.392
1824029.0,1590566834.432
1822064.0,1590566834.473
1820149.0,1590566834.512
1818358.0,1590566834.552
1817334.0,1590566834.594
1816605.0,1590566834.633
1816208.0,1590566834.673
1815615.0,1590566834.714
1815144.0,1590566834.753
1815171.0,1590566834.792
1815179.0,1590566834.833
1815500.0,1590566834.872
1815980.0,1590566834.912
1816495.0,1590566834.954
1817077.0,1590566834.994
1817672.0,1590566835.033
1818263.0,1590566835.074
1818989.0,1590566835.114
1818486.0,1590566835.152
1816332.0,1590566835.194
1814069.0,1590566835.232
1812278.0,1590566835.272
1810382.0,1590566835.314
1808950.0,1590566835.353
1808269.0,1590566835.394
1807946.0,1590566835.434
1807500.0,1590566835.474
1806826.0,1590566835.514
1806874.0,1590566835.555
1807023.0,1590566835.593
1807584.0,1590566835.633
1807604.0,1590566835.673
1808309.0,1590566835.712
1808785.0,1590566835.753
1809441.0,1590566835.795
1810133.0,1590566835.833
1810977.0,1590566835.873
1811811.0,1590566835.915
1812492.0,1590566835.954
1812410.0,1590566835.995
1809921.0,1590566836.035
1807812.0,1590566836.075
1806060.0,1590566836.113
1804769.0,1590566836.154
1803647.0,1590566836.194
1802905.0,1590566836.233
1802782.0,1590566836.275
1801982.0,1590566836.314
1801805.0,1590566836.354
1801593.0,1590566836.396
1801817.0,1590566836.435
1802334.0,1590566836.475
1802725.0,1590566836.514
1803089.0,1590566836.553
1803715.0,1590566836.594
1804310.0,1590566836.635
1804965.0,1590566836.674
1805902.0,1590566836.714
1806360.0,1590566836.756
1806093.0,1590566836.795
1803845.0,1590566836.835
1802066.0,1590566836.876
1800899.0,1590566836.913
1800213.0,1590566836.954
1799747.0,1590566836.995
1799569.0,1590566837.033
1799342.0,1590566837.073
1799082.0,1590566837.114
1799016.0,1590566837.153
1799409.0,1590566837.194
1799753.0,1590566837.234
1800470.0,1590566837.273
1800955.0,1590566837.313
1801805.0,1590566837.354
1802750.0,1590566837.394
1803213.0,1590566837.433
1803489.0,1590566837.474
1801798.0,1590566837.513
1800196.0,1590566837.553
1799097.0,1590566837.595
1798164.0,1590566837.633
1797927.0,1590566837.673
1797815.0,1590566837.755
1797802.0,1590566837.715
1797694.0,1590566837.796
1797559.0,1590566837.836
1797935.0,1590566837.873
1799080.0,1590566837.955
1798219.0,1590566837.914
1799602.0,1590566837.995
1800560.0,1590566838.034
1801271.0,1590566838.076
1802037.0,1590566838.115
1803097.0,1590566838.155
1803479.0,1590566838.197
1802372.0,1590566838.234
1799700.0,1590566838.274
1797516.0,1590566838.315
1795679.0,1590566838.354
1794077.0,1590566838.395
1793059.0,1590566838.436
1792426.0,1590566838.475
1792091.0,1590566838.515
1791779.0,1590566838.557
1791362.0,1590566838.596
1791268.0,1590566838.634
1791614.0,1590566838.676
1792067.0,1590566838.714
1792604.0,1590566838.754
1793226.0,1590566838.796
1794010.0,1590566838.834
1794775.0,1590566838.875
1795503.0,1590566838.916
1796254.0,1590566838.955
1796023.0,1590566838.996
1794020.0,1590566839.037
1791647.0,1590566839.076
1789748.0,1590566839.114
1788030.0,1590566839.156
1786575.0,1590566839.195
1785661.0,1590566839.235
1785456.0,1590566839.276
1785034.0,1590566839.315
1785193.0,1590566839.356
1785058.0,1590566839.398
1785371.0,1590566839.436
1785974.0,1590566839.477
1786783.0,1590566839.516
1787396.0,1590566839.555
1788470.0,1590566839.596
1789433.0,1590566839.636
1790114.0,1590566839.676
1791350.0,1590566839.716
1792229.0,1590566839.757
1792128.0,1590566839.797
1790031.0,1590566839.837
1788247.0,1590566839.877
1786491.0,1590566839.916
1784987.0,1590566839.957
1784209.0,1590566839.999
1783630.0,1590566840.037
1783531.0,1590566840.075
1783687.0,1590566840.116
1783743.0,1590566840.156
1784236.0,1590566840.197
1784560.0,1590566840.237
1785520.0,1590566840.276
1786321.0,1590566840.314
1787182.0,1590566840.355
1788182.0,1590566840.396
1789249.0,1590566840.436
1790094.0,1590566840.477
1791199.0,1590566840.516
1792312.0,1590566840.556
1793232.0,1590566840.597
1791842.0,1590566840.636
1789859.0,1590566840.676
1788318.0,1590566840.717
1787173.0,1590566840.756
1786222.0,1590566840.797
1785513.0,1590566840.838
1785969.0,1590566840.877
1785950.0,1590566840.917
1785804.0,1590566840.959
1786021.0,1590566840.999
1786669.0,1590566841.036
1787234.0,1590566841.077
1788296.0,1590566841.117
1789233.0,1590566841.157
1790316.0,1590566841.199
1791098.0,1590566841.237
1792383.0,1590566841.278
1793378.0,1590566841.319
1794820.0,1590566841.358
1795695.0,1590566841.399
1794926.0,1590566841.437
1793420.0,1590566841.477
1792281.0,1590566841.517
1791620.0,1590566841.558
1791133.0,1590566841.598
1791298.0,1590566841.638
1791326.0,1590566841.679
1791888.0,1590566841.718
1791755.0,1590566841.758
1792371.0,1590566841.8
1793025.0,1590566841.837
1793751.0,1590566841.877
1794691.0,1590566841.918
1795606.0,1590566841.958
1796398.0,1590566841.999
1797468.0,1590566842.039
1798792.0,1590566842.078
1799621.0,1590566842.119
1799372.0,1590566842.16
1798344.0,1590566842.198
1798132.0,1590566842.237
1798153.0,1590566842.279
1798841.0,1590566842.318
1800048.0,1590566842.358
1801679.0,1590566842.4
1803542.0,1590566842.438
1805611.0,1590566842.479
1808467.0,1590566842.52
1812268.0,1590566842.559
1816024.0,1590566842.598
1819020.0,1590566842.639
1821122.0,1590566842.678
1822665.0,1590566842.718
1823570.0,1590566842.759
1823352.0,1590566842.799
1821772.0,1590566842.839
1821038.0,1590566842.878
1820185.0,1590566842.917
1819958.0,1590566842.958
1820054.0,1590566842.999
1820093.0,1590566843.038
1820533.0,1590566843.078
1820463.0,1590566843.119
1820829.0,1590566843.158
1821126.0,1590566843.199
1821885.0,1590566843.24
1822525.0,1590566843.279
1823214.0,1590566843.319
1824350.0,1590566843.361
1824771.0,1590566843.4
1823849.0,1590566843.44
1822755.0,1590566843.48
1821984.0,1590566843.52
1821847.0,1590566843.56
1821632.0,1590566843.602
1822544.0,1590566843.638
1823093.0,1590566843.679
1823316.0,1590566843.72
1823802.0,1590566843.759
1824077.0,1590566843.8
1825025.0,1590566843.841
1825629.0,1590566843.88
1826676.0,1590566843.92
1827374.0,1590566843.961
1828464.0,1590566843.999
1828246.0,1590566844.039
1827187.0,1590566844.08
1826285.0,1590566844.119
1826303.0,1590566844.16
1826684.0,1590566844.202
1827471.0,1590566844.24
1829235.0,1590566844.28
1830794.0,1590566844.322
1832072.0,1590566844.361
1834178.0,1590566844.4
1835882.0,1590566844.44
1837294.0,1590566844.479
1838020.0,1590566844.52
1838881.0,1590566844.561
1839430.0,1590566844.601
1840222.0,1590566844.64
1840546.0,1590566844.682
1839298.0,1590566844.721
1837951.0,1590566844.761
1836332.0,1590566844.801
1835278.0,1590566844.84
1834485.0,1590566844.88
1834270.0,1590566844.921
1834098.0,1590566844.96
1834080.0,1590566845.001
1834399.0,1590566845.042
1834292.0,1590566845.081
1834552.0,1590566845.121
1834987.0,1590566845.161
1835265.0,1590566845.201
1835702.0,1590566845.24
1836701.0,1590566845.281
1837184.0,1590566845.321
1837777.0,1590566845.361
1837070.0,1590566845.403
1835940.0,1590566845.439
1834698.0,1590566845.48
1834169.0,1590566845.521
1833223.0,1590566845.56
1832936.0,1590566845.601
1832984.0,1590566845.641
1833222.0,1590566845.68
1833344.0,1590566845.721
1833781.0,1590566845.762
1834330.0,1590566845.802
1835045.0,1590566845.841
1835911.0,1590566845.883
1836403.0,1590566845.922
1837254.0,1590566845.96
1838086.0,1590566846.002
1839118.0,1590566846.041
1839775.0,1590566846.081
1840436.0,1590566846.122
1839478.0,1590566846.162
1838098.0,1590566846.203
1837087.0,1590566846.243
1836474.0,1590566846.282
1836062.0,1590566846.323
1835778.0,1590566846.362
1836047.0,1590566846.402
1836354.0,1590566846.441
1836680.0,1590566846.482
1837133.0,1590566846.522
1837550.0,1590566846.562
1838007.0,1590566846.604
1838726.0,1590566846.642
1839579.0,1590566846.683
1840243.0,1590566846.724
1840843.0,1590566846.761
1841539.0,1590566846.802
1842270.0,1590566846.843
1843330.0,1590566846.882
1843601.0,1590566846.922
1842904.0,1590566846.963
1841838.0,1590566847.003
1841030.0,1590566847.043
1840468.0,1590566847.084
1840223.0,1590566847.123
1839989.0,1590566847.161
1840135.0,1590566847.203
1840400.0,1590566847.242
1840332.0,1590566847.282
1840745.0,1590566847.323
1840959.0,1590566847.363
1841196.0,1590566847.404
1841568.0,1590566847.444
1841821.0,1590566847.483
1842166.0,1590566847.524
1842763.0,1590566847.563
1843430.0,1590566847.603
1844132.0,1590566847.642
1843609.0,1590566847.684
1842619.0,1590566847.723
1841982.0,1590566847.763
1841532.0,1590566847.805
1841563.0,1590566847.843
1841997.0,1590566847.884
1842207.0,1590566847.925
1842560.0,1590566847.962
1842951.0,1590566848.003
1843303.0,1590566848.043
1843845.0,1590566848.083
1844489.0,1590566848.123
1845119.0,1590566848.164
1845939.0,1590566848.204
1846600.0,1590566848.244
1847402.0,1590566848.285
1848230.0,1590566848.324
1848766.0,1590566848.364
1848181.0,1590566848.404
1847122.0,1590566848.443
1846845.0,1590566848.483
1846260.0,1590566848.524
1846042.0,1590566848.564
1846329.0,1590566848.605
1846416.0,1590566848.645
1846716.0,1590566848.684
1847095.0,1590566848.725
1847215.0,1590566848.766
1847581.0,1590566848.804
1848056.0,1590566848.843
1848831.0,1590566848.884
1850282.0,1590566848.964
1849646.0,1590566848.924
1852028.0,1590566849.043
1850941.0,1590566849.005
1853556.0,1590566849.124
1852216.0,1590566849.204
1852914.0,1590566849.083
1853301.0,1590566849.163
1850794.0,1590566849.283
1851522.0,1590566849.244
1850568.0,1590566849.323
1850281.0,1590566849.364
1850407.0,1590566849.404
1850637.0,1590566849.441
1850627.0,1590566849.484
1850805.0,1590566849.522
1850890.0,1590566849.562
1851399.0,1590566849.604
1851849.0,1590566849.643
1852873.0,1590566849.683
1853100.0,1590566849.725
1853972.0,1590566849.764
1854644.0,1590566849.805
1855335.0,1590566849.845
1856323.0,1590566849.884
1855822.0,1590566849.925
1855140.0,1590566849.964
1854010.0,1590566850.004
1853355.0,1590566850.043
1853110.0,1590566850.085
1852773.0,1590566850.124
1853098.0,1590566850.164
1853406.0,1590566850.206
1853482.0,1590566850.245
1854048.0,1590566850.285
1854104.0,1590566850.326
1854758.0,1590566850.363
1855254.0,1590566850.404
1856105.0,1590566850.445
1856557.0,1590566850.484
1857456.0,1590566850.524
1858006.0,1590566850.563
1858772.0,1590566850.604
1859651.0,1590566850.644
1859825.0,1590566850.684
1858989.0,1590566850.723
1858125.0,1590566850.764
1857521.0,1590566850.806
1857259.0,1590566850.844
1857138.0,1590566850.884
1857314.0,1590566850.926
1857351.0,1590566850.965
1857461.0,1590566851.006
1857858.0,1590566851.047
1858169.0,1590566851.086
1858384.0,1590566851.124
1859632.0,1590566851.205
1860890.0,1590566851.286
1860150.0,1590566851.245
1858825.0,1590566851.165
1862001.0,1590566851.365
1862754.0,1590566851.407
1862652.0,1590566851.446
1861627.0,1590566851.484
1860806.0,1590566851.525
1861721.0,1590566851.325
1859898.0,1590566851.606
1860276.0,1590566851.565
1859863.0,1590566851.685
1859871.0,1590566851.646
1860101.0,1590566851.726
1860107.0,1590566851.767
1860550.0,1590566851.807
1860450.0,1590566851.846
1861011.0,1590566851.886
1861539.0,1590566851.925
1861830.0,1590566851.965
1862666.0,1590566852.007
1863277.0,1590566852.046
1863801.0,1590566852.086
1864179.0,1590566852.127
1863499.0,1590566852.166
1862172.0,1590566852.207
1860959.0,1590566852.246
1860083.0,1590566852.285
1859329.0,1590566852.325
1858936.0,1590566852.367
1858601.0,1590566852.487
1858522.0,1590566852.527
1858937.0,1590566852.567
1859065.0,1590566852.609
1859380.0,1590566852.645
1859915.0,1590566852.685
1858982.0,1590566852.407
1858785.0,1590566852.446
1860955.0,1590566852.766
1862121.0,1590566852.847
1861450.0,1590566852.807
1862528.0,1590566852.887
1861956.0,1590566852.927
1860531.0,1590566852.727
1860154.0,1590566852.968
1858927.0,1590566853.006
1857635.0,1590566853.046
1856799.0,1590566853.087
1855914.0,1590566853.125
1855514.0,1590566853.165
1855369.0,1590566853.207
1855227.0,1590566853.246
1855240.0,1590566853.286
1855075.0,1590566853.327
1855314.0,1590566853.366
1855580.0,1590566853.407
1856048.0,1590566853.448
1856348.0,1590566853.487
1856988.0,1590566853.527
1857263.0,1590566853.568
1858097.0,1590566853.608
1858532.0,1590566853.648
1859257.0,1590566853.689
1859652.0,1590566853.726
1858434.0,1590566853.766
1856731.0,1590566853.808
1855163.0,1590566853.847
1853783.0,1590566853.887
1851683.0,1590566854.009
1852766.0,1590566853.928
1851218.0,1590566854.05
1850651.0,1590566854.086
1851799.0,1590566853.968
1850534.0,1590566854.168
1850765.0,1590566854.127
1850663.0,1590566854.208
1851226.0,1590566854.289
1850871.0,1590566854.247
1851734.0,1590566854.328
1851952.0,1590566854.368
1852356.0,1590566854.41
1852834.0,1590566854.449
1853472.0,1590566854.487
1854044.0,1590566854.528
1854768.0,1590566854.567
1853946.0,1590566854.608
1852199.0,1590566854.649
1850825.0,1590566854.688
1849549.0,1590566854.728
1848708.0,1590566854.77
1847930.0,1590566854.809
1847720.0,1590566854.849
1847153.0,1590566854.888
1846937.0,1590566854.927
1846734.0,1590566854.968
1846563.0,1590566855.01
1846667.0,1590566855.048
1846994.0,1590566855.088
1847547.0,1590566855.13
1847784.0,1590566855.169
1848296.0,1590566855.21
1848942.0,1590566855.248
1849189.0,1590566855.288
1849859.0,1590566855.328
1849925.0,1590566855.369
1848382.0,1590566855.409
1846903.0,1590566855.449
1845826.0,1590566855.49
1845052.0,1590566855.529
1844465.0,1590566855.569
1844240.0,1590566855.611
1844127.0,1590566855.648
1844020.0,1590566855.693
1843664.0,1590566855.735
1843785.0,1590566855.771
1843867.0,1590566855.809
1844351.0,1590566855.849
1844745.0,1590566855.888
1845195.0,1590566855.929
1846042.0,1590566855.97
1846188.0,1590566856.01
1847051.0,1590566856.049
1847489.0,1590566856.091
1847604.0,1590566856.13
1846056.0,1590566856.168
1844433.0,1590566856.21
1843090.0,1590566856.249
1842248.0,1590566856.289
1841211.0,1590566856.33
1840804.0,1590566856.369
1840792.0,1590566856.41
1840740.0,1590566856.451
1840311.0,1590566856.49
1840446.0,1590566856.53
1840371.0,1590566856.57
1840827.0,1590566856.61
1841429.0,1590566856.649
1841835.0,1590566856.69
1842543.0,1590566856.73
1843353.0,1590566856.77
1844256.0,1590566856.812
1844848.0,1590566856.85
1845668.0,1590566856.891
1844877.0,1590566856.932
1843054.0,1590566856.969
1841152.0,1590566857.01
1840182.0,1590566857.051
1838730.0,1590566857.09
1838051.0,1590566857.13
1837525.0,1590566857.171
1837553.0,1590566857.211
1837283.0,1590566857.251
1837046.0,1590566857.292
1836914.0,1590566857.329
1837334.0,1590566857.369
1837701.0,1590566857.411
1838333.0,1590566857.45
1838943.0,1590566857.49
1839683.0,1590566857.532
1840422.0,1590566857.571
1841235.0,1590566857.612
1842048.0,1590566857.652
1842731.0,1590566857.69
1843522.0,1590566857.73
1843212.0,1590566857.771
1841432.0,1590566857.811
1839625.0,1590566857.85
1838286.0,1590566857.892
1837070.0,1590566857.931
1835915.0,1590566857.971
1835415.0,1590566858.013
1835172.0,1590566858.05
1834746.0,1590566858.09
1834737.0,1590566858.131
1834543.0,1590566858.171
1834784.0,1590566858.212
1835088.0,1590566858.252
1835659.0,1590566858.291
1836311.0,1590566858.331
1836636.0,1590566858.372
1837415.0,1590566858.412
1838114.0,1590566858.452
1838750.0,1590566858.493
1839596.0,1590566858.53
1840385.0,1590566858.571
1840055.0,1590566858.613
1838247.0,1590566858.651
1836467.0,1590566858.691
1835086.0,1590566858.733
1834070.0,1590566858.772
1833511.0,1590566858.813
1832877.0,1590566858.853
1832806.0,1590566858.893
1832516.0,1590566858.931
1832451.0,1590566858.972
1832514.0,1590566859.012
1834179.0,1590566859.093
1832630.0,1590566859.052
1835653.0,1590566859.132
1837372.0,1590566859.172
1839789.0,1590566859.214
1843124.0,1590566859.253
1846367.0,1590566859.291
1848419.0,1590566859.332
1850266.0,1590566859.371
1850866.0,1590566859.412
1849989.0,1590566859.453
1848377.0,1590566859.492
1846958.0,1590566859.574
1847575.0,1590566859.532
1846604.0,1590566859.614
1846534.0,1590566859.653
1846494.0,1590566859.692
1846152.0,1590566859.732
1846255.0,1590566859.772
1846643.0,1590566859.814
1847053.0,1590566859.852
1847356.0,1590566859.893
1847773.0,1590566859.934
1848235.0,1590566859.973
1848822.0,1590566860.012
1849212.0,1590566860.053
1849733.0,1590566860.092
1850593.0,1590566860.132
1851073.0,1590566860.174
1849980.0,1590566860.214
1848118.0,1590566860.253
1846551.0,1590566860.294
1845207.0,1590566860.334
1844304.0,1590566860.372
1843666.0,1590566860.414
1843711.0,1590566860.452
1843724.0,1590566860.493
1843423.0,1590566860.534
1843184.0,1590566860.573
1843436.0,1590566860.614
1843673.0,1590566860.655
1844157.0,1590566860.694
1844693.0,1590566860.732
1845267.0,1590566860.773
1845813.0,1590566860.812
1846762.0,1590566860.851
1847248.0,1590566860.892
1847814.0,1590566860.932
1848298.0,1590566860.972
1847129.0,1590566861.015
1845173.0,1590566861.053
1843490.0,1590566861.093
1842597.0,1590566861.134
1841557.0,1590566861.173
1841556.0,1590566861.254
1841343.0,1590566861.214
1842111.0,1590566861.293
1842796.0,1590566861.333
1843681.0,1590566861.374
1845209.0,1590566861.414
1846987.0,1590566861.453
1848134.0,1590566861.495
1849280.0,1590566861.534
1850126.0,1590566861.574
1850588.0,1590566861.616
1851175.0,1590566861.655
1851774.0,1590566861.695
1852463.0,1590566861.736
1853020.0,1590566861.775
1853410.0,1590566861.816
1851805.0,1590566861.857
1849548.0,1590566861.896
1847736.0,1590566861.934
1846520.0,1590566861.976
1845240.0,1590566862.015
1844128.0,1590566862.055
1843584.0,1590566862.096
1843284.0,1590566862.136
1843108.0,1590566862.176
1842678.0,1590566862.218
1843065.0,1590566862.256
1842979.0,1590566862.294
1843543.0,1590566862.336
1843806.0,1590566862.375
1844336.0,1590566862.416
1844691.0,1590566862.456
1845452.0,1590566862.496
1845961.0,1590566862.536
1846718.0,1590566862.577
1847292.0,1590566862.617
1847969.0,1590566862.657
1847105.0,1590566862.696
1845037.0,1590566862.735
1843683.0,1590566862.775
1842299.0,1590566862.817
1841162.0,1590566862.856
1840501.0,1590566862.896
1840164.0,1590566862.937
1839987.0,1590566862.977
1839549.0,1590566863.018
1839439.0,1590566863.056
1839180.0,1590566863.095
1839674.0,1590566863.136
1840022.0,1590566863.177
1840476.0,1590566863.217
1840778.0,1590566863.256
1841407.0,1590566863.298
1841840.0,1590566863.337
1842501.0,1590566863.374
1843173.0,1590566863.417
1842936.0,1590566863.456
1841208.0,1590566863.495
1839377.0,1590566863.537
1837992.0,1590566863.576
1837381.0,1590566863.617
1836832.0,1590566863.657
1836885.0,1590566863.696
1836834.0,1590566863.737
1836327.0,1590566863.778
1836128.0,1590566863.818
1835987.0,1590566863.857
1836213.0,1590566863.899
1836619.0,1590566863.936
1837133.0,1590566863.976
1837566.0,1590566864.018
1838093.0,1590566864.057
1838811.0,1590566864.097
1839340.0,1590566864.138
1839958.0,1590566864.177
1838825.0,1590566864.218
1836610.0,1590566864.259
1834995.0,1590566864.296
1833184.0,1590566864.336
1832307.0,1590566864.378
1831416.0,1590566864.418
1831080.0,1590566864.457
1830904.0,1590566864.499
1830468.0,1590566864.538
1830012.0,1590566864.578
1830153.0,1590566864.62
1830339.0,1590566864.658
1830641.0,1590566864.697
1831063.0,1590566864.738
1831411.0,1590566864.777
1832010.0,1590566864.818
1832664.0,1590566864.859
1833043.0,1590566864.898
1833118.0,1590566864.938
1830867.0,1590566864.979
1828533.0,1590566865.019
1826453.0,1590566865.057
1824460.0,1590566865.098
1822832.0,1590566865.137
1821899.0,1590566865.178
1821306.0,1590566865.22
1820973.0,1590566865.258
1820324.0,1590566865.298
1819883.0,1590566865.34
1819633.0,1590566865.379
1819657.0,1590566865.418
1819927.0,1590566865.458
1820310.0,1590566865.498
1820537.0,1590566865.538
1820934.0,1590566865.579
1821567.0,1590566865.619
1821958.0,1590566865.659
1822555.0,1590566865.7
1823117.0,1590566865.739
1822024.0,1590566865.779
1819480.0,1590566865.819
1816862.0,1590566865.858
1814651.0,1590566865.898
1812569.0,1590566865.939
1810710.0,1590566865.978
1809814.0,1590566866.019
1808885.0,1590566866.06
1808299.0,1590566866.099
1807800.0,1590566866.139
1807191.0,1590566866.181
1807164.0,1590566866.22
1807265.0,1590566866.258
1807598.0,1590566866.299
1807705.0,1590566866.338
1808293.0,1590566866.379
1808828.0,1590566866.421
1809249.0,1590566866.459
1809900.0,1590566866.499
1810565.0,1590566866.541
1811412.0,1590566866.58
1811985.0,1590566866.621
1811192.0,1590566866.659
1808593.0,1590566866.698
1806227.0,1590566866.739
1803888.0,1590566866.78
1801967.0,1590566866.82
1800741.0,1590566866.859
1799815.0,1590566866.901
1799242.0,1590566866.94
1798645.0,1590566866.98
1798239.0,1590566867.02
1797906.0,1590566867.059
1798060.0,1590566867.099
1798397.0,1590566867.14
1798499.0,1590566867.18
1799099.0,1590566867.22
1799512.0,1590566867.261
1800235.0,1590566867.3
1800882.0,1590566867.34
1801431.0,1590566867.382
1802352.0,1590566867.42
1802942.0,1590566867.459
1803828.0,1590566867.5
1803758.0,1590566867.54
1801633.0,1590566867.58
1799470.0,1590566867.622
1797519.0,1590566867.66
1796317.0,1590566867.701
1795149.0,1590566867.742
1794768.0,1590566867.779
1794500.0,1590566867.82
1793604.0,1590566867.861
1793172.0,1590566867.9
1792974.0,1590566867.94
1793029.0,1590566867.982
1793304.0,1590566868.022
1793817.0,1590566868.061
1794078.0,1590566868.102
1794631.0,1590566868.139
1795191.0,1590566868.18
1795828.0,1590566868.222
1796535.0,1590566868.26
1796562.0,1590566868.3
1794626.0,1590566868.342
1791310.0,1590566868.422
1790235.0,1590566868.463
1792439.0,1590566868.381
1789711.0,1590566868.54
1789735.0,1590566868.499
1789770.0,1590566868.582
1789486.0,1590566868.621
1789797.0,1590566868.66
1790503.0,1590566868.701
1792188.0,1590566868.781
1791281.0,1590566868.74
1793025.0,1590566868.823
1794614.0,1590566868.901
1793978.0,1590566868.861
1795910.0,1590566868.943
1796844.0,1590566868.982
1796841.0,1590566869.021
1794698.0,1590566869.062
1792581.0,1590566869.101
1791057.0,1590566869.141
1789829.0,1590566869.182
1789217.0,1590566869.222
1789895.0,1590566869.262
1791518.0,1590566869.303
1792539.0,1590566869.342
1793544.0,1590566869.381
1794438.0,1590566869.423
1798543.0,1590566869.461
1808287.0,1590566869.543
1803613.0,1590566869.501
1814186.0,1590566869.582
1819719.0,1590566869.623
1823913.0,1590566869.663
1829096.0,1590566869.743
1827008.0,1590566869.703
1830846.0,1590566869.782
1831293.0,1590566869.822
1827801.0,1590566869.903
1826393.0,1590566869.942
1824968.0,1590566869.982
1829796.0,1590566869.861
1823587.0,1590566870.024
1822468.0,1590566870.103
1822642.0,1590566870.063
1821985.0,1590566870.142
1821018.0,1590566870.222
1821409.0,1590566870.181
1820972.0,1590566870.302
1821041.0,1590566870.342
1821568.0,1590566870.384
1821575.0,1590566870.424
1822110.0,1590566870.463
1822376.0,1590566870.505
1820874.0,1590566870.263
1822753.0,1590566870.542
1823681.0,1590566870.582
1823110.0,1590566870.624
1818352.0,1590566870.703
1814059.0,1590566870.783
1820946.0,1590566870.662
1816106.0,1590566870.744
1812723.0,1590566870.824
1812020.0,1590566870.865
1811454.0,1590566870.904
1811031.0,1590566870.942
1810640.0,1590566870.983
1810142.0,1590566871.063
1809962.0,1590566871.023
1810677.0,1590566871.143
1810288.0,1590566871.104
1811124.0,1590566871.183
1811608.0,1590566871.225
1812578.0,1590566871.264
1812836.0,1590566871.304
1813795.0,1590566871.345
1814951.0,1590566871.382
1815859.0,1590566871.423
1815379.0,1590566871.464
1814647.0,1590566871.503
1814256.0,1590566871.543
1814506.0,1590566871.585
1815584.0,1590566871.624
1816334.0,1590566871.664
1817244.0,1590566871.705
1817615.0,1590566871.744
1817576.0,1590566871.783
1817418.0,1590566871.825
1817728.0,1590566871.903
1817855.0,1590566871.945
1817550.0,1590566871.863
1818160.0,1590566871.984
1818762.0,1590566872.025
1819121.0,1590566872.066
1819775.0,1590566872.105
1820463.0,1590566872.143
1821245.0,1590566872.184
1821892.0,1590566872.224
1822574.0,1590566872.264
1822649.0,1590566872.305
1820752.0,1590566872.344
1818551.0,1590566872.385
1817055.0,1590566872.427
1815692.0,1590566872.465
1814845.0,1590566872.503
1814549.0,1590566872.545
1814085.0,1590566872.584
1813851.0,1590566872.625
1813519.0,1590566872.665
1813233.0,1590566872.705
1813373.0,1590566872.745
1813843.0,1590566872.786
1814400.0,1590566872.826
1814620.0,1590566872.866
1815278.0,1590566872.905
1816066.0,1590566872.944
1816364.0,1590566872.984
1817166.0,1590566873.023
1817754.0,1590566873.062
1817851.0,1590566873.101
1816044.0,1590566873.14
1814076.0,1590566873.179
1813105.0,1590566873.218
1812302.0,1590566873.257
1811834.0,1590566873.296
1811859.0,1590566873.335
1811806.0,1590566873.374
1811749.0,1590566873.413
1811650.0,1590566873.452
1812037.0,1590566873.491
1812418.0,1590566873.53
1812858.0,1590566873.569
1813485.0,1590566873.608
1814515.0,1590566873.647
1815114.0,1590566873.686
1815841.0,1590566873.725
1816628.0,1590566873.764
1817341.0,1590566873.803
1816615.0,1590566873.842
1814772.0,1590566873.881
1813238.0,1590566873.92
1812054.0,1590566873.959
1811056.0,1590566873.998
1810807.0,1590566874.037
1810664.0,1590566874.076
1810733.0,1590566874.115
1810625.0,1590566874.154
1810562.0,1590566874.193
1810708.0,1590566874.232
1811041.0,1590566874.271
1811694.0,1590566874.31
1812631.0,1590566874.349
1813181.0,1590566874.388
1813857.0,1590566874.427
1814759.0,1590566874.466
1815509.0,1590566874.505
1816428.0,1590566874.544
1816593.0,1590566874.583
1815137.0,1590566874.622
1813080.0,1590566874.661
1811651.0,1590566874.7
1810289.0,1590566874.739
1809293.0,1590566874.778
1808806.0,1590566874.817
1808681.0,1590566874.856
1808270.0,1590566874.895
1808308.0,1590566874.934
1808253.0,1590566874.973
1808400.0,1590566875.012
1809019.0,1590566875.051
1809398.0,1590566875.09
1810120.0,1590566875.129
1810550.0,1590566875.168
1811234.0,1590566875.207
1812188.0,1590566875.246
1812833.0,1590566875.285
1813512.0,1590566875.324
1813127.0,1590566875.363
1811239.0,1590566875.402
1809570.0,1590566875.441
1807856.0,1590566875.481
1806905.0,1590566875.521
1805826.0,1590566875.561
1805437.0,1590566875.601
1805352.0,1590566875.641
1805198.0,1590566875.681
1804950.0,1590566875.721
1805215.0,1590566875.761
1805527.0,1590566875.801
1806057.0,1590566875.841
1806550.0,1590566875.881
1807470.0,1590566875.921
1808229.0,1590566875.961
1808749.0,1590566876.001
1809679.0,1590566876.041
1810329.0,1590566876.081
1811378.0,1590566876.121
1811728.0,1590566876.161
1810262.0,1590566876.201
1808768.0,1590566876.241
1807467.0,1590566876.281
1806264.0,1590566876.321
1805539.0,1590566876.361
1805405.0,1590566876.401
1805110.0,1590566876.441
1805252.0,1590566876.481
1805058.0,1590566876.521
1805227.0,1590566876.561
1805492.0,1590566876.601
1806089.0,1590566876.641
1806631.0,1590566876.681
1807326.0,1590566876.721
1807927.0,1590566876.761
1808665.0,1590566876.801
1809337.0,1590566876.841
1810043.0,1590566876.881
1811079.0,1590566876.921
1812051.0,1590566876.961
1812265.0,1590566877.001
1811089.0,1590566877.041
1809432.0,1590566877.081
1808189.0,1590566877.121
1807421.0,1590566877.161
1806928.0,1590566877.201
1806838.0,1590566877.241
1806898.0,1590566877.281
1806815.0,1590566877.321
1806880.0,1590566877.361
1806819.0,1590566877.401
1807242.0,1590566877.441
1807793.0,1590566877.481
1808390.0,1590566877.521
1809031.0,1590566877.561
1809558.0,1590566877.601
1810213.0,1590566877.641
1811118.0,1590566877.681
1811888.0,1590566877.721
1812151.0,1590566877.761
1810685.0,1590566877.801
1809512.0,1590566877.841
1808490.0,1590566877.881
1807818.0,1590566877.921
1807490.0,1590566877.961
1807782.0,1590566878.001
1807724.0,1590566878.041
1807718.0,1590566878.081
1807915.0,1590566878.121
1808466.0,1590566878.161
1808632.0,1590566878.201
1809302.0,1590566878.241
1809903.0,1590566878.281
1810797.0,1590566878.321
1811724.0,1590566878.361
1812223.0,1590566878.401
1813078.0,1590566878.441
1814027.0,1590566878.481
1813875.0,1590566878.521
1812455.0,1590566878.561
1811177.0,1590566878.601
1810127.0,1590566878.641
1809161.0,1590566878.681
1808450.0,1590566878.721
1808360.0,1590566878.761
1808351.0,1590566878.801
1808313.0,1590566878.841
1808478.0,1590566878.881
1808735.0,1590566878.921
1809029.0,1590566878.961
1809753.0,1590566879.001
1810548.0,1590566879.041
1811060.0,1590566879.081
1811912.0,1590566879.121
1812791.0,1590566879.161
1813502.0,1590566879.201
1814382.0,1590566879.241
1815195.0,1590566879.281
1814660.0,1590566879.321
1813199.0,1590566879.361
1811682.0,1590566879.401
1810433.0,1590566879.441
1809360.0,1590566879.481
1808510.0,1590566879.521
1808049.0,1590566879.561
1808220.0,1590566879.601
1808090.0,1590566879.641
1807926.0,1590566879.681
1808102.0,1590566879.721
1808569.0,1590566879.761
1809495.0,1590566879.841
1808886.0,1590566879.801
1810086.0,1590566879.881
1810844.0,1590566879.921
1811501.0,1590566879.961
1814246.0,1590566880.081
1815257.0,1590566880.121
1812354.0,1590566880.001
1813225.0,1590566880.041
1814800.0,1590566880.201
1815803.0,1590566880.161
1813328.0,1590566880.241
1811308.0,1590566880.321
1812141.0,1590566880.281
1810269.0,1590566880.401
1810425.0,1590566880.361
1810419.0,1590566880.441
1810410.0,1590566880.481
1810530.0,1590566880.521
1810830.0,1590566880.561
1811196.0,1590566880.601
1811689.0,1590566880.641
1812360.0,1590566880.681
1813150.0,1590566880.721
1813927.0,1590566880.761
1814663.0,1590566880.801
1815689.0,1590566880.841
1816594.0,1590566880.881
1817463.0,1590566880.921
1818585.0,1590566880.961
1819487.0,1590566881.001
1819534.0,1590566881.041
1818102.0,1590566881.081
1816701.0,1590566881.121
1815764.0,1590566881.161
1815208.0,1590566881.201
1814630.0,1590566881.241
1814507.0,1590566881.281
1814508.0,1590566881.321
1814554.0,1590566881.361
1814473.0,1590566881.401
1814715.0,1590566881.441
1815088.0,1590566881.481
1815772.0,1590566881.521
1816745.0,1590566881.561
1817615.0,1590566881.601
1818363.0,1590566881.641
1819274.0,1590566881.681
1820251.0,1590566881.721
1821087.0,1590566881.761
1821959.0,1590566881.801
1822797.0,1590566881.841
1821912.0,1590566881.881
1820906.0,1590566881.921
1819958.0,1590566881.961
1819563.0,1590566882.001
1819246.0,1590566882.041
1819516.0,1590566882.081
1819624.0,1590566882.121
1819889.0,1590566882.161
1820004.0,1590566882.201
1820343.0,1590566882.241
1820697.0,1590566882.281
1821398.0,1590566882.321
1822348.0,1590566882.361
1822765.0,1590566882.401
1823711.0,1590566882.441
1824564.0,1590566882.481
1825319.0,1590566882.521
1826461.0,1590566882.561
1827257.0,1590566882.601
1827574.0,1590566882.641
1826154.0,1590566882.681
1824951.0,1590566882.721
1823824.0,1590566882.761
1823298.0,1590566882.801
1823043.0,1590566882.841
1822980.0,1590566882.881
1823037.0,1590566882.921
1822941.0,1590566882.961
1822856.0,1590566883.001
1822856.0,1590566883.041
1823183.0,1590566883.081
1823593.0,1590566883.121
1824164.0,1590566883.161
1824564.0,1590566883.201
1825172.0,1590566883.241
1825910.0,1590566883.281
1826732.0,1590566883.321
1827430.0,1590566883.361
1828333.0,1590566883.401
1829297.0,1590566883.441
1829814.0,1590566883.481
1829250.0,1590566883.521
1827831.0,1590566883.561
1826457.0,1590566883.601
1825482.0,1590566883.641
1824453.0,1590566883.681
1823509.0,1590566883.761
1823722.0,1590566883.721
1823450.0,1590566883.801
1823414.0,1590566883.841
1823425.0,1590566883.881
1823559.0,1590566883.921
1823897.0,1590566883.961
1824542.0,1590566884.001
1824835.0,1590566884.041
1825832.0,1590566884.081
1827038.0,1590566884.161
1826367.0,1590566884.121
1827860.0,1590566884.201
1828729.0,1590566884.241
1829388.0,1590566884.281
1829677.0,1590566884.321
1828545.0,1590566884.361
1827158.0,1590566884.401
1825673.0,1590566884.441
1824821.0,1590566884.481
1823930.0,1590566884.521
1823352.0,1590566884.561
1823293.0,1590566884.601
1823422.0,1590566884.641
1823265.0,1590566884.681
1823328.0,1590566884.721
1823621.0,1590566884.761
1824139.0,1590566884.801
1824595.0,1590566884.841
1825232.0,1590566884.881
1825945.0,1590566884.921
1826582.0,1590566884.961
1827304.0,1590566884.999
1828125.0,1590566885.039
1828935.0,1590566885.081
1829727.0,1590566885.12
1830722.0,1590566885.16
1831026.0,1590566885.201
1829732.0,1590566885.24
1828403.0,1590566885.28
1827063.0,1590566885.321
1825998.0,1590566885.361
1825345.0,1590566885.4
1825068.0,1590566885.441
1824817.0,1590566885.48
1824770.0,1590566885.52
1824322.0,1590566885.562
1824386.0,1590566885.6
1824752.0,1590566885.64
1824820.0,1590566885.681
1825479.0,1590566885.72
1826069.0,1590566885.761
1826485.0,1590566885.802
1827070.0,1590566885.841
1827953.0,1590566885.881
1828721.0,1590566885.922
1829317.0,1590566885.961
1829940.0,1590566886.001
1830397.0,1590566886.042
1829293.0,1590566886.081
1827927.0,1590566886.121
1827100.0,1590566886.163
1826444.0,1590566886.201
1826098.0,1590566886.241
1826090.0,1590566886.282
1826142.0,1590566886.321
1826101.0,1590566886.362
1825919.0,1590566886.402
1826250.0,1590566886.441
1826699.0,1590566886.482
1827126.0,1590566886.523
1827802.0,1590566886.562
1829381.0,1590566886.643
1828455.0,1590566886.602
1830379.0,1590566886.722
1829847.0,1590566886.682
1831283.0,1590566886.764
1831748.0,1590566886.802
1830866.0,1590566886.842
1828111.0,1590566886.922
1829419.0,1590566886.883
1827501.0,1590566886.963
1826811.0,1590566887.003
1826777.0,1590566887.042
1826767.0,1590566887.082
1826668.0,1590566887.123
1826569.0,1590566887.163
1826693.0,1590566887.202
1826881.0,1590566887.244
1827157.0,1590566887.283
1827694.0,1590566887.323
1828272.0,1590566887.364
1828904.0,1590566887.403
1829628.0,1590566887.443
1829974.0,1590566887.484
1830825.0,1590566887.523
1831452.0,1590566887.564
1832229.0,1590566887.604
1832490.0,1590566887.643
1830887.0,1590566887.683
1829034.0,1590566887.724
1827377.0,1590566887.764
1825798.0,1590566887.803
1824928.0,1590566887.844
1824029.0,1590566887.883
1823598.0,1590566887.923
1823051.0,1590566887.965
1822519.0,1590566888.004
1822355.0,1590566888.044
1822259.0,1590566888.085
1822412.0,1590566888.124
1822772.0,1590566888.164
1823189.0,1590566888.205
1823775.0,1590566888.244
1824213.0,1590566888.284
1824846.0,1590566888.325
1825619.0,1590566888.365
1826021.0,1590566888.404
1826507.0,1590566888.445
1824890.0,1590566888.484
1822675.0,1590566888.524
1820757.0,1590566888.566
1819155.0,1590566888.604
1817758.0,1590566888.644
1816664.0,1590566888.685
1816376.0,1590566888.725
1815643.0,1590566888.765
1815284.0,1590566888.806
1815026.0,1590566888.845
1814803.0,1590566888.885
1814949.0,1590566888.926
1815280.0,1590566888.966
1815783.0,1590566889.005
1816107.0,1590566889.046
1816686.0,1590566889.085
1817260.0,1590566889.125
1817806.0,1590566889.167
1818439.0,1590566889.205
1819225.0,1590566889.245
1820044.0,1590566889.286
1819242.0,1590566889.325
1817177.0,1590566889.366
1815018.0,1590566889.406
1813050.0,1590566889.445
1811446.0,1590566889.486
1810152.0,1590566889.527
1809546.0,1590566889.566
1809082.0,1590566889.606
1808351.0,1590566889.647
1807901.0,1590566889.686
1807766.0,1590566889.726
1807709.0,1590566889.768
1807892.0,1590566889.806
1808019.0,1590566889.846
1808700.0,1590566889.887
1809050.0,1590566889.926
1809508.0,1590566889.967
1809859.0,1590566890.007
1810603.0,1590566890.046
1811127.0,1590566890.086
1811846.0,1590566890.127
1812892.0,1590566890.167
1812434.0,1590566890.206
1810303.0,1590566890.247
1808142.0,1590566890.286
1806379.0,1590566890.326
1804712.0,1590566890.368
1803444.0,1590566890.406
1802590.0,1590566890.447
1802366.0,1590566890.488
1801256.0,1590566890.527
1800996.0,1590566890.567
1800535.0,1590566890.608
1800241.0,1590566890.647
1800624.0,1590566890.687
1800623.0,1590566890.728
1801102.0,1590566890.768
1801424.0,1590566890.807
1801898.0,1590566890.848
1802343.0,1590566890.887
1802930.0,1590566890.927
1803323.0,1590566890.969
1802108.0,1590566891.007
1799921.0,1590566891.047
1797929.0,1590566891.088
1796638.0,1590566891.127
1795493.0,1590566891.168
1795012.0,1590566891.208
1794693.0,1590566891.247
1794219.0,1590566891.287
1793836.0,1590566891.329
1793554.0,1590566891.368
1793726.0,1590566891.408
1793825.0,1590566891.449
1794639.0,1590566891.488
1794829.0,1590566891.528
1795558.0,1590566891.569
1796082.0,1590566891.608
1796744.0,1590566891.648
1797470.0,1590566891.689
1798431.0,1590566891.728
1798100.0,1590566891.768
1796002.0,1590566891.809
1793374.0,1590566891.848
1791371.0,1590566891.888
1789868.0,1590566891.929
1788215.0,1590566891.969
1787558.0,1590566892.008
1787064.0,1590566892.049
1786577.0,1590566892.088
1786113.0,1590566892.128
1785730.0,1590566892.17
1785672.0,1590566892.208
1785964.0,1590566892.248
1786562.0,1590566892.289
1787160.0,1590566892.328
1787746.0,1590566892.369
1788296.0,1590566892.409
1789231.0,1590566892.448
1789730.0,1590566892.488
1790590.0,1590566892.529
1790581.0,1590566892.569
1788184.0,1590566892.608
1785093.0,1590566892.649
1782819.0,1590566892.689
1780592.0,1590566892.729
1778607.0,1590566892.77
1777630.0,1590566892.809
1776891.0,1590566892.849
1776415.0,1590566892.89
1775741.0,1590566892.929
1775711.0,1590566892.969
1775984.0,1590566893.01
1776643.0,1590566893.049
1778983.0,1590566893.089
1781526.0,1590566893.13
1783909.0,1590566893.17
1787493.0,1590566893.209
1791236.0,1590566893.25
1794264.0,1590566893.289
1797033.0,1590566893.329
1798216.0,1590566893.371
1796745.0,1590566893.409
1793963.0,1590566893.449
1791540.0,1590566893.49
1788961.0,1590566893.529
1786876.0,1590566893.57
1785455.0,1590566893.61
1784510.0,1590566893.649
1783571.0,1590566893.689
1782863.0,1590566893.731
1782167.0,1590566893.77
1781906.0,1590566893.809
1781959.0,1590566893.851
1782318.0,1590566893.89
1782673.0,1590566893.93
1783187.0,1590566893.971
1783842.0,1590566894.01
1784678.0,1590566894.05
1785460.0,1590566894.091
1786182.0,1590566894.13
1787147.0,1590566894.17
1788122.0,1590566894.211
1787954.0,1590566894.25
1785271.0,1590566894.29
1782873.0,1590566894.331
1780866.0,1590566894.371
1779127.0,1590566894.41
1777864.0,1590566894.451
1777432.0,1590566894.49
1777368.0,1590566894.53
1776616.0,1590566894.572
1776504.0,1590566894.61
1776350.0,1590566894.65
1776741.0,1590566894.691
1777151.0,1590566894.73
1777678.0,1590566894.771
1778397.0,1590566894.811
1779025.0,1590566894.85
1779929.0,1590566894.89
1780725.0,1590566894.931
1781940.0,1590566894.971
1782652.0,1590566895.01
1782418.0,1590566895.052
1780340.0,1590566895.091
1778479.0,1590566895.131
1777428.0,1590566895.172
1776645.0,1590566895.211
1776155.0,1590566895.251
1776376.0,1590566895.292
1776550.0,1590566895.331
1776376.0,1590566895.371
1776269.0,1590566895.412
1776792.0,1590566895.451
1777417.0,1590566895.491
1778243.0,1590566895.532
1779265.0,1590566895.572
1780398.0,1590566895.611
1781151.0,1590566895.652
1782158.0,1590566895.691
1783264.0,1590566895.731
1784547.0,1590566895.773
1785122.0,1590566895.811
1783537.0,1590566895.851
1781556.0,1590566895.892
1780344.0,1590566895.931
1779685.0,1590566895.972
1779337.0,1590566896.012
1779082.0,1590566896.051
1779402.0,1590566896.091
1779473.0,1590566896.133
1779707.0,1590566896.172
1780527.0,1590566896.253
1782474.0,1590566896.332
1783527.0,1590566896.373
1784406.0,1590566896.412
1779795.0,1590566896.212
1781419.0,1590566896.292
1785433.0,1590566896.452
1787448.0,1590566896.532
1786428.0,1590566896.493
1788765.0,1590566896.573
1789757.0,1590566896.613
1789080.0,1590566896.652
1787003.0,1590566896.692
1785560.0,1590566896.733
1784642.0,1590566896.773
1783777.0,1590566896.812
1783534.0,1590566896.853
1783575.0,1590566896.892
1783792.0,1590566896.932
1784132.0,1590566897.023
1784538.0,1590566897.061
1784769.0,1590566897.101
1785879.0,1590566897.142
1786408.0,1590566897.181
1787499.0,1590566897.222
1788582.0,1590566897.262
1789526.0,1590566897.301
1790704.0,1590566897.342
1791809.0,1590566897.383
1793023.0,1590566897.422
1794029.0,1590566897.462
1794109.0,1590566897.503
1792513.0,1590566897.542
1791043.0,1590566897.582
1790175.0,1590566897.624
1789558.0,1590566897.662
1789079.0,1590566897.702
1789339.0,1590566897.743
1789718.0,1590566897.782
1789887.0,1590566897.823
1790498.0,1590566897.863
1790650.0,1590566897.902
1791524.0,1590566897.942
1792317.0,1590566897.983
1793404.0,1590566898.023
1794214.0,1590566898.062
1795372.0,1590566898.103
1796521.0,1590566898.142
1797543.0,1590566898.182
1798547.0,1590566898.224
1799777.0,1590566898.262
1800735.0,1590566898.302
1801821.0,1590566898.344
1801599.0,1590566898.383
1800103.0,1590566898.423
1799117.0,1590566898.464
1798391.0,1590566898.503
1797849.0,1590566898.543
1797731.0,1590566898.584
1797976.0,1590566898.623
1798361.0,1590566898.663
1798462.0,1590566898.704
1798998.0,1590566898.743
1799563.0,1590566898.783
1802027.0,1590566898.903
1800105.0,1590566898.825
1800867.0,1590566898.863
1802737.0,1590566898.944
1803362.0,1590566898.983
1804711.0,1590566899.024
1806620.0,1590566899.103
1805441.0,1590566899.064
1807385.0,1590566899.184
1807422.0,1590566899.143
1805216.0,1590566899.263
1804756.0,1590566899.304
1806250.0,1590566899.224
1804640.0,1590566899.383
1805195.0,1590566899.463
1804948.0,1590566899.425
1804486.0,1590566899.343
1805668.0,1590566899.503
1805775.0,1590566899.545
1807186.0,1590566899.624
1806252.0,1590566899.584
1807750.0,1590566899.665
1808765.0,1590566899.704
1809560.0,1590566899.744
1810438.0,1590566899.785
1811347.0,1590566899.824
1812434.0,1590566899.864
1812658.0,1590566899.905
1811679.0,1590566899.944
1811836.0,1590566899.984
1813133.0,1590566900.026
1814355.0,1590566900.064
1815622.0,1590566900.104
1817673.0,1590566900.145
1819570.0,1590566900.184
1821185.0,1590566900.225
1822474.0,1590566900.265
1823120.0,1590566900.304
1823977.0,1590566900.344
1824545.0,1590566900.385
1824944.0,1590566900.425
1825678.0,1590566900.464
1826169.0,1590566900.505
1826807.0,1590566900.544
1827632.0,1590566900.584
1828439.0,1590566900.626
1829191.0,1590566900.664
1828803.0,1590566900.704
1827275.0,1590566900.746
1825763.0,1590566900.785
1824460.0,1590566900.825
1823587.0,1590566900.866
1822985.0,1590566900.905
1822757.0,1590566900.945
1822776.0,1590566900.986
1822429.0,1590566901.025
1822517.0,1590566901.065
1822621.0,1590566901.106
1822952.0,1590566901.145
1823355.0,1590566901.185
1824002.0,1590566901.227
1824584.0,1590566901.265
1825414.0,1590566901.305
1826146.0,1590566901.346
1826612.0,1590566901.385
1827354.0,1590566901.426
1828061.0,1590566901.466
1827003.0,1590566901.505
1825324.0,1590566901.545
1824224.0,1590566901.586
1822701.0,1590566901.626
1821581.0,1590566901.665
1820776.0,1590566901.706
1820641.0,1590566901.745
1820553.0,1590566901.785
1820264.0,1590566901.827
1820261.0,1590566901.865
1820451.0,1590566901.905
1820553.0,1590566901.947
1820928.0,1590566901.986
1821498.0,1590566902.026
1821950.0,1590566902.067
1822716.0,1590566902.106
1823125.0,1590566902.146
1823763.0,1590566902.187
1824692.0,1590566902.226
1825362.0,1590566902.266
1825823.0,1590566902.307
1825180.0,1590566902.346
1823403.0,1590566902.386
1821903.0,1590566902.428
1820722.0,1590566902.466
1819358.0,1590566902.506
1818482.0,1590566902.547
1818172.0,1590566902.586
1817936.0,1590566902.627
1817867.0,1590566902.667
1817650.0,1590566902.706
1817719.0,1590566902.746
1817933.0,1590566902.787
1818311.0,1590566902.827
1818853.0,1590566902.866
1819377.0,1590566902.907
1820005.0,1590566902.946
1820954.0,1590566902.986
1821532.0,1590566903.028
1822065.0,1590566903.066
1822974.0,1590566903.107
1823825.0,1590566903.148
1824539.0,1590566903.187
1824615.0,1590566903.227
1823157.0,1590566903.268
1821693.0,1590566903.307
1820419.0,1590566903.347
1819473.0,1590566903.388
1818741.0,1590566903.427
1818420.0,1590566903.467
1818362.0,1590566903.508
1818255.0,1590566903.547
1818061.0,1590566903.587
1817971.0,1590566903.629
1818125.0,1590566903.667
1818654.0,1590566903.707
1819647.0,1590566903.787
1819241.0,1590566903.748
1820068.0,1590566903.828
1820617.0,1590566903.868
1821329.0,1590566903.907
1822019.0,1590566903.947
1820393.0,1590566904.028
1819020.0,1590566904.067
1818453.0,1590566904.108
1818119.0,1590566904.147
1821712.0,1590566903.988
1818303.0,1590566904.187
1818416.0,1590566904.229
1818300.0,1590566904.267
1818271.0,1590566904.307
1818466.0,1590566904.348
1818891.0,1590566904.387
1819666.0,1590566904.428
1820110.0,1590566904.469
1820750.0,1590566904.508
1821417.0,1590566904.548
1822128.0,1590566904.59
1823099.0,1590566904.63
1823824.0,1590566904.67
1823726.0,1590566904.711
1822550.0,1590566904.75
1821267.0,1590566904.79
1820351.0,1590566904.833
1819643.0,1590566904.871
1819299.0,1590566904.911
1819412.0,1590566904.953
1819252.0,1590566904.992
1819449.0,1590566905.033
1819280.0,1590566905.071
1819446.0,1590566905.11
1819928.0,1590566905.151
1821164.0,1590566905.232
1820691.0,1590566905.192
1822770.0,1590566905.313
1823490.0,1590566905.352
1824443.0,1590566905.392
1821911.0,1590566905.271
1824965.0,1590566905.432
1824620.0,1590566905.471
1823061.0,1590566905.511
1821453.0,1590566905.552
1819135.0,1590566905.632
1818337.0,1590566905.673
1818034.0,1590566905.712
1818044.0,1590566905.752
1817886.0,1590566905.792
1818105.0,1590566905.832
1818342.0,1590566905.871
1818453.0,1590566905.913
1820411.0,1590566905.592
1819595.0,1590566905.992
1818950.0,1590566905.952
1820390.0,1590566906.034
1821084.0,1590566906.073
1821767.0,1590566906.111
1822918.0,1590566906.152
1823453.0,1590566906.192
1823663.0,1590566906.232
1822541.0,1590566906.273
1820731.0,1590566906.312
1819287.0,1590566906.352
1818056.0,1590566906.394
1816841.0,1590566906.434
1816320.0,1590566906.471
1815872.0,1590566906.552
1816130.0,1590566906.513
1815839.0,1590566906.592
1815709.0,1590566906.634
1816126.0,1590566906.672
1816592.0,1590566906.713
1817126.0,1590566906.754
1817794.0,1590566906.793
1818359.0,1590566906.834
1819114.0,1590566906.872
1819932.0,1590566906.912
1821332.0,1590566906.993
1820174.0,1590566907.033
1820634.0,1590566906.952
1818469.0,1590566907.073
1815877.0,1590566907.153
1817284.0,1590566907.114
1814791.0,1590566907.193
1814224.0,1590566907.236
1814183.0,1590566907.272
1813784.0,1590566907.312
1813752.0,1590566907.354
1813785.0,1590566907.393
1814046.0,1590566907.434
1814384.0,1590566907.474
1814951.0,1590566907.513
1815344.0,1590566907.554
1816227.0,1590566907.595
1816768.0,1590566907.635
1817276.0,1590566907.672
1818227.0,1590566907.714
1819030.0,1590566907.753
1819807.0,1590566907.793
1817865.0,1590566907.874
1816426.0,1590566907.914
1819582.0,1590566907.835
1815225.0,1590566907.955
1813474.0,1590566908.033
1814098.0,1590566907.995
1813260.0,1590566908.074
1813286.0,1590566908.113
1812566.0,1590566908.195
1812722.0,1590566908.235
1812983.0,1590566908.274
1813617.0,1590566908.316
1814125.0,1590566908.355
1814712.0,1590566908.393
1812736.0,1590566908.153
1815900.0,1590566908.473
1816490.0,1590566908.514
1815201.0,1590566908.435
1814990.0,1590566908.594
1816392.0,1590566908.555
1812435.0,1590566908.676
1813556.0,1590566908.635
1811419.0,1590566908.755
1811922.0,1590566908.715
1811430.0,1590566908.795
1811324.0,1590566908.874
1811157.0,1590566908.915
1811695.0,1590566908.954
1811419.0,1590566908.834
1812062.0,1590566908.995
1813757.0,1590566909.111
1813100.0,1590566909.071
1814566.0,1590566909.152
1812590.0,1590566909.033
1815468.0,1590566909.191
1816270.0,1590566909.232
1815977.0,1590566909.272
1814655.0,1590566909.311
1813080.0,1590566909.351
1810662.0,1590566909.432
1811607.0,1590566909.392
1810009.0,1590566909.471
1810044.0,1590566909.513
1809556.0,1590566909.593
1809503.0,1590566909.635
1810144.0,1590566909.714
1809782.0,1590566909.552
1809594.0,1590566909.673
1810681.0,1590566909.755
1811471.0,1590566909.794
1812154.0,1590566909.835
1812728.0,1590566909.876
1813498.0,1590566909.915
1814985.0,1590566909.995
1815674.0,1590566910.034
1814179.0,1590566909.955
1814770.0,1590566910.074
1812968.0,1590566910.115
1810062.0,1590566910.194
1808059.0,1590566910.275
1808965.0,1590566910.237
1811330.0,1590566910.154
1807709.0,1590566910.315
1807553.0,1590566910.357
1807264.0,1590566910.434
1807476.0,1590566910.475
1808373.0,1590566910.554
1809010.0,1590566910.596
1809538.0,1590566910.636
1810161.0,1590566910.675
1810745.0,1590566910.717
1812375.0,1590566910.794
1812835.0,1590566910.836
1811634.0,1590566910.874
1807840.0,1590566910.514
1807257.0,1590566910.394
1808264.0,1590566910.956
1809819.0,1590566910.915
1806892.0,1590566910.995
1805671.0,1590566911.036
1805148.0,1590566911.077
1811605.0,1590566910.754
1805118.0,1590566911.114
1804992.0,1590566911.154
1804880.0,1590566911.196
1804935.0,1590566911.236
1804938.0,1590566911.275
1805522.0,1590566911.317
1806113.0,1590566911.356
1806988.0,1590566911.396
1807740.0,1590566911.438
1808305.0,1590566911.474
1808890.0,1590566911.515
1809742.0,1590566911.556
1810501.0,1590566911.595
1811411.0,1590566911.636
1811297.0,1590566911.677
1809761.0,1590566911.716
1808508.0,1590566911.756
1806898.0,1590566911.798
1805947.0,1590566911.835
1805655.0,1590566911.875
1805227.0,1590566911.916
1805205.0,1590566911.955
1805146.0,1590566911.995
1805113.0,1590566912.036
1805152.0,1590566912.074
1805484.0,1590566912.115
1806464.0,1590566912.195
1805942.0,1590566912.156
1807311.0,1590566912.236
1808104.0,1590566912.277
1808542.0,1590566912.316
1809419.0,1590566912.356
1810152.0,1590566912.398
1811065.0,1590566912.437
1811262.0,1590566912.477
1810104.0,1590566912.518
1808841.0,1590566912.555
1807914.0,1590566912.596
1807389.0,1590566912.638
1807103.0,1590566912.676
1807210.0,1590566912.716
1807361.0,1590566912.758
1806974.0,1590566912.797
1807070.0,1590566912.838
1807434.0,1590566912.879
1807665.0,1590566912.916
1808448.0,1590566912.956
1809007.0,1590566912.997
1809680.0,1590566913.037
1810649.0,1590566913.077
1811150.0,1590566913.118
1812110.0,1590566913.157
1813191.0,1590566913.197
1813288.0,1590566913.24
1811908.0,1590566913.276
1810516.0,1590566913.316
1809708.0,1590566913.358
1808891.0,1590566913.397
1808547.0,1590566913.438
1808781.0,1590566913.478
1808775.0,1590566913.517
1808767.0,1590566913.558
1808968.0,1590566913.599
1809223.0,1590566913.639
1809775.0,1590566913.676
1810846.0,1590566913.718
1811289.0,1590566913.757
1812152.0,1590566913.797
1812906.0,1590566913.839
1813751.0,1590566913.877
1814681.0,1590566913.918
1815552.0,1590566913.959
1816408.0,1590566914.037
1816482.0,1590566913.996
1815084.0,1590566914.082
1813356.0,1590566914.117
1812275.0,1590566914.158
1811294.0,1590566914.199
1810548.0,1590566914.239
1810145.0,1590566914.278
1810207.0,1590566914.32
1810145.0,1590566914.357
1810273.0,1590566914.397
1810397.0,1590566914.439
1810700.0,1590566914.477
1811326.0,1590566914.518
1811861.0,1590566914.558
1812667.0,1590566914.595
1813240.0,1590566914.636
1813976.0,1590566914.676
1814833.0,1590566914.716
1815881.0,1590566914.756
1816538.0,1590566914.798
1815849.0,1590566914.877
1817051.0,1590566914.838
1814223.0,1590566914.919
1812718.0,1590566914.958
1811678.0,1590566914.998
1810709.0,1590566915.04
1810282.0,1590566915.079
1809985.0,1590566915.119
1809856.0,1590566915.197
1810111.0,1590566915.161
1809930.0,1590566915.238
1810234.0,1590566915.279
1810668.0,1590566915.318
1811380.0,1590566915.358
1811921.0,1590566915.4
1812726.0,1590566915.44
1814118.0,1590566915.521
1813428.0,1590566915.479
1815216.0,1590566915.558
1816018.0,1590566915.598
1817028.0,1590566915.64
1817224.0,1590566915.678
1815739.0,1590566915.719
1814433.0,1590566915.76
1813292.0,1590566915.799
1812974.0,1590566915.84
1813098.0,1590566915.881
1813866.0,1590566915.918
1815037.0,1590566915.958
1816960.0,1590566916.0
1819691.0,1590566916.04
1822190.0,1590566916.079
1824129.0,1590566916.121
1825331.0,1590566916.16
1825596.0,1590566916.2
1825884.0,1590566916.242
1826394.0,1590566916.278
1826846.0,1590566916.319
1827251.0,1590566916.36
1827903.0,1590566916.399
1828691.0,1590566916.44
1828011.0,1590566916.481
1826461.0,1590566916.52
1825023.0,1590566916.56
1824097.0,1590566916.602
1823582.0,1590566916.641
1823069.0,1590566916.679
1823108.0,1590566916.72
1822969.0,1590566916.759
1822681.0,1590566916.8
1822840.0,1590566916.842
1822944.0,1590566916.88
1823339.0,1590566916.92
1823748.0,1590566916.962
1824239.0,1590566917.001
1824901.0,1590566917.04
1825508.0,1590566917.081
1826338.0,1590566917.119
1826930.0,1590566917.159
1827520.0,1590566917.201
1826555.0,1590566917.241
1824701.0,1590566917.28
1823304.0,1590566917.322
1822088.0,1590566917.361
1821058.0,1590566917.401
1820790.0,1590566917.441
1820682.0,1590566917.48
1820515.0,1590566917.52
1820148.0,1590566917.561
1820209.0,1590566917.6
1820354.0,1590566917.641
1820657.0,1590566917.682
1821242.0,1590566917.721
1821950.0,1590566917.761
1822451.0,1590566917.803
1823129.0,1590566917.84
1823753.0,1590566917.88
1824809.0,1590566917.922
1825424.0,1590566917.96
1825377.0,1590566918.001
1823947.0,1590566918.043
1821932.0,1590566918.082
1820361.0,1590566918.122
1818966.0,1590566918.163
1817727.0,1590566918.2
1816999.0,1590566918.241
1816624.0,1590566918.282
1816428.0,1590566918.321
1816047.0,1590566918.361
1816227.0,1590566918.403
1816167.0,1590566918.442
1816456.0,1590566918.482
1817226.0,1590566918.523
1817577.0,1590566918.56
1818163.0,1590566918.601
1818789.0,1590566918.643
1819462.0,1590566918.681
1820416.0,1590566918.721
1821076.0,1590566918.763
1821963.0,1590566918.802
1821052.0,1590566918.843
1819447.0,1590566918.884
1817651.0,1590566918.921
1816197.0,1590566918.961
1814778.0,1590566919.003
1814222.0,1590566919.042
1813520.0,1590566919.082
1813593.0,1590566919.123
1813174.0,1590566919.162
1813094.0,1590566919.203
1813172.0,1590566919.245
1813401.0,1590566919.281
1813830.0,1590566919.321
1814272.0,1590566919.363
1814898.0,1590566919.402
1815684.0,1590566919.443
1816128.0,1590566919.483
1816987.0,1590566919.522
1817502.0,1590566919.563
1818215.0,1590566919.604
1818608.0,1590566919.642
1817388.0,1590566919.68
1815326.0,1590566919.723
1813728.0,1590566919.762
1812476.0,1590566919.802
1811396.0,1590566919.844
1811333.0,1590566919.882
1810923.0,1590566919.923
1810980.0,1590566919.964
1810706.0,1590566920.004
1810752.0,1590566920.042
1810850.0,1590566920.083
1811419.0,1590566920.122
1811687.0,1590566920.162
1812180.0,1590566920.204
1812832.0,1590566920.244
1813563.0,1590566920.283
1814077.0,1590566920.325
1815092.0,1590566920.364
1815660.0,1590566920.402
1815229.0,1590566920.444
1813687.0,1590566920.482
1812209.0,1590566920.523
1811012.0,1590566920.564
1810031.0,1590566920.603
1809926.0,1590566920.644
1809938.0,1590566920.685
1810021.0,1590566920.724
1809480.0,1590566920.762
1809448.0,1590566920.804
1809527.0,1590566920.843
1810120.0,1590566920.883
1810507.0,1590566920.925
1811063.0,1590566920.963
1811797.0,1590566921.004
1812737.0,1590566921.043
1813194.0,1590566921.081
1814182.0,1590566921.121
1814886.0,1590566921.162
1815923.0,1590566921.201
1815889.0,1590566921.242
1814429.0,1590566921.283
1812547.0,1590566921.322
1810810.0,1590566921.362
1809629.0,1590566921.403
1808831.0,1590566921.442
1808179.0,1590566921.482
1807982.0,1590566921.524
1807487.0,1590566921.563
1807369.0,1590566921.603
1807509.0,1590566921.645
1807681.0,1590566921.684
1808172.0,1590566921.724
1808675.0,1590566921.765
1809422.0,1590566921.805
1810103.0,1590566921.845
1810772.0,1590566921.886
1811425.0,1590566921.923
1812215.0,1590566921.963
1813149.0,1590566922.005
1813759.0,1590566922.045
1813034.0,1590566922.084
1810804.0,1590566922.126
1809194.0,1590566922.165
1808090.0,1590566922.205
1807647.0,1590566922.244
1808018.0,1590566922.283
1808957.0,1590566922.324
1810616.0,1590566922.365
1812579.0,1590566922.404
1814301.0,1590566922.445
1815386.0,1590566922.486
1816201.0,1590566922.525
1816941.0,1590566922.565
1817418.0,1590566922.607
1818017.0,1590566922.646
1818485.0,1590566922.684
1819070.0,1590566922.725
1819716.0,1590566922.764
1820047.0,1590566922.805
1820596.0,1590566922.847
1821416.0,1590566922.885
1821350.0,1590566922.925
1819604.0,1590566922.967
1817220.0,1590566923.004
1815681.0,1590566923.045
1814318.0,1590566923.086
1812830.0,1590566923.125
1811929.0,1590566923.165
1811646.0,1590566923.207
