bvp,time
-0.23,1569566913.25
9.92,1569566913.265625
18.7,1569566913.28125
24.74,1569566913.296875
27.37,1569566913.3125
26.77,1569566913.328125
23.67,1569566913.34375
19.02,1569566913.359375
13.86,1569566913.375
8.96,1569566913.390625
4.94,1569566913.40625
2.18,1569566913.421875
0.83,1569566913.4375
0.8,1569566913.453125
1.71,1569566913.46875
3.06,1569566913.484375
4.33,1569566913.5
5.22,1569566913.515625
5.78,1569566913.53125
6.39,1569566913.546875
7.46,1569566913.5625
9.22,1569566913.578125
11.48,1569566913.59375
13.63,1569566913.609375
14.95,1569566913.625
14.8,1569566913.640625
12.98,1569566913.65625
9.69,1569566913.671875
5.45,1569566913.6875
0.98,1569566913.703125
-3.05,1569566913.71875
-6.05,1569566913.734375
-7.77,1569566913.75
-8.29,1569566913.765625
-8.18,1569566913.78125
-8.25,1569566913.796875
-9.4,1569566913.8125
-12.14,1569566913.828125
-16.42,1569566913.84375
-21.49,1569566913.859375
-26.18,1569566913.875
-29.39,1569566913.890625
-30.48,1569566913.90625
-29.66,1569566913.921875
-27.72,1569566913.9375
-25.73,1569566913.953125
-24.4,1569566913.96875
-23.79,1569566913.984375
-23.28,1569566914.0
-21.91,1569566914.015625
-19.03,1569566914.03125
-14.54,1569566914.046875
-9.17,1569566914.0625
-4.07,1569566914.078125
-0.34,1569566914.09375
1.42,1569566914.109375
1.3,1569566914.125
-0.08,1569566914.140625
-1.94,1569566914.15625
-3.73,1569566914.171875
-5.05,1569566914.1875
-5.65,1569566914.203125
-5.13,1569566914.21875
-3.0,1569566914.234375
1.24,1569566914.25
7.65,1569566914.265625
15.77,1569566914.28125
24.76,1569566914.296875
33.68,1569566914.3125
42.12,1569566914.328125
50.16,1569566914.34375
58.3,1569566914.359375
66.97,1569566914.375
76.08,1569566914.390625
85.01,1569566914.40625
92.7,1569566914.421875
98.09,1569566914.4375
100.44,1569566914.453125
99.48,1569566914.46875
95.29,1569566914.484375
88.21,1569566914.5
78.61,1569566914.515625
66.76,1569566914.53125
52.9,1569566914.546875
37.28,1569566914.5625
20.37,1569566914.578125
2.81,1569566914.59375
-14.63,1569566914.609375
-31.27,1569566914.625
-46.62,1569566914.640625
-60.3,1569566914.65625
-71.81,1569566914.671875
-80.36,1569566914.6875
-84.93,1569566914.703125
-84.74,1569566914.71875
-79.86,1569566914.734375
-71.43,1569566914.75
-61.55,1569566914.765625
-52.44,1569566914.78125
-45.66,1569566914.796875
-41.47,1569566914.8125
-39.06,1569566914.828125
-37.06,1569566914.84375
-34.32,1569566914.859375
-30.48,1569566914.875
-25.89,1569566914.890625
-21.4,1569566914.90625
-17.81,1569566914.921875
-15.69,1569566914.9375
-15.18,1569566914.953125
-16.19,1569566914.96875
-18.5,1569566914.984375
-21.96,1569566915.0
-26.49,1569566915.015625
-31.99,1569566915.03125
-38.19,1569566915.046875
-44.55,1569566915.0625
-50.34,1569566915.078125
-54.83,1569566915.09375
-57.62,1569566915.109375
-58.7,1569566915.125
-58.36,1569566915.140625
-56.87,1569566915.15625
-54.15,1569566915.171875
-49.79,1569566915.1875
-43.24,1569566915.203125
-34.3,1569566915.21875
-23.47,1569566915.234375
-11.94,1569566915.25
-1.16,1569566915.265625
7.67,1569566915.28125
14.1,1569566915.296875
18.47,1569566915.3125
21.57,1569566915.328125
24.18,1569566915.34375
26.66,1569566915.359375
28.91,1569566915.375
30.52,1569566915.390625
31.09,1569566915.40625
30.42,1569566915.421875
28.58,1569566915.4375
25.81,1569566915.453125
22.4,1569566915.46875
18.76,1569566915.484375
15.29,1569566915.5
12.45,1569566915.515625
10.67,1569566915.53125
10.2,1569566915.546875
11.05,1569566915.5625
12.96,1569566915.578125
15.46,1569566915.59375
17.95,1569566915.609375
19.87,1569566915.625
20.77,1569566915.640625
20.33,1569566915.65625
18.48,1569566915.671875
15.41,1569566915.6875
11.53,1569566915.703125
7.28,1569566915.71875
3.01,1569566915.734375
-1.16,1569566915.75
-5.28,1569566915.765625
-9.4,1569566915.78125
-13.29,1569566915.796875
-16.23,1569566915.8125
-17.26,1569566915.828125
-15.37,1569566915.84375
-10.11,1569566915.859375
-1.77,1569566915.875
8.39,1569566915.890625
18.64,1569566915.90625
27.17,1569566915.921875
32.63,1569566915.9375
34.42,1569566915.953125
32.63,1569566915.96875
28.05,1569566915.984375
21.97,1569566916.0
16.05,1569566916.015625
11.91,1569566916.03125
10.81,1569566916.046875
13.06,1569566916.0625
17.91,1569566916.078125
23.68,1569566916.09375
28.38,1569566916.109375
30.51,1569566916.125
29.59,1569566916.140625
26.26,1569566916.15625
21.85,1569566916.171875
17.73,1569566916.1875
14.8,1569566916.203125
13.24,1569566916.21875
12.73,1569566916.234375
12.72,1569566916.25
12.73,1569566916.265625
12.42,1569566916.28125
11.57,1569566916.296875
10.05,1569566916.3125
7.85,1569566916.328125
5.05,1569566916.34375
1.88,1569566916.359375
-1.34,1569566916.375
-4.31,1569566916.390625
-6.89,1569566916.40625
-9.19,1569566916.421875
-11.55,1569566916.4375
-14.35,1569566916.453125
-17.67,1569566916.46875
-21.19,1569566916.484375
-24.13,1569566916.5
-25.46,1569566916.515625
-24.31,1569566916.53125
-20.28,1569566916.546875
-13.64,1569566916.5625
-5.21,1569566916.578125
3.75,1569566916.59375
12.03,1569566916.609375
18.63,1569566916.625
23.0,1569566916.640625
25.0,1569566916.65625
24.87,1569566916.671875
23.05,1569566916.6875
20.16,1569566916.703125
16.82,1569566916.71875
13.62,1569566916.734375
11.01,1569566916.75
9.26,1569566916.765625
8.43,1569566916.78125
8.39,1569566916.796875
8.86,1569566916.8125
9.55,1569566916.828125
10.22,1569566916.84375
10.8,1569566916.859375
11.23,1569566916.875
11.45,1569566916.890625
11.3,1569566916.90625
10.6,1569566916.921875
9.25,1569566916.9375
7.32,1569566916.953125
5.18,1569566916.96875
3.27,1569566916.984375
2.01,1569566917.0
1.48,1569566917.015625
1.46,1569566917.03125
1.45,1569566917.046875
0.94,1569566917.0625
-0.41,1569566917.078125
-2.69,1569566917.09375
-5.7,1569566917.109375
-9.09,1569566917.125
-12.26,1569566917.140625
-14.49,1569566917.15625
-14.96,1569566917.171875
-13.0,1569566917.1875
-8.35,1569566917.203125
-1.42,1569566917.21875
6.75,1569566917.234375
14.84,1569566917.25
21.67,1569566917.265625
26.51,1569566917.28125
29.33,1569566917.296875
30.52,1569566917.3125
30.62,1569566917.328125
30.1,1569566917.34375
29.16,1569566917.359375
27.85,1569566917.375
26.25,1569566917.390625
24.42,1569566917.40625
22.46,1569566917.421875
20.42,1569566917.4375
18.3,1569566917.453125
16.02,1569566917.46875
13.56,1569566917.484375
10.99,1569566917.5
8.47,1569566917.515625
6.25,1569566917.53125
4.55,1569566917.546875
3.48,1569566917.5625
2.93,1569566917.578125
2.63,1569566917.59375
2.23,1569566917.609375
1.43,1569566917.625
0.14,1569566917.640625
-1.48,1569566917.65625
-3.15,1569566917.671875
-4.65,1569566917.6875
-5.9,1569566917.703125
-7.09,1569566917.71875
-8.49,1569566917.734375
-10.39,1569566917.75
-12.85,1569566917.765625
-15.71,1569566917.78125
-18.6,1569566917.796875
-20.96,1569566917.8125
-22.23,1569566917.828125
-21.93,1569566917.84375
-19.82,1569566917.859375
-15.97,1569566917.875
-10.92,1569566917.890625
-5.49,1569566917.90625
-0.62,1569566917.921875
3.0,1569566917.9375
5.11,1569566917.953125
5.99,1569566917.96875
6.17,1569566917.984375
6.14,1569566918.0
6.12,1569566918.015625
5.98,1569566918.03125
5.44,1569566918.046875
4.3,1569566918.0625
2.54,1569566918.078125
0.42,1569566918.09375
-1.76,1569566918.109375
-3.69,1569566918.125
-5.21,1569566918.140625
-6.19,1569566918.15625
-6.62,1569566918.171875
-6.48,1569566918.1875
-5.84,1569566918.203125
-4.89,1569566918.21875
-3.96,1569566918.234375
-3.45,1569566918.25
-3.66,1569566918.265625
-4.73,1569566918.28125
-6.59,1569566918.296875
-8.92,1569566918.3125
-11.29,1569566918.328125
-13.27,1569566918.34375
-14.53,1569566918.359375
-15.0,1569566918.375
-14.94,1569566918.390625
-14.83,1569566918.40625
-15.21,1569566918.421875
-16.47,1569566918.4375
-18.56,1569566918.453125
-20.98,1569566918.46875
-22.86,1569566918.484375
-23.27,1569566918.5
-21.52,1569566918.515625
-17.46,1569566918.53125
-11.5,1569566918.546875
-4.5,1569566918.5625
2.46,1569566918.578125
8.46,1569566918.59375
12.96,1569566918.609375
15.77,1569566918.625
17.11,1569566918.640625
17.33,1569566918.65625
16.76,1569566918.671875
15.7,1569566918.6875
14.31,1569566918.703125
12.75,1569566918.71875
11.21,1569566918.734375
9.86,1569566918.75
8.83,1569566918.765625
8.15,1569566918.78125
7.72,1569566918.796875
7.41,1569566918.8125
7.08,1569566918.828125
6.65,1569566918.84375
6.08,1569566918.859375
5.3,1569566918.875
4.23,1569566918.890625
2.78,1569566918.90625
1.0,1569566918.921875
-0.96,1569566918.9375
-2.88,1569566918.953125
-4.44,1569566918.96875
-5.52,1569566918.984375
-6.2,1569566919.0
-6.76,1569566919.015625
-7.52,1569566919.03125
-8.73,1569566919.046875
-10.38,1569566919.0625
-12.31,1569566919.078125
-14.26,1569566919.09375
-16.03,1569566919.109375
-17.44,1569566919.125
-18.38,1569566919.140625
-18.68,1569566919.15625
-18.01,1569566919.171875
-16.11,1569566919.1875
-12.8,1569566919.203125
-8.24,1569566919.21875
-2.87,1569566919.234375
2.64,1569566919.25
7.61,1569566919.265625
11.51,1569566919.28125
14.09,1569566919.296875
15.37,1569566919.3125
15.54,1569566919.328125
14.93,1569566919.34375
13.93,1569566919.359375
12.91,1569566919.375
12.18,1569566919.390625
11.87,1569566919.40625
11.95,1569566919.421875
12.27,1569566919.4375
12.61,1569566919.453125
12.83,1569566919.46875
12.92,1569566919.484375
12.97,1569566919.5
13.13,1569566919.515625
13.48,1569566919.53125
13.99,1569566919.546875
14.38,1569566919.5625
14.3,1569566919.578125
13.3,1569566919.59375
11.15,1569566919.609375
7.86,1569566919.625
3.73,1569566919.640625
-0.75,1569566919.65625
-5.13,1569566919.671875
-9.11,1569566919.6875
-12.74,1569566919.703125
-16.2,1569566919.71875
-19.74,1569566919.734375
-23.5,1569566919.75
-27.39,1569566919.765625
-31.04,1569566919.78125
-33.91,1569566919.796875
-35.29,1569566919.8125
-34.59,1569566919.828125
-31.46,1569566919.84375
-25.91,1569566919.859375
-18.48,1569566919.875
-10.0,1569566919.890625
-1.5,1569566919.90625
6.11,1569566919.921875
12.18,1569566919.9375
16.4,1569566919.953125
18.83,1569566919.96875
19.83,1569566919.984375
19.87,1569566920.0
19.5,1569566920.015625
19.12,1569566920.03125
18.91,1569566920.046875
18.81,1569566920.0625
18.61,1569566920.078125
18.15,1569566920.09375
17.37,1569566920.109375
16.41,1569566920.125
15.38,1569566920.140625
14.35,1569566920.15625
13.2,1569566920.171875
11.74,1569566920.1875
9.91,1569566920.203125
7.82,1569566920.21875
5.75,1569566920.234375
3.99,1569566920.25
2.65,1569566920.265625
1.59,1569566920.28125
0.52,1569566920.296875
-0.82,1569566920.3125
-2.52,1569566920.328125
-4.48,1569566920.34375
-6.53,1569566920.359375
-8.66,1569566920.375
-11.01,1569566920.390625
-13.85,1569566920.40625
-17.24,1569566920.421875
-20.89,1569566920.4375
-24.1,1569566920.453125
-25.89,1569566920.46875
-25.48,1569566920.484375
-22.54,1569566920.5
-17.42,1569566920.515625
-11.01,1569566920.53125
-4.41,1569566920.546875
1.44,1569566920.5625
6.01,1569566920.578125
9.2,1569566920.59375
11.2,1569566920.609375
12.23,1569566920.625
12.41,1569566920.640625
11.69,1569566920.65625
10.02,1569566920.671875
7.43,1569566920.6875
4.21,1569566920.703125
0.92,1569566920.71875
-1.8,1569566920.734375
-3.48,1569566920.75
-3.95,1569566920.765625
-3.5,1569566920.78125
-2.65,1569566920.796875
-2.03,1569566920.8125
-2.03,1569566920.828125
-2.7,1569566920.84375
-3.81,1569566920.859375
-4.99,1569566920.875
-6.02,1569566920.890625
-6.89,1569566920.90625
-7.79,1569566920.921875
-8.97,1569566920.9375
-10.57,1569566920.953125
-12.56,1569566920.96875
-14.83,1569566920.984375
-17.22,1569566921.0
-19.63,1569566921.015625
-21.95,1569566921.03125
-24.03,1569566921.046875
-25.64,1569566921.0625
-26.56,1569566921.078125
-26.57,1569566921.09375
-25.5,1569566921.109375
-23.19,1569566921.125
-19.49,1569566921.140625
-14.31,1569566921.15625
-7.67,1569566921.171875
0.15,1569566921.1875
8.52,1569566921.203125
16.58,1569566921.21875
23.41,1569566921.234375
28.29,1569566921.25
30.85,1569566921.265625
31.14,1569566921.28125
29.58,1569566921.296875
26.8,1569566921.3125
23.55,1569566921.328125
20.54,1569566921.34375
18.33,1569566921.359375
17.17,1569566921.375
17.01,1569566921.390625
17.47,1569566921.40625
18.05,1569566921.421875
18.32,1569566921.4375
18.04,1569566921.453125
17.24,1569566921.46875
16.13,1569566921.484375
14.93,1569566921.5
13.73,1569566921.515625
12.47,1569566921.53125
10.97,1569566921.546875
9.11,1569566921.5625
6.91,1569566921.578125
4.57,1569566921.59375
2.36,1569566921.609375
0.51,1569566921.625
-0.99,1569566921.640625
-2.33,1569566921.65625
-3.89,1569566921.671875
-6.01,1569566921.6875
-8.89,1569566921.703125
-12.51,1569566921.71875
-16.54,1569566921.734375
-20.41,1569566921.75
-23.39,1569566921.765625
-24.8,1569566921.78125
-24.14,1569566921.796875
-21.28,1569566921.8125
-16.56,1569566921.828125
-10.65,1569566921.84375
-4.45,1569566921.859375
1.24,1569566921.875
5.91,1569566921.890625
9.46,1569566921.90625
12.06,1569566921.921875
14.0,1569566921.9375
15.44,1569566921.953125
16.4,1569566921.96875
16.72,1569566921.984375
16.3,1569566922.0
15.18,1569566922.015625
13.61,1569566922.03125
11.96,1569566922.046875
10.53,1569566922.0625
9.42,1569566922.078125
8.55,1569566922.09375
7.72,1569566922.109375
6.82,1569566922.125
5.87,1569566922.140625
5.04,1569566922.15625
4.48,1569566922.171875
4.17,1569566922.1875
3.89,1569566922.203125
3.38,1569566922.21875
2.51,1569566922.234375
1.34,1569566922.25
0.14,1569566922.265625
-0.86,1569566922.28125
-1.54,1569566922.296875
-2.05,1569566922.3125
-2.7,1569566922.328125
-3.8,1569566922.34375
-5.62,1569566922.359375
-8.29,1569566922.375
-11.79,1569566922.390625
-15.94,1569566922.40625
-20.3,1569566922.421875
-24.1,1569566922.4375
-26.42,1569566922.453125
-26.39,1569566922.46875
-23.61,1569566922.484375
-18.39,1569566922.5
-11.69,1569566922.515625
-4.78,1569566922.53125
1.17,1569566922.546875
5.44,1569566922.5625
7.95,1569566922.578125
8.99,1569566922.59375
8.99,1569566922.609375
8.29,1569566922.625
7.1,1569566922.640625
5.56,1569566922.65625
3.88,1569566922.671875
2.41,1569566922.6875
1.49,1569566922.703125
1.34,1569566922.71875
1.9,1569566922.734375
2.88,1569566922.75
3.88,1569566922.765625
4.6,1569566922.78125
5.11,1569566922.796875
5.75,1569566922.8125
6.99,1569566922.828125
9.13,1569566922.84375
12.0,1569566922.859375
14.94,1569566922.875
17.02,1569566922.890625
17.38,1569566922.90625
15.7,1569566922.921875
12.33,1569566922.9375
8.22,1569566922.953125
4.59,1569566922.96875
2.35,1569566922.984375
1.8,1569566923.0
2.43,1569566923.015625
3.17,1569566923.03125
2.87,1569566923.046875
0.81,1569566923.0625
-3.0,1569566923.078125
-7.74,1569566923.09375
-12.09,1569566923.109375
-14.73,1569566923.125
-14.87,1569566923.140625
-12.47,1569566923.15625
-8.2,1569566923.171875
-3.12,1569566923.1875
1.82,1569566923.203125
6.03,1569566923.21875
9.35,1569566923.234375
11.81,1569566923.25
13.22,1569566923.265625
13.01,1569566923.28125
10.25,1569566923.296875
4.04,1569566923.3125
-5.99,1569566923.328125
-19.34,1569566923.34375
-34.66,1569566923.359375
-50.09,1569566923.375
-63.71,1569566923.390625
-73.94,1569566923.40625
-79.7,1569566923.421875
-80.5,1569566923.4375
-76.46,1569566923.453125
-68.42,1569566923.46875
-57.82,1569566923.484375
-46.47,1569566923.5
-36.07,1569566923.515625
-27.76,1569566923.53125
-21.82,1569566923.546875
-17.88,1569566923.5625
-15.35,1569566923.578125
-13.89,1569566923.59375
-13.6,1569566923.609375
-14.68,1569566923.625
-17.0,1569566923.640625
-19.85,1569566923.65625
-22.07,1569566923.671875
-22.77,1569566923.6875
-21.89,1569566923.703125
-20.41,1569566923.71875
-19.94,1569566923.734375
-21.84,1569566923.75
-26.36,1569566923.765625
-32.34,1569566923.78125
-37.46,1569566923.796875
-39.03,1569566923.8125
-34.93,1569566923.828125
-24.26,1569566923.84375
-7.56,1569566923.859375
13.38,1569566923.875
35.93,1569566923.890625
57.33,1569566923.90625
75.08,1569566923.921875
87.58,1569566923.9375
94.29,1569566923.953125
95.73,1569566923.96875
93.25,1569566923.984375
88.55,1569566924.0
83.15,1569566924.015625
78.09,1569566924.03125
73.86,1569566924.046875
70.45,1569566924.0625
67.63,1569566924.078125
65.06,1569566924.09375
62.39,1569566924.109375
59.33,1569566924.125
55.63,1569566924.140625
51.11,1569566924.15625
45.78,1569566924.171875
39.91,1569566924.1875
33.92,1569566924.203125
28.32,1569566924.21875
23.53,1569566924.234375
19.7,1569566924.25
16.7,1569566924.265625
14.18,1569566924.28125
11.79,1569566924.296875
9.22,1569566924.3125
6.37,1569566924.328125
3.25,1569566924.34375
-0.11,1569566924.359375
-3.71,1569566924.375
-7.56,1569566924.390625
-11.62,1569566924.40625
-15.57,1569566924.421875
-18.86,1569566924.4375
-20.68,1569566924.453125
-20.26,1569566924.46875
-17.13,1569566924.484375
-11.4,1569566924.5
-3.71,1569566924.515625
4.91,1569566924.53125
13.39,1569566924.546875
20.91,1569566924.5625
27.03,1569566924.578125
31.62,1569566924.59375
34.68,1569566924.609375
36.2,1569566924.625
36.1,1569566924.640625
34.43,1569566924.65625
31.46,1569566924.671875
27.86,1569566924.6875
24.49,1569566924.703125
22.18,1569566924.71875
21.48,1569566924.734375
22.42,1569566924.75
24.59,1569566924.765625
27.32,1569566924.78125
29.93,1569566924.796875
31.96,1569566924.8125
33.25,1569566924.828125
33.87,1569566924.84375
34.02,1569566924.859375
33.88,1569566924.875
33.46,1569566924.890625
32.78,1569566924.90625
31.84,1569566924.921875
30.79,1569566924.9375
29.88,1569566924.953125
29.3,1569566924.96875
29.11,1569566924.984375
29.01,1569566925.0
28.61,1569566925.015625
27.57,1569566925.03125
25.94,1569566925.046875
24.07,1569566925.0625
22.43,1569566925.078125
21.23,1569566925.09375
20.3,1569566925.109375
19.16,1569566925.125
17.45,1569566925.140625
15.19,1569566925.15625
12.78,1569566925.171875
10.76,1569566925.1875
9.41,1569566925.203125
8.51,1569566925.21875
7.41,1569566925.234375
5.33,1569566925.25
1.6,1569566925.265625
-4.21,1569566925.28125
-12.33,1569566925.296875
-23.0,1569566925.3125
-36.33,1569566925.328125
-51.96,1569566925.34375
-68.69,1569566925.359375
-84.42,1569566925.375
-96.51,1569566925.390625
-102.78,1569566925.40625
-102.33,1569566925.421875
-96.16,1569566925.4375
-86.74,1569566925.453125
-77.0,1569566925.46875
-69.16,1569566925.484375
-63.9,1569566925.5
-60.52,1569566925.515625
-57.7,1569566925.53125
-54.5,1569566925.546875
-50.85,1569566925.5625
-47.44,1569566925.578125
-44.94,1569566925.59375
-43.57,1569566925.609375
-42.82,1569566925.625
-41.92,1569566925.640625
-40.35,1569566925.65625
-38.22,1569566925.671875
-36.2,1569566925.6875
-34.94,1569566925.703125
-34.75,1569566925.71875
-35.27,1569566925.734375
-35.81,1569566925.75
-35.65,1569566925.765625
-34.5,1569566925.78125
-32.5,1569566925.796875
-30.04,1569566925.8125
-27.48,1569566925.828125
-24.82,1569566925.84375
-21.87,1569566925.859375
-18.33,1569566925.875
-14.1,1569566925.890625
-9.34,1569566925.90625
-4.44,1569566925.921875
0.14,1569566925.9375
4.1,1569566925.953125
7.33,1569566925.96875
9.87,1569566925.984375
11.73,1569566926.0
12.95,1569566926.015625
13.48,1569566926.03125
13.36,1569566926.046875
12.75,1569566926.0625
11.86,1569566926.078125
10.97,1569566926.09375
10.22,1569566926.109375
9.65,1569566926.125
9.15,1569566926.140625
8.6,1569566926.15625
7.85,1569566926.171875
6.85,1569566926.1875
5.63,1569566926.203125
4.29,1569566926.21875
2.93,1569566926.234375
1.56,1569566926.25
0.15,1569566926.265625
-1.41,1569566926.28125
-3.22,1569566926.296875
-5.23,1569566926.3125
-7.28,1569566926.328125
-9.11,1569566926.34375
-10.55,1569566926.359375
-11.54,1569566926.375
-12.26,1569566926.390625
-13.05,1569566926.40625
-14.22,1569566926.421875
-15.94,1569566926.4375
-18.14,1569566926.453125
-20.47,1569566926.46875
-22.4,1569566926.484375
-23.34,1569566926.5
-22.72,1569566926.515625
-20.19,1569566926.53125
-15.71,1569566926.546875
-9.64,1569566926.5625
-2.63,1569566926.578125
4.52,1569566926.59375
11.04,1569566926.609375
16.39,1569566926.625
20.4,1569566926.640625
23.2,1569566926.65625
25.07,1569566926.671875
26.33,1569566926.6875
27.14,1569566926.703125
27.56,1569566926.71875
27.56,1569566926.734375
27.15,1569566926.75
26.37,1569566926.765625
25.32,1569566926.78125
24.13,1569566926.796875
22.86,1569566926.8125
21.55,1569566926.828125
20.19,1569566926.84375
18.88,1569566926.859375
17.76,1569566926.875
17.01,1569566926.890625
16.63,1569566926.90625
16.34,1569566926.921875
15.65,1569566926.9375
14.05,1569566926.953125
11.31,1569566926.96875
7.66,1569566926.984375
3.78,1569566927.0
0.43,1569566927.015625
-1.83,1569566927.03125
-2.92,1569566927.046875
-3.22,1569566927.0625
-3.32,1569566927.078125
-3.74,1569566927.09375
-4.76,1569566927.109375
-6.46,1569566927.125
-8.76,1569566927.140625
-11.46,1569566927.15625
-14.18,1569566927.171875
-16.25,1569566927.1875
-16.79,1569566927.203125
-15.05,1569566927.21875
-10.74,1569566927.234375
-4.33,1569566927.25
3.13,1569566927.265625
10.43,1569566927.28125
16.7,1569566927.296875
21.75,1569566927.3125
25.98,1569566927.328125
29.96,1569566927.34375
34.0,1569566927.359375
37.91,1569566927.375
41.14,1569566927.390625
43.06,1569566927.40625
43.35,1569566927.421875
42.06,1569566927.4375
39.61,1569566927.453125
36.55,1569566927.46875
33.38,1569566927.484375
30.47,1569566927.5
27.98,1569566927.515625
25.88,1569566927.53125
24.13,1569566927.546875
22.62,1569566927.5625
21.37,1569566927.578125
20.42,1569566927.59375
19.83,1569566927.609375
19.5,1569566927.625
19.2,1569566927.640625
18.59,1569566927.65625
17.51,1569566927.671875
16.03,1569566927.6875
14.46,1569566927.703125
13.21,1569566927.71875
12.41,1569566927.734375
11.85,1569566927.75
10.9,1569566927.765625
8.8,1569566927.78125
4.85,1569566927.796875
-1.24,1569566927.8125
-9.32,1569566927.828125
-18.7,1569566927.84375
-28.21,1569566927.859375
-36.43,1569566927.875
-41.9,1569566927.890625
-43.6,1569566927.90625
-41.23,1569566927.921875
-35.4,1569566927.9375
-27.4,1569566927.953125
-18.78,1569566927.96875
-10.79,1569566927.984375
-3.93,1569566928.0
2.13,1569566928.015625
8.27,1569566928.03125
15.37,1569566928.046875
23.65,1569566928.0625
32.15,1569566928.078125
38.85,1569566928.09375
41.16,1569566928.109375
36.96,1569566928.125
25.65,1569566928.140625
8.52,1569566928.15625
-11.54,1569566928.171875
-31.04,1569566928.1875
-47.08,1569566928.203125
-58.12,1569566928.21875
-64.1,1569566928.234375
-65.9,1569566928.25
-64.7,1569566928.265625
-61.45,1569566928.28125
-56.84,1569566928.296875
-51.36,1569566928.3125
-45.5,1569566928.328125
-39.75,1569566928.34375
-34.48,1569566928.359375
-29.93,1569566928.375
-26.28,1569566928.390625
-23.74,1569566928.40625
-22.53,1569566928.421875
-22.77,1569566928.4375
-24.3,1569566928.453125
-26.66,1569566928.46875
-29.19,1569566928.484375
-31.24,1569566928.5
-32.49,1569566928.515625
-32.86,1569566928.53125
-32.49,1569566928.546875
-31.49,1569566928.5625
-29.85,1569566928.578125
-27.43,1569566928.59375
-24.04,1569566928.609375
-19.56,1569566928.625
-14.07,1569566928.640625
-7.89,1569566928.65625
-1.52,1569566928.671875
4.43,1569566928.6875
9.44,1569566928.703125
13.16,1569566928.71875
15.59,1569566928.734375
16.99,1569566928.75
17.8,1569566928.765625
18.28,1569566928.78125
18.53,1569566928.796875
18.47,1569566928.8125
17.97,1569566928.828125
17.09,1569566928.84375
16.05,1569566928.859375
15.17,1569566928.875
14.65,1569566928.890625
14.48,1569566928.90625
14.46,1569566928.921875
14.34,1569566928.9375
13.99,1569566928.953125
13.34,1569566928.96875
12.45,1569566928.984375
11.29,1569566929.0
9.75,1569566929.015625
7.77,1569566929.03125
5.39,1569566929.046875
2.8,1569566929.0625
0.34,1569566929.078125
-1.67,1569566929.09375
-3.03,1569566929.109375
-3.77,1569566929.125
-4.12,1569566929.140625
-4.39,1569566929.15625
-4.89,1569566929.171875
-5.9,1569566929.1875
-7.58,1569566929.203125
-9.86,1569566929.21875
-12.45,1569566929.234375
-14.81,1569566929.25
-16.25,1569566929.265625
-16.23,1569566929.28125
-14.42,1569566929.296875
-10.91,1569566929.3125
-6.12,1569566929.328125
-0.71,1569566929.34375
4.63,1569566929.359375
9.3,1569566929.375
12.95,1569566929.390625
15.45,1569566929.40625
16.88,1569566929.421875
17.5,1569566929.4375
17.63,1569566929.453125
17.51,1569566929.46875
17.27,1569566929.484375
16.94,1569566929.5
16.46,1569566929.515625
15.78,1569566929.53125
14.92,1569566929.546875
13.98,1569566929.5625
13.07,1569566929.578125
12.3,1569566929.59375
11.71,1569566929.609375
11.36,1569566929.625
11.22,1569566929.640625
11.2,1569566929.65625
11.14,1569566929.671875
10.81,1569566929.6875
9.89,1569566929.703125
8.15,1569566929.71875
5.52,1569566929.734375
2.08,1569566929.75
-1.85,1569566929.765625
-5.84,1569566929.78125
-9.47,1569566929.796875
-12.41,1569566929.8125
-14.57,1569566929.828125
-16.04,1569566929.84375
-17.18,1569566929.859375
-18.45,1569566929.875
-20.37,1569566929.890625
-23.16,1569566929.90625
-26.66,1569566929.921875
-30.22,1569566929.9375
-32.79,1569566929.953125
-33.32,1569566929.96875
-31.07,1569566929.984375
-25.97,1569566930.0
-18.62,1569566930.015625
-10.05,1569566930.03125
-1.46,1569566930.046875
6.19,1569566930.0625
12.32,1569566930.078125
16.76,1569566930.09375
19.62,1569566930.109375
21.09,1569566930.125
21.34,1569566930.140625
20.55,1569566930.15625
18.84,1569566930.171875
16.48,1569566930.1875
13.85,1569566930.203125
11.36,1569566930.21875
9.33,1569566930.234375
7.85,1569566930.25
6.72,1569566930.265625
5.57,1569566930.28125
4.11,1569566930.296875
2.29,1569566930.3125
0.4,1569566930.328125
-1.07,1569566930.34375
-1.72,1569566930.359375
-1.51,1569566930.375
-0.8,1569566930.390625
-0.25,1569566930.40625
-0.44,1569566930.421875
-1.61,1569566930.4375
-3.56,1569566930.453125
-5.7,1569566930.46875
-7.38,1569566930.484375
-8.16,1569566930.5
-7.97,1569566930.515625
-7.14,1569566930.53125
-6.35,1569566930.546875
-6.27,1569566930.5625
-7.47,1569566930.578125
-10.21,1569566930.59375
-14.23,1569566930.609375
-18.87,1569566930.625
-23.12,1569566930.640625
-25.84,1569566930.65625
-26.16,1569566930.671875
-23.65,1569566930.6875
-18.44,1569566930.703125
-11.23,1569566930.71875
-2.98,1569566930.734375
5.32,1569566930.75
12.85,1569566930.765625
19.06,1569566930.78125
23.66,1569566930.796875
26.6,1569566930.8125
28.02,1569566930.828125
28.21,1569566930.84375
27.53,1569566930.859375
26.36,1569566930.875
25.04,1569566930.890625
23.77,1569566930.90625
22.64,1569566930.921875
21.61,1569566930.9375
20.56,1569566930.953125
19.36,1569566930.96875
17.98,1569566930.984375
16.46,1569566931.0
15.02,1569566931.015625
13.94,1569566931.03125
13.4,1569566931.046875
13.38,1569566931.0625
13.59,1569566931.078125
13.57,1569566931.09375
12.88,1569566931.109375
11.27,1569566931.125
8.79,1569566931.140625
5.74,1569566931.15625
2.57,1569566931.171875
-0.3,1569566931.1875
-2.64,1569566931.203125
-4.47,1569566931.21875
-5.95,1569566931.234375
-7.47,1569566931.25
-9.35,1569566931.265625
-11.92,1569566931.28125
-15.23,1569566931.296875
-19.09,1569566931.3125
-22.98,1569566931.328125
-26.18,1569566931.34375
-27.88,1569566931.359375
-27.42,1569566931.375
-24.47,1569566931.390625
-19.21,1569566931.40625
-12.29,1569566931.421875
-4.7,1569566931.4375
2.5,1569566931.453125
8.51,1569566931.46875
12.95,1569566931.484375
15.83,1569566931.5
17.47,1569566931.515625
18.2,1569566931.53125
18.33,1569566931.546875
17.99,1569566931.5625
17.27,1569566931.578125
16.3,1569566931.59375
15.26,1569566931.609375
14.33,1569566931.625
13.62,1569566931.640625
13.09,1569566931.65625
12.59,1569566931.671875
11.99,1569566931.6875
11.23,1569566931.703125
10.38,1569566931.71875
9.58,1569566931.734375
8.93,1569566931.75
8.41,1569566931.765625
7.75,1569566931.78125
6.63,1569566931.796875
4.7,1569566931.8125
1.83,1569566931.828125
-1.85,1569566931.84375
-5.93,1569566931.859375
-9.88,1569566931.875
-13.24,1569566931.890625
-15.75,1569566931.90625
-17.5,1569566931.921875
-18.81,1569566931.9375
-20.21,1569566931.953125
-22.18,1569566931.96875
-25.02,1569566931.984375
-28.6,1569566932.0
-32.36,1569566932.015625
-35.33,1569566932.03125
-36.37,1569566932.046875
-34.63,1569566932.0625
-29.76,1569566932.078125
-22.16,1569566932.09375
-12.81,1569566932.109375
-3.05,1569566932.125
5.92,1569566932.140625
13.31,1569566932.15625
18.86,1569566932.171875
22.72,1569566932.1875
25.28,1569566932.203125
26.88,1569566932.21875
27.69,1569566932.234375
27.74,1569566932.25
27.06,1569566932.265625
25.73,1569566932.28125
24.0,1569566932.296875
22.24,1569566932.3125
20.8,1569566932.328125
19.79,1569566932.34375
19.16,1569566932.359375
18.7,1569566932.375
18.16,1569566932.390625
17.43,1569566932.40625
16.5,1569566932.421875
15.45,1569566932.4375
14.29,1569566932.453125
12.87,1569566932.46875
11.0,1569566932.484375
8.49,1569566932.5
5.4,1569566932.515625
1.95,1569566932.53125
-1.47,1569566932.546875
-4.52,1569566932.5625
-7.03,1569566932.578125
-9.08,1569566932.59375
-10.96,1569566932.609375
-13.05,1569566932.625
-15.71,1569566932.640625
-19.26,1569566932.65625
-23.83,1569566932.671875
-29.31,1569566932.6875
-35.24,1569566932.703125
-40.76,1569566932.71875
-44.7,1569566932.734375
-45.86,1569566932.75
-43.49,1569566932.765625
-37.54,1569566932.78125
-28.84,1569566932.796875
-18.88,1569566932.8125
-9.29,1569566932.828125
-1.34,1569566932.84375
4.38,1569566932.859375
8.02,1569566932.875
10.14,1569566932.890625
11.37,1569566932.90625
12.05,1569566932.921875
12.25,1569566932.9375
11.88,1569566932.953125
10.95,1569566932.96875
9.75,1569566932.984375
8.8,1569566933.0
8.64,1569566933.015625
9.49,1569566933.03125
11.18,1569566933.046875
13.21,1569566933.0625
15.02,1569566933.078125
16.23,1569566933.09375
16.78,1569566933.109375
16.83,1569566933.125
16.56,1569566933.140625
16.05,1569566933.15625
15.19,1569566933.171875
13.84,1569566933.1875
11.96,1569566933.203125
9.74,1569566933.21875
7.46,1569566933.234375
5.42,1569566933.25
3.71,1569566933.265625
2.21,1569566933.28125
0.66,1569566933.296875
-1.23,1569566933.3125
-3.71,1569566933.328125
-6.88,1569566933.34375
-10.71,1569566933.359375
-14.99,1569566933.375
-19.37,1569566933.390625
-23.29,1569566933.40625
-26.1,1569566933.421875
-27.1,1569566933.4375
-25.82,1569566933.453125
-22.08,1569566933.46875
-16.21,1569566933.484375
-8.94,1569566933.5
-1.27,1569566933.515625
5.86,1569566933.53125
11.84,1569566933.546875
16.45,1569566933.5625
19.79,1569566933.578125
22.1,1569566933.59375
23.57,1569566933.609375
24.24,1569566933.625
24.06,1569566933.640625
23.01,1569566933.65625
21.23,1569566933.671875
18.99,1569566933.6875
16.64,1569566933.703125
14.47,1569566933.71875
12.61,1569566933.734375
11.09,1569566933.75
9.86,1569566933.765625
8.97,1569566933.78125
8.49,1569566933.796875
8.45,1569566933.8125
8.79,1569566933.828125
9.24,1569566933.84375
9.35,1569566933.859375
8.66,1569566933.875
6.83,1569566933.890625
3.86,1569566933.90625
0.08,1569566933.921875
-3.96,1569566933.9375
-7.67,1569566933.953125
-10.67,1569566933.96875
-12.88,1569566933.984375
-14.52,1569566934.0
-16.03,1569566934.015625
-17.88,1569566934.03125
-20.41,1569566934.046875
-23.67,1569566934.0625
-27.36,1569566934.078125
-30.8,1569566934.09375
-33.09,1569566934.109375
-33.39,1569566934.125
-31.14,1569566934.140625
-26.35,1569566934.15625
-19.53,1569566934.171875
-11.66,1569566934.1875
-3.7,1569566934.203125
3.52,1569566934.21875
9.58,1569566934.234375
14.39,1569566934.25
18.0,1569566934.265625
20.53,1569566934.28125
22.0,1569566934.296875
22.48,1569566934.3125
22.06,1569566934.328125
21.0,1569566934.34375
19.64,1569566934.359375
18.3,1569566934.375
17.18,1569566934.390625
16.3,1569566934.40625
15.55,1569566934.421875
14.73,1569566934.4375
13.76,1569566934.453125
12.66,1569566934.46875
11.57,1569566934.484375
10.64,1569566934.5
9.95,1569566934.515625
9.36,1569566934.53125
8.59,1569566934.546875
7.36,1569566934.5625
5.49,1569566934.578125
3.01,1569566934.59375
0.21,1569566934.609375
-2.59,1569566934.625
-5.1,1569566934.640625
-7.17,1569566934.65625
-8.86,1569566934.671875
-10.38,1569566934.6875
-12.08,1569566934.703125
-14.33,1569566934.71875
-17.42,1569566934.734375
-21.48,1569566934.75
-26.17,1569566934.765625
-30.73,1569566934.78125
-34.04,1569566934.796875
-34.96,1569566934.8125
-32.78,1569566934.828125
-27.53,1569566934.84375
-19.97,1569566934.859375
-11.27,1569566934.875
-2.67,1569566934.890625
4.97,1569566934.90625
11.21,1569566934.921875
15.95,1569566934.9375
19.18,1569566934.953125
20.89,1569566934.96875
21.03,1569566934.984375
19.68,1569566935.0
17.1,1569566935.015625
13.83,1569566935.03125
10.47,1569566935.046875
7.58,1569566935.0625
5.52,1569566935.078125
4.39,1569566935.09375
4.06,1569566935.109375
4.26,1569566935.125
4.59,1569566935.140625
4.71,1569566935.15625
4.34,1569566935.171875
3.45,1569566935.1875
2.19,1569566935.203125
0.88,1569566935.21875
-0.14,1569566935.234375
-0.77,1569566935.25
-1.2,1569566935.265625
-1.89,1569566935.28125
-3.36,1569566935.296875
-5.87,1569566935.3125
-9.26,1569566935.328125
-13.01,1569566935.34375
-16.47,1569566935.359375
-19.15,1569566935.375
-21.03,1569566935.390625
-22.49,1569566935.40625
-24.07,1569566935.421875
-26.13,1569566935.4375
-28.63,1569566935.453125
-31.0,1569566935.46875
-32.41,1569566935.484375
-32.03,1569566935.5
-29.36,1569566935.515625
-24.45,1569566935.53125
-17.8,1569566935.546875
-10.22,1569566935.5625
-2.61,1569566935.578125
4.27,1569566935.59375
9.85,1569566935.609375
13.85,1569566935.625
16.22,1569566935.640625
17.14,1569566935.65625
16.94,1569566935.671875
16.08,1569566935.6875
15.07,1569566935.703125
14.32,1569566935.71875
14.14,1569566935.734375
14.62,1569566935.75
15.65,1569566935.765625
16.89,1569566935.78125
17.94,1569566935.796875
18.44,1569566935.8125
18.19,1569566935.828125
17.23,1569566935.84375
15.85,1569566935.859375
14.45,1569566935.875
13.38,1569566935.890625
12.74,1569566935.90625
12.29,1569566935.921875
11.56,1569566935.9375
10.02,1569566935.953125
7.35,1569566935.96875
3.6,1569566935.984375
-0.81,1569566936.0
-5.25,1569566936.015625
-9.15,1569566936.03125
-12.17,1569566936.046875
-14.3,1569566936.0625
-15.8,1569566936.078125
-17.03,1569566936.09375
-18.35,1569566936.109375
-20.02,1569566936.125
-22.1,1569566936.140625
-24.45,1569566936.15625
-26.63,1569566936.171875
-27.94,1569566936.1875
-27.59,1569566936.203125
-24.93,1569566936.21875
-19.79,1569566936.234375
-12.59,1569566936.25
-4.32,1569566936.265625
3.85,1569566936.28125
10.94,1569566936.296875
16.41,1569566936.3125
20.24,1569566936.328125
22.7,1569566936.34375
24.11,1569566936.359375
24.64,1569566936.375
24.35,1569566936.390625
23.19,1569566936.40625
21.27,1569566936.421875
18.8,1569566936.4375
16.17,1569566936.453125
13.78,1569566936.46875
11.95,1569566936.484375
10.81,1569566936.5
10.34,1569566936.515625
10.31,1569566936.53125
10.48,1569566936.546875
10.66,1569566936.5625
10.72,1569566936.578125
10.66,1569566936.59375
10.46,1569566936.609375
10.02,1569566936.625
9.11,1569566936.640625
7.5,1569566936.65625
5.09,1569566936.671875
2.0,1569566936.6875
-1.35,1569566936.703125
-4.48,1569566936.71875
-6.98,1569566936.734375
-8.73,1569566936.75
-10.0,1569566936.765625
-11.28,1569566936.78125
-13.11,1569566936.796875
-15.84,1569566936.8125
-19.43,1569566936.828125
-23.48,1569566936.84375
-27.31,1569566936.859375
-30.1,1569566936.875
-31.08,1569566936.890625
-29.72,1569566936.90625
-25.9,1569566936.921875
-19.96,1569566936.9375
-12.65,1569566936.953125
-4.96,1569566936.96875
2.17,1569566936.984375
8.06,1569566937.0
12.48,1569566937.015625
15.55,1569566937.03125
17.65,1569566937.046875
19.04,1569566937.0625
19.84,1569566937.078125
19.95,1569566937.09375
19.22,1569566937.109375
17.68,1569566937.125
15.59,1569566937.140625
13.49,1569566937.15625
11.85,1569566937.171875
10.95,1569566937.1875
10.7,1569566937.203125
10.74,1569566937.21875
10.62,1569566937.234375
10.07,1569566937.25
9.11,1569566937.265625
8.01,1569566937.28125
7.09,1569566937.296875
6.45,1569566937.3125
5.9,1569566937.328125
5.02,1569566937.34375
3.43,1569566937.359375
0.96,1569566937.375
-2.2,1569566937.390625
-5.55,1569566937.40625
-8.58,1569566937.421875
-10.97,1569566937.4375
-12.75,1569566937.453125
-14.23,1569566937.46875
-15.88,1569566937.484375
-18.1,1569566937.5
-21.06,1569566937.515625
-24.61,1569566937.53125
-28.25,1569566937.546875
-31.26,1569566937.5625
-32.75,1569566937.578125
-31.94,1569566937.59375
-28.38,1569566937.609375
-22.17,1569566937.625
-14.03,1569566937.640625
-5.11,1569566937.65625
3.29,1569566937.671875
10.25,1569566937.6875
15.32,1569566937.703125
18.63,1569566937.71875
20.63,1569566937.734375
21.82,1569566937.75
22.47,1569566937.765625
22.62,1569566937.78125
22.14,1569566937.796875
20.91,1569566937.8125
19.0,1569566937.828125
16.67,1569566937.84375
14.31,1569566937.859375
12.28,1569566937.875
10.7,1569566937.890625
9.52,1569566937.90625
8.5,1569566937.921875
7.38,1569566937.9375
6.02,1569566937.953125
4.5,1569566937.96875
3.03,1569566937.984375
1.87,1569566938.0
1.08,1569566938.015625
0.59,1569566938.03125
0.1,1569566938.046875
-0.7,1569566938.0625
-2.05,1569566938.078125
-3.97,1569566938.09375
-6.27,1569566938.109375
-8.64,1569566938.125
-10.72,1569566938.140625
-12.38,1569566938.15625
-13.65,1569566938.171875
-14.84,1569566938.1875
-16.32,1569566938.203125
-18.5,1569566938.21875
-21.52,1569566938.234375
-25.17,1569566938.25
-28.85,1569566938.265625
-31.6,1569566938.28125
-32.5,1569566938.296875
-30.8,1569566938.3125
-26.32,1569566938.328125
-19.5,1569566938.34375
-11.26,1569566938.359375
-2.72,1569566938.375
5.11,1569566938.390625
11.61,1569566938.40625
16.62,1569566938.421875
20.31,1569566938.4375
22.91,1569566938.453125
24.61,1569566938.46875
25.42,1569566938.484375
25.33,1569566938.5
24.37,1569566938.515625
22.74,1569566938.53125
20.8,1569566938.546875
18.95,1569566938.5625
17.5,1569566938.578125
16.54,1569566938.59375
15.96,1569566938.609375
15.47,1569566938.625
14.88,1569566938.640625
14.07,1569566938.65625
13.1,1569566938.671875
12.13,1569566938.6875
11.26,1569566938.703125
10.45,1569566938.71875
9.45,1569566938.734375
7.97,1569566938.75
5.73,1569566938.765625
2.73,1569566938.78125
-0.85,1569566938.796875
-4.56,1569566938.8125
-7.91,1569566938.828125
-10.55,1569566938.84375
-12.35,1569566938.859375
-13.45,1569566938.875
-14.17,1569566938.890625
-15.01,1569566938.90625
-16.37,1569566938.921875
-18.56,1569566938.9375
-21.56,1569566938.953125
-25.05,1569566938.96875
-28.28,1569566938.984375
-30.27,1569566939.0
-30.07,1569566939.015625
-27.11,1569566939.03125
-21.45,1569566939.046875
-13.89,1569566939.0625
-5.66,1569566939.078125
1.96,1569566939.09375
8.1,1569566939.109375
12.46,1569566939.125
15.27,1569566939.140625
16.98,1569566939.15625
17.92,1569566939.171875
18.25,1569566939.1875
17.98,1569566939.203125
17.12,1569566939.21875
15.9,1569566939.234375
14.63,1569566939.25
13.68,1569566939.265625
13.26,1569566939.28125
13.3,1569566939.296875
13.49,1569566939.3125
13.43,1569566939.328125
12.81,1569566939.34375
11.55,1569566939.359375
9.87,1569566939.375
8.16,1569566939.390625
6.81,1569566939.40625
6.0,1569566939.421875
5.64,1569566939.4375
5.31,1569566939.453125
4.51,1569566939.46875
2.91,1569566939.484375
0.45,1569566939.5
-2.58,1569566939.515625
-5.73,1569566939.53125
-8.6,1569566939.546875
-11.0,1569566939.5625
-12.97,1569566939.578125
-14.75,1569566939.59375
-16.65,1569566939.609375
-18.94,1569566939.625
-21.72,1569566939.640625
-24.92,1569566939.65625
-28.12,1569566939.671875
-30.67,1569566939.6875
-31.73,1569566939.703125
-30.56,1569566939.71875
-26.81,1569566939.734375
-20.69,1569566939.75
-12.98,1569566939.765625
-4.76,1569566939.78125
2.91,1569566939.796875
9.33,1569566939.8125
14.29,1569566939.828125
17.92,1569566939.84375
20.54,1569566939.859375
22.38,1569566939.875
23.52,1569566939.890625
23.9,1569566939.90625
23.38,1569566939.921875
21.92,1569566939.9375
19.67,1569566939.953125
16.9,1569566939.96875
14.03,1569566939.984375
11.43,1569566940.0
9.35,1569566940.015625
7.86,1569566940.03125
6.87,1569566940.046875
6.12,1569566940.0625
5.36,1569566940.078125
4.4,1569566940.09375
3.15,1569566940.109375
1.54,1569566940.125
-0.43,1569566940.140625
-2.8,1569566940.15625
-5.46,1569566940.171875
-8.27,1569566940.1875
-10.86,1569566940.203125
-12.85,1569566940.21875
-13.93,1569566940.234375
-14.09,1569566940.25
-13.62,1569566940.265625
-13.06,1569566940.28125
-12.99,1569566940.296875
-13.77,1569566940.3125
-15.53,1569566940.328125
-18.11,1569566940.34375
-21.19,1569566940.359375
-24.36,1569566940.375
-27.1,1569566940.390625
-28.71,1569566940.40625
-28.48,1569566940.421875
-25.82,1569566940.4375
-20.65,1569566940.453125
-13.44,1569566940.46875
-5.21,1569566940.484375
2.85,1569566940.5
9.82,1569566940.515625
15.26,1569566940.53125
19.27,1569566940.546875
22.16,1569566940.5625
24.24,1569566940.578125
25.58,1569566940.59375
26.08,1569566940.609375
25.65,1569566940.625
24.37,1569566940.640625
22.51,1569566940.65625
20.47,1569566940.671875
18.59,1569566940.6875
17.06,1569566940.703125
15.87,1569566940.71875
14.87,1569566940.734375
13.84,1569566940.75
12.61,1569566940.765625
11.11,1569566940.78125
9.44,1569566940.796875
7.76,1569566940.8125
6.26,1569566940.828125
4.99,1569566940.84375
3.85,1569566940.859375
2.62,1569566940.875
1.0,1569566940.890625
-1.07,1569566940.90625
-3.5,1569566940.921875
-5.99,1569566940.9375
-8.23,1569566940.953125
-10.05,1569566940.96875
-11.52,1569566940.984375
-12.89,1569566941.0
-14.55,1569566941.015625
-16.84,1569566941.03125
-19.94,1569566941.046875
-23.85,1569566941.0625
-28.19,1569566941.078125
-32.29,1569566941.09375
-35.19,1569566941.109375
-35.94,1569566941.125
-33.91,1569566941.140625
-29.03,1569566941.15625
-21.91,1569566941.171875
-13.6,1569566941.1875
-5.25,1569566941.203125
2.27,1569566941.21875
8.53,1569566941.234375
13.48,1569566941.25
17.33,1569566941.265625
20.25,1569566941.28125
22.33,1569566941.296875
23.58,1569566941.3125
24.02,1569566941.328125
23.77,1569566941.34375
23.01,1569566941.359375
21.98,1569566941.375
20.93,1569566941.390625
20.01,1569566941.40625
19.3,1569566941.421875
18.75,1569566941.4375
18.21,1569566941.453125
17.48,1569566941.46875
16.46,1569566941.484375
15.11,1569566941.5
13.56,1569566941.515625
11.96,1569566941.53125
10.4,1569566941.546875
8.85,1569566941.5625
7.18,1569566941.578125
5.21,1569566941.59375
2.87,1569566941.609375
0.21,1569566941.625
-2.61,1569566941.640625
-5.36,1569566941.65625
-7.87,1569566941.671875
-10.1,1569566941.6875
-12.13,1569566941.703125
-14.09,1569566941.71875
-16.16,1569566941.734375
-18.48,1569566941.75
-21.12,1569566941.765625
-24.13,1569566941.78125
-27.34,1569566941.796875
-30.38,1569566941.8125
-32.64,1569566941.828125
-33.38,1569566941.84375
-31.96,1569566941.859375
-28.06,1569566941.875
-21.89,1569566941.890625
-14.17,1569566941.90625
-5.95,1569566941.921875
1.72,1569566941.9375
8.11,1569566941.953125
12.93,1569566941.96875
16.28,1569566941.984375
18.43,1569566942.0
19.66,1569566942.015625
20.06,1569566942.03125
19.63,1569566942.046875
18.42,1569566942.0625
16.58,1569566942.078125
14.51,1569566942.09375
12.62,1569566942.109375
11.32,1569566942.125
10.8,1569566942.140625
10.97,1569566942.15625
11.55,1569566942.171875
12.19,1569566942.1875
12.64,1569566942.203125
12.78,1569566942.21875
12.61,1569566942.234375
12.13,1569566942.25
11.19,1569566942.265625
9.58,1569566942.28125
7.13,1569566942.296875
3.88,1569566942.3125
0.16,1569566942.328125
-3.55,1569566942.34375
-6.69,1569566942.359375
-8.99,1569566942.375
-10.44,1569566942.390625
-11.34,1569566942.40625
-12.08,1569566942.421875
-12.99,1569566942.4375
-14.28,1569566942.453125
-16.03,1569566942.46875
-18.23,1569566942.484375
-20.9,1569566942.5
-23.96,1569566942.515625
-27.18,1569566942.53125
-30.19,1569566942.546875
-32.41,1569566942.5625
-33.21,1569566942.578125
-32.0,1569566942.59375
-28.49,1569566942.609375
-22.79,1569566942.625
-15.47,1569566942.640625
-7.5,1569566942.65625
0.1,1569566942.671875
6.47,1569566942.6875
11.24,1569566942.703125
14.5,1569566942.71875
16.63,1569566942.734375
18.06,1569566942.75
18.98,1569566942.765625
19.35,1569566942.78125
19.05,1569566942.796875
18.07,1569566942.8125
16.61,1569566942.828125
15.05,1569566942.84375
13.76,1569566942.859375
12.92,1569566942.875
12.47,1569566942.890625
12.19,1569566942.90625
11.87,1569566942.921875
11.44,1569566942.9375
11.0,1569566942.953125
10.69,1569566942.96875
10.62,1569566942.984375
10.68,1569566943.0
10.58,1569566943.015625
9.97,1569566943.03125
8.52,1569566943.046875
6.14,1569566943.0625
2.96,1569566943.078125
-0.66,1569566943.09375
-4.26,1569566943.109375
-7.37,1569566943.125
-9.71,1569566943.140625
-11.22,1569566943.15625
-12.13,1569566943.171875
-12.87,1569566943.1875
-13.98,1569566943.203125
-15.89,1569566943.21875
-18.77,1569566943.234375
-22.36,1569566943.25
-26.03,1569566943.265625
-28.8,1569566943.28125
-29.73,1569566943.296875
-28.12,1569566943.3125
-23.83,1569566943.328125
-17.35,1569566943.34375
-9.6,1569566943.359375
-1.71,1569566943.375
5.34,1569566943.390625
11.01,1569566943.40625
15.23,1569566943.421875
18.27,1569566943.4375
20.42,1569566943.453125
21.8,1569566943.46875
22.36,1569566943.484375
21.98,1569566943.5
20.67,1569566943.515625
18.71,1569566943.53125
16.58,1569566943.546875
14.74,1569566943.5625
13.46,1569566943.578125
12.74,1569566943.59375
12.32,1569566943.609375
11.92,1569566943.625
11.34,1569566943.640625
10.57,1569566943.65625
9.69,1569566943.671875
8.81,1569566943.6875
7.99,1569566943.703125
7.18,1569566943.71875
6.22,1569566943.734375
4.97,1569566943.75
3.23,1569566943.765625
0.91,1569566943.78125
-1.94,1569566943.796875
-5.09,1569566943.8125
-8.23,1569566943.828125
-11.03,1569566943.84375
-13.36,1569566943.859375
-15.32,1569566943.875
-17.16,1569566943.890625
-19.22,1569566943.90625
-21.74,1569566943.921875
-24.81,1569566943.9375
-28.33,1569566943.953125
-32.07,1569566943.96875
-35.62,1569566943.984375
-38.38,1569566944.0
-39.66,1569566944.015625
-38.77,1569566944.03125
-35.33,1569566944.046875
-29.42,1569566944.0625
-21.69,1569566944.078125
-13.15,1569566944.09375
-4.88,1569566944.109375
2.3,1569566944.125
8.05,1569566944.140625
12.52,1569566944.15625
16.07,1569566944.171875
19.07,1569566944.1875
21.65,1569566944.203125
23.62,1569566944.21875
24.67,1569566944.234375
24.57,1569566944.25
23.36,1569566944.265625
21.42,1569566944.28125
19.31,1569566944.296875
17.6,1569566944.3125
16.54,1569566944.328125
16.09,1569566944.34375
15.91,1569566944.359375
15.6,1569566944.375
14.95,1569566944.390625
14.02,1569566944.40625
13.04,1569566944.421875
12.31,1569566944.4375
11.91,1569566944.453125
11.71,1569566944.46875
11.41,1569566944.484375
10.66,1569566944.5
9.25,1569566944.515625
7.21,1569566944.53125
4.75,1569566944.546875
2.16,1569566944.5625
-0.36,1569566944.578125
-2.75,1569566944.59375
-5.07,1569566944.609375
-7.49,1569566944.625
-10.18,1569566944.640625
-13.21,1569566944.65625
-16.59,1569566944.671875
-20.22,1569566944.6875
-23.79,1569566944.703125
-26.87,1569566944.71875
-28.82,1569566944.734375
-28.97,1569566944.75
-26.79,1569566944.765625
-22.16,1569566944.78125
-15.5,1569566944.796875
-7.68,1569566944.8125
0.16,1569566944.828125
7.02,1569566944.84375
12.27,1569566944.859375
15.79,1569566944.875
17.87,1569566944.890625
18.92,1569566944.90625
19.32,1569566944.921875
19.22,1569566944.9375
18.61,1569566944.953125
17.46,1569566944.96875
15.84,1569566944.984375
14.06,1569566945.0
12.52,1569566945.015625
11.61,1569566945.03125
11.47,1569566945.046875
11.95,1569566945.0625
12.62,1569566945.078125
13.07,1569566945.09375
13.05,1569566945.109375
12.6,1569566945.125
11.96,1569566945.140625
11.37,1569566945.15625
10.93,1569566945.171875
10.46,1569566945.1875
9.59,1569566945.203125
8.01,1569566945.21875
5.61,1569566945.234375
2.52,1569566945.25
-0.88,1569566945.265625
-4.16,1569566945.28125
-7.04,1569566945.296875
-9.41,1569566945.3125
-11.45,1569566945.328125
-13.47,1569566945.34375
-15.92,1569566945.359375
-19.1,1569566945.375
-23.08,1569566945.390625
-27.56,1569566945.40625
-31.82,1569566945.421875
-34.92,1569566945.4375
-35.94,1569566945.453125
-34.28,1569566945.46875
-29.9,1569566945.484375
-23.31,1569566945.5
-15.41,1569566945.515625
-7.28,1569566945.53125
0.25,1569566945.546875
6.64,1569566945.5625
11.79,1569566945.578125
15.86,1569566945.59375
19.09,1569566945.609375
21.69,1569566945.625
23.68,1569566945.640625
24.99,1569566945.65625
25.48,1569566945.671875
25.23,1569566945.6875
24.41,1569566945.703125
23.37,1569566945.71875
22.44,1569566945.734375
21.79,1569566945.75
21.41,1569566945.765625
21.05,1569566945.78125
20.48,1569566945.796875
19.59,1569566945.8125
18.45,1569566945.828125
17.34,1569566945.84375
16.46,1569566945.859375
15.85,1569566945.875
15.22,1569566945.890625
14.12,1569566945.90625
12.09,1569566945.921875
8.93,1569566945.9375
4.8,1569566945.953125
0.18,1569566945.96875
-4.31,1569566945.984375
-8.15,1569566946.0
-11.14,1569566946.015625
-13.4,1569566946.03125
-15.36,1569566946.046875
-17.59,1569566946.0625
-20.62,1569566946.078125
-24.79,1569566946.09375
-30.17,1569566946.109375
-36.35,1569566946.125
-42.53,1569566946.140625
-47.55,1569566946.15625
-50.21,1569566946.171875
-49.57,1569566946.1875
-45.34,1569566946.203125
-38.0,1569566946.21875
-28.67,1569566946.234375
-18.71,1569566946.25
-9.3,1569566946.265625
-1.11,1569566946.28125
5.76,1569566946.296875
11.56,1569566946.3125
16.49,1569566946.328125
20.45,1569566946.34375
23.13,1569566946.359375
24.1,1569566946.375
23.24,1569566946.390625
20.91,1569566946.40625
17.95,1569566946.421875
15.32,1569566946.4375
13.82,1569566946.453125
13.75,1569566946.46875
14.81,1569566946.484375
16.32,1569566946.5
17.56,1569566946.515625
18.04,1569566946.53125
17.72,1569566946.546875
16.89,1569566946.5625
15.96,1569566946.578125
15.23,1569566946.59375
14.68,1569566946.609375
13.97,1569566946.625
12.63,1569566946.640625
10.28,1569566946.65625
6.9,1569566946.671875
2.81,1569566946.6875
-1.37,1569566946.703125
-5.04,1569566946.71875
-7.83,1569566946.734375
-9.72,1569566946.75
-11.05,1569566946.765625
-12.36,1569566946.78125
-14.2,1569566946.796875
-16.91,1569566946.8125
-20.6,1569566946.828125
-25.01,1569566946.84375
-29.58,1569566946.859375
-33.49,1569566946.875
-35.79,1569566946.890625
-35.63,1569566946.90625
-32.51,1569566946.921875
-26.55,1569566946.9375
-18.47,1569566946.953125
-9.41,1569566946.96875
-0.61,1569566946.984375
7.01,1569566947.0
12.98,1569566947.015625
17.28,1569566947.03125
20.12,1569566947.046875
21.79,1569566947.0625
22.43,1569566947.078125
22.18,1569566947.09375
21.18,1569566947.109375
19.71,1569566947.125
18.1,1569566947.140625
16.68,1569566947.15625
15.69,1569566947.171875
15.18,1569566947.1875
15.02,1569566947.203125
14.98,1569566947.21875
14.79,1569566947.234375
14.26,1569566947.25
13.38,1569566947.265625
12.29,1569566947.28125
11.18,1569566947.296875
10.19,1569566947.3125
9.25,1569566947.328125
8.08,1569566947.34375
6.37,1569566947.359375
3.85,1569566947.375
0.54,1569566947.390625
-3.27,1569566947.40625
-7.12,1569566947.421875
-10.61,1569566947.4375
-13.49,1569566947.453125
-15.71,1569566947.46875
-17.41,1569566947.484375
-18.87,1569566947.5
-20.47,1569566947.515625
-22.6,1569566947.53125
-25.54,1569566947.546875
-29.25,1569566947.5625
-33.27,1569566947.578125
-36.64,1569566947.59375
-38.16,1569566947.609375
-36.84,1569566947.625
-32.25,1569566947.640625
-24.79,1569566947.65625
-15.55,1569566947.671875
-5.95,1569566947.6875
2.78,1569566947.703125
9.89,1569566947.71875
15.25,1569566947.734375
19.07,1569566947.75
21.73,1569566947.765625
23.45,1569566947.78125
24.28,1569566947.796875
24.2,1569566947.8125
23.23,1569566947.828125
21.56,1569566947.84375
19.54,1569566947.859375
17.59,1569566947.875
16.04,1569566947.890625
15.03,1569566947.90625
14.51,1569566947.921875
14.26,1569566947.9375
14.04,1569566947.953125
13.68,1569566947.96875
13.17,1569566947.984375
12.62,1569566948.0
12.16,1569566948.015625
11.79,1569566948.03125
11.33,1569566948.046875
10.42,1569566948.0625
8.69,1569566948.078125
5.92,1569566948.09375
2.19,1569566948.109375
-2.14,1569566948.125
-6.47,1569566948.140625
-10.24,1569566948.15625
-13.13,1569566948.171875
-15.15,1569566948.1875
-16.62,1569566948.203125
-18.0,1569566948.21875
-19.75,1569566948.234375
-22.14,1569566948.25
-25.24,1569566948.265625
-28.92,1569566948.28125
-32.85,1569566948.296875
-36.48,1569566948.3125
-39.05,1569566948.328125
-39.71,1569566948.34375
-37.72,1569566948.359375
-32.76,1569566948.375
-25.15,1569566948.390625
-15.9,1569566948.40625
-6.3,1569566948.421875
2.46,1569566948.4375
9.65,1569566948.453125
15.23,1569566948.46875
19.55,1569566948.484375
23.07,1569566948.5
26.0,1569566948.515625
28.18,1569566948.53125
29.27,1569566948.546875
28.96,1569566948.5625
27.28,1569566948.578125
24.65,1569566948.59375
21.73,1569566948.609375
19.18,1569566948.625
17.45,1569566948.640625
16.6,1569566948.65625
16.39,1569566948.671875
16.41,1569566948.6875
16.29,1569566948.703125
15.81,1569566948.71875
14.9,1569566948.734375
13.66,1569566948.75
12.18,1569566948.765625
10.5,1569566948.78125
8.58,1569566948.796875
6.37,1569566948.8125
3.87,1569566948.828125
1.19,1569566948.84375
-1.5,1569566948.859375
-4.0,1569566948.875
-6.22,1569566948.890625
-8.27,1569566948.90625
-10.38,1569566948.921875
-12.84,1569566948.9375
-15.81,1569566948.953125
-19.24,1569566948.96875
-22.92,1569566948.984375
-26.59,1569566949.0
-30.16,1569566949.015625
-33.71,1569566949.03125
-37.31,1569566949.046875
-40.75,1569566949.0625
-43.32,1569566949.078125
-43.93,1569566949.09375
-41.57,1569566949.109375
-35.73,1569566949.125
-26.91,1569566949.140625
-16.38,1569566949.15625
-5.8,1569566949.171875
3.44,1569566949.1875
10.63,1569566949.203125
15.84,1569566949.21875
19.59,1569566949.234375
22.41,1569566949.25
24.64,1569566949.265625
26.28,1569566949.28125
27.23,1569566949.296875
27.46,1569566949.3125
27.09,1569566949.328125
26.41,1569566949.34375
25.71,1569566949.359375
25.15,1569566949.375
24.74,1569566949.390625
24.31,1569566949.40625
23.63,1569566949.421875
22.51,1569566949.4375
20.91,1569566949.453125
18.95,1569566949.46875
16.8,1569566949.484375
14.69,1569566949.5
12.68,1569566949.515625
10.69,1569566949.53125
8.51,1569566949.546875
5.92,1569566949.5625
2.84,1569566949.578125
-0.58,1569566949.59375
-4.05,1569566949.609375
-7.15,1569566949.625
-9.52,1569566949.640625
-11.04,1569566949.65625
-11.83,1569566949.671875
-12.26,1569566949.6875
-12.79,1569566949.703125
-13.86,1569566949.71875
-15.63,1569566949.734375
-18.11,1569566949.75
-21.1,1569566949.765625
-24.32,1569566949.78125
-27.5,1569566949.796875
-30.38,1569566949.8125
-32.62,1569566949.828125
-33.81,1569566949.84375
-33.46,1569566949.859375
-31.16,1569566949.875
-26.76,1569566949.890625
-20.5,1569566949.90625
-13.06,1569566949.921875
-5.36,1569566949.9375
1.69,1569566949.953125
7.55,1569566949.96875
12.1,1569566949.984375
15.6,1569566950.0
18.42,1569566950.015625
20.75,1569566950.03125
22.59,1569566950.046875
23.68,1569566950.0625
23.81,1569566950.078125
22.99,1569566950.09375
21.55,1569566950.109375
20.03,1569566950.125
18.94,1569566950.140625
18.57,1569566950.15625
18.86,1569566950.171875
19.46,1569566950.1875
19.89,1569566950.203125
19.75,1569566950.21875
18.87,1569566950.234375
17.32,1569566950.25
15.32,1569566950.265625
13.11,1569566950.28125
10.87,1569566950.296875
8.59,1569566950.3125
6.19,1569566950.328125
3.57,1569566950.34375
0.66,1569566950.359375
-2.51,1569566950.375
-5.8,1569566950.390625
-9.0,1569566950.40625
-11.88,1569566950.421875
-14.25,1569566950.4375
-16.08,1569566950.453125
-17.48,1569566950.46875
-18.74,1569566950.484375
-20.25,1569566950.5
-22.37,1569566950.515625
-25.22,1569566950.53125
-28.61,1569566950.546875
-31.95,1569566950.5625
-34.39,1569566950.578125
-35.03,1569566950.59375
-33.23,1569566950.609375
-28.78,1569566950.625
-22.05,1569566950.640625
-13.84,1569566950.65625
-5.19,1569566950.671875
2.9,1569566950.6875
9.68,1569566950.703125
14.85,1569566950.71875
18.44,1569566950.734375
20.68,1569566950.75
21.83,1569566950.765625
22.14,1569566950.78125
21.72,1569566950.796875
20.66,1569566950.8125
19.16,1569566950.828125
17.51,1569566950.84375
16.05,1569566950.859375
15.1,1569566950.875
14.74,1569566950.890625
14.82,1569566950.90625
15.02,1569566950.921875
14.95,1569566950.9375
14.43,1569566950.953125
13.47,1569566950.96875
12.27,1569566950.984375
11.03,1569566951.0
9.82,1569566951.015625
8.54,1569566951.03125
6.94,1569566951.046875
4.82,1569566951.0625
2.07,1569566951.078125
-1.14,1569566951.09375
-4.56,1569566951.109375
-7.79,1569566951.125
-10.55,1569566951.140625
-12.7,1569566951.15625
-14.35,1569566951.171875
-15.75,1569566951.1875
-17.29,1569566951.203125
-19.29,1569566951.21875
-21.91,1569566951.234375
-25.12,1569566951.25
-28.6,1569566951.265625
-31.82,1569566951.28125
-34.16,1569566951.296875
-34.95,1569566951.3125
-33.66,1569566951.328125
-30.08,1569566951.34375
-24.33,1569566951.359375
-16.96,1569566951.375
-8.82,1569566951.390625
-0.81,1569566951.40625
6.33,1569566951.421875
12.13,1569566951.4375
16.52,1569566951.453125
19.63,1569566951.46875
21.69,1569566951.484375
22.86,1569566951.5
23.23,1569566951.515625
22.9,1569566951.53125
22.06,1569566951.546875
20.94,1569566951.5625
19.85,1569566951.578125
18.99,1569566951.59375
18.34,1569566951.609375
17.76,1569566951.625
17.02,1569566951.640625
15.98,1569566951.65625
14.63,1569566951.671875
13.09,1569566951.6875
11.5,1569566951.703125
9.96,1569566951.71875
8.43,1569566951.734375
6.79,1569566951.75
4.93,1569566951.765625
2.72,1569566951.78125
0.11,1569566951.796875
-2.88,1569566951.8125
-6.16,1569566951.828125
-9.51,1569566951.84375
-12.62,1569566951.859375
-15.21,1569566951.875
-17.14,1569566951.890625
-18.53,1569566951.90625
-19.74,1569566951.921875
-21.26,1569566951.9375
-23.53,1569566951.953125
-26.75,1569566951.96875
-30.79,1569566951.984375
-35.17,1569566952.0
-39.09,1569566952.015625
-41.61,1569566952.03125
-41.78,1569566952.046875
-38.95,1569566952.0625
-32.97,1569566952.078125
-24.37,1569566952.09375
-14.25,1569566952.109375
-4.02,1569566952.125
5.07,1569566952.140625
12.26,1569566952.15625
17.4,1569566952.171875
20.91,1569566952.1875
23.37,1569566952.203125
25.3,1569566952.21875
26.89,1569566952.234375
28.08,1569566952.25
28.71,1569566952.265625
28.74,1569566952.28125
28.29,1569566952.296875
27.55,1569566952.3125
26.73,1569566952.328125
25.83,1569566952.34375
24.73,1569566952.359375
23.24,1569566952.375
21.35,1569566952.390625
19.24,1569566952.40625
17.21,1569566952.421875
15.56,1569566952.4375
14.37,1569566952.453125
13.49,1569566952.46875
12.57,1569566952.484375
11.18,1569566952.5
8.96,1569566952.515625
5.76,1569566952.53125
1.66,1569566952.546875
-2.99,1569566952.5625
-7.69,1569566952.578125
-11.88,1569566952.59375
-15.18,1569566952.609375
-17.48,1569566952.625
-18.95,1569566952.640625
-20.0,1569566952.65625
-21.09,1569566952.671875
-22.54,1569566952.6875
-24.52,1569566952.703125
-27.01,1569566952.71875
-29.86,1569566952.734375
-32.71,1569566952.75
-35.0,1569566952.765625
-35.93,1569566952.78125
-34.72,1569566952.796875
-30.83,1569566952.8125
-24.33,1569566952.828125
-15.95,1569566952.84375
-6.88,1569566952.859375
1.58,1569566952.875
8.56,1569566952.890625
13.76,1569566952.90625
17.43,1569566952.921875
20.03,1569566952.9375
21.99,1569566952.953125
23.49,1569566952.96875
24.5,1569566952.984375
24.97,1569566953.0
24.91,1569566953.015625
24.46,1569566953.03125
23.75,1569566953.046875
22.79,1569566953.0625
21.42,1569566953.078125
19.44,1569566953.09375
16.85,1569566953.109375
13.96,1569566953.125
11.42,1569566953.140625
9.95,1569566953.15625
10.02,1569566953.171875
11.44,1569566953.1875
13.37,1569566953.203125
14.56,1569566953.21875
13.89,1569566953.234375
10.9,1569566953.25
6.03,1569566953.265625
0.52,1569566953.28125
-4.11,1569566953.296875
-6.79,1569566953.3125
-7.36,1569566953.328125
-6.59,1569566953.34375
-5.82,1569566953.359375
-6.25,1569566953.375
-8.49,1569566953.390625
-12.36,1569566953.40625
-17.11,1569566953.421875
-21.81,1569566953.4375
-25.69,1569566953.453125
-28.28,1569566953.46875
-29.32,1569566953.484375
-28.6,1569566953.5
-25.97,1569566953.515625
-21.44,1569566953.53125
-15.25,1569566953.546875
-8.03,1569566953.5625
-0.69,1569566953.578125
5.85,1569566953.59375
10.87,1569566953.609375
14.06,1569566953.625
15.56,1569566953.640625
15.87,1569566953.65625
15.6,1569566953.671875
15.27,1569566953.6875
15.14,1569566953.703125
15.13,1569566953.71875
15.05,1569566953.734375
14.64,1569566953.75
13.81,1569566953.765625
12.68,1569566953.78125
11.49,1569566953.796875
10.44,1569566953.8125
9.62,1569566953.828125
8.98,1569566953.84375
8.42,1569566953.859375
7.9,1569566953.875
7.37,1569566953.890625
6.81,1569566953.90625
6.1,1569566953.921875
5.06,1569566953.9375
3.48,1569566953.953125
1.26,1569566953.96875
-1.56,1569566953.984375
-4.79,1569566954.0
-8.09,1569566954.015625
-11.12,1569566954.03125
-13.64,1569566954.046875
-15.56,1569566954.0625
-17.02,1569566954.078125
-18.38,1569566954.09375
-20.06,1569566954.109375
-22.43,1569566954.125
-25.62,1569566954.140625
-29.37,1569566954.15625
-32.99,1569566954.171875
-35.56,1569566954.1875
-36.12,1569566954.203125
-34.03,1569566954.21875
-29.13,1569566954.234375
-21.89,1569566954.25
-13.26,1569566954.265625
-4.44,1569566954.28125
3.5,1569566954.296875
9.84,1569566954.3125
14.4,1569566954.328125
17.46,1569566954.34375
19.53,1569566954.359375
21.05,1569566954.375
22.21,1569566954.390625
22.9,1569566954.40625
22.91,1569566954.421875
22.11,1569566954.4375
20.66,1569566954.453125
18.94,1569566954.46875
17.41,1569566954.484375
16.33,1569566954.5
15.62,1569566954.515625
15.02,1569566954.53125
14.23,1569566954.546875
13.17,1569566954.5625
12.02,1569566954.578125
11.04,1569566954.59375
10.37,1569566954.609375
9.85,1569566954.625
9.09,1569566954.640625
7.64,1569566954.65625
5.25,1569566954.671875
2.01,1569566954.6875
-1.7,1569566954.703125
-5.35,1569566954.71875
-8.54,1569566954.734375
-11.07,1569566954.75
-13.03,1569566954.765625
-14.7,1569566954.78125
-16.36,1569566954.796875
-18.3,1569566954.8125
-20.64,1569566954.828125
-23.36,1569566954.84375
-26.24,1569566954.859375
-28.86,1569566954.875
-30.62,1569566954.890625
-30.87,1569566954.90625
-29.04,1569566954.921875
-24.91,1569566954.9375
-18.67,1569566954.953125
-11.0,1569566954.96875
-2.8,1569566954.984375
5.03,1569566955.0
11.81,1569566955.015625
17.17,1569566955.03125
21.02,1569566955.046875
23.41,1569566955.0625
24.42,1569566955.078125
24.1,1569566955.09375
22.55,1569566955.109375
20.04,1569566955.125
17.01,1569566955.140625
14.08,1569566955.15625
11.86,1569566955.171875
10.74,1569566955.1875
10.78,1569566955.203125
11.64,1569566955.21875
12.73,1569566955.234375
13.45,1569566955.25
13.42,1569566955.265625
12.57,1569566955.28125
11.07,1569566955.296875
9.18,1569566955.3125
7.03,1569566955.328125
4.67,1569566955.34375
2.1,1569566955.359375
-0.62,1569566955.375
-3.31,1569566955.390625
-5.7,1569566955.40625
-7.59,1569566955.421875
-8.94,1569566955.4375
-9.91,1569566955.453125
-10.77,1569566955.46875
-11.77,1569566955.484375
-13.09,1569566955.5
-14.81,1569566955.515625
-16.93,1569566955.53125
-19.48,1569566955.546875
-22.41,1569566955.5625
-25.57,1569566955.578125
-28.58,1569566955.59375
-30.79,1569566955.609375
-31.42,1569566955.625
-29.8,1569566955.640625
-25.57,1569566955.65625
-18.98,1569566955.671875
-10.8,1569566955.6875
-2.14,1569566955.703125
5.9,1569566955.71875
12.58,1569566955.734375
17.64,1569566955.75
21.18,1569566955.765625
23.53,1569566955.78125
24.91,1569566955.796875
25.41,1569566955.8125
25.04,1569566955.828125
23.85,1569566955.84375
22.07,1569566955.859375
20.03,1569566955.875
18.08,1569566955.890625
16.49,1569566955.90625
15.29,1569566955.921875
14.38,1569566955.9375
13.54,1569566955.953125
12.57,1569566955.96875
11.4,1569566955.984375
10.04,1569566956.0
8.63,1569566956.015625
7.25,1569566956.03125
5.89,1569566956.046875
4.38,1569566956.0625
2.43,1569566956.078125
-0.25,1569566956.09375
-3.7,1569566956.109375
-7.71,1569566956.125
-11.75,1569566956.140625
-15.18,1569566956.15625
-17.59,1569566956.171875
-18.94,1569566956.1875
-19.66,1569566956.203125
-20.45,1569566956.21875
-21.98,1569566956.234375
-24.57,1569566956.25
-28.14,1569566956.265625
-32.14,1569566956.28125
-35.76,1569566956.296875
-38.08,1569566956.3125
-38.27,1569566956.328125
-35.76,1569566956.34375
-30.42,1569566956.359375
-22.68,1569566956.375
-13.5,1569566956.390625
-4.14,1569566956.40625
4.23,1569566956.421875
10.86,1569566956.4375
15.62,1569566956.453125
18.88,1569566956.46875
21.18,1569566956.484375
22.93,1569566956.5
24.23,1569566956.515625
24.92,1569566956.53125
24.87,1569566956.546875
24.12,1569566956.5625
22.97,1569566956.578125
21.84,1569566956.59375
21.03,1569566956.609375
20.58,1569566956.625
20.28,1569566956.640625
19.77,1569566956.65625
18.82,1569566956.671875
17.39,1569566956.6875
15.71,1569566956.703125
14.13,1569566956.71875
12.83,1569566956.734375
11.84,1569566956.75
10.83,1569566956.765625
9.33,1569566956.78125
6.96,1569566956.796875
3.56,1569566956.8125
-0.59,1569566956.828125
-5.01,1569566956.84375
-9.07,1569566956.859375
-12.35,1569566956.875
-14.77,1569566956.890625
-16.58,1569566956.90625
-18.34,1569566956.921875
-20.55,1569566956.9375
-23.59,1569566956.953125
-27.48,1569566956.96875
-31.86,1569566956.984375
-36.04,1569566957.0
-39.1,1569566957.015625
-40.14,1569566957.03125
-38.54,1569566957.046875
-34.08,1569566957.0625
-27.1,1569566957.078125
-18.44,1569566957.09375
-9.17,1569566957.109375
-0.34,1569566957.125
7.3,1569566957.140625
13.4,1569566957.15625
18.03,1569566957.171875
21.44,1569566957.1875
23.94,1569566957.203125
25.81,1569566957.21875
27.11,1569566957.234375
27.86,1569566957.25
27.98,1569566957.265625
27.51,1569566957.28125
26.55,1569566957.296875
25.37,1569566957.3125
24.29,1569566957.328125
23.49,1569566957.34375
22.97,1569566957.359375
22.48,1569566957.375
21.67,1569566957.390625
20.3,1569566957.40625
18.36,1569566957.421875
16.13,1569566957.4375
13.98,1569566957.453125
12.08,1569566957.46875
10.29,1569566957.484375
8.18,1569566957.5
5.27,1569566957.515625
1.37,1569566957.53125
-3.27,1569566957.546875
-8.02,1569566957.5625
-12.14,1569566957.578125
-15.1,1569566957.59375
-16.77,1569566957.609375
-17.49,1569566957.625
-17.85,1569566957.640625
-18.53,1569566957.65625
-20.0,1569566957.671875
-22.57,1569566957.6875
-26.17,1569566957.703125
-30.47,1569566957.71875
-34.77,1569566957.734375
-38.16,1569566957.75
-39.67,1569566957.765625
-38.51,1569566957.78125
-34.33,1569566957.796875
-27.4,1569566957.8125
-18.5,1569566957.828125
-8.78,1569566957.84375
0.58,1569566957.859375
8.65,1569566957.875
14.9,1569566957.890625
19.28,1569566957.90625
22.02,1569566957.921875
23.46,1569566957.9375
23.92,1569566957.953125
23.63,1569566957.96875
22.79,1569566957.984375
21.64,1569566958.0
20.39,1569566958.015625
19.18,1569566958.03125
18.08,1569566958.046875
16.97,1569566958.0625
15.68,1569566958.078125
14.15,1569566958.09375
12.49,1569566958.109375
11.03,1569566958.125
10.07,1569566958.140625
9.73,1569566958.15625
9.73,1569566958.171875
9.46,1569566958.1875
8.23,1569566958.203125
5.52,1569566958.21875
1.31,1569566958.234375
-3.94,1569566958.25
-9.35,1569566958.265625
-13.91,1569566958.28125
-16.78,1569566958.296875
-17.49,1569566958.3125
-16.14,1569566958.328125
-13.37,1569566958.34375
-10.29,1569566958.359375
-8.18,1569566958.375
-8.12,1569566958.390625
-10.63,1569566958.40625
-15.34,1569566958.421875
-21.11,1569566958.4375
-26.22,1569566958.453125
-28.98,1569566958.46875
-28.3,1569566958.484375
-24.02,1569566958.5
-16.96,1569566958.515625
-8.54,1569566958.53125
-0.3,1569566958.546875
6.64,1569566958.5625
11.85,1569566958.578125
15.49,1569566958.59375
18.11,1569566958.609375
20.19,1569566958.625
21.95,1569566958.640625
23.25,1569566958.65625
23.81,1569566958.671875
23.41,1569566958.6875
22.15,1569566958.703125
20.33,1569566958.71875
18.44,1569566958.734375
16.78,1569566958.75
15.43,1569566958.765625
14.22,1569566958.78125
12.92,1569566958.796875
11.41,1569566958.8125
9.83,1569566958.828125
8.5,1569566958.84375
7.66,1569566958.859375
7.36,1569566958.875
7.26,1569566958.890625
6.8,1569566958.90625
5.37,1569566958.921875
2.7,1569566958.9375
-1.13,1569566958.953125
-5.61,1569566958.96875
-10.07,1569566958.984375
-13.87,1569566959.0
-16.65,1569566959.015625
-18.39,1569566959.03125
-19.4,1569566959.046875
-20.2,1569566959.0625
-21.34,1569566959.078125
-23.25,1569566959.09375
-26.09,1569566959.109375
-29.57,1569566959.125
-33.06,1569566959.140625
-35.61,1569566959.15625
-36.28,1569566959.171875
-34.43,1569566959.1875
-29.9,1569566959.203125
-23.12,1569566959.21875
-14.97,1569566959.234375
-6.51,1569566959.25
1.29,1569566959.265625
7.8,1569566959.28125
12.84,1569566959.296875
16.58,1569566959.3125
19.35,1569566959.328125
21.49,1569566959.34375
23.15,1569566959.359375
24.27,1569566959.375
24.67,1569566959.390625
24.29,1569566959.40625
23.18,1569566959.421875
21.65,1569566959.4375
20.04,1569566959.453125
18.61,1569566959.46875
17.44,1569566959.484375
16.47,1569566959.5
15.56,1569566959.515625
14.68,1569566959.53125
13.89,1569566959.546875
13.28,1569566959.5625
12.89,1569566959.578125
12.54,1569566959.59375
11.88,1569566959.609375
10.5,1569566959.625
8.11,1569566959.640625
4.64,1569566959.65625
0.36,1569566959.671875
-4.17,1569566959.6875
-8.33,1569566959.703125
-11.57,1569566959.71875
-13.68,1569566959.734375
-14.85,1569566959.75
-15.62,1569566959.765625
-16.72,1569566959.78125
-18.76,1569566959.796875
-22.01,1569566959.8125
-26.17,1569566959.828125
-30.49,1569566959.84375
-33.87,1569566959.859375
-35.22,1569566959.875
-33.77,1569566959.890625
-29.36,1569566959.90625
-22.4,1569566959.921875
-13.86,1569566959.9375
-4.91,1569566959.953125
3.43,1569566959.96875
10.46,1569566959.984375
15.96,1569566960.0
19.99,1569566960.015625
22.81,1569566960.03125
24.6,1569566960.046875
25.46,1569566960.0625
25.4,1569566960.078125
24.54,1569566960.09375
23.15,1569566960.109375
21.67,1569566960.125
20.57,1569566960.140625
20.12,1569566960.15625
20.29,1569566960.171875
20.72,1569566960.1875
20.89,1569566960.203125
20.37,1569566960.21875
19.05,1569566960.234375
17.17,1569566960.25
15.24,1569566960.265625
13.68,1569566960.28125
12.71,1569566960.296875
12.12,1569566960.3125
11.38,1569566960.328125
9.89,1569566960.34375
7.16,1569566960.359375
3.05,1569566960.375
-2.18,1569566960.390625
-7.97,1569566960.40625
-13.72,1569566960.421875
-18.89,1569566960.4375
-23.24,1569566960.453125
-26.81,1569566960.46875
-29.87,1569566960.484375
-32.91,1569566960.5
-36.41,1569566960.515625
-40.64,1569566960.53125
-45.44,1569566960.546875
-50.07,1569566960.5625
-53.27,1569566960.578125
-53.66,1569566960.59375
-50.29,1569566960.609375
-43.06,1569566960.625
-32.94,1569566960.640625
-21.59,1569566960.65625
-10.86,1569566960.671875
-2.06,1569566960.6875
4.3,1569566960.703125
8.58,1569566960.71875
11.57,1569566960.734375
14.09,1569566960.75
16.64,1569566960.765625
19.25,1569566960.78125
21.66,1569566960.796875
23.44,1569566960.8125
24.17,1569566960.828125
23.54,1569566960.84375
21.36,1569566960.859375
17.59,1569566960.875
12.47,1569566960.890625
6.61,1569566960.90625
0.87,1569566960.921875
-3.74,1569566960.9375
-6.46,1569566960.953125
-7.05,1569566960.96875
-6.02,1569566960.984375
-4.45,1569566961.0
-3.73,1569566961.015625
-4.95,1569566961.03125
-8.59,1569566961.046875
-14.35,1569566961.0625
-21.37,1569566961.078125
-28.57,1569566961.09375
-35.1,1569566961.109375
-40.56,1569566961.125
-45.06,1569566961.140625
-49.11,1569566961.15625
-53.31,1569566961.171875
-58.08,1569566961.1875
-63.48,1569566961.203125
-69.08,1569566961.21875
-74.06,1569566961.234375
-77.34,1569566961.25
-77.78,1569566961.265625
-74.39,1569566961.28125
-66.64,1569566961.296875
-54.58,1569566961.3125
-38.98,1569566961.328125
-21.27,1569566961.34375
-3.28,1569566961.359375
13.12,1569566961.375
26.48,1569566961.390625
36.07,1569566961.40625
41.93,1569566961.421875
44.71,1569566961.4375
45.36,1569566961.453125
44.75,1569566961.46875
43.54,1569566961.484375
42.07,1569566961.5
40.53,1569566961.515625
39.06,1569566961.53125
37.78,1569566961.546875
36.82,1569566961.5625
36.21,1569566961.578125
35.94,1569566961.59375
35.92,1569566961.609375
36.0,1569566961.625
36.11,1569566961.640625
36.13,1569566961.65625
35.91,1569566961.671875
35.2,1569566961.6875
33.63,1569566961.703125
30.77,1569566961.71875
26.35,1569566961.734375
20.36,1569566961.75
13.19,1569566961.765625
5.54,1569566961.78125
-1.73,1569566961.796875
-7.95,1569566961.8125
-12.85,1569566961.828125
-16.66,1569566961.84375
-20.05,1569566961.859375
-23.82,1569566961.875
-28.63,1569566961.890625
-34.65,1569566961.90625
-41.4,1569566961.921875
-47.74,1569566961.9375
-52.11,1569566961.953125
-53.0,1569566961.96875
-49.39,1569566961.984375
-41.19,1569566962.0
-29.28,1569566962.015625
-15.31,1569566962.03125
-1.17,1569566962.046875
11.61,1569566962.0625
22.19,1569566962.078125
30.48,1569566962.09375
36.94,1569566962.109375
42.08,1569566962.125
46.22,1569566962.140625
49.41,1569566962.15625
51.55,1569566962.171875
52.65,1569566962.1875
52.91,1569566962.203125
52.71,1569566962.21875
52.5,1569566962.234375
52.49,1569566962.25
52.65,1569566962.265625
52.72,1569566962.28125
52.48,1569566962.296875
51.84,1569566962.3125
50.91,1569566962.328125
49.89,1569566962.34375
48.84,1569566962.359375
47.54,1569566962.375
45.41,1569566962.390625
41.73,1569566962.40625
35.92,1569566962.421875
27.87,1569566962.4375
18.04,1569566962.453125
7.42,1569566962.46875
-2.86,1569566962.484375
-11.88,1569566962.5
-19.27,1569566962.515625
-25.31,1569566962.53125
-30.69,1569566962.546875
-36.25,1569566962.5625
-42.64,1569566962.578125
-50.08,1569566962.59375
-58.25,1569566962.609375
-66.29,1569566962.625
-72.89,1569566962.640625
-76.57,1569566962.65625
-76.03,1569566962.671875
-70.57,1569566962.6875
-60.45,1569566962.703125
-46.97,1569566962.71875
-32.11,1569566962.734375
-17.99,1569566962.75
-6.24,1569566962.765625
2.47,1569566962.78125
8.33,1569566962.796875
12.12,1569566962.8125
14.74,1569566962.828125
16.81,1569566962.84375
18.6,1569566962.859375
20.08,1569566962.875
21.12,1569566962.890625
21.68,1569566962.90625
21.81,1569566962.921875
21.62,1569566962.9375
21.21,1569566962.953125
20.64,1569566962.96875
19.94,1569566962.984375
19.22,1569566963.0
18.61,1569566963.015625
18.24,1569566963.03125
18.11,1569566963.046875
18.07,1569566963.0625
17.72,1569566963.078125
16.58,1569566963.09375
14.16,1569566963.109375
10.26,1569566963.125
5.03,1569566963.140625
-0.89,1569566963.15625
-6.64,1569566963.171875
-11.34,1569566963.1875
-14.5,1569566963.203125
-16.21,1569566963.21875
-17.13,1569566963.234375
-18.24,1569566963.25
-20.5,1569566963.265625
-24.48,1569566963.28125
-30.2,1569566963.296875
-37.03,1569566963.3125
-43.81,1569566963.328125
-48.95,1569566963.34375
-50.84,1569566963.359375
-48.27,1569566963.375
-40.8,1569566963.390625
-29.15,1569566963.40625
-14.96,1569566963.421875
-0.35,1569566963.4375
12.77,1569566963.453125
23.26,1569566963.46875
30.92,1569566963.484375
36.14,1569566963.5
39.48,1569566963.515625
41.38,1569566963.53125
41.98,1569566963.546875
41.43,1569566963.5625
39.94,1569566963.578125
37.96,1569566963.59375
35.95,1569566963.609375
34.22,1569566963.625
32.78,1569566963.640625
31.37,1569566963.65625
29.7,1569566963.671875
27.6,1569566963.6875
25.09,1569566963.703125
22.39,1569566963.71875
19.74,1569566963.734375
17.27,1569566963.75
14.85,1569566963.765625
12.18,1569566963.78125
8.83,1569566963.796875
4.57,1569566963.8125
-0.55,1569566963.828125
-6.05,1569566963.84375
-11.26,1569566963.859375
-15.53,1569566963.875
-18.6,1569566963.890625
-20.73,1569566963.90625
-22.67,1569566963.921875
-25.37,1569566963.9375
-29.6,1569566963.953125
-35.7,1569566963.96875
-43.29,1569566963.984375
-51.33,1569566964.0
-58.17,1569566964.015625
-61.96,1569566964.03125
-61.11,1569566964.046875
-54.84,1569566964.0625
-43.5,1569566964.078125
-28.65,1569566964.09375
-12.62,1569566964.109375
2.22,1569566964.125
14.15,1569566964.140625
22.49,1569566964.15625
27.58,1569566964.171875
30.36,1569566964.1875
31.78,1569566964.203125
32.45,1569566964.21875
32.48,1569566964.234375
31.72,1569566964.25
30.07,1569566964.265625
27.75,1569566964.28125
25.21,1569566964.296875
23.01,1569566964.3125
21.47,1569566964.328125
20.54,1569566964.34375
19.87,1569566964.359375
19.04,1569566964.375
17.88,1569566964.390625
16.52,1569566964.40625
15.37,1569566964.421875
14.68,1569566964.4375
14.39,1569566964.453125
13.91,1569566964.46875
12.46,1569566964.484375
9.32,1569566964.5
4.28,1569566964.515625
-2.27,1569566964.53125
-9.45,1569566964.546875
-16.23,1569566964.5625
-21.79,1569566964.578125
-25.9,1569566964.59375
-28.9,1569566964.609375
-31.64,1569566964.625
-35.2,1569566964.640625
-40.49,1569566964.65625
-47.85,1569566964.671875
-56.76,1569566964.6875
-65.77,1569566964.703125
-72.7,1569566964.71875
-75.22,1569566964.734375
-71.69,1569566964.75
-61.69,1569566964.765625
-46.32,1569566964.78125
-27.89,1569566964.796875
-9.13,1569566964.8125
7.64,1569566964.828125
21.09,1569566964.84375
30.99,1569566964.859375
37.9,1569566964.875
42.62,1569566964.890625
45.8,1569566964.90625
47.73,1569566964.921875
48.53,1569566964.9375
48.36,1569566964.953125
47.56,1569566964.96875
46.63,1569566964.984375
45.94,1569566965.0
45.61,1569566965.015625
45.41,1569566965.03125
44.92,1569566965.046875
43.72,1569566965.0625
41.69,1569566965.078125
39.06,1569566965.09375
36.32,1569566965.109375
33.87,1569566965.125
31.86,1569566965.140625
29.98,1569566965.15625
27.64,1569566965.171875
24.25,1569566965.1875
19.46,1569566965.203125
13.42,1569566965.21875
6.72,1569566965.234375
0.17,1569566965.25
-5.51,1569566965.265625
-9.95,1569566965.28125
-13.35,1569566965.296875
-16.31,1569566965.3125
-19.6,1569566965.328125
-23.92,1569566965.34375
-29.66,1569566965.359375
-36.8,1569566965.375
-44.87,1569566965.390625
-52.97,1569566965.40625
-59.76,1569566965.421875
-63.67,1569566965.4375
-63.28,1569566965.453125
-57.78,1569566965.46875
-47.4,1569566965.484375
-33.44,1569566965.5
-17.9,1569566965.515625
-2.8,1569566965.53125
10.49,1569566965.546875
21.48,1569566965.5625
30.35,1569566965.578125
37.48,1569566965.59375
42.94,1569566965.609375
46.4,1569566965.625
47.44,1569566965.640625
46.02,1569566965.65625
42.81,1569566965.671875
39.04,1569566965.6875
36.08,1569566965.703125
34.84,1569566965.71875
35.36,1569566965.734375
36.89,1569566965.75
38.29,1569566965.765625
38.52,1569566965.78125
37.11,1569566965.796875
34.23,1569566965.8125
30.54,1569566965.828125
26.75,1569566965.84375
23.27,1569566965.859375
20.03,1569566965.875
16.57,1569566965.890625
12.32,1569566965.90625
6.91,1569566965.921875
0.51,1569566965.9375
-6.3,1569566965.953125
-12.66,1569566965.96875
-17.83,1569566965.984375
-21.49,1569566966.0
-23.88,1569566966.015625
-25.65,1569566966.03125
-27.63,1569566966.046875
-30.49,1569566966.0625
-34.59,1569566966.078125
-39.94,1569566966.09375
-46.1,1569566966.109375
-52.1,1569566966.125
-56.5,1569566966.140625
-57.6,1569566966.15625
-53.96,1569566966.171875
-45.06,1569566966.1875
-31.65,1569566966.203125
-15.74,1569566966.21875
0.13,1569566966.234375
13.74,1569566966.25
23.91,1569566966.265625
30.66,1569566966.28125
34.84,1569566966.296875
37.41,1569566966.3125
38.93,1569566966.328125
39.47,1569566966.34375
38.81,1569566966.359375
36.93,1569566966.375
34.15,1569566966.390625
31.19,1569566966.40625
28.75,1569566966.421875
27.28,1569566966.4375
26.77,1569566966.453125
26.76,1569566966.46875
26.68,1569566966.484375
26.05,1569566966.5
24.8,1569566966.515625
23.18,1569566966.53125
21.57,1569566966.546875
20.21,1569566966.5625
18.92,1569566966.578125
17.12,1569566966.59375
14.12,1569566966.609375
9.44,1569566966.625
3.16,1569566966.640625
-4.03,1569566966.65625
-11.09,1569566966.671875
-17.06,1569566966.6875
-21.4,1569566966.703125
-24.21,1569566966.71875
-26.18,1569566966.734375
-28.26,1569566966.75
-31.35,1569566966.765625
-36.04,1569566966.78125
-42.39,1569566966.796875
-49.74,1569566966.8125
-56.72,1569566966.828125
-61.44,1569566966.84375
-61.94,1569566966.859375
-56.92,1569566966.875
-46.3,1569566966.890625
-31.46,1569566966.90625
-14.88,1569566966.921875
0.74,1569566966.9375
13.4,1569566966.953125
22.35,1569566966.96875
28.1,1569566966.984375
31.8,1569566967.0
34.46,1569566967.015625
36.53,1569566967.03125
37.82,1569566967.046875
37.93,1569566967.0625
36.71,1569566967.078125
34.51,1569566967.09375
32.03,1569566967.109375
30.0,1569566967.125
28.77,1569566967.140625
28.21,1569566967.15625
27.7,1569566967.171875
26.59,1569566967.1875
24.5,1569566967.203125
21.49,1569566967.21875
18.08,1569566967.234375
14.83,1569566967.25
12.09,1569566967.265625
9.68,1569566967.28125
7.03,1569566967.296875
3.41,1569566967.3125
-1.68,1569566967.328125
-8.16,1569566967.34375
-15.34,1569566967.359375
-22.19,1569566967.375
-27.78,1569566967.390625
-31.62,1569566967.40625
-33.87,1569566967.421875
-35.28,1569566967.4375
-36.86,1569566967.453125
-39.52,1569566967.46875
-43.84,1569566967.484375
-49.87,1569566967.5
-57.04,1569566967.515625
-64.21,1569566967.53125
-69.71,1569566967.546875
-71.69,1569566967.5625
-68.6,1569566967.578125
-59.77,1569566967.59375
-45.88,1569566967.609375
-28.91,1569566967.625
-11.55,1569566967.640625
3.69,1569566967.65625
15.24,1569566967.671875
22.89,1569566967.6875
27.47,1569566967.703125
30.24,1569566967.71875
32.15,1569566967.734375
33.5,1569566967.75
34.11,1569566967.765625
33.71,1569566967.78125
32.34,1569566967.796875
30.54,1569566967.8125
28.97,1569566967.828125
28.18,1569566967.84375
28.17,1569566967.859375
28.46,1569566967.875
28.3,1569566967.890625
27.07,1569566967.90625
24.65,1569566967.921875
21.43,1569566967.9375
18.09,1569566967.953125
15.26,1569566967.96875
13.17,1569566967.984375
11.49,1569566968.0
9.53,1569566968.015625
6.58,1569566968.03125
2.26,1569566968.046875
-3.29,1569566968.0625
-9.39,1569566968.078125
-15.16,1569566968.09375
-19.89,1569566968.109375
-23.31,1569566968.125
-25.75,1569566968.140625
-27.96,1569566968.15625
-30.88,1569566968.171875
-35.24,1569566968.1875
-41.31,1569566968.203125
-48.64,1569566968.21875
-56.01,1569566968.234375
-61.59,1569566968.25
-63.38,1569566968.265625
-59.8,1569566968.28125
-50.31,1569566968.296875
-35.75,1569566968.3125
-18.22,1569566968.328125
-0.42,1569566968.34375
15.19,1569566968.359375
27.11,1569566968.375
35.07,1569566968.390625
39.73,1569566968.40625
42.12,1569566968.421875
43.01,1569566968.4375
42.69,1569566968.453125
41.11,1569566968.46875
38.3,1569566968.484375
34.64,1569566968.5
30.84,1569566968.515625
27.73,1569566968.53125
25.81,1569566968.546875
24.99,1569566968.5625
24.72,1569566968.578125
24.22,1569566968.59375
23.0,1569566968.609375
21.03,1569566968.625
18.68,1569566968.640625
16.46,1569566968.65625
14.57,1569566968.671875
12.81,1569566968.6875
10.62,1569566968.703125
7.47,1569566968.71875
3.08,1569566968.734375
-2.32,1569566968.75
-8.09,1569566968.765625
-13.49,1569566968.78125
-17.88,1569566968.796875
-21.01,1569566968.8125
-23.05,1569566968.828125
-24.58,1569566968.84375
-26.34,1569566968.859375
-29.12,1569566968.875
-33.45,1569566968.890625
-39.41,1569566968.90625
-46.42,1569566968.921875
-53.24,1569566968.9375
-58.12,1569566968.953125
-59.2,1569566968.96875
-55.16,1569566968.984375
-45.74,1569566969.0
-32.03,1569566969.015625
-16.2,1569566969.03125
-0.76,1569566969.046875
12.24,1569566969.0625
21.93,1569566969.078125
28.53,1569566969.09375
32.95,1569566969.109375
36.05,1569566969.125
38.18,1569566969.140625
39.08,1569566969.15625
38.39,1569566969.171875
36.06,1569566969.1875
32.61,1569566969.203125
28.98,1569566969.21875
26.07,1569566969.234375
24.28,1569566969.25
23.42,1569566969.265625
22.92,1569566969.28125
22.19,1569566969.296875
21.01,1569566969.3125
19.56,1569566969.328125
18.24,1569566969.34375
17.39,1569566969.359375
16.96,1569566969.375
16.48,1569566969.390625
15.2,1569566969.40625
12.44,1569566969.421875
7.93,1569566969.4375
1.94,1569566969.453125
-4.73,1569566969.46875
-11.11,1569566969.484375
-16.43,1569566969.5
-20.39,1569566969.515625
-23.35,1569566969.53125
-26.07,1569566969.546875
-29.41,1569566969.5625
-34.02,1569566969.578125
-40.09,1569566969.59375
-47.19,1569566969.609375
-54.26,1569566969.625
-59.79,1569566969.640625
-62.07,1569566969.65625
-59.71,1569566969.671875
-52.12,1569566969.6875
-39.87,1569566969.703125
-24.66,1569566969.71875
-8.8,1569566969.734375
5.51,1569566969.75
16.87,1569566969.765625
24.95,1569566969.78125
30.28,1569566969.796875
33.77,1569566969.8125
36.12,1569566969.828125
37.58,1569566969.84375
38.04,1569566969.859375
37.32,1569566969.875
35.46,1569566969.890625
32.87,1569566969.90625
30.08,1569566969.921875
27.6,1569566969.9375
25.64,1569566969.953125
24.08,1569566969.96875
22.65,1569566969.984375
21.07,1569566970.0
19.26,1569566970.015625
17.36,1569566970.03125
15.58,1569566970.046875
14.03,1569566970.0625
12.6,1569566970.078125
10.87,1569566970.09375
8.32,1569566970.109375
4.56,1569566970.125
-0.51,1569566970.140625
-6.54,1569566970.15625
-12.8,1569566970.171875
-18.48,1569566970.1875
-22.92,1569566970.203125
-25.96,1569566970.21875
-28.03,1569566970.234375
-30.0,1569566970.25
-32.87,1569566970.265625
-37.36,1569566970.28125
-43.55,1569566970.296875
-50.75,1569566970.3125
-57.57,1569566970.328125
-62.22,1569566970.34375
-63.01,1569566970.359375
-58.91,1569566970.375
-49.82,1569566970.390625
-36.76,1569566970.40625
-21.55,1569566970.421875
-6.33,1569566970.4375
7.11,1569566970.453125
17.74,1569566970.46875
25.43,1569566970.484375
30.66,1569566970.5
34.1,1569566970.515625
36.23,1569566970.53125
37.16,1569566970.546875
36.82,1569566970.5625
35.22,1569566970.578125
32.69,1569566970.59375
29.9,1569566970.609375
27.59,1569566970.625
26.26,1569566970.640625
25.9,1569566970.65625
26.03,1569566970.671875
25.92,1569566970.6875
25.0,1569566970.703125
23.1,1569566970.71875
20.52,1569566970.734375
17.74,1569566970.75
15.15,1569566970.765625
12.73,1569566970.78125
10.12,1569566970.796875
6.75,1569566970.8125
2.27,1569566970.828125
-3.26,1569566970.84375
-9.28,1569566970.859375
-15.0,1569566970.875
-19.69,1569566970.890625
-23.04,1569566970.90625
-25.25,1569566970.921875
-27.01,1569566970.9375
-29.18,1569566970.953125
-32.49,1569566970.96875
-37.31,1569566970.984375
-43.4,1569566971.0
-49.93,1569566971.015625
-55.6,1569566971.03125
-58.85,1569566971.046875
-58.25,1569566971.0625
-52.94,1569566971.078125
-42.96,1569566971.09375
-29.41,1569566971.109375
-14.1,1569566971.125
0.83,1569566971.140625
13.63,1569566971.15625
23.4,1569566971.171875
30.12,1569566971.1875
34.4,1569566971.203125
36.95,1569566971.21875
38.29,1569566971.234375
38.54,1569566971.25
37.66,1569566971.265625
35.72,1569566971.28125
33.06,1569566971.296875
30.27,1569566971.3125
27.9,1569566971.328125
26.24,1569566971.34375
25.22,1569566971.359375
24.43,1569566971.375
23.5,1569566971.390625
22.2,1569566971.40625
20.66,1569566971.421875
19.12,1569566971.4375
17.77,1569566971.453125
16.44,1569566971.46875
14.62,1569566971.484375
11.66,1569566971.5
7.15,1569566971.515625
1.15,1569566971.53125
-5.66,1569566971.546875
-12.27,1569566971.5625
-17.71,1569566971.578125
-21.49,1569566971.59375
-23.86,1569566971.609375
-25.64,1569566971.625
-27.98,1569566971.640625
-31.74,1569566971.65625
-37.26,1569566971.671875
-44.01,1569566971.6875
-50.66,1569566971.703125
-55.37,1569566971.71875
-56.25,1569566971.734375
-51.96,1569566971.75
-42.18,1569566971.765625
-27.85,1569566971.78125
-10.93,1569566971.796875
6.21,1569566971.8125
21.44,1569566971.828125
33.59,1569566971.84375
42.52,1569566971.859375
48.84,1569566971.875
53.38,1569566971.890625
56.61,1569566971.90625
58.36,1569566971.921875
58.07,1569566971.9375
55.26,1569566971.953125
50.03,1569566971.96875
43.12,1569566971.984375
35.73,1569566972.0
29.03,1569566972.015625
23.67,1569566972.03125
19.56,1569566972.046875
16.1,1569566972.0625
12.64,1569566972.078125
8.82,1569566972.09375
4.87,1569566972.109375
1.32,1569566972.125
-1.35,1569566972.140625
-3.18,1569566972.15625
-4.8,1569566972.171875
-7.24,1569566972.1875
-11.42,1569566972.203125
-17.62,1569566972.21875
-25.36,1569566972.234375
-33.5,1569566972.25
-40.74,1569566972.265625
-46.09,1569566972.28125
-49.28,1569566972.296875
-50.81,1569566972.3125
-51.68,1569566972.328125
-53.09,1569566972.34375
-55.94,1569566972.359375
-60.54,1569566972.375
-66.4,1569566972.390625
-72.1,1569566972.40625
-75.6,1569566972.421875
-74.71,1569566972.4375
-67.78,1569566972.453125
-54.42,1569566972.46875
-35.83,1569566972.484375
-14.56,1569566972.5
6.17,1569566972.515625
23.57,1569566972.53125
36.02,1569566972.546875
43.42,1569566972.5625
46.81,1569566972.578125
47.69,1569566972.59375
47.3,1569566972.609375
46.26,1569566972.625
44.67,1569566972.640625
42.4,1569566972.65625
39.5,1569566972.671875
36.37,1569566972.6875
33.55,1569566972.703125
31.48,1569566972.71875
30.18,1569566972.734375
29.31,1569566972.75
28.26,1569566972.765625
26.55,1569566972.78125
24.02,1569566972.796875
20.93,1569566972.8125
17.76,1569566972.828125
14.9,1569566972.84375
12.47,1569566972.859375
10.19,1569566972.875
7.57,1569566972.890625
4.11,1569566972.90625
-0.36,1569566972.921875
-5.59,1569566972.9375
-10.97,1569566972.953125
-15.78,1569566972.96875
-19.47,1569566972.984375
-21.96,1569566973.0
-23.7,1569566973.015625
-25.53,1569566973.03125
-28.43,1569566973.046875
-33.14,1569566973.0625
-39.81,1569566973.078125
-47.85,1569566973.09375
-55.86,1569566973.109375
-61.96,1569566973.125
-64.19,1569566973.140625
-61.09,1569566973.15625
-52.25,1569566973.171875
-38.57,1569566973.1875
-22.04,1569566973.203125
-5.12,1569566973.21875
9.98,1569566973.234375
21.95,1569566973.25
30.53,1569566973.265625
36.26,1569566973.28125
39.89,1569566973.296875
41.96,1569566973.3125
42.55,1569566973.328125
41.57,1569566973.34375
39.1,1569566973.359375
35.63,1569566973.375
32.06,1569566973.390625
29.3,1569566973.40625
27.94,1569566973.421875
27.93,1569566973.4375
28.65,1569566973.453125
29.25,1569566973.46875
29.02,1569566973.484375
27.76,1569566973.5
25.73,1569566973.515625
23.44,1569566973.53125
21.3,1569566973.546875
19.26,1569566973.5625
16.86,1569566973.578125
13.47,1569566973.59375
8.7,1569566973.609375
2.69,1569566973.625
-3.84,1569566973.640625
-9.88,1569566973.65625
-14.55,1569566973.671875
-17.54,1569566973.6875
-19.13,1569566973.703125
-20.26,1569566973.71875
-22.01,1569566973.734375
-25.28,1569566973.75
-30.52,1569566973.765625
-37.5,1569566973.78125
-45.36,1569566973.796875
-52.65,1569566973.8125
-57.63,1569566973.828125
-58.56,1569566973.84375
-54.27,1569566973.859375
-44.61,1569566973.875
-30.69,1569566973.890625
-14.62,1569566973.90625
1.15,1569566973.921875
14.58,1569566973.9375
24.63,1569566973.953125
31.38,1569566973.96875
35.61,1569566973.984375
38.12,1569566974.0
39.35,1569566974.015625
39.26,1569566974.03125
37.73,1569566974.046875
34.91,1569566974.0625
31.45,1569566974.078125
28.3,1569566974.09375
26.23,1569566974.109375
25.45,1569566974.125
25.53,1569566974.140625
25.64,1569566974.15625
25.01,1569566974.171875
23.33,1569566974.1875
20.84,1569566974.203125
18.2,1569566974.21875
15.96,1569566974.234375
14.38,1569566974.25
13.12,1569566974.265625
11.45,1569566974.28125
8.56,1569566974.296875
4.0,1569566974.3125
-2.07,1569566974.328125
-8.86,1569566974.34375
-15.3,1569566974.359375
-20.5,1569566974.375
-24.11,1569566974.390625
-26.56,1569566974.40625
-28.76,1569566974.421875
-31.73,1569566974.4375
-36.19,1569566974.453125
-42.31,1569566974.46875
-49.64,1569566974.484375
-57.22,1569566974.5
-63.69,1569566974.515625
-67.5,1569566974.53125
-67.14,1569566974.546875
-61.55,1569566974.5625
-50.66,1569566974.578125
-35.55,1569566974.59375
-18.3,1569566974.609375
-1.39,1569566974.625
13.11,1569566974.640625
24.11,1569566974.65625
31.63,1569566974.671875
36.38,1569566974.6875
39.24,1569566974.703125
40.7,1569566974.71875
40.87,1569566974.734375
39.63,1569566974.75
37.08,1569566974.765625
33.66,1569566974.78125
30.14,1569566974.796875
27.33,1569566974.8125
25.66,1569566974.828125
25.06,1569566974.84375
25.0,1569566974.859375
24.72,1569566974.875
23.64,1569566974.890625
21.67,1569566974.90625
19.17,1569566974.921875
16.81,1569566974.9375
15.18,1569566974.953125
14.39,1569566974.96875
13.98,1569566974.984375
13.04,1569566975.0
10.63,1569566975.015625
6.23,1569566975.03125
-0.05,1569566975.046875
-7.36,1569566975.0625
-14.51,1569566975.078125
-20.41,1569566975.09375
-24.5,1569566975.109375
-26.96,1569566975.125
-28.55,1569566975.140625
-30.36,1569566975.15625
-33.33,1569566975.171875
-37.96,1569566975.1875
-44.15,1569566975.203125
-51.11,1569566975.21875
-57.42,1569566975.234375
-61.32,1569566975.25
-61.11,1569566975.265625
-55.72,1569566975.28125
-45.22,1569566975.296875
-30.89,1569566975.3125
-14.95,1569566975.328125
0.25,1569566975.34375
12.97,1569566975.359375
22.51,1569566975.375
29.23,1569566975.390625
33.95,1569566975.40625
37.4,1569566975.421875
39.85,1569566975.4375
41.15,1569566975.453125
41.08,1569566975.46875
39.73,1569566975.484375
37.57,1569566975.5
35.36,1569566975.515625
33.73,1569566975.53125
32.96,1569566975.546875
32.85,1569566975.5625
32.87,1569566975.578125
32.43,1569566975.59375
31.17,1569566975.609375
29.1,1569566975.625
26.61,1569566975.640625
24.17,1569566975.65625
22.06,1569566975.671875
20.13,1569566975.6875
17.81,1569566975.703125
14.4,1569566975.71875
9.35,1569566975.734375
2.72,1569566975.75
-4.86,1569566975.765625
-12.3,1569566975.78125
-18.57,1569566975.796875
-23.12,1569566975.8125
-26.04,1569566975.828125
-27.99,1569566975.84375
-29.92,1569566975.859375
-32.71,1569566975.875
-36.94,1569566975.890625
-42.74,1569566975.90625
-49.7,1569566975.921875
-56.8,1569566975.9375
-62.47,1569566975.953125
-64.85,1569566975.96875
-62.29,1569566975.984375
-54.02,1569566976.0
-40.57,1569566976.015625
-23.8,1569566976.03125
-6.35,1569566976.046875
9.24,1569566976.0625
21.36,1569566976.078125
29.66,1569566976.09375
34.84,1569566976.109375
38.02,1569566976.125
40.04,1569566976.140625
41.12,1569566976.15625
41.06,1569566976.171875
39.65,1569566976.1875
37.02,1569566976.203125
33.8,1569566976.21875
30.87,1569566976.234375
28.89,1569566976.25
28.03,1569566976.265625
27.87,1569566976.28125
27.71,1569566976.296875
26.91,1569566976.3125
25.29,1569566976.328125
23.12,1569566976.34375
20.89,1569566976.359375
19.0,1569566976.375
17.44,1569566976.390625
15.78,1569566976.40625
13.39,1569566976.421875
9.73,1569566976.4375
4.69,1569566976.453125
-1.37,1569566976.46875
-7.69,1569566976.484375
-13.35,1569566976.5
-17.65,1569566976.515625
-20.31,1569566976.53125
-21.59,1569566976.546875
-22.25,1569566976.5625
-23.34,1569566976.578125
-25.84,1569566976.59375
-30.36,1569566976.609375
-36.94,1569566976.625
-44.9,1569566976.640625
-52.95,1569566976.65625
-59.34,1569566976.671875
-62.25,1569566976.6875
-60.3,1569566976.703125
-53.01,1569566976.71875
-41.06,1569566976.734375
-26.23,1569566976.75
-10.88,1569566976.765625
2.84,1569566976.78125
13.6,1569566976.796875
21.2,1569566976.8125
26.27,1569566976.828125
29.68,1569566976.84375
31.98,1569566976.859375
33.13,1569566976.875
32.8,1569566976.890625
30.75,1569566976.90625
27.3,1569566976.921875
23.25,1569566976.9375
19.65,1569566976.953125
17.25,1569566976.96875
16.27,1569566976.984375
16.33,1569566977.0
16.8,1569566977.015625
17.15,1569566977.03125
17.2,1569566977.046875
17.12,1569566977.0625
17.12,1569566977.078125
17.27,1569566977.09375
17.21,1569566977.109375
16.37,1569566977.125
14.13,1569566977.140625
10.22,1569566977.15625
4.89,1569566977.171875
-1.16,1569566977.1875
-7.03,1569566977.203125
-11.99,1569566977.21875
-15.76,1569566977.234375
-18.62,1569566977.25
-21.24,1569566977.265625
-24.43,1569566977.28125
-28.81,1569566977.296875
-34.64,1569566977.3125
-41.69,1569566977.328125
-49.21,1569566977.34375
-55.98,1569566977.359375
-60.41,1569566977.375
-60.9,1569566977.390625
-56.28,1569566977.40625
-46.34,1569566977.421875
-32.11,1569566977.4375
-15.67,1569566977.453125
0.43,1569566977.46875
14.04,1569566977.484375
24.08,1569566977.5
30.62,1569566977.515625
34.57,1569566977.53125
36.99,1569566977.546875
38.49,1569566977.5625
39.13,1569566977.578125
38.62,1569566977.59375
36.81,1569566977.609375
34.03,1569566977.625
30.96,1569566977.640625
28.4,1569566977.65625
26.79,1569566977.671875
26.07,1569566977.6875
25.73,1569566977.703125
25.13,1569566977.71875
23.95,1569566977.734375
22.27,1569566977.75
20.56,1569566977.765625
19.29,1569566977.78125
18.56,1569566977.796875
18.02,1569566977.8125
16.91,1569566977.828125
14.46,1569566977.84375
10.23,1569566977.859375
4.43,1569566977.875
-2.28,1569566977.890625
-8.94,1569566977.90625
-14.71,1569566977.921875
-19.17,1569566977.9375
-22.4,1569566977.953125
-24.9,1569566977.96875
-27.48,1569566977.984375
-30.95,1569566978.0
-35.9,1569566978.015625
-42.46,1569566978.03125
-50.08,1569566978.046875
-57.5,1569566978.0625
-62.88,1569566978.078125
-64.29,1569566978.09375
-60.29,1569566978.109375
-50.56,1569566978.125
-36.13,1569566978.140625
-19.16,1569566978.15625
-2.26,1569566978.171875
12.36,1569566978.1875
23.47,1569566978.203125
31.05,1569566978.21875
35.84,1569566978.234375
38.82,1569566978.25
40.64,1569566978.265625
41.46,1569566978.28125
41.1,1569566978.296875
39.48,1569566978.3125
36.88,1569566978.328125
33.89,1569566978.34375
31.24,1569566978.359375
29.39,1569566978.375
28.34,1569566978.390625
27.62,1569566978.40625
26.67,1569566978.421875
25.1,1569566978.4375
22.93,1569566978.453125
20.58,1569566978.46875
18.58,1569566978.484375
17.15,1569566978.5
16.02,1569566978.515625
14.49,1569566978.53125
11.71,1569566978.546875
7.19,1569566978.5625
1.03,1569566978.578125
-6.02,1569566978.59375
-12.87,1569566978.609375
-18.6,1569566978.625
-22.75,1569566978.640625
-25.57,1569566978.65625
-27.82,1569566978.671875
-30.47,1569566978.6875
-34.35,1569566978.703125
-39.87,1569566978.71875
-46.84,1569566978.734375
-54.47,1569566978.75
-61.39,1569566978.765625
-65.9,1569566978.78125
-66.32,1569566978.796875
-61.53,1569566978.8125
-51.47,1569566978.828125
-37.31,1569566978.84375
-21.2,1569566978.859375
-5.62,1569566978.875
7.53,1569566978.890625
17.36,1569566978.90625
24.11,1569566978.921875
28.67,1569566978.9375
31.9,1569566978.953125
34.19,1569566978.96875
35.41,1569566978.984375
35.22,1569566979.0
33.57,1569566979.015625
30.91,1569566979.03125
28.07,1569566979.046875
25.88,1569566979.0625
24.78,1569566979.078125
24.62,1569566979.09375
24.9,1569566979.109375
25.01,1569566979.125
24.63,1569566979.140625
23.78,1569566979.15625
22.75,1569566979.171875
21.74,1569566979.1875
20.71,1569566979.203125
19.23,1569566979.21875
16.79,1569566979.234375
12.94,1569566979.25
7.61,1569566979.265625
1.19,1569566979.28125
-5.55,1569566979.296875
-11.72,1569566979.3125
-16.69,1569566979.328125
-20.19,1569566979.34375
-22.53,1569566979.359375
-24.44,1569566979.375
-26.85,1569566979.390625
-30.53,1569566979.40625
-35.84,1569566979.421875
-42.61,1569566979.4375
-49.97,1569566979.453125
-56.53,1569566979.46875
-60.49,1569566979.484375
-60.18,1569566979.5
-54.48,1569566979.515625
-43.43,1569566979.53125
-28.4,1569566979.546875
-11.74,1569566979.5625
3.88,1569566979.578125
16.43,1569566979.59375
25.05,1569566979.609375
30.2,1569566979.625
33.03,1569566979.640625
34.6,1569566979.65625
35.38,1569566979.671875
35.21,1569566979.6875
33.78,1569566979.703125
31.09,1569566979.71875
27.77,1569566979.734375
24.76,1569566979.75
22.93,1569566979.765625
22.53,1569566979.78125
23.1,1569566979.796875
23.77,1569566979.8125
23.7,1569566979.828125
22.58,1569566979.84375
20.67,1569566979.859375
18.6,1569566979.875
16.95,1569566979.890625
15.85,1569566979.90625
14.88,1569566979.921875
13.24,1569566979.9375
10.2,1569566979.953125
5.45,1569566979.96875
-0.66,1569566979.984375
-7.24,1569566980.0
-13.25,1569566980.015625
-17.92,1569566980.03125
-21.03,1569566980.046875
-23.03,1569566980.0625
-24.81,1569566980.078125
-27.4,1569566980.09375
-31.6,1569566980.109375
-37.71,1569566980.125
-45.36,1569566980.140625
-53.4,1569566980.15625
-60.08,1569566980.171875
-63.4,1569566980.1875
-61.68,1569566980.203125
-54.17,1569566980.21875
-41.47,1569566980.234375
-25.43,1569566980.25
-8.67,1569566980.265625
6.37,1569566980.28125
18.14,1569566980.296875
26.29,1569566980.3125
31.5,1569566980.328125
34.87,1569566980.34375
37.23,1569566980.359375
38.84,1569566980.375
39.47,1569566980.390625
38.83,1569566980.40625
36.94,1569566980.421875
34.3,1569566980.4375
31.7,1569566980.453125
29.87,1569566980.46875
29.1,1569566980.484375
29.14,1569566980.5
29.33,1569566980.515625
28.96,1569566980.53125
27.62,1569566980.546875
25.38,1569566980.5625
22.69,1569566980.578125
20.15,1569566980.59375
18.15,1569566980.609375
16.59,1569566980.625
14.94,1569566980.640625
12.38,1569566980.65625
8.24,1569566980.671875
2.34,1569566980.6875
-4.87,1569566980.703125
-12.38,1569566980.71875
-19.06,1569566980.734375
-24.07,1569566980.75
-27.23,1569566980.765625
-29.1,1569566980.78125
-30.69,1569566980.796875
-33.09,1569566980.8125
-37.07,1569566980.828125
-42.92,1569566980.84375
-50.25,1569566980.859375
-58.13,1569566980.875
-65.09,1569566980.890625
-69.35,1569566980.90625
-69.2,1569566980.921875
-63.47,1569566980.9375
-52.12,1569566980.953125
-36.4,1569566980.96875
-18.58,1569566980.984375
-1.35,1569566981.0
13.19,1569566981.015625
24.03,1569566981.03125
31.39,1569566981.046875
36.23,1569566981.0625
39.58,1569566981.078125
41.94,1569566981.09375
43.28,1569566981.109375
43.25,1569566981.125
41.69,1569566981.140625
38.91,1569566981.15625
35.69,1569566981.171875
32.93,1569566981.1875
31.27,1569566981.203125
30.83,1569566981.21875
31.12,1569566981.234375
31.37,1569566981.25
30.88,1569566981.265625
29.3,1569566981.28125
26.81,1569566981.296875
23.87,1569566981.3125
21.01,1569566981.328125
18.49,1569566981.34375
16.21,1569566981.359375
13.7,1569566981.375
10.4,1569566981.390625
5.96,1569566981.40625
0.39,1569566981.421875
-5.81,1569566981.4375
-11.94,1569566981.453125
-17.26,1569566981.46875
-21.35,1569566981.484375
-24.2,1569566981.5
-26.19,1569566981.515625
-27.94,1569566981.53125
-30.12,1569566981.546875
-33.27,1569566981.5625
-37.68,1569566981.578125
-43.36,1569566981.59375
-49.9,1569566981.609375
-56.43,1569566981.625
-61.58,1569566981.640625
-63.65,1569566981.65625
-61.08,1569566981.671875
-53.06,1569566981.6875
-39.99,1569566981.703125
-23.55,1569566981.71875
-6.25,1569566981.734375
9.37,1569566981.75
21.56,1569566981.765625
29.75,1569566981.78125
34.51,1569566981.796875
36.96,1569566981.8125
38.17,1569566981.828125
38.67,1569566981.84375
38.51,1569566981.859375
37.46,1569566981.875
35.5,1569566981.890625
32.91,1569566981.90625
30.32,1569566981.921875
28.33,1569566981.9375
27.3,1569566981.953125
27.07,1569566981.96875
27.19,1569566981.984375
27.05,1569566982.0
26.28,1569566982.015625
24.83,1569566982.03125
22.99,1569566982.046875
21.11,1569566982.0625
19.4,1569566982.078125
17.78,1569566982.09375
15.87,1569566982.109375
13.2,1569566982.125
9.44,1569566982.140625
4.53,1569566982.15625
-1.18,1569566982.171875
-7.04,1569566982.1875
-12.33,1569566982.203125
-16.46,1569566982.21875
-19.25,1569566982.234375
-20.98,1569566982.25
-22.28,1569566982.265625
-23.95,1569566982.28125
-26.7,1569566982.296875
-30.91,1569566982.3125
-36.6,1569566982.328125
-43.38,1569566982.34375
-50.36,1569566982.359375
-56.19,1569566982.375
-59.21,1569566982.390625
-57.82,1569566982.40625
-51.17,1569566982.421875
-39.54,1569566982.4375
-24.51,1569566982.453125
-8.47,1569566982.46875
6.14,1569566982.484375
17.7,1569566982.5
25.76,1569566982.515625
30.87,1569566982.53125
33.99,1569566982.546875
35.8,1569566982.5625
36.5,1569566982.578125
35.93,1569566982.59375
34.03,1569566982.609375
31.12,1569566982.625
27.96,1569566982.640625
25.43,1569566982.65625
24.11,1569566982.671875
23.98,1569566982.6875
24.53,1569566982.703125
25.01,1569566982.71875
24.8,1569566982.734375
23.67,1569566982.75
21.83,1569566982.765625
19.66,1569566982.78125
17.54,1569566982.796875
15.56,1569566982.8125
13.5,1569566982.828125
10.93,1569566982.84375
7.45,1569566982.859375
2.8,1569566982.875
-2.9,1569566982.890625
-9.23,1569566982.90625
-15.54,1569566982.921875
-21.13,1569566982.9375
-25.57,1569566982.953125
-28.78,1569566982.96875
-31.09,1569566982.984375
-33.04,1569566983.0
-35.3,1569566983.015625
-38.41,1569566983.03125
-42.73,1569566983.046875
-48.28,1569566983.0625
-54.64,1569566983.078125
-60.8,1569566983.09375
-65.23,1569566983.109375
-66.15,1569566983.125
-62.13,1569566983.140625
-52.69,1569566983.15625
-38.66,1569566983.171875
-22.01,1569566983.1875
-5.28,1569566983.203125
9.41,1569566983.21875
20.85,1569566983.234375
29.04,1569566983.25
34.74,1569566983.265625
38.83,1569566983.28125
41.81,1569566983.296875
43.68,1569566983.3125
44.1,1569566983.328125
42.85,1569566983.34375
40.1,1569566983.359375
36.5,1569566983.375
32.91,1569566983.390625
30.12,1569566983.40625
28.51,1569566983.421875
27.91,1569566983.4375
27.75,1569566983.453125
27.33,1569566983.46875
26.15,1569566983.484375
24.12,1569566983.5
21.52,1569566983.515625
18.83,1569566983.53125
16.4,1569566983.546875
14.23,1569566983.5625
11.99,1569566983.578125
9.13,1569566983.59375
5.24,1569566983.609375
0.25,1569566983.625
-5.43,1569566983.640625
-11.08,1569566983.65625
-15.97,1569566983.671875
-19.6,1569566983.6875
-21.98,1569566983.703125
-23.54,1569566983.71875
-25.01,1569566983.734375
-27.18,1569566983.75
-30.64,1569566983.765625
-35.67,1569566983.78125
-42.14,1569566983.796875
-49.44,1569566983.8125
-56.41,1569566983.828125
-61.48,1569566983.84375
-62.96,1569566983.859375
-59.49,1569566983.875
-50.63,1569566983.890625
-37.17,1569566983.90625
-20.94,1569566983.921875
-4.38,1569566983.9375
10.34,1569566983.953125
21.9,1569566983.96875
30.05,1569566983.984375
35.39,1569566984.0
38.88,1569566984.015625
41.23,1569566984.03125
42.69,1569566984.046875
43.12,1569566984.0625
42.3,1569566984.078125
40.22,1569566984.09375
37.32,1569566984.109375
34.31,1569566984.125
31.92,1569566984.140625
30.54,1569566984.15625
30.04,1569566984.171875
29.87,1569566984.1875
29.34,1569566984.203125
28.04,1569566984.21875
25.96,1569566984.234375
23.47,1569566984.25
21.02,1569566984.265625
18.85,1569566984.28125
16.82,1569566984.296875
14.51,1569566984.3125
11.45,1569566984.328125
7.35,1569566984.34375
2.2,1569566984.359375
-3.64,1569566984.375
-9.59,1569566984.390625
-15.05,1569566984.40625
-19.47,1569566984.421875
-22.67,1569566984.4375
-24.83,1569566984.453125
-26.46,1569566984.46875
-28.29,1569566984.484375
-30.97,1569566984.5
-34.89,1569566984.515625
-40.12,1569566984.53125
-46.33,1569566984.546875
-52.75,1569566984.5625
-58.18,1569566984.578125
-61.04,1569566984.59375
-59.73,1569566984.609375
-53.22,1569566984.625
-41.55,1569566984.640625
-26.11,1569566984.65625
-9.27,1569566984.671875
6.42,1569566984.6875
19.09,1569566984.703125
28.12,1569566984.71875
34.01,1569566984.734375
37.77,1569566984.75
40.3,1569566984.765625
41.91,1569566984.78125
42.42,1569566984.796875
41.55,1569566984.8125
39.27,1569566984.828125
36.04,1569566984.84375
32.57,1569566984.859375
29.61,1569566984.875
27.63,1569566984.890625
26.67,1569566984.90625
26.4,1569566984.921875
26.18,1569566984.9375
25.45,1569566984.953125
23.85,1569566984.96875
21.41,1569566984.984375
18.48,1569566985.0
15.51,1569566985.015625
12.74,1569566985.03125
10.07,1569566985.046875
7.08,1569566985.0625
3.23,1569566985.078125
-1.79,1569566985.09375
-7.83,1569566985.109375
-14.29,1569566985.125
-20.36,1569566985.140625
-25.3,1569566985.15625
-28.75,1569566985.171875
-30.81,1569566985.1875
-32.01,1569566985.203125
-33.02,1569566985.21875
-34.52,1569566985.234375
-36.99,1569566985.25
-40.66,1569566985.265625
-45.43,1569566985.28125
-50.83,1569566985.296875
-55.95,1569566985.3125
-59.52,1569566985.328125
-60.08,1569566985.34375
-56.48,1569566985.359375
-48.3,1569566985.375
-36.12,1569566985.390625
-21.55,1569566985.40625
-6.67,1569566985.421875
6.55,1569566985.4375
16.91,1569566985.453125
24.21,1569566985.46875
29.06,1569566985.484375
32.28,1569566985.5
34.47,1569566985.515625
35.66,1569566985.53125
35.53,1569566985.546875
33.82,1569566985.5625
30.72,1569566985.578125
27.01,1569566985.59375
23.85,1569566985.609375
22.25,1569566985.625
22.68,1569566985.640625
24.87,1569566985.65625
27.92,1569566985.671875
30.72,1569566985.6875
32.41,1569566985.703125
32.64,1569566985.71875
31.6,1569566985.734375
29.75,1569566985.75
27.51,1569566985.765625
25.0,1569566985.78125
21.98,1569566985.796875
18.08,1569566985.8125
12.93,1569566985.828125
6.58,1569566985.84375
-0.53,1569566985.859375
-7.67,1569566985.875
-13.99,1569566985.890625
-18.93,1569566985.90625
-22.35,1569566985.921875
-24.61,1569566985.9375
-26.47,1569566985.953125
-28.77,1569566985.96875
-32.21,1569566985.984375
-37.11,1569566986.0
-43.37,1569566986.015625
-50.35,1569566986.03125
-56.93,1569566986.046875
-61.67,1569566986.0625
-63.06,1569566986.078125
-59.89,1569566986.09375
-51.74,1569566986.109375
-39.2,1569566986.125
-23.82,1569566986.140625
-7.78,1569566986.15625
6.85,1569566986.171875
18.61,1569566986.1875
27.05,1569566986.203125
32.56,1569566986.21875
35.95,1569566986.234375
37.95,1569566986.25
38.92,1569566986.265625
38.85,1569566986.28125
37.7,1569566986.296875
35.57,1569566986.3125
32.87,1569566986.328125
30.15,1569566986.34375
27.85,1569566986.359375
26.15,1569566986.375
24.97,1569566986.390625
24.07,1569566986.40625
23.25,1569566986.421875
22.44,1569566986.4375
21.71,1569566986.453125
21.11,1569566986.46875
20.61,1569566986.484375
19.97,1569566986.5
18.81,1569566986.515625
16.66,1569566986.53125
13.19,1569566986.546875
8.37,1569566986.5625
2.47,1569566986.578125
-3.9,1569566986.59375
-9.98,1569566986.609375
-15.1,1569566986.625
-18.93,1569566986.640625
-21.61,1569566986.65625
-23.7,1569566986.671875
-25.96,1569566986.6875
-29.15,1569566986.703125
-33.71,1569566986.71875
-39.69,1569566986.734375
-46.56,1569566986.75
-53.36,1569566986.765625
-58.74,1569566986.78125
-61.19,1569566986.796875
-59.47,1569566986.8125
-52.97,1569566986.828125
-42.02,1569566986.84375
-27.96,1569566986.859375
-12.78,1569566986.875
1.45,1569566986.890625
13.18,1569566986.90625
21.82,1569566986.921875
27.65,1569566986.9375
31.45,1569566986.953125
33.99,1569566986.96875
35.67,1569566986.984375
36.48,1569566987.0
36.23,1569566987.015625
34.89,1569566987.03125
32.71,1569566987.046875
30.25,1569566987.0625
28.04,1569566987.078125
26.4,1569566987.09375
25.31,1569566987.109375
24.47,1569566987.125
23.54,1569566987.140625
22.32,1569566987.15625
20.81,1569566987.171875
19.23,1569566987.1875
17.79,1569566987.203125
16.56,1569566987.21875
15.36,1569566987.234375
13.78,1569566987.25
11.32,1569566987.265625
7.62,1569566987.28125
2.67,1569566987.296875
-3.16,1569566987.3125
-9.18,1569566987.328125
-14.64,1569566987.34375
-19.04,1569566987.359375
-22.32,1569566987.375
-24.84,1569566987.390625
-27.27,1569566987.40625
-30.23,1569566987.421875
-34.19,1569566987.4375
-39.24,1569566987.453125
-45.17,1569566987.46875
-51.33,1569566987.484375
-56.66,1569566987.5
-59.78,1569566987.515625
-59.2,1569566987.53125
-53.94,1569566987.546875
-43.88,1569566987.5625
-30.14,1569566987.578125
-14.7,1569566987.59375
0.12,1569566987.609375
12.45,1569566987.625
21.42,1569566987.640625
27.16,1569566987.65625
30.39,1569566987.671875
31.94,1569566987.6875
32.39,1569566987.703125
31.85,1569566987.71875
30.38,1569566987.734375
28.14,1569566987.75
25.59,1569566987.765625
23.37,1569566987.78125
22.05,1569566987.796875
21.82,1569566987.8125
22.4,1569566987.828125
23.21,1569566987.84375
23.72,1569566987.859375
23.78,1569566987.875
23.65,1569566987.890625
23.84,1569566987.90625
24.65,1569566987.921875
25.84,1569566987.9375
26.56,1569566987.953125
25.7,1569566987.96875
22.35,1569566987.984375
16.35,1569566988.0
8.34,1569566988.015625
-0.38,1569566988.03125
-8.38,1569566988.046875
-14.59,1569566988.0625
-18.66,1569566988.078125
-20.95,1569566988.09375
-22.38,1569566988.109375
-24.09,1569566988.125
-27.09,1569566988.140625
-31.99,1569566988.15625
-38.7,1569566988.171875
-46.43,1569566988.1875
-53.65,1569566988.203125
-58.53,1569566988.21875
-59.33,1569566988.234375
-55.04,1569566988.25
-45.75,1569566988.265625
-32.7,1569566988.28125
-17.9,1569566988.296875
-3.52,1569566988.3125
8.8,1569566988.328125
18.3,1569566988.34375
25.0,1569566988.359375
29.45,1569566988.375
32.18,1569566988.390625
33.55,1569566988.40625
33.62,1569566988.421875
32.49,1569566988.4375
30.36,1569566988.453125
27.75,1569566988.46875
25.24,1569566988.484375
23.31,1569566988.5
22.12,1569566988.515625
21.45,1569566988.53125
20.87,1569566988.546875
19.93,1569566988.5625
18.45,1569566988.578125
16.52,1569566988.59375
14.49,1569566988.609375
12.7,1569566988.625
11.28,1569566988.640625
9.97,1569566988.65625
8.27,1569566988.671875
5.63,1569566988.6875
1.71,1569566988.703125
-3.36,1569566988.71875
-9.05,1569566988.734375
-14.57,1569566988.75
-19.28,1569566988.765625
-22.87,1569566988.78125
-25.51,1569566988.796875
-27.81,1569566988.8125
-30.56,1569566988.828125
-34.46,1569566988.84375
-39.85,1569566988.859375
-46.52,1569566988.875
-53.56,1569566988.890625
-59.45,1569566988.90625
-62.44,1569566988.921875
-61.02,1569566988.9375
-54.47,1569566988.953125
-43.24,1569566988.96875
-28.83,1569566988.984375
-13.35,1569566989.0
1.11,1569566989.015625
13.16,1569566989.03125
22.31,1569566989.046875
28.93,1569566989.0625
33.74,1569566989.078125
37.27,1569566989.09375
39.71,1569566989.109375
40.88,1569566989.125
40.61,1569566989.140625
38.99,1569566989.15625
36.58,1569566989.171875
34.19,1569566989.1875
32.52,1569566989.203125
31.87,1569566989.21875
31.95,1569566989.234375
32.1,1569566989.25
31.63,1569566989.265625
30.18,1569566989.28125
27.85,1569566989.296875
25.12,1569566989.3125
22.57,1569566989.328125
20.49,1569566989.34375
18.82,1569566989.359375
17.1,1569566989.375
14.71,1569566989.390625
11.14,1569566989.40625
6.2,1569566989.421875
0.11,1569566989.4375
-6.52,1569566989.453125
-12.89,1569566989.46875
-18.31,1569566989.484375
-22.37,1569566989.5
-25.16,1569566989.515625
-27.11,1569566989.53125
-29.01,1569566989.546875
-31.63,1569566989.5625
-35.59,1569566989.578125
-41.08,1569566989.59375
-47.65,1569566989.609375
-54.15,1569566989.625
-58.86,1569566989.640625
-59.95,1569566989.65625
-56.1,1569566989.671875
-47.03,1569566989.6875
-33.77,1569566989.703125
-18.36,1569566989.71875
-3.17,1569566989.734375
9.95,1569566989.75
20.13,1569566989.765625
27.48,1569566989.78125
32.68,1569566989.796875
36.34,1569566989.8125
38.73,1569566989.828125
39.76,1569566989.84375
39.32,1569566989.859375
37.58,1569566989.875
35.14,1569566989.890625
32.77,1569566989.90625
31.16,1569566989.921875
30.55,1569566989.9375
30.67,1569566989.953125
30.87,1569566989.96875
30.45,1569566989.984375
29.0,1569566990.0
26.48,1569566990.015625
23.29,1569566990.03125
20.01,1569566990.046875
17.15,1569566990.0625
14.92,1569566990.078125
13.1,1569566990.09375
11.15,1569566990.109375
8.45,1569566990.125
4.58,1569566990.140625
-0.48,1569566990.15625
-6.28,1569566990.171875
-12.08,1569566990.1875
-17.07,1569566990.203125
-20.75,1569566990.21875
-23.0,1569566990.234375
-24.18,1569566990.25
-24.96,1569566990.265625
-26.14,1569566990.28125
-28.47,1569566990.296875
-32.43,1569566990.3125
-38.11,1569566990.328125
-45.04,1569566990.34375
-52.08,1569566990.359375
-57.56,1569566990.375
-59.6,1569566990.390625
-56.76,1569566990.40625
-48.5,1569566990.421875
-35.62,1569566990.4375
-19.98,1569566990.453125
-4.07,1569566990.46875
9.89,1569566990.484375
20.53,1569566990.5
27.62,1569566990.515625
31.78,1569566990.53125
33.96,1569566990.546875
34.92,1569566990.5625
34.88,1569566990.578125
33.73,1569566990.59375
31.35,1569566990.609375
27.99,1569566990.625
24.33,1569566990.640625
21.23,1569566990.65625
19.41,1569566990.671875
19.02,1569566990.6875
19.73,1569566990.703125
20.89,1569566990.71875
21.99,1569566990.734375
22.8,1569566990.75
23.43,1569566990.765625
24.0,1569566990.78125
24.38,1569566990.796875
24.08,1569566990.8125
22.42,1569566990.828125
18.91,1569566990.84375
13.61,1569566990.859375
7.16,1569566990.875
0.62,1569566990.890625
