bvp,time
88.0,1780135453.625
84.61,1780135453.640625
80.6,1780135453.65625
75.75,1780135453.671875
69.85,1780135453.6875
63.01,1780135453.703125
55.76,1780135453.71875
48.96,1780135453.734375
43.47,1780135453.75
39.77,1780135453.765625
37.71,1780135453.78125
36.56,1780135453.796875
35.39,1780135453.8125
33.41,1780135453.828125
30.37,1780135453.84375
26.52,1780135453.859375
22.41,1780135453.875
18.45,1780135453.890625
14.72,1780135453.90625
10.81,1780135453.921875
6.08,1780135453.9375
-0.02,1780135453.953125
-7.61,1780135453.96875
-16.28,1780135453.984375
-25.22,1780135454.0
-33.52,1780135454.015625
-40.53,1780135454.03125
-46.15,1780135454.046875
-50.78,1780135454.0625
-55.3,1780135454.078125
-60.73,1780135454.09375
-67.93,1780135454.109375
-77.17,1780135454.125
-87.83,1780135454.140625
-98.1,1780135454.15625
-105.22,1780135454.171875
-106.1,1780135454.1875
-98.31,1780135454.203125
-81.11,1780135454.21875
-55.92,1780135454.234375
-26.01,1780135454.25
4.5,1780135454.265625
31.96,1780135454.28125
54.21,1780135454.296875
70.85,1780135454.3125
82.71,1780135454.328125
91.14,1780135454.34375
97.23,1780135454.359375
101.5,1780135454.375
104.13,1780135454.390625
105.14,1780135454.40625
104.62,1780135454.421875
102.77,1780135454.4375
99.75,1780135454.453125
95.55,1780135454.46875
90.11,1780135454.484375
83.34,1780135454.5
75.3,1780135454.515625
66.31,1780135454.53125
56.84,1780135454.546875
47.51,1780135454.5625
38.89,1780135454.578125
31.46,1780135454.59375
25.45,1780135454.609375
20.87,1780135454.625
17.41,1780135454.640625
14.59,1780135454.65625
11.91,1780135454.671875
9.02,1780135454.6875
5.89,1780135454.703125
2.9,1780135454.71875
0.69,1780135454.734375
-0.02,1780135454.75
1.45,1780135454.765625
5.48,1780135454.78125
12.12,1780135454.796875
21.0,1780135454.8125
31.41,1780135454.828125
42.27,1780135454.84375
52.35,1780135454.859375
60.45,1780135454.875
65.66,1780135454.890625
67.43,1780135454.90625
65.59,1780135454.921875
60.32,1780135454.9375
52.06,1780135454.953125
41.41,1780135454.96875
28.93,1780135454.984375
14.95,1780135455.0
-0.58,1780135455.015625
-18.08,1780135455.03125
-37.87,1780135455.046875
-59.77,1780135455.0625
-82.6,1780135455.078125
-104.06,1780135455.09375
-121.28,1780135455.109375
-131.47,1780135455.125
-132.82,1780135455.140625
-125.04,1780135455.15625
-109.37,1780135455.171875
-88.26,1780135455.1875
-64.65,1780135455.203125
-41.45,1780135455.21875
-21.06,1780135455.234375
-5.08,1780135455.25
5.78,1780135455.265625
11.68,1780135455.28125
13.5,1780135455.296875
12.45,1780135455.3125
9.8,1780135455.328125
6.74,1780135455.34375
4.04,1780135455.359375
2.13,1780135455.375
1.15,1780135455.390625
1.01,1780135455.40625
1.45,1780135455.421875
2.24,1780135455.4375
3.18,1780135455.453125
4.09,1780135455.46875
4.93,1780135455.484375
5.62,1780135455.5
6.06,1780135455.515625
6.11,1780135455.53125
5.64,1780135455.546875
4.49,1780135455.5625
2.65,1780135455.578125
0.21,1780135455.59375
-2.67,1780135455.609375
-5.87,1780135455.625
-9.37,1780135455.640625
-13.25,1780135455.65625
-17.6,1780135455.671875
-22.39,1780135455.6875
-27.44,1780135455.703125
-32.48,1780135455.71875
-37.24,1780135455.734375
-41.57,1780135455.75
-45.6,1780135455.765625
-49.6,1780135455.78125
-53.93,1780135455.796875
-58.84,1780135455.8125
-64.43,1780135455.828125
-70.53,1780135455.84375
-76.51,1780135455.859375
-81.32,1780135455.875
-83.5,1780135455.890625
-81.5,1780135455.90625
-74.28,1780135455.921875
-61.71,1780135455.9375
-44.8,1780135455.953125
-25.5,1780135455.96875
-6.12,1780135455.984375
11.39,1780135456.0
25.86,1780135456.015625
36.94,1780135456.03125
44.96,1780135456.046875
50.4,1780135456.0625
53.61,1780135456.078125
54.82,1780135456.09375
54.16,1780135456.109375
51.84,1780135456.125
48.29,1780135456.140625
44.02,1780135456.15625
39.44,1780135456.171875
34.79,1780135456.1875
30.04,1780135456.203125
25.03,1780135456.21875
19.71,1780135456.234375
14.35,1780135456.25
9.54,1780135456.265625
6.07,1780135456.28125
4.54,1780135456.296875
5.15,1780135456.3125
7.54,1780135456.328125
10.89,1780135456.34375
14.26,1780135456.359375
16.86,1780135456.375
18.29,1780135456.390625
18.57,1780135456.40625
18.0,1780135456.421875
16.79,1780135456.4375
14.97,1780135456.453125
12.26,1780135456.46875
8.27,1780135456.484375
2.74,1780135456.5
-4.21,1780135456.515625
-12.07,1780135456.53125
-19.99,1780135456.546875
-27.18,1780135456.5625
-33.16,1780135456.578125
-37.84,1780135456.59375
-41.57,1780135456.609375
-44.88,1780135456.625
-48.34,1780135456.640625
-52.4,1780135456.65625
-57.31,1780135456.671875
-63.18,1780135456.6875
-69.73,1780135456.703125
-76.22,1780135456.71875
-81.34,1780135456.734375
-83.46,1780135456.75
-81.15,1780135456.765625
-73.74,1780135456.78125
-61.67,1780135456.796875
-46.35,1780135456.8125
-29.71,1780135456.828125
-13.41,1780135456.84375
1.49,1780135456.859375
14.73,1780135456.875
26.41,1780135456.890625
36.67,1780135456.90625
45.25,1780135456.921875
51.66,1780135456.9375
55.34,1780135456.953125
55.96,1780135456.96875
53.61,1780135456.984375
48.84,1780135457.0
42.4,1780135457.015625
35.15,1780135457.03125
27.85,1780135457.046875
21.15,1780135457.0625
15.63,1780135457.078125
11.74,1780135457.09375
9.79,1780135457.109375
9.85,1780135457.125
11.61,1780135457.140625
14.32,1780135457.15625
16.98,1780135457.171875
18.53,1780135457.1875
18.21,1780135457.203125
15.81,1780135457.21875
11.66,1780135457.234375
6.46,1780135457.25
1.04,1780135457.265625
-3.96,1780135457.28125
-8.18,1780135457.296875
-11.59,1780135457.3125
-14.35,1780135457.328125
-16.68,1780135457.34375
-18.71,1780135457.359375
-20.5,1780135457.375
-22.12,1780135457.390625
-23.7,1780135457.40625
-25.53,1780135457.421875
-28.05,1780135457.4375
-31.76,1780135457.453125
-37.06,1780135457.46875
-44.03,1780135457.484375
-52.26,1780135457.5
-60.73,1780135457.515625
-67.82,1780135457.53125
-71.57,1780135457.546875
-70.2,1780135457.5625
-62.69,1780135457.578125
-49.29,1780135457.59375
-31.52,1780135457.609375
-11.95,1780135457.625
6.75,1780135457.640625
22.42,1780135457.65625
34.03,1780135457.671875
41.65,1780135457.6875
46.07,1780135457.703125
48.28,1780135457.71875
48.98,1780135457.734375
48.5,1780135457.75
46.87,1780135457.765625
44.1,1780135457.78125
40.29,1780135457.796875
35.64,1780135457.8125
30.43,1780135457.828125
24.89,1780135457.84375
19.22,1780135457.859375
13.66,1780135457.875
8.59,1780135457.890625
4.47,1780135457.90625
1.84,1780135457.921875
1.07,1780135457.9375
2.2,1780135457.953125
4.91,1780135457.96875
8.46,1780135457.984375
11.97,1780135458.0
14.6,1780135458.015625
15.75,1780135458.03125
15.08,1780135458.046875
12.58,1780135458.0625
8.44,1780135458.078125
3.02,1780135458.09375
-3.06,1780135458.109375
-9.17,1780135458.125
-14.64,1780135458.140625
-18.91,1780135458.15625
-21.75,1780135458.171875
-23.3,1780135458.1875
-24.01,1780135458.203125
-24.55,1780135458.21875
-25.63,1780135458.234375
-27.76,1780135458.25
-31.17,1780135458.265625
-35.51,1780135458.28125
-39.81,1780135458.296875
-42.59,1780135458.3125
-42.14,1780135458.328125
-37.1,1780135458.34375
-26.96,1780135458.359375
-12.29,1780135458.375
5.38,1780135458.390625
23.98,1780135458.40625
41.45,1780135458.421875
56.16,1780135458.4375
67.11,1780135458.453125
73.85,1780135458.46875
76.42,1780135458.484375
75.3,1780135458.5
71.28,1780135458.515625
65.48,1780135458.53125
59.15,1780135458.546875
53.43,1780135458.5625
49.18,1780135458.578125
46.84,1780135458.59375
46.55,1780135458.609375
48.28,1780135458.625
52.08,1780135458.640625
58.16,1780135458.65625
66.82,1780135458.671875
78.17,1780135458.6875
91.71,1780135458.703125
106.09,1780135458.71875
119.26,1780135458.734375
129.09,1780135458.75
134.0,1780135458.765625
133.59,1780135458.78125
128.71,1780135458.796875
120.99,1780135458.8125
112.12,1780135458.828125
103.25,1780135458.84375
94.84,1780135458.859375
86.92,1780135458.875
79.45,1780135458.890625
72.56,1780135458.90625
66.41,1780135458.921875
61.05,1780135458.9375
56.48,1780135458.953125
52.83,1780135458.96875
50.6,1780135458.984375
50.44,1780135459.0
52.39,1780135459.015625
55.23,1780135459.03125
56.24,1780135459.046875
52.0,1780135459.0625
39.66,1780135459.078125
18.3,1780135459.09375
-10.61,1780135459.109375
-43.77,1780135459.125
-77.36,1780135459.140625
-108.33,1780135459.15625
-134.95,1780135459.171875
-156.63,1780135459.1875
-173.41,1780135459.203125
-185.45,1780135459.21875
-193.05,1780135459.234375
-196.8,1780135459.25
-197.76,1780135459.265625
-197.21,1780135459.28125
-196.27,1780135459.296875
-195.39,1780135459.3125
-194.12,1780135459.328125
-191.22,1780135459.34375
-185.17,1780135459.359375
-174.85,1780135459.375
-160.18,1780135459.390625
-142.51,1780135459.40625
-124.33,1780135459.421875
-108.59,1780135459.4375
-97.56,1780135459.453125
-92.1,1780135459.46875
-91.33,1780135459.484375
-93.1,1780135459.5
-94.87,1780135459.515625
-94.69,1780135459.53125
-91.72,1780135459.546875
-86.17,1780135459.5625
-79.02,1780135459.578125
-71.46,1780135459.59375
-64.55,1780135459.609375
-59.01,1780135459.625
-55.06,1780135459.640625
-52.41,1780135459.65625
-50.18,1780135459.671875
-47.15,1780135459.6875
-41.97,1780135459.703125
-33.58,1780135459.71875
-21.57,1780135459.734375
-6.36,1780135459.75
10.83,1780135459.765625
28.21,1780135459.78125
43.86,1780135459.796875
56.16,1780135459.8125
64.1,1780135459.828125
67.52,1780135459.84375
66.97,1780135459.859375
63.5,1780135459.875
58.26,1780135459.890625
52.17,1780135459.90625
45.77,1780135459.921875
39.15,1780135459.9375
32.24,1780135459.953125
24.96,1780135459.96875
17.41,1780135459.984375
9.93,1780135460.0
2.84,1780135460.015625
-3.58,1780135460.03125
-9.26,1780135460.046875
-14.37,1780135460.0625
-19.15,1780135460.078125
-23.86,1780135460.09375
-28.61,1780135460.109375
-33.41,1780135460.125
-38.23,1780135460.140625
-43.13,1780135460.15625
-48.28,1780135460.171875
-53.98,1780135460.1875
-60.56,1780135460.203125
-68.32,1780135460.21875
-77.39,1780135460.234375
-87.63,1780135460.25
-98.5,1780135460.265625
-108.91,1780135460.28125
-117.28,1780135460.296875
-121.71,1780135460.3125
-120.45,1780135460.328125
-112.46,1780135460.34375
-97.76,1780135460.359375
-77.53,1780135460.375
-53.88,1780135460.390625
-29.25,1780135460.40625
-5.81,1780135460.421875
14.94,1780135460.4375
32.23,1780135460.453125
45.91,1780135460.46875
56.09,1780135460.484375
62.95,1780135460.5
66.6,1780135460.515625
67.08,1780135460.53125
64.64,1780135460.546875
59.76,1780135460.5625
53.17,1780135460.578125
45.71,1780135460.59375
38.02,1780135460.609375
30.43,1780135460.625
22.9,1780135460.640625
15.24,1780135460.65625
7.25,1780135460.671875
-0.97,1780135460.6875
-9.07,1780135460.703125
-16.54,1780135460.71875
-22.97,1780135460.734375
-28.16,1780135460.75
-32.25,1780135460.765625
-35.6,1780135460.78125
-38.74,1780135460.796875
-42.27,1780135460.8125
-46.81,1780135460.828125
-52.95,1780135460.84375
-61.09,1780135460.859375
-71.15,1780135460.875
-82.32,1780135460.890625
-92.99,1780135460.90625
-100.93,1780135460.921875
-103.8,1780135460.9375
-99.9,1780135460.953125
-88.6,1780135460.96875
-70.67,1780135460.984375
-47.94,1780135461.0
-22.79,1780135461.015625
2.43,1780135461.03125
25.83,1780135461.046875
46.2,1780135461.0625
62.9,1780135461.078125
75.71,1780135461.09375
84.7,1780135461.109375
90.14,1780135461.125
92.4,1780135461.140625
91.94,1780135461.15625
89.22,1780135461.171875
84.57,1780135461.1875
78.28,1780135461.203125
70.65,1780135461.21875
62.05,1780135461.234375
53.02,1780135461.25
44.16,1780135461.265625
36.06,1780135461.28125
29.14,1780135461.296875
23.54,1780135461.3125
19.06,1780135461.328125
15.26,1780135461.34375
11.6,1780135461.359375
7.54,1780135461.375
2.83,1780135461.390625
-2.6,1780135461.40625
-8.61,1780135461.421875
-14.95,1780135461.4375
-21.54,1780135461.453125
-28.49,1780135461.46875
-36.23,1780135461.484375
-45.4,1780135461.5
-56.52,1780135461.515625
-69.62,1780135461.53125
-83.74,1780135461.546875
-96.95,1780135461.5625
-106.49,1780135461.578125
-109.57,1780135461.59375
-104.2,1780135461.609375
-89.85,1780135461.625
-67.64,1780135461.640625
-40.05,1780135461.65625
-10.11,1780135461.671875
19.32,1780135461.6875
46.14,1780135461.703125
69.12,1780135461.71875
87.67,1780135461.734375
101.67,1780135461.75
111.19,1780135461.765625
116.42,1780135461.78125
117.79,1780135461.796875
115.83,1780135461.8125
111.2,1780135461.828125
104.62,1780135461.84375
96.83,1780135461.859375
88.52,1780135461.875
80.33,1780135461.890625
72.8,1780135461.90625
66.24,1780135461.921875
60.79,1780135461.9375
56.38,1780135461.953125
52.86,1780135461.96875
50.06,1780135461.984375
47.85,1780135462.0
46.11,1780135462.015625
44.66,1780135462.03125
43.14,1780135462.046875
41.02,1780135462.0625
37.73,1780135462.078125
32.84,1780135462.09375
26.27,1780135462.109375
18.27,1780135462.125
9.39,1780135462.140625
0.22,1780135462.15625
-8.7,1780135462.171875
-17.15,1780135462.1875
-25.16,1780135462.203125
-32.98,1780135462.21875
-41.04,1780135462.234375
-49.86,1780135462.25
-59.89,1780135462.265625
-71.35,1780135462.28125
-83.94,1780135462.296875
-96.41,1780135462.3125
-106.67,1780135462.328125
-112.07,1780135462.34375
-110.07,1780135462.359375
-99.15,1780135462.375
-79.35,1780135462.390625
-52.38,1780135462.40625
-21.18,1780135462.421875
10.91,1780135462.4375
40.88,1780135462.453125
66.54,1780135462.46875
86.73,1780135462.484375
101.13,1780135462.5
110.07,1780135462.515625
114.32,1780135462.53125
114.88,1780135462.546875
112.75,1780135462.5625
108.78,1780135462.578125
103.56,1780135462.59375
97.43,1780135462.609375
90.57,1780135462.625
83.18,1780135462.640625
75.59,1780135462.65625
68.27,1780135462.671875
61.75,1780135462.6875
56.51,1780135462.703125
52.81,1780135462.71875
50.67,1780135462.734375
49.8,1780135462.75
49.68,1780135462.765625
49.64,1780135462.78125
48.98,1780135462.796875
47.25,1780135462.8125
44.27,1780135462.828125
40.2,1780135462.84375
35.37,1780135462.859375
30.11,1780135462.875
24.52,1780135462.890625
18.48,1780135462.90625
11.73,1780135462.921875
4.06,1780135462.9375
-4.42,1780135462.953125
-13.33,1780135462.96875
-22.09,1780135462.984375
-30.18,1780135463.0
-37.36,1780135463.015625
-43.74,1780135463.03125
-49.8,1780135463.046875
-56.21,1780135463.0625
-63.72,1780135463.078125
-72.8,1780135463.09375
-83.32,1780135463.109375
-94.27,1780135463.125
-103.64,1780135463.140625
-108.82,1780135463.15625
-107.28,1780135463.171875
-97.47,1780135463.1875
-79.36,1780135463.203125
-54.66,1780135463.21875
-26.23,1780135463.234375
2.78,1780135463.25
29.65,1780135463.265625
52.67,1780135463.28125
71.01,1780135463.296875
84.6,1780135463.3125
93.71,1780135463.328125
98.79,1780135463.34375
100.42,1780135463.359375
99.21,1780135463.375
95.84,1780135463.390625
90.99,1780135463.40625
85.26,1780135463.421875
79.13,1780135463.4375
72.99,1780135463.453125
67.08,1780135463.46875
61.58,1780135463.484375
56.56,1780135463.5
52.17,1780135463.515625
48.54,1780135463.53125
45.84,1780135463.546875
44.22,1780135463.5625
43.53,1780135463.578125
43.42,1780135463.59375
43.2,1780135463.609375
42.12,1780135463.625
39.61,1780135463.640625
35.56,1780135463.65625
30.37,1780135463.671875
24.73,1780135463.6875
19.41,1780135463.703125
14.75,1780135463.71875
10.61,1780135463.734375
6.42,1780135463.75
1.52,1780135463.765625
-4.46,1780135463.78125
-11.46,1780135463.796875
-18.94,1780135463.8125
-26.31,1780135463.828125
-33.06,1780135463.84375
-39.07,1780135463.859375
-44.58,1780135463.875
-50.05,1780135463.890625
-55.99,1780135463.90625
-62.86,1780135463.921875
-70.92,1780135463.9375
-79.98,1780135463.953125
-89.21,1780135463.96875
-96.99,1780135463.984375
-101.19,1780135464.0
-99.7,1780135464.015625
-91.19,1780135464.03125
-75.6,1780135464.046875
-54.34,1780135464.0625
-29.83,1780135464.078125
-4.83,1780135464.09375
18.32,1780135464.109375
38.03,1780135464.125
53.6,1780135464.140625
64.92,1780135464.15625
72.26,1780135464.171875
76.04,1780135464.1875
76.76,1780135464.203125
74.99,1780135464.21875
71.4,1780135464.234375
66.63,1780135464.25
61.26,1780135464.265625
55.69,1780135464.28125
50.19,1780135464.296875
44.86,1780135464.3125
39.79,1780135464.328125
35.15,1780135464.34375
31.24,1780135464.359375
28.4,1780135464.375
26.81,1780135464.390625
26.49,1780135464.40625
27.06,1780135464.421875
27.92,1780135464.4375
28.42,1780135464.453125
28.08,1780135464.46875
26.68,1780135464.484375
24.28,1780135464.5
21.1,1780135464.515625
17.37,1780135464.53125
13.2,1780135464.546875
8.53,1780135464.5625
3.32,1780135464.578125
-2.48,1780135464.59375
-8.75,1780135464.609375
-15.19,1780135464.625
-21.43,1780135464.640625
-27.11,1780135464.65625
-32.09,1780135464.671875
-36.48,1780135464.6875
-40.76,1780135464.703125
-45.54,1780135464.71875
-51.37,1780135464.734375
-58.46,1780135464.75
-66.35,1780135464.765625
-73.86,1780135464.78125
-79.22,1780135464.796875
-80.51,1780135464.8125
-76.19,1780135464.828125
-65.66,1780135464.84375
-49.46,1780135464.859375
-29.29,1780135464.875
-7.44,1780135464.890625
13.71,1780135464.90625
32.28,1780135464.921875
47.14,1780135464.9375
57.89,1780135464.953125
64.73,1780135464.96875
68.11,1780135464.984375
68.6,1780135465.0
66.72,1780135465.015625
62.93,1780135465.03125
57.73,1780135465.046875
51.66,1780135465.0625
45.28,1780135465.078125
39.1,1780135465.09375
33.5,1780135465.109375
28.64,1780135465.125
24.54,1780135465.140625
21.13,1780135465.15625
18.41,1780135465.171875
16.45,1780135465.1875
15.33,1780135465.203125
15.01,1780135465.21875
15.18,1780135465.234375
15.31,1780135465.25
14.79,1780135465.265625
13.17,1780135465.28125
10.43,1780135465.296875
6.83,1780135465.3125
2.86,1780135465.328125
-1.11,1780135465.34375
-5.04,1780135465.359375
-9.16,1780135465.375
-13.88,1780135465.390625
-19.46,1780135465.40625
-25.82,1780135465.421875
-32.54,1780135465.4375
-39.0,1780135465.453125
-44.67,1780135465.46875
-49.36,1780135465.484375
-53.17,1780135465.5
-56.55,1780135465.515625
-60.13,1780135465.53125
-64.51,1780135465.546875
-70.14,1780135465.5625
-76.96,1780135465.578125
-84.3,1780135465.59375
-90.73,1780135465.609375
-94.31,1780135465.625
-93.0,1780135465.640625
-85.42,1780135465.65625
-71.32,1780135465.671875
-51.8,1780135465.6875
-29.11,1780135465.703125
-5.89,1780135465.71875
15.46,1780135465.734375
33.33,1780135465.75
47.01,1780135465.765625
56.57,1780135465.78125
62.47,1780135465.796875
65.34,1780135465.8125
65.78,1780135465.828125
64.34,1780135465.84375
61.57,1780135465.859375
57.98,1780135465.875
54.01,1780135465.890625
49.94,1780135465.90625
45.85,1780135465.921875
41.7,1780135465.9375
37.41,1780135465.953125
33.03,1780135465.96875
28.78,1780135465.984375
25.1,1780135466.0
22.4,1780135466.015625
20.9,1780135466.03125
20.5,1780135466.046875
20.66,1780135466.0625
20.69,1780135466.078125
19.91,1780135466.09375
17.93,1780135466.109375
14.78,1780135466.125
10.83,1780135466.140625
6.61,1780135466.15625
2.57,1780135466.171875
-1.14,1780135466.1875
-4.7,1780135466.203125
-8.52,1780135466.21875
-13.01,1780135466.234375
-18.34,1780135466.25
-24.36,1780135466.265625
-30.61,1780135466.28125
-36.47,1780135466.296875
-41.47,1780135466.3125
-45.48,1780135466.328125
-48.8,1780135466.34375
-52.04,1780135466.359375
-55.96,1780135466.375
-61.2,1780135466.390625
-67.97,1780135466.40625
-75.87,1780135466.421875
-83.71,1780135466.4375
-89.69,1780135466.453125
-91.77,1780135466.46875
-88.22,1780135466.484375
-78.2,1780135466.5
-62.1,1780135466.515625
-41.51,1780135466.53125
-18.75,1780135466.546875
3.61,1780135466.5625
23.51,1780135466.578125
39.68,1780135466.59375
51.67,1780135466.609375
59.66,1780135466.625
64.18,1780135466.640625
65.81,1780135466.65625
65.15,1780135466.671875
62.78,1780135466.6875
59.23,1780135466.703125
55.05,1780135466.71875
50.7,1780135466.734375
46.38,1780135466.75
42.16,1780135466.765625
37.87,1780135466.78125
33.39,1780135466.796875
28.73,1780135466.8125
24.2,1780135466.828125
20.29,1780135466.84375
17.44,1780135466.859375
15.89,1780135466.875
15.43,1780135466.890625
15.5,1780135466.90625
15.35,1780135466.921875
14.33,1780135466.9375
12.1,1780135466.953125
8.77,1780135466.96875
4.78,1780135466.984375
0.7,1780135467.0
-2.98,1780135467.015625
-6.05,1780135467.03125
-8.61,1780135467.046875
-11.05,1780135467.0625
-13.87,1780135467.078125
-17.46,1780135467.09375
-21.94,1780135467.109375
-27.15,1780135467.125
-32.73,1780135467.140625
-38.19,1780135467.15625
-43.25,1780135467.171875
-47.86,1780135467.1875
-52.28,1780135467.203125
-57.13,1780135467.21875
-63.01,1780135467.234375
-70.22,1780135467.25
-78.38,1780135467.265625
-86.24,1780135467.28125
-91.75,1780135467.296875
-92.7,1780135467.3125
-87.34,1780135467.328125
-75.07,1780135467.34375
-56.77,1780135467.359375
-34.48,1780135467.375
-10.81,1780135467.390625
11.79,1780135467.40625
31.48,1780135467.421875
47.29,1780135467.4375
58.88,1780135467.453125
66.34,1780135467.46875
70.0,1780135467.484375
70.27,1780135467.5
67.7,1780135467.515625
62.96,1780135467.53125
56.76,1780135467.546875
49.83,1780135467.5625
42.84,1780135467.578125
36.27,1780135467.59375
30.49,1780135467.609375
25.63,1780135467.625
21.65,1780135467.640625
18.38,1780135467.65625
15.63,1780135467.671875
13.27,1780135467.6875
11.28,1780135467.703125
9.7,1780135467.71875
8.52,1780135467.734375
7.6,1780135467.75
6.68,1780135467.765625
5.37,1780135467.78125
3.35,1780135467.796875
0.45,1780135467.8125
-3.28,1780135467.828125
-7.69,1780135467.84375
-12.59,1780135467.859375
-17.87,1780135467.875
-23.47,1780135467.890625
-29.3,1780135467.90625
-35.27,1780135467.921875
-41.15,1780135467.9375
-46.77,1780135467.953125
-52.14,1780135467.96875
-57.55,1780135467.984375
-63.51,1780135468.0
-70.49,1780135468.015625
-78.46,1780135468.03125
-86.6,1780135468.046875
-93.33,1780135468.0625
-96.54,1780135468.078125
-94.27,1780135468.09375
-85.35,1780135468.109375
-69.88,1780135468.125
-49.19,1780135468.140625
-25.55,1780135468.15625
-1.58,1780135468.171875
20.38,1780135468.1875
38.69,1780135468.203125
52.53,1780135468.21875
61.84,1780135468.234375
67.07,1780135468.25
68.93,1780135468.265625
68.23,1780135468.28125
65.66,1780135468.296875
61.81,1780135468.3125
57.11,1780135468.328125
51.91,1780135468.34375
46.5,1780135468.359375
41.1,1780135468.375
35.93,1780135468.390625
31.17,1780135468.40625
26.99,1780135468.421875
23.45,1780135468.4375
20.56,1780135468.453125
18.25,1780135468.46875
16.34,1780135468.484375
14.65,1780135468.5
12.99,1780135468.515625
11.2,1780135468.53125
9.19,1780135468.546875
6.85,1780135468.5625
4.03,1780135468.578125
0.58,1780135468.59375
-3.6,1780135468.609375
-8.55,1780135468.625
-14.21,1780135468.640625
-20.36,1780135468.65625
-26.77,1780135468.671875
-33.22,1780135468.6875
-39.48,1780135468.703125
-45.44,1780135468.71875
-51.04,1780135468.734375
-56.42,1780135468.75
-61.95,1780135468.765625
-68.18,1780135468.78125
-75.62,1780135468.796875
-84.48,1780135468.8125
-94.31,1780135468.828125
-103.74,1780135468.84375
-110.64,1780135468.859375
-112.65,1780135468.875
-107.88,1780135468.890625
-95.54,1780135468.90625
-76.34,1780135468.921875
-52.22,1780135468.9375
-25.96,1780135468.953125
-0.33,1780135468.96875
22.42,1780135468.984375
40.93,1780135469.0
54.78,1780135469.015625
64.21,1780135469.03125
69.81,1780135469.046875
72.29,1780135469.0625
72.29,1780135469.078125
70.29,1780135469.09375
66.69,1780135469.109375
61.91,1780135469.125
56.34,1780135469.140625
50.49,1780135469.15625
44.78,1780135469.171875
39.49,1780135469.1875
34.74,1780135469.203125
30.5,1780135469.21875
26.67,1780135469.234375
23.19,1780135469.25
20.07,1780135469.265625
17.28,1780135469.28125
14.8,1780135469.296875
12.52,1780135469.3125
10.28,1780135469.328125
7.92,1780135469.34375
5.29,1780135469.359375
2.2,1780135469.375
-1.5,1780135469.390625
-5.94,1780135469.40625
-11.15,1780135469.421875
-17.04,1780135469.4375
-23.36,1780135469.453125
-29.88,1780135469.46875
-36.37,1780135469.484375
-42.78,1780135469.5
-49.16,1780135469.515625
-55.72,1780135469.53125
-62.81,1780135469.546875
-70.88,1780135469.5625
-80.31,1780135469.578125
-91.04,1780135469.59375
-102.32,1780135469.609375
-112.43,1780135469.625
-118.93,1780135469.640625
-119.23,1780135469.65625
-111.51,1780135469.671875
-95.4,1780135469.6875
-72.25,1780135469.703125
-44.79,1780135469.71875
-16.27,1780135469.734375
10.36,1780135469.75
33.1,1780135469.765625
51.07,1780135469.78125
64.28,1780135469.796875
73.2,1780135469.8125
78.43,1780135469.828125
80.52,1780135469.84375
79.91,1780135469.859375
77.06,1780135469.875
72.47,1780135469.890625
66.69,1780135469.90625
60.29,1780135469.921875
53.74,1780135469.9375
47.38,1780135469.953125
41.39,1780135469.96875
35.83,1780135469.984375
30.74,1780135470.0
26.21,1780135470.015625
22.36,1780135470.03125
19.32,1780135470.046875
17.13,1780135470.0625
15.67,1780135470.078125
14.61,1780135470.09375
13.43,1780135470.109375
11.6,1780135470.125
8.63,1780135470.140625
4.28,1780135470.15625
-1.38,1780135470.171875
-7.95,1780135470.1875
-14.81,1780135470.203125
-21.37,1780135470.21875
-27.28,1780135470.234375
-32.57,1780135470.25
-37.56,1780135470.265625
-42.8,1780135470.28125
-48.81,1780135470.296875
-55.95,1780135470.3125
-64.4,1780135470.328125
-74.03,1780135470.34375
-84.26,1780135470.359375
-93.88,1780135470.375
-101.04,1780135470.390625
-103.46,1780135470.40625
-99.13,1780135470.421875
-86.96,1780135470.4375
-67.35,1780135470.453125
-42.21,1780135470.46875
-14.48,1780135470.484375
12.69,1780135470.5
36.84,1780135470.515625
56.53,1780135470.53125
71.29,1780135470.546875
81.3,1780135470.5625
87.06,1780135470.578125
89.0,1780135470.59375
87.59,1780135470.609375
83.34,1780135470.625
76.85,1780135470.640625
68.98,1780135470.65625
60.59,1780135470.671875
52.49,1780135470.6875
45.26,1780135470.703125
39.13,1780135470.71875
34.02,1780135470.734375
29.65,1780135470.75
25.73,1780135470.765625
22.11,1780135470.78125
18.87,1780135470.796875
16.14,1780135470.8125
14.02,1780135470.828125
12.37,1780135470.84375
10.77,1780135470.859375
8.66,1780135470.875
5.47,1780135470.890625
0.89,1780135470.90625
-5.07,1780135470.921875
-12.14,1780135470.9375
-19.87,1780135470.953125
-27.78,1780135470.96875
-35.51,1780135470.984375
-42.84,1780135471.0
-49.74,1780135471.015625
-56.36,1780135471.03125
-63.07,1780135471.046875
-70.39,1780135471.0625
-78.92,1780135471.078125
-89.05,1780135471.09375
-100.5,1780135471.109375
-112.09,1780135471.125
-121.67,1780135471.140625
-126.51,1780135471.15625
-124.09,1780135471.171875
-112.93,1780135471.1875
-93.17,1780135471.203125
-66.66,1780135471.21875
-36.42,1780135471.234375
-5.77,1780135471.25
22.45,1780135471.265625
46.41,1780135471.28125
65.34,1780135471.296875
79.24,1780135471.3125
88.55,1780135471.328125
93.82,1780135471.34375
95.6,1780135471.359375
94.44,1780135471.375
90.96,1780135471.390625
85.77,1780135471.40625
79.53,1780135471.421875
72.86,1780135471.4375
66.25,1780135471.453125
60.05,1780135471.46875
54.41,1780135471.484375
49.36,1780135471.5
44.8,1780135471.515625
40.68,1780135471.53125
37.0,1780135471.546875
33.84,1780135471.5625
31.31,1780135471.578125
29.37,1780135471.59375
27.82,1780135471.609375
26.22,1780135471.625
24.03,1780135471.640625
20.74,1780135471.65625
16.05,1780135471.671875
9.93,1780135471.6875
2.6,1780135471.703125
-5.58,1780135471.71875
-14.17,1780135471.734375
-22.84,1780135471.75
-31.3,1780135471.765625
-39.4,1780135471.78125
-47.14,1780135471.796875
-54.74,1780135471.8125
-62.72,1780135471.828125
-71.74,1780135471.84375
-82.33,1780135471.859375
-94.49,1780135471.875
-107.12,1780135471.890625
-117.94,1780135471.90625
-123.95,1780135471.921875
-122.2,1780135471.9375
-110.9,1780135471.953125
-90.15,1780135471.96875
-61.99,1780135471.984375
-29.78,1780135472.0
2.76,1780135472.015625
32.57,1780135472.03125
57.67,1780135472.046875
77.19,1780135472.0625
91.02,1780135472.078125
99.5,1780135472.09375
103.19,1780135472.109375
102.92,1780135472.125
99.7,1780135472.140625
94.63,1780135472.15625
88.63,1780135472.171875
82.33,1780135472.1875
75.9,1780135472.203125
69.33,1780135472.21875
62.64,1780135472.234375
56.02,1780135472.25
49.89,1780135472.265625
44.69,1780135472.28125
40.72,1780135472.296875
37.95,1780135472.3125
36.12,1780135472.328125
34.81,1780135472.34375
33.68,1780135472.359375
32.41,1780135472.375
30.79,1780135472.390625
28.61,1780135472.40625
25.64,1780135472.421875
21.61,1780135472.4375
16.33,1780135472.453125
9.74,1780135472.46875
2.01,1780135472.484375
-6.5,1780135472.5
-15.26,1780135472.515625
-23.76,1780135472.53125
-31.61,1780135472.546875
-38.68,1780135472.5625
-45.22,1780135472.578125
-51.79,1780135472.59375
-59.17,1780135472.609375
-68.07,1780135472.625
-78.89,1780135472.640625
-91.26,1780135472.65625
-103.86,1780135472.671875
-114.49,1780135472.6875
-120.34,1780135472.703125
-118.84,1780135472.71875
-108.44,1780135472.734375
-89.24,1780135472.75
-63.08,1780135472.765625
-33.09,1780135472.78125
-2.78,1780135472.796875
24.81,1780135472.8125
47.75,1780135472.828125
65.28,1780135472.84375
77.54,1780135472.859375
85.07,1780135472.875
88.47,1780135472.890625
88.31,1780135472.90625
85.14,1780135472.921875
79.64,1780135472.9375
72.66,1780135472.953125
65.12,1780135472.96875
57.85,1780135472.984375
51.34,1780135473.0
45.72,1780135473.015625
40.75,1780135473.03125
36.13,1780135473.046875
31.71,1780135473.0625
27.64,1780135473.078125
24.34,1780135473.09375
22.2,1780135473.109375
21.36,1780135473.125
21.44,1780135473.140625
21.55,1780135473.15625
20.65,1780135473.171875
17.89,1780135473.1875
12.97,1780135473.203125
6.18,1780135473.21875
-1.74,1780135473.234375
-9.98,1780135473.25
-17.9,1780135473.265625
-25.28,1780135473.28125
-32.24,1780135473.296875
-39.11,1780135473.3125
-46.39,1780135473.328125
-54.54,1780135473.34375
-63.94,1780135473.359375
-74.67,1780135473.375
-86.22,1780135473.390625
-97.26,1780135473.40625
-105.6,1780135473.421875
-108.66,1780135473.4375
-104.14,1780135473.453125
-90.92,1780135473.46875
-69.56,1780135473.484375
-42.3,1780135473.5
-12.46,1780135473.515625
16.52,1780135473.53125
41.99,1780135473.546875
62.52,1780135473.5625
77.88,1780135473.578125
88.51,1780135473.59375
95.05,1780135473.609375
97.98,1780135473.625
97.55,1780135473.640625
94.06,1780135473.65625
87.97,1780135473.671875
80.06,1780135473.6875
71.31,1780135473.703125
62.64,1780135473.71875
54.69,1780135473.734375
47.64,1780135473.75
41.38,1780135473.765625
35.64,1780135473.78125
30.28,1780135473.796875
25.39,1780135473.8125
21.29,1780135473.828125
18.29,1780135473.84375
16.49,1780135473.859375
15.51,1780135473.875
14.62,1780135473.890625
12.85,1780135473.90625
9.42,1780135473.921875
4.02,1780135473.9375
-3.18,1780135473.953125
-11.59,1780135473.96875
-20.46,1780135473.984375
-29.17,1780135474.0
-37.35,1780135474.015625
-45.01,1780135474.03125
-52.42,1780135474.046875
-60.08,1780135474.0625
-68.63,1780135474.078125
-78.71,1780135474.09375
-90.69,1780135474.109375
-104.27,1780135474.125
-118.09,1780135474.140625
-129.69,1780135474.15625
-136.01,1780135474.171875
-134.16,1780135474.1875
-122.47,1780135474.203125
-101.16,1780135474.21875
-72.41,1780135474.234375
-39.68,1780135474.25
-6.74,1780135474.265625
23.33,1780135474.28125
48.65,1780135474.296875
68.57,1780135474.3125
83.31,1780135474.328125
93.42,1780135474.34375
99.51,1780135474.359375
102.09,1780135474.375
101.67,1780135474.390625
98.81,1780135474.40625
94.14,1780135474.421875
88.34,1780135474.4375
82.0,1780135474.453125
75.56,1780135474.46875
69.26,1780135474.484375
63.2,1780135474.5
57.41,1780135474.515625
51.97,1780135474.53125
46.98,1780135474.546875
42.61,1780135474.5625
38.95,1780135474.578125
35.97,1780135474.59375
33.47,1780135474.609375
31.06,1780135474.625
28.25,1780135474.640625
24.54,1780135474.65625
19.54,1780135474.671875
13.08,1780135474.6875
5.19,1780135474.703125
-3.8,1780135474.71875
-13.37,1780135474.734375
-22.9,1780135474.75
-31.92,1780135474.765625
-40.13,1780135474.78125
-47.64,1780135474.796875
-54.9,1780135474.8125
-62.61,1780135474.828125
-71.53,1780135474.84375
-82.16,1780135474.859375
-94.39,1780135474.875
-107.15,1780135474.890625
-118.4,1780135474.90625
-125.36,1780135474.921875
-125.26,1780135474.9375
-116.16,1780135474.953125
-97.73,1780135474.96875
-71.51,1780135474.984375
-40.49,1780135475.0
-8.31,1780135475.015625
21.75,1780135475.03125
47.43,1780135475.046875
67.73,1780135475.0625
82.67,1780135475.078125
92.85,1780135475.09375
99.03,1780135475.109375
101.89,1780135475.125
102.02,1780135475.140625
99.91,1780135475.15625
96.08,1780135475.171875
91.02,1780135475.1875
85.18,1780135475.203125
78.91,1780135475.21875
72.44,1780135475.234375
65.96,1780135475.25
59.63,1780135475.265625
53.68,1780135475.28125
48.35,1780135475.296875
43.84,1780135475.3125
40.15,1780135475.328125
37.09,1780135475.34375
34.35,1780135475.359375
31.51,1780135475.375
28.29,1780135475.390625
24.58,1780135475.40625
20.34,1780135475.421875
15.56,1780135475.4375
10.22,1780135475.453125
4.17,1780135475.46875
-2.63,1780135475.484375
-10.15,1780135475.5
-18.16,1780135475.515625
-26.29,1780135475.53125
-34.12,1780135475.546875
-41.37,1780135475.5625
-48.0,1780135475.578125
-54.31,1780135475.59375
-60.9,1780135475.609375
-68.53,1780135475.625
-77.85,1780135475.640625
-89.09,1780135475.65625
-101.55,1780135475.671875
-113.39,1780135475.6875
-121.8,1780135475.703125
-123.66,1780135475.71875
-116.54,1780135475.734375
-99.68,1780135475.75
-74.37,1780135475.765625
-43.67,1780135475.78125
-11.52,1780135475.796875
18.46,1780135475.8125
43.82,1780135475.828125
63.55,1780135475.84375
77.83,1780135475.859375
87.37,1780135475.875
92.88,1780135475.890625
94.88,1780135475.90625
93.79,1780135475.921875
90.06,1780135475.9375
84.35,1780135475.953125
77.45,1780135475.96875
70.17,1780135475.984375
63.11,1780135476.0
56.62,1780135476.015625
50.76,1780135476.03125
45.49,1780135476.046875
40.74,1780135476.0625
36.56,1780135476.078125
33.09,1780135476.09375
30.45,1780135476.109375
28.63,1780135476.125
27.41,1780135476.140625
26.36,1780135476.15625
24.97,1780135476.171875
22.72,1780135476.1875
19.2,1780135476.203125
14.2,1780135476.21875
7.79,1780135476.234375
0.33,1780135476.25
-7.73,1780135476.265625
-15.83,1780135476.28125
-23.57,1780135476.296875
-30.7,1780135476.3125
-37.26,1780135476.328125
-43.5,1780135476.34375
-49.81,1780135476.359375
-56.68,1780135476.375
-64.57,1780135476.390625
-73.8,1780135476.40625
-84.31,1780135476.421875
-95.29,1780135476.4375
-105.05,1780135476.453125
-111.09,1780135476.46875
-110.79,1780135476.484375
-102.16,1780135476.5
-84.77,1780135476.515625
-60.02,1780135476.53125
-30.86,1780135476.546875
-0.89,1780135476.5625
26.6,1780135476.578125
49.45,1780135476.59375
66.84,1780135476.609375
79.01,1780135476.625
86.74,1780135476.640625
90.81,1780135476.65625
91.76,1780135476.671875
89.97,1780135476.6875
85.8,1780135476.703125
79.78,1780135476.71875
72.56,1780135476.734375
64.87,1780135476.75
57.29,1780135476.765625
50.23,1780135476.78125
43.88,1780135476.796875
38.27,1780135476.8125
33.42,1780135476.828125
29.34,1780135476.84375
25.99,1780135476.859375
23.28,1780135476.875
20.96,1780135476.890625
18.68,1780135476.90625
16.11,1780135476.921875
13.01,1780135476.9375
9.3,1780135476.953125
5.0,1780135476.96875
0.2,1780135476.984375
-5.09,1780135477.0
-10.89,1780135477.015625
-17.21,1780135477.03125
-23.98,1780135477.046875
-30.97,1780135477.0625
-37.87,1780135477.078125
-44.39,1780135477.09375
-50.37,1780135477.109375
-55.95,1780135477.125
-61.54,1780135477.140625
-67.82,1780135477.15625
-75.44,1780135477.171875
-84.83,1780135477.1875
-95.82,1780135477.203125
-107.27,1780135477.21875
-117.07,1780135477.234375
-122.41,1780135477.25
-120.54,1780135477.265625
-109.7,1780135477.28125
-89.85,1780135477.296875
-62.85,1780135477.3125
-31.99,1780135477.328125
-1.0,1780135477.34375
26.98,1780135477.359375
50.02,1780135477.375
67.51,1780135477.390625
79.76,1780135477.40625
87.48,1780135477.421875
91.35,1780135477.4375
91.91,1780135477.453125
89.64,1780135477.46875
85.2,1780135477.484375
79.34,1780135477.5
72.78,1780135477.515625
66.06,1780135477.53125
59.45,1780135477.546875
53.02,1780135477.5625
46.81,1780135477.578125
40.9,1780135477.59375
35.53,1780135477.609375
30.94,1780135477.625
27.28,1780135477.640625
24.48,1780135477.65625
22.24,1780135477.671875
20.16,1780135477.6875
17.91,1780135477.703125
15.26,1780135477.71875
12.11,1780135477.734375
8.4,1780135477.75
4.02,1780135477.765625
-1.11,1780135477.78125
-7.09,1780135477.796875
-13.87,1780135477.8125
-21.22,1780135477.828125
-28.79,1780135477.84375
-36.19,1780135477.859375
-43.11,1780135477.875
-49.46,1780135477.890625
-55.4,1780135477.90625
-61.37,1780135477.921875
-67.94,1780135477.9375
-75.77,1780135477.953125
-85.25,1780135477.96875
-96.14,1780135477.984375
-107.27,1780135478.0
-116.46,1780135478.015625
-120.92,1780135478.03125
-118.03,1780135478.046875
-106.3,1780135478.0625
-85.96,1780135478.078125
-59.07,1780135478.09375
-28.87,1780135478.109375
1.11,1780135478.125
27.96,1780135478.140625
49.94,1780135478.15625
66.45,1780135478.171875
77.71,1780135478.1875
84.37,1780135478.203125
87.2,1780135478.21875
86.89,1780135478.234375
84.15,1780135478.25
79.63,1780135478.265625
73.88,1780135478.28125
67.41,1780135478.296875
60.67,1780135478.3125
54.06,1780135478.328125
47.87,1780135478.34375
42.32,1780135478.359375
37.45,1780135478.375
33.21,1780135478.390625
29.51,1780135478.40625
26.27,1780135478.421875
23.5,1780135478.4375
21.18,1780135478.453125
19.22,1780135478.46875
17.35,1780135478.484375
15.26,1780135478.5
12.61,1780135478.515625
9.16,1780135478.53125
4.83,1780135478.546875
-0.34,1780135478.5625
-6.23,1780135478.578125
-12.71,1780135478.59375
-19.53,1780135478.609375
-26.39,1780135478.625
-32.94,1780135478.640625
-38.96,1780135478.65625
-44.37,1780135478.671875
-49.4,1780135478.6875
-54.53,1780135478.703125
-60.32,1780135478.71875
-67.26,1780135478.734375
-75.39,1780135478.75
-84.06,1780135478.765625
-91.78,1780135478.78125
-96.4,1780135478.796875
-95.58,1780135478.8125
-87.48,1780135478.828125
-71.55,1780135478.84375
-48.86,1780135478.859375
-21.96,1780135478.875
5.82,1780135478.890625
31.28,1780135478.90625
52.15,1780135478.921875
67.47,1780135478.9375
77.34,1780135478.953125
82.55,1780135478.96875
83.99,1780135478.984375
82.4,1780135479.0
78.3,1780135479.015625
72.18,1780135479.03125
64.6,1780135479.046875
56.29,1780135479.0625
48.08,1780135479.078125
40.6,1780135479.09375
34.22,1780135479.109375
28.96,1780135479.125
24.62,1780135479.140625
20.95,1780135479.15625
17.77,1780135479.171875
15.08,1780135479.1875
12.86,1780135479.203125
11.11,1780135479.21875
9.62,1780135479.234375
8.13,1780135479.25
6.27,1780135479.265625
3.75,1780135479.28125
0.35,1780135479.296875
-4.09,1780135479.3125
-9.57,1780135479.328125
-16.03,1780135479.34375
-23.26,1780135479.359375
-30.93,1780135479.375
-38.59,1780135479.390625
-45.9,1780135479.40625
-52.67,1780135479.421875
-58.9,1780135479.4375
-64.87,1780135479.453125
-70.95,1780135479.46875
-77.67,1780135479.484375
-85.52,1780135479.5
-94.71,1780135479.515625
-104.84,1780135479.53125
-114.58,1780135479.546875
-121.64,1780135479.5625
-123.25,1780135479.578125
-116.99,1780135479.59375
-101.76,1780135479.609375
-78.37,1780135479.625
-49.43,1780135479.640625
-18.52,1780135479.65625
10.9,1780135479.671875
36.34,1780135479.6875
56.59,1780135479.703125
71.56,1780135479.71875
81.71,1780135479.734375
87.65,1780135479.75
89.97,1780135479.765625
89.21,1780135479.78125
85.97,1780135479.796875
80.96,1780135479.8125
74.9,1780135479.828125
68.38,1780135479.84375
61.74,1780135479.859375
55.14,1780135479.875
48.65,1780135479.890625
42.35,1780135479.90625
36.39,1780135479.921875
31.0,1780135479.9375
26.43,1780135479.953125
22.85,1780135479.96875
20.26,1780135479.984375
18.48,1780135480.0
17.19,1780135480.015625
16.02,1780135480.03125
14.68,1780135480.046875
12.92,1780135480.0625
10.49,1780135480.078125
7.15,1780135480.09375
2.63,1780135480.109375
-3.2,1780135480.125
-10.28,1780135480.140625
-18.29,1780135480.15625
-26.73,1780135480.171875
-35.05,1780135480.1875
-42.82,1780135480.203125
-49.89,1780135480.21875
-56.39,1780135480.234375
-62.79,1780135480.25
-69.76,1780135480.265625
-77.98,1780135480.28125
-87.8,1780135480.296875
-98.77,1780135480.3125
-109.41,1780135480.328125
-117.2,1780135480.34375
-119.26,1780135480.359375
-113.18,1780135480.375
-97.99,1780135480.390625
-74.65,1780135480.40625
-45.88,1780135480.421875
-15.28,1780135480.4375
13.7,1780135480.453125
38.61,1780135480.46875
58.31,1780135480.484375
72.75,1780135480.5
82.53,1780135480.515625
88.3,1780135480.53125
90.71,1780135480.546875
90.29,1780135480.5625
87.56,1780135480.578125
83.13,1780135480.59375
77.57,1780135480.609375
71.38,1780135480.625
64.92,1780135480.640625
58.44,1780135480.65625
52.08,1780135480.671875
46.03,1780135480.6875
40.51,1780135480.703125
35.75,1780135480.71875
31.87,1780135480.734375
28.88,1780135480.75
26.52,1780135480.765625
24.44,1780135480.78125
22.21,1780135480.796875
19.55,1780135480.8125
16.35,1780135480.828125
12.63,1780135480.84375
8.47,1780135480.859375
3.84,1780135480.875
-1.37,1780135480.890625
-7.28,1780135480.90625
-13.9,1780135480.921875
-21.07,1780135480.9375
-28.42,1780135480.953125
-35.54,1780135480.96875
-42.2,1780135480.984375
-48.39,1780135481.0
-54.41,1780135481.015625
-60.81,1780135481.03125
-68.24,1780135481.046875
-77.18,1780135481.0625
-87.66,1780135481.078125
-98.92,1780135481.09375
-109.21,1780135481.109375
-116.01,1780135481.125
-116.6,1780135481.140625
-108.89,1780135481.15625
-92.25,1780135481.171875
-67.96,1780135481.1875
-38.87,1780135481.203125
-8.65,1780135481.21875
19.23,1780135481.234375
42.4,1780135481.25
59.87,1780135481.265625
71.79,1780135481.28125
78.88,1780135481.296875
81.96,1780135481.3125
81.66,1780135481.328125
78.47,1780135481.34375
72.97,1780135481.359375
65.87,1780135481.375
58.15,1780135481.390625
50.66,1780135481.40625
44.02,1780135481.421875
38.37,1780135481.4375
33.46,1780135481.453125
28.92,1780135481.46875
24.46,1780135481.484375
20.13,1780135481.5
16.23,1780135481.515625
13.19,1780135481.53125
11.22,1780135481.546875
10.24,1780135481.5625
9.7,1780135481.578125
8.8,1780135481.59375
6.67,1780135481.609375
2.73,1780135481.625
-3.13,1780135481.640625
-10.5,1780135481.65625
-18.57,1780135481.671875
-26.51,1780135481.6875
-33.66,1780135481.703125
-39.8,1780135481.71875
-45.26,1780135481.734375
-50.76,1780135481.75
-57.23,1780135481.765625
-65.52,1780135481.78125
-76.04,1780135481.796875
-88.45,1780135481.8125
-101.4,1780135481.828125
-112.58,1780135481.84375
-119.01,1780135481.859375
-117.93,1780135481.875
-107.59,1780135481.890625
-88.01,1780135481.90625
-61.13,1780135481.921875
-30.26,1780135481.9375
0.87,1780135481.953125
29.09,1780135481.96875
52.43,1780135481.984375
70.26,1780135482.0
82.83,1780135482.015625
90.8,1780135482.03125
94.8,1780135482.046875
95.28,1780135482.0625
92.65,1780135482.078125
87.44,1780135482.09375
80.31,1780135482.109375
72.02,1780135482.125
63.31,1780135482.140625
54.77,1780135482.15625
46.85,1780135482.171875
39.77,1780135482.1875
33.61,1780135482.203125
28.35,1780135482.21875
23.89,1780135482.234375
20.13,1780135482.25
17.03,1780135482.265625
14.52,1780135482.28125
12.58,1780135482.296875
11.05,1780135482.3125
9.64,1780135482.328125
7.89,1780135482.34375
5.3,1780135482.359375
1.49,1780135482.375
-3.74,1780135482.390625
-10.21,1780135482.40625
-17.56,1780135482.421875
-25.29,1780135482.4375
-32.97,1780135482.453125
-40.34,1780135482.46875
-47.38,1780135482.484375
-54.3,1780135482.5
-61.49,1780135482.515625
-69.52,1780135482.53125
-78.93,1780135482.546875
-89.97,1780135482.5625
-102.28,1780135482.578125
-114.55,1780135482.59375
-124.51,1780135482.609375
-129.36,1780135482.625
-126.51,1780135482.640625
-114.51,1780135482.65625
-93.61,1780135482.671875
-65.81,1780135482.6875
-34.28,1780135482.703125
-2.56,1780135482.71875
26.41,1780135482.734375
50.71,1780135482.75
69.59,1780135482.765625
83.1,1780135482.78125
91.79,1780135482.796875
96.37,1780135482.8125
97.55,1780135482.828125
96.06,1780135482.84375
92.55,1780135482.859375
87.6,1780135482.875
81.71,1780135482.890625
75.23,1780135482.90625
68.4,1780135482.921875
61.5,1780135482.9375
54.79,1780135482.953125
48.62,1780135482.96875
43.33,1780135482.984375
39.15,1780135483.0
36.12,1780135483.015625
34.04,1780135483.03125
32.51,1780135483.046875
31.05,1780135483.0625
29.23,1780135483.078125
26.72,1780135483.09375
23.4,1780135483.109375
19.29,1780135483.125
14.49,1780135483.140625
9.11,1780135483.15625
3.14,1780135483.171875
-3.44,1780135483.1875
-10.68,1780135483.203125
-18.46,1780135483.21875
-26.53,1780135483.234375
-34.53,1780135483.25
-42.1,1780135483.265625
-49.03,1780135483.28125
-55.47,1780135483.296875
-61.93,1780135483.3125
-69.22,1780135483.328125
-78.11,1780135483.34375
-88.94,1780135483.359375
-101.16,1780135483.375
-113.04,1780135483.390625
-121.87,1780135483.40625
-124.58,1780135483.421875
-118.76,1780135483.4375
-103.5,1780135483.453125
-79.88,1780135483.46875
-50.63,1780135483.484375
-19.34,1780135483.5
10.57,1780135483.515625
36.64,1780135483.53125
57.62,1780135483.546875
73.24,1780135483.5625
83.83,1780135483.578125
89.94,1780135483.59375
92.23,1780135483.609375
91.45,1780135483.625
88.4,1780135483.640625
83.93,1780135483.65625
78.77,1780135483.671875
73.33,1780135483.6875
67.8,1780135483.703125
62.16,1780135483.71875
56.45,1780135483.734375
50.8,1780135483.75
45.56,1780135483.765625
41.14,1780135483.78125
37.84,1780135483.796875
35.73,1780135483.8125
34.5,1780135483.828125
33.59,1780135483.84375
32.37,1780135483.859375
30.4,1780135483.875
27.51,1780135483.890625
23.84,1780135483.90625
19.61,1780135483.921875
14.97,1780135483.9375
9.84,1780135483.953125
3.99,1780135483.96875
-2.72,1780135483.984375
-10.2,1780135484.0
-18.04,1780135484.015625
-25.69,1780135484.03125
-32.7,1780135484.046875
-38.86,1780135484.0625
-44.4,1780135484.078125
-49.83,1780135484.09375
-55.81,1780135484.109375
-62.98,1780135484.125
-71.75,1780135484.140625
-82.04,1780135484.15625
-93.05,1780135484.171875
-103.08,1780135484.1875
-109.69,1780135484.203125
-110.19,1780135484.21875
-102.55,1780135484.234375
-86.14,1780135484.25
-62.18,1780135484.265625
-33.41,1780135484.28125
-3.37,1780135484.296875
24.64,1780135484.3125
48.36,1780135484.328125
66.78,1780135484.34375
79.92,1780135484.359375
88.25,1780135484.375
92.35,1780135484.390625
92.68,1780135484.40625
89.73,1780135484.421875
84.11,1780135484.4375
76.67,1780135484.453125
68.36,1780135484.46875
60.06,1780135484.484375
52.44,1780135484.5
45.8,1780135484.515625
40.21,1780135484.53125
35.54,1780135484.546875
31.63,1780135484.5625
28.31,1780135484.578125
25.45,1780135484.59375
22.92,1780135484.609375
20.58,1780135484.625
18.3,1780135484.640625
15.88,1780135484.65625
13.15,1780135484.671875
9.85,1780135484.6875
5.7,1780135484.703125
0.46,1780135484.71875
-6.0,1780135484.734375
-13.55,1780135484.75
-21.85,1780135484.765625
-30.41,1780135484.78125
-38.71,1780135484.796875
-46.37,1780135484.8125
-53.24,1780135484.828125
-59.53,1780135484.84375
-65.65,1780135484.859375
-72.29,1780135484.875
-80.16,1780135484.890625
-89.83,1780135484.90625
-101.29,1780135484.921875
-113.6,1780135484.9375
-124.71,1780135484.953125
-131.7,1780135484.96875
-131.65,1780135484.984375
-122.41,1780135485.0
-103.6,1780135485.015625
-76.79,1780135485.03125
-45.12,1780135485.046875
-12.38,1780135485.0625
17.98,1780135485.078125
43.67,1780135485.09375
63.68,1780135485.109375
78.04,1780135485.125
87.44,1780135485.140625
92.66,1780135485.15625
94.52,1780135485.171875
93.72,1780135485.1875
90.92,1780135485.203125
86.73,1780135485.21875
81.59,1780135485.234375
75.78,1780135485.25
69.4,1780135485.265625
62.54,1780135485.28125
55.36,1780135485.296875
48.28,1780135485.3125
41.81,1780135485.328125
36.51,1780135485.34375
32.63,1780135485.359375
30.09,1780135485.375
28.42,1780135485.390625
27.01,1780135485.40625
25.28,1780135485.421875
22.91,1780135485.4375
19.91,1780135485.453125
16.39,1780135485.46875
12.51,1780135485.484375
8.23,1780135485.5
3.37,1780135485.515625
-2.34,1780135485.53125
-9.07,1780135485.546875
-16.78,1780135485.5625
-25.18,1780135485.578125
-33.81,1780135485.59375
-42.19,1780135485.609375
-50.0,1780135485.625
-57.2,1780135485.640625
-64.11,1780135485.65625
-71.36,1780135485.671875
-79.7,1780135485.6875
-89.69,1780135485.703125
-101.2,1780135485.71875
-113.04,1780135485.734375
-122.93,1780135485.75
-127.94,1780135485.765625
-125.28,1780135485.78125
-113.33,1780135485.796875
-92.31,1780135485.8125
-64.3,1780135485.828125
-32.69,1780135485.84375
-1.11,1780135485.859375
27.46,1780135485.875
51.21,1780135485.890625
69.55,1780135485.90625
82.66,1780135485.921875
91.09,1780135485.9375
95.4,1780135485.953125
96.2,1780135485.96875
94.11,1780135485.984375
89.95,1780135486.0
84.53,1780135486.015625
78.54,1780135486.03125
72.36,1780135486.046875
66.08,1780135486.0625
59.68,1780135486.078125
53.19,1780135486.09375
46.94,1780135486.109375
41.41,1780135486.125
37.11,1780135486.140625
34.21,1780135486.15625
32.47,1780135486.171875
31.25,1780135486.1875
29.87,1780135486.203125
27.83,1780135486.21875
25.0,1780135486.234375
21.57,1780135486.25
17.83,1780135486.265625
13.91,1780135486.28125
9.68,1780135486.296875
4.86,1780135486.3125
-0.82,1780135486.328125
-7.45,1780135486.34375
-14.88,1780135486.359375
-22.8,1780135486.375
-30.86,1780135486.390625
-38.76,1780135486.40625
-46.37,1780135486.421875
-53.67,1780135486.4375
-60.86,1780135486.453125
-68.32,1780135486.46875
-76.66,1780135486.484375
-86.34,1780135486.5
-97.4,1780135486.515625
-108.9,1780135486.53125
-118.85,1780135486.546875
-124.46,1780135486.5625
-122.9,1780135486.578125
-112.37,1780135486.59375
-92.75,1780135486.609375
-65.91,1780135486.625
-35.12,1780135486.640625
-4.08,1780135486.65625
24.05,1780135486.671875
47.29,1780135486.6875
64.98,1780135486.703125
77.44,1780135486.71875
85.36,1780135486.734375
89.42,1780135486.75
90.11,1780135486.765625
87.83,1780135486.78125
83.08,1780135486.796875
76.5,1780135486.8125
68.89,1780135486.828125
61.06,1780135486.84375
53.65,1780135486.859375
47.0,1780135486.875
41.21,1780135486.890625
36.24,1780135486.90625
31.96,1780135486.921875
28.33,1780135486.9375
25.43,1780135486.953125
23.34,1780135486.96875
22.12,1780135486.984375
21.63,1780135487.0
21.48,1780135487.015625
21.12,1780135487.03125
19.9,1780135487.046875
17.24,1780135487.0625
12.82,1780135487.078125
6.74,1780135487.09375
-0.55,1780135487.109375
-8.29,1780135487.125
-15.77,1780135487.140625
-22.51,1780135487.15625
-28.37,1780135487.171875
-33.6,1780135487.1875
-38.68,1780135487.203125
-44.22,1780135487.21875
-50.8,1780135487.234375
-58.89,1780135487.25
-68.63,1780135487.265625
-79.6,1780135487.28125
-90.6,1780135487.296875
-99.52,1780135487.3125
-103.75,1780135487.328125
-100.89,1780135487.34375
-89.57,1780135487.359375
-70.11,1780135487.375
-44.59,1780135487.390625
-16.21,1780135487.40625
11.54,1780135487.421875
35.87,1780135487.4375
55.25,1780135487.453125
69.4,1780135487.46875
78.8,1780135487.484375
84.23,1780135487.5
86.23,1780135487.515625
85.19,1780135487.53125
81.39,1780135487.546875
75.32,1780135487.5625
67.72,1780135487.578125
59.54,1780135487.59375
51.68,1780135487.609375
44.74,1780135487.625
38.96,1780135487.640625
34.21,1780135487.65625
30.26,1780135487.671875
26.89,1780135487.6875
23.99,1780135487.703125
21.48,1780135487.71875
19.32,1780135487.734375
17.39,1780135487.75
15.49,1780135487.765625
13.39,1780135487.78125
10.81,1780135487.796875
7.43,1780135487.8125
2.95,1780135487.828125
-2.8,1780135487.84375
-9.84,1780135487.859375
-17.85,1780135487.875
-26.35,1780135487.890625
-34.77,1780135487.90625
-42.6,1780135487.921875
-49.63,1780135487.9375
-55.99,1780135487.953125
-62.07,1780135487.96875
-68.52,1780135487.984375
-76.07,1780135488.0
-85.33,1780135488.015625
-96.48,1780135488.03125
-108.91,1780135488.046875
-120.93,1780135488.0625
-129.86,1780135488.078125
-132.66,1780135488.09375
-126.84,1780135488.109375
-111.42,1780135488.125
-87.47,1780135488.140625
-57.81,1780135488.15625
-26.2,1780135488.171875
3.84,1780135488.1875
29.85,1780135488.203125
50.72,1780135488.21875
66.41,1780135488.234375
77.46,1780135488.25
84.52,1780135488.265625
88.15,1780135488.28125
88.82,1780135488.296875
87.02,1780135488.3125
83.31,1780135488.328125
78.28,1780135488.34375
72.44,1780135488.359375
66.18,1780135488.375
59.82,1780135488.390625
53.6,1780135488.40625
47.78,1780135488.421875
42.56,1780135488.4375
38.16,1780135488.453125
34.61,1780135488.46875
31.88,1780135488.484375
29.77,1780135488.5
28.06,1780135488.515625
26.46,1780135488.53125
24.7,1780135488.546875
22.49,1780135488.5625
19.45,1780135488.578125
15.3,1780135488.59375
9.83,1780135488.609375
3.07,1780135488.625
-4.66,1780135488.640625
-12.85,1780135488.65625
-20.99,1780135488.671875
-28.74,1780135488.6875
-35.98,1780135488.703125
-42.89,1780135488.71875
-49.8,1780135488.734375
-57.15,1780135488.75
-65.39,1780135488.765625
-74.91,1780135488.78125
-85.79,1780135488.796875
-97.54,1780135488.8125
-108.8,1780135488.828125
-117.33,1780135488.84375
-120.46,1780135488.859375
-115.81,1780135488.875
-102.24,1780135488.890625
-80.38,1780135488.90625
-52.48,1780135488.921875
-21.87,1780135488.9375
8.09,1780135488.953125
34.79,1780135488.96875
56.75,1780135488.984375
73.56,1780135489.0
85.49,1780135489.015625
93.1,1780135489.03125
96.92,1780135489.046875
97.52,1780135489.0625
95.39,1780135489.078125
91.1,1780135489.09375
85.27,1780135489.109375
78.51,1780135489.125
71.39,1780135489.140625
64.32,1780135489.15625
57.61,1780135489.171875
51.41,1780135489.1875
45.86,1780135489.203125
41.12,1780135489.21875
37.36,1780135489.234375
34.72,1780135489.25
33.13,1780135489.265625
32.26,1780135489.28125
31.55,1780135489.296875
30.39,1780135489.3125
28.32,1780135489.328125
25.19,1780135489.34375
21.15,1780135489.359375
16.42,1780135489.375
11.16,1780135489.390625
5.32,1780135489.40625
-1.29,1780135489.421875
-8.74,1780135489.4375
-16.88,1780135489.453125
-25.27,1780135489.46875
-33.36,1780135489.484375
-40.83,1780135489.5
-47.72,1780135489.515625
-54.52,1780135489.53125
-61.99,1780135489.546875
-70.84,1780135489.5625
-81.4,1780135489.578125
-93.23,1780135489.59375
-105.01,1780135489.609375
-114.56,1780135489.625
-119.28,1780135489.640625
-116.75,1780135489.65625
-105.58,1780135489.671875
-85.94,1780135489.6875
-59.73,1780135489.703125
-29.99,1780135489.71875
-0.16,1780135489.734375
26.94,1780135489.75
49.56,1780135489.765625
67.13,1780135489.78125
79.85,1780135489.796875
88.21,1780135489.8125
92.64,1780135489.828125
93.47,1780135489.84375
91.05,1780135489.859375
85.93,1780135489.875
78.86,1780135489.890625
70.68,1780135489.90625
62.2,1780135489.921875
54.05,1780135489.9375
46.57,1780135489.953125
39.9,1780135489.96875
34.04,1780135489.984375
29.0,1780135490.0
24.79,1780135490.015625
21.47,1780135490.03125
19.11,1780135490.046875
17.68,1780135490.0625
16.97,1780135490.078125
16.53,1780135490.09375
15.75,1780135490.109375
13.96,1780135490.125
10.67,1780135490.140625
5.7,1780135490.15625
-0.64,1780135490.171875
-7.77,1780135490.1875
-14.97,1780135490.203125
-21.64,1780135490.21875
-27.55,1780135490.234375
-32.85,1780135490.25
-38.0,1780135490.265625
-43.58,1780135490.28125
-50.22,1780135490.296875
-58.35,1780135490.3125
-68.13,1780135490.328125
-79.04,1780135490.34375
-89.77,1780135490.359375
-98.12,1780135490.375
-101.49,1780135490.390625
-97.57,1780135490.40625
-85.22,1780135490.421875
-65.0,1780135490.4375
-39.13,1780135490.453125
-10.86,1780135490.46875
16.51,1780135490.484375
40.43,1780135490.5
59.58,1780135490.515625
73.77,1780135490.53125
83.42,1780135490.546875
89.16,1780135490.5625
91.45,1780135490.578125
90.63,1780135490.59375
87.0,1780135490.609375
81.08,1780135490.625
73.63,1780135490.640625
65.51,1780135490.65625
57.58,1780135490.671875
50.37,1780135490.6875
44.13,1780135490.703125
38.77,1780135490.71875
34.11,1780135490.734375
29.93,1780135490.75
26.16,1780135490.765625
22.86,1780135490.78125
20.14,1780135490.796875
18.0,1780135490.8125
16.21,1780135490.828125
14.36,1780135490.84375
11.96,1780135490.859375
8.56,1780135490.875
3.89,1780135490.890625
-2.11,1780135490.90625
-9.27,1780135490.921875
-17.23,1780135490.9375
-25.55,1780135490.953125
-33.82,1780135490.96875
-41.68,1780135490.984375
-48.94,1780135491.0
-55.58,1780135491.015625
-61.84,1780135491.03125
-68.23,1780135491.046875
-75.46,1780135491.0625
-84.19,1780135491.078125
-94.7,1780135491.09375
-106.42,1780135491.109375
-117.7,1780135491.125
-125.89,1780135491.140625
-128.01,1780135491.15625
-121.62,1780135491.171875
-105.8,1780135491.1875
-81.6,1780135491.203125
-51.81,1780135491.21875
-20.11,1780135491.234375
9.96,1780135491.25
35.89,1780135491.265625
56.54,1780135491.28125
71.9,1780135491.296875
82.64,1780135491.3125
89.53,1780135491.328125
93.17,1780135491.34375
94.04,1780135491.359375
92.49,1780135491.375
88.94,1780135491.390625
83.9,1780135491.40625
77.93,1780135491.421875
71.49,1780135491.4375
64.93,1780135491.453125
58.49,1780135491.46875
52.26,1780135491.484375
46.3,1780135491.5
40.77,1780135491.515625
35.88,1780135491.53125
31.89,1780135491.546875
28.94,1780135491.5625
27.0,1780135491.578125
25.79,1780135491.59375
24.87,1780135491.609375
23.71,1780135491.625
21.74,1780135491.640625
18.48,1780135491.65625
13.53,1780135491.671875
6.68,1780135491.6875
-2.0,1780135491.703125
-12.15,1780135491.71875
-23.14,1780135491.734375
-34.15,1780135491.75
-44.5,1780135491.765625
-53.73,1780135491.78125
-61.79,1780135491.796875
-69.04,1780135491.8125
-76.12,1780135491.828125
-83.77,1780135491.84375
-92.51,1780135491.859375
-102.25,1780135491.875
-112.02,1780135491.890625
-119.85,1780135491.90625
-123.15,1780135491.921875
-119.42,1780135491.9375
-107.2,1780135491.953125
-86.63,1780135491.96875
-59.67,1780135491.984375
-29.51,1780135492.0
0.38,1780135492.015625
27.11,1780135492.03125
49.0,1780135492.046875
65.49,1780135492.0625
76.91,1780135492.078125
83.88,1780135492.09375
87.16,1780135492.109375
87.4,1780135492.125
85.23,1780135492.140625
81.29,1780135492.15625
76.17,1780135492.171875
70.38,1780135492.1875
64.32,1780135492.203125
58.22,1780135492.21875
52.22,1780135492.234375
46.42,1780135492.25
40.9,1780135492.265625
35.78,1780135492.28125
31.19,1780135492.296875
27.24,1780135492.3125
24.0,1780135492.328125
21.46,1780135492.34375
19.5,1780135492.359375
17.92,1780135492.375
16.39,1780135492.390625
14.53,1780135492.40625
11.93,1780135492.421875
8.26,1780135492.4375
3.38,1780135492.453125
-2.55,1780135492.46875
-9.12,1780135492.484375
-15.8,1780135492.5
-22.08,1780135492.515625
-27.76,1780135492.53125
-32.94,1780135492.546875
-38.07,1780135492.5625
-43.73,1780135492.578125
-50.55,1780135492.59375
-58.93,1780135492.609375
-68.96,1780135492.625
-80.08,1780135492.640625
-90.95,1780135492.65625
-99.49,1780135492.671875
-103.19,1780135492.6875
-99.85,1780135492.703125
-88.26,1780135492.71875
-68.84,1780135492.734375
-43.61,1780135492.75
-15.7,1780135492.765625
11.55,1780135492.78125
35.47,1780135492.796875
54.6,1780135492.8125
68.55,1780135492.828125
77.71,1780135492.84375
82.66,1780135492.859375
83.87,1780135492.875
81.75,1780135492.890625
76.79,1780135492.90625
69.76,1780135492.921875
61.71,1780135492.9375
53.7,1780135492.953125
46.44,1780135492.96875
40.13,1780135492.984375
34.49,1780135493.0
29.05,1780135493.015625
23.52,1780135493.03125
18.0,1780135493.046875
12.94,1780135493.0625
8.87,1780135493.078125
6.14,1780135493.09375
4.64,1780135493.109375
3.67,1780135493.125
2.22,1780135493.140625
-0.72,1780135493.15625
-5.78,1780135493.171875
-12.87,1780135493.1875
-21.31,1780135493.203125
-30.0,1780135493.21875
-37.93,1780135493.234375
-44.5,1780135493.25
-49.79,1780135493.265625
-54.43,1780135493.28125
-59.35,1780135493.296875
-65.53,1780135493.3125
-73.7,1780135493.328125
-84.07,1780135493.34375
-96.08,1780135493.359375
-108.21,1780135493.375
-118.05,1780135493.390625
-122.76,1780135493.40625
-119.8,1780135493.421875
-107.86,1780135493.4375
-87.27,1780135493.453125
-60.08,1780135493.46875
-29.44,1780135493.484375
1.26,1780135493.5
29.22,1780135493.515625
52.65,1780135493.53125
70.78,1780135493.546875
83.61,1780135493.5625
91.53,1780135493.578125
95.13,1780135493.59375
95.05,1780135493.609375
92.02,1780135493.625
86.84,1780135493.640625
80.32,1780135493.65625
73.22,1780135493.671875
66.06,1780135493.6875
59.09,1780135493.703125
52.34,1780135493.71875
45.7,1780135493.734375
39.11,1780135493.75
32.69,1780135493.765625
26.75,1780135493.78125
21.65,1780135493.796875
17.68,1780135493.8125
14.82,1780135493.828125
12.75,1780135493.84375
10.93,1780135493.859375
8.62,1780135493.875
5.2,1780135493.890625
0.25,1780135493.90625
-6.31,1780135493.921875
-14.15,1780135493.9375
-22.67,1780135493.953125
-31.14,1780135493.96875
-38.94,1780135493.984375
-45.75,1780135494.0
-51.67,1780135494.015625
-57.19,1780135494.03125
-63.15,1780135494.046875
-70.44,1780135494.0625
-79.67,1780135494.078125
-90.76,1780135494.09375
-102.67,1780135494.109375
-113.27,1780135494.125
-119.74,1780135494.140625
-119.35,1780135494.15625
-110.27,1780135494.171875
-92.3,1780135494.1875
-67.11,1780135494.203125
-37.77,1780135494.21875
-7.82,1780135494.234375
19.68,1780135494.25
42.84,1780135494.265625
61.03,1780135494.28125
74.5,1780135494.296875
83.89,1780135494.3125
89.72,1780135494.328125
92.32,1780135494.34375
91.91,1780135494.359375
88.85,1780135494.375
83.76,1780135494.390625
77.45,1780135494.40625
70.65,1780135494.421875
63.9,1780135494.4375
57.39,1780135494.453125
51.09,1780135494.46875
44.91,1780135494.484375
38.85,1780135494.5
33.09,1780135494.515625
27.9,1780135494.53125
23.57,1780135494.546875
20.23,1780135494.5625
17.85,1780135494.578125
16.14,1780135494.59375
14.63,1780135494.609375
12.73,1780135494.625
9.8,1780135494.640625
5.36,1780135494.65625
-0.77,1780135494.671875
-8.36,1780135494.6875
-16.84,1780135494.703125
-25.48,1780135494.71875
-33.62,1780135494.734375
-40.95,1780135494.75
-47.56,1780135494.765625
-53.89,1780135494.78125
-60.67,1780135494.796875
-68.61,1780135494.8125
-78.21,1780135494.828125
-89.44,1780135494.84375
-101.47,1780135494.859375
-112.51,1780135494.875
-120.01,1780135494.890625
-121.19,1780135494.90625
-113.91,1780135494.921875
-97.54,1780135494.9375
-73.26,1780135494.953125
-43.86,1780135494.96875
-12.86,1780135494.984375
16.44,1780135495.0
41.76,1780135495.015625
62.02,1780135495.03125
77.11,1780135495.046875
87.38,1780135495.0625
93.27,1780135495.078125
95.17,1780135495.09375
93.56,1780135495.109375
89.05,1780135495.125
82.52,1780135495.140625
74.9,1780135495.15625
67.0,1780135495.171875
59.38,1780135495.1875
52.24,1780135495.203125
45.55,1780135495.21875
39.23,1780135495.234375
33.26,1780135495.25
27.82,1780135495.265625
23.26,1780135495.28125
19.88,1780135495.296875
17.81,1780135495.3125
16.89,1780135495.328125
16.6,1780135495.34375
16.22,1780135495.359375
14.94,1780135495.375
12.17,1780135495.390625
7.72,1780135495.40625
1.82,1780135495.421875
-4.95,1780135495.4375
-11.87,1780135495.453125
-18.33,1780135495.46875
-24.03,1780135495.484375
-29.07,1780135495.5
-33.91,1780135495.515625
-39.24,1780135495.53125
-45.74,1780135495.546875
-53.95,1780135495.5625
-64.0,1780135495.578125
-75.29,1780135495.59375
-86.31,1780135495.609375
-94.79,1780135495.625
-98.06,1780135495.640625
-93.88,1780135495.65625
-81.26,1780135495.671875
-60.9,1780135495.6875
-35.1,1780135495.703125
-7.12,1780135495.71875
19.8,1780135495.734375
43.17,1780135495.75
61.71,1780135495.765625
75.17,1780135495.78125
83.94,1780135495.796875
88.56,1780135495.8125
89.47,1780135495.828125
86.97,1780135495.84375
81.48,1780135495.859375
73.68,1780135495.875
64.58,1780135495.890625
55.32,1780135495.90625
46.94,1780135495.921875
40.11,1780135495.9375
34.95,1780135495.953125
31.17,1780135495.96875
28.26,1780135495.984375
25.78,1780135496.0
23.52,1780135496.015625
21.47,1780135496.03125
19.8,1780135496.046875
18.51,1780135496.0625
17.33,1780135496.078125
15.76,1780135496.09375
13.14,1780135496.109375
8.98,1780135496.125
3.11,1780135496.140625
-4.33,1780135496.15625
-12.85,1780135496.171875
-21.89,1780135496.1875
-30.87,1780135496.203125
-39.41,1780135496.21875
-47.27,1780135496.234375
-54.47,1780135496.25
-61.14,1780135496.265625
-67.62,1780135496.28125
-74.46,1780135496.296875
-82.3,1780135496.3125
-91.59,1780135496.328125
-102.17,1780135496.34375
-112.92,1780135496.359375
-121.68,1780135496.375
-125.63,1780135496.390625
-122.05,1780135496.40625
-109.35,1780135496.421875
-87.75,1780135496.4375
-59.37,1780135496.453125
-27.66,1780135496.46875
3.63,1780135496.484375
31.51,1780135496.5
54.27,1780135496.515625
71.5,1780135496.53125
83.65,1780135496.546875
91.47,1780135496.5625
95.64,1780135496.578125
96.65,1780135496.59375
94.95,1780135496.609375
91.02,1780135496.625
85.47,1780135496.640625
78.89,1780135496.65625
71.8,1780135496.671875
64.55,1780135496.6875
57.39,1780135496.703125
50.48,1780135496.71875
44.07,1780135496.734375
38.42,1780135496.75
33.82,1780135496.765625
30.43,1780135496.78125
28.21,1780135496.796875
26.89,1780135496.8125
26.04,1780135496.828125
25.14,1780135496.84375
23.8,1780135496.859375
21.77,1780135496.875
18.88,1780135496.890625
15.03,1780135496.90625
10.1,1780135496.921875
4.02,1780135496.9375
-3.13,1780135496.953125
-11.09,1780135496.96875
-19.44,1780135496.984375
-27.75,1780135497.0
-35.72,1780135497.015625
-43.28,1780135497.03125
-50.54,1780135497.046875
-57.82,1780135497.0625
-65.54,1780135497.078125
-74.18,1780135497.09375
-84.1,1780135497.109375
-95.06,1780135497.125
-105.92,1780135497.140625
-114.55,1780135497.15625
-118.15,1780135497.171875
-114.09,1780135497.1875
-100.98,1780135497.203125
-79.33,1780135497.21875
-51.51,1780135497.234375
-21.0,1780135497.25
8.72,1780135497.265625
35.02,1780135497.28125
56.54,1780135497.296875
73.01,1780135497.3125
84.72,1780135497.328125
92.12,1780135497.34375
95.7,1780135497.359375
95.97,1780135497.375
93.6,1780135497.390625
89.43,1780135497.40625
84.22,1780135497.421875
78.49,1780135497.4375
72.43,1780135497.453125
66.03,1780135497.46875
59.24,1780135497.484375
52.27,1780135497.5
45.56,1780135497.515625
39.69,1780135497.53125
35.14,1780135497.546875
32.05,1780135497.5625
30.15,1780135497.578125
28.86,1780135497.59375
27.5,1780135497.609375
25.58,1780135497.625
22.92,1780135497.640625
19.66,1780135497.65625
16.06,1780135497.671875
12.32,1780135497.6875
8.41,1780135497.703125
4.07,1780135497.71875
-1.07,1780135497.734375
-7.31,1780135497.75
-14.61,1780135497.765625
-22.58,1780135497.78125
-30.56,1780135497.796875
-37.87,1780135497.8125
-44.08,1780135497.828125
-49.2,1780135497.84375
-53.68,1780135497.859375
-58.28,1780135497.875
-63.9,1780135497.890625
-71.2,1780135497.90625
-80.24,1780135497.921875
-90.18,1780135497.9375
-99.22,1780135497.953125
-104.77,1780135497.96875
-104.18,1780135497.984375
-95.59,1780135498.0
-78.66,1780135498.015625
-54.85,1780135498.03125
-27.09,1780135498.046875
1.14,1780135498.0625
26.73,1780135498.078125
47.63,1780135498.09375
63.1,1780135498.109375
73.35,1780135498.125
79.08,1780135498.140625
81.07,1780135498.15625
79.98,1780135498.171875
76.39,1780135498.1875
70.89,1780135498.203125
64.12,1780135498.21875
56.79,1780135498.234375
49.5,1780135498.25
42.75,1780135498.265625
36.8,1780135498.28125
31.73,1780135498.296875
27.47,1780135498.3125
23.89,1780135498.328125
20.89,1780135498.34375
18.42,1780135498.359375
16.52,1780135498.375
15.19,1780135498.390625
14.35,1780135498.40625
13.71,1780135498.421875
12.85,1780135498.4375
11.25,1780135498.453125
8.45,1780135498.46875
4.2,1780135498.484375
-1.42,1780135498.5
-8.11,1780135498.515625
-15.33,1780135498.53125
-22.53,1780135498.546875
-29.28,1780135498.5625
-35.33,1780135498.578125
-40.73,1780135498.59375
-45.76,1780135498.609375
-50.86,1780135498.625
-56.6,1780135498.640625
-63.55,1780135498.65625
-72.05,1780135498.671875
-81.92,1780135498.6875
-92.21,1780135498.703125
-101.1,1780135498.71875
-106.13,1780135498.734375
-104.88,1780135498.75
-95.68,1780135498.765625
-78.45,1780135498.78125
-54.73,1780135498.796875
-27.37,1780135498.8125
0.35,1780135498.828125
25.58,1780135498.84375
46.45,1780135498.859375
62.28,1780135498.875
73.2,1780135498.890625
79.81,1780135498.90625
82.74,1780135498.921875
82.6,1780135498.9375
79.93,1780135498.953125
75.31,1780135498.96875
69.36,1780135498.984375
62.63,1780135499.0
55.63,1780135499.015625
48.7,1780135499.03125
42.06,1780135499.046875
35.91,1780135499.0625
30.48,1780135499.078125
26.03,1780135499.09375
22.76,1780135499.109375
20.68,1780135499.125
19.51,1780135499.140625
18.75,1780135499.15625
17.76,1780135499.171875
16.04,1780135499.1875
13.35,1780135499.203125
9.78,1780135499.21875
5.61,1780135499.234375
1.11,1780135499.25
-3.58,1780135499.265625
-8.55,1780135499.28125
-14.02,1780135499.296875
-20.24,1780135499.3125
-27.23,1780135499.328125
-34.7,1780135499.34375
-42.18,1780135499.359375
-49.14,1780135499.375
-55.25,1780135499.390625
-60.59,1780135499.40625
-65.68,1780135499.421875
-71.33,1780135499.4375
-78.41,1780135499.453125
-87.39,1780135499.46875
-97.97,1780135499.484375
-108.8,1780135499.5
-117.52,1780135499.515625
-121.29,1780135499.53125
-117.56,1780135499.546875
-105.0,1780135499.5625
-84.03,1780135499.578125
-56.79,1780135499.59375
-26.6,1780135499.609375
3.0,1780135499.625
29.19,1780135499.640625
50.29,1780135499.65625
65.88,1780135499.671875
76.34,1780135499.6875
82.51,1780135499.703125
85.22,1780135499.71875
85.2,1780135499.734375
83.02,1780135499.75
79.2,1780135499.765625
74.21,1780135499.78125
68.47,1780135499.796875
62.38,1780135499.8125
56.21,1780135499.828125
50.13,1780135499.84375
44.32,1780135499.859375
38.92,1780135499.875
34.15,1780135499.890625
30.2,1780135499.90625
27.16,1780135499.921875
24.95,1780135499.9375
23.24,1780135499.953125
21.62,1780135499.96875
19.65,1780135499.984375
17.09,1780135500.0
13.9,1780135500.015625
10.25,1780135500.03125
6.24,1780135500.046875
1.85,1780135500.0625
-3.15,1780135500.078125
-9.02,1780135500.09375
-15.85,1780135500.109375
-23.47,1780135500.125
-31.39,1780135500.140625
-39.11,1780135500.15625
-46.2,1780135500.171875
-52.59,1780135500.1875
-58.55,1780135500.203125
-64.61,1780135500.21875
-71.46,1780135500.234375
-79.6,1780135500.25
-89.15,1780135500.265625
-99.52,1780135500.28125
-109.24,1780135500.296875
-116.02,1780135500.3125
-117.25,1780135500.328125
-110.81,1780135500.34375
-95.82,1780135500.359375
-73.19,1780135500.375
-45.43,1780135500.390625
-15.93,1780135500.40625
11.97,1780135500.421875
35.87,1780135500.4375
54.62,1780135500.453125
68.13,1780135500.46875
76.91,1780135500.484375
81.65,1780135500.5
82.86,1780135500.515625
81.0,1780135500.53125
76.54,1780135500.546875
70.2,1780135500.5625
62.78,1780135500.578125
55.13,1780135500.59375
47.84,1780135500.609375
41.23,1780135500.625
35.35,1780135500.640625
30.01,1780135500.65625
25.02,1780135500.671875
20.32,1780135500.6875
16.04,1780135500.703125
12.44,1780135500.71875
9.8,1780135500.734375
8.21,1780135500.75
7.45,1780135500.765625
7.01,1780135500.78125
6.13,1780135500.796875
4.12,1780135500.8125
0.58,1780135500.828125
-4.46,1780135500.84375
-10.57,1780135500.859375
-17.02,1780135500.875
-23.12,1780135500.890625
-28.43,1780135500.90625
-32.9,1780135500.921875
-36.93,1780135500.9375
-41.21,1780135500.953125
-46.54,1780135500.96875
-53.62,1780135500.984375
-62.67,1780135501.0
-73.21,1780135501.015625
-83.98,1780135501.03125
-92.93,1780135501.046875
-97.64,1780135501.0625
-95.9,1780135501.078125
-86.35,1780135501.09375
-69.06,1780135501.109375
-45.6,1780135501.125
-18.69,1780135501.140625
8.47,1780135501.15625
33.04,1780135501.171875
53.11,1780135501.1875
67.93,1780135501.203125
77.65,1780135501.21875
82.87,1780135501.234375
84.2,1780135501.25
82.12,1780135501.265625
77.06,1780135501.28125
69.66,1780135501.296875
60.8,1780135501.3125
51.59,1780135501.328125
43.05,1780135501.34375
35.72,1780135501.359375
29.67,1780135501.375
24.52,1780135501.390625
19.82,1780135501.40625
15.39,1780135501.421875
11.35,1780135501.4375
8.09,1780135501.453125
5.9,1780135501.46875
4.77,1780135501.484375
4.16,1780135501.5
3.27,1780135501.515625
1.21,1780135501.53125
-2.66,1780135501.546875
-8.46,1780135501.5625
-15.81,1780135501.578125
-24.0,1780135501.59375
-32.2,1780135501.609375
-39.78,1780135501.625
-46.59,1780135501.640625
-52.82,1780135501.65625
-58.99,1780135501.671875
-65.77,1780135501.6875
-73.79,1780135501.703125
-83.58,1780135501.71875
-95.29,1780135501.734375
-108.42,1780135501.75
-121.52,1780135501.765625
-132.16,1780135501.78125
-137.36,1780135501.796875
-134.43,1780135501.8125
-121.91,1780135501.828125
-100.25,1780135501.84375
-71.74,1780135501.859375
-39.89,1780135501.875
-8.28,1780135501.890625
20.29,1780135501.90625
44.23,1780135501.921875
63.06,1780135501.9375
76.92,1780135501.953125
86.16,1780135501.96875
91.14,1780135501.984375
92.31,1780135502.0
90.26,1780135502.015625
85.78,1780135502.03125
79.75,1780135502.046875
72.93,1780135502.0625
65.92,1780135502.078125
59.08,1780135502.09375
52.62,1780135502.109375
46.62,1780135502.125
41.09,1780135502.140625
35.98,1780135502.15625
31.28,1780135502.171875
27.04,1780135502.1875
23.38,1780135502.203125
20.47,1780135502.21875
18.24,1780135502.234375
16.38,1780135502.25
14.2,1780135502.265625
10.95,1780135502.28125
6.05,1780135502.296875
-0.61,1780135502.3125
-8.53,1780135502.328125
-16.91,1780135502.34375
-24.89,1780135502.359375
-31.99,1780135502.375
-38.25,1780135502.390625
-44.13,1780135502.40625
-50.36,1780135502.421875
-57.66,1780135502.4375
-66.69,1780135502.453125
-77.75,1780135502.46875
-90.55,1780135502.484375
-103.9,1780135502.5
-115.62,1780135502.515625
-122.85,1780135502.53125
-122.7,1780135502.546875
-113.31,1780135502.5625
-94.52,1780135502.578125
-68.2,1780135502.59375
-37.6,1780135502.609375
-6.44,1780135502.625
22.15,1780135502.640625
46.26,1780135502.65625
65.23,1780135502.671875
79.28,1780135502.6875
88.93,1780135502.703125
94.76,1780135502.71875
97.14,1780135502.734375
96.48,1780135502.75
93.26,1780135502.765625
88.1,1780135502.78125
81.69,1780135502.796875
74.71,1780135502.8125
67.74,1780135502.828125
61.12,1780135502.84375
55.08,1780135502.859375
49.64,1780135502.875
44.76,1780135502.890625
40.46,1780135502.90625
36.77,1780135502.921875
33.82,1780135502.9375
31.7,1780135502.953125
30.31,1780135502.96875
29.24,1780135502.984375
27.79,1780135503.0
25.18,1780135503.015625
20.79,1780135503.03125
14.43,1780135503.046875
6.35,1780135503.0625
-2.75,1780135503.078125
-12.09,1780135503.09375
-21.02,1780135503.109375
-29.18,1780135503.125
-36.58,1780135503.140625
-43.51,1780135503.15625
-50.5,1780135503.171875
-58.2,1780135503.1875
-67.23,1780135503.203125
-77.95,1780135503.21875
-90.1,1780135503.234375
-102.51,1780135503.25
-112.98,1780135503.265625
-118.69,1780135503.28125
-116.93,1780135503.296875
-106.11,1780135503.3125
-86.39,1780135503.328125
-59.82,1780135503.34375
-29.68,1780135503.359375
0.46,1780135503.375
27.73,1780135503.390625
50.43,1780135503.40625
68.05,1780135503.421875
80.76,1780135503.4375
88.96,1780135503.453125
92.96,1780135503.46875
93.07,1780135503.484375
89.8,1780135503.5
83.97,1780135503.515625
76.64,1780135503.53125
68.87,1780135503.546875
61.46,1780135503.5625
54.73,1780135503.578125
48.65,1780135503.59375
42.97,1780135503.609375
37.57,1780135503.625
32.52,1780135503.640625
28.15,1780135503.65625
24.84,1780135503.671875
22.83,1780135503.6875
21.98,1780135503.703125
21.75,1780135503.71875
21.25,1780135503.734375
19.56,1780135503.75
15.98,1780135503.765625
10.26,1780135503.78125
2.74,1780135503.796875
-5.76,1780135503.8125
-14.27,1780135503.828125
-22.01,1780135503.84375
-28.65,1780135503.859375
-34.51,1780135503.875
-40.38,1780135503.890625
-47.27,1780135503.90625
-56.04,1780135503.921875
-67.01,1780135503.9375
-79.67,1780135503.953125
-92.53,1780135503.96875
-103.3,1780135503.984375
-109.3,1780135504.0
-108.13,1780135504.015625
-98.44,1780135504.03125
-80.36,1780135504.046875
-55.66,1780135504.0625
-27.21,1780135504.078125
1.74,1780135504.09375
28.43,1780135504.109375
51.08,1780135504.125
68.99,1780135504.140625
82.2,1780135504.15625
91.09,1780135504.171875
96.03,1780135504.1875
97.37,1780135504.203125
95.51,1780135504.21875
91.02,1780135504.234375
84.66,1780135504.25
77.23,1780135504.265625
69.51,1780135504.28125
62.04,1780135504.296875
55.08,1780135504.3125
48.75,1780135504.328125
43.02,1780135504.34375
37.87,1780135504.359375
33.28,1780135504.375
29.25,1780135504.390625
25.73,1780135504.40625
22.66,1780135504.421875
19.87,1780135504.4375
17.03,1780135504.453125
13.69,1780135504.46875
9.4,1780135504.484375
3.8,1780135504.5
-3.22,1780135504.515625
-11.48,1780135504.53125
-20.49,1780135504.546875
-29.74,1780135504.5625
-38.85,1780135504.578125
-47.74,1780135504.59375
-56.57,1780135504.609375
-65.62,1780135504.625
-75.09,1780135504.640625
-85.1,1780135504.65625
-95.69,1780135504.671875
-106.81,1780135504.6875
-118.19,1780135504.703125
-129.05,1780135504.71875
-137.8,1780135504.734375
-142.12,1780135504.75
-139.54,1780135504.765625
-128.24,1780135504.78125
-107.84,1780135504.796875
-79.8,1780135504.8125
-47.05,1780135504.828125
-13.11,1780135504.84375
18.82,1780135504.859375
46.54,1780135504.875
68.97,1780135504.890625
85.84,1780135504.90625
97.37,1780135504.921875
103.99,1780135504.9375
106.29,1780135504.953125
105.03,1780135504.96875
101.13,1780135504.984375
95.49,1780135505.0
88.9,1780135505.015625
81.89,1780135505.03125
74.74,1780135505.046875
67.69,1780135505.0625
61.02,1780135505.078125
55.04,1780135505.09375
50.04,1780135505.109375
46.22,1780135505.125
43.59,1780135505.140625
41.95,1780135505.15625
40.99,1780135505.171875
40.32,1780135505.1875
39.61,1780135505.203125
38.6,1780135505.21875
37.08,1780135505.234375
34.88,1780135505.25
31.82,1780135505.265625
27.68,1780135505.28125
22.3,1780135505.296875
15.65,1780135505.3125
7.82,1780135505.328125
-0.81,1780135505.34375
-9.86,1780135505.359375
-18.89,1780135505.375
-27.61,1780135505.390625
-35.89,1780135505.40625
-43.86,1780135505.421875
-51.82,1780135505.4375
-60.33,1780135505.453125
-69.95,1780135505.46875
-80.92,1780135505.484375
-92.82,1780135505.5
-104.16,1780135505.515625
-112.54,1780135505.53125
-115.17,1780135505.546875
-109.82,1780135505.5625
-95.62,1780135505.578125
-73.57,1780135505.59375
-46.29,1780135505.609375
-17.18,1780135505.625
10.55,1780135505.640625
34.67,1780135505.65625
54.15,1780135505.671875
68.92,1780135505.6875
79.43,1780135505.703125
86.2,1780135505.71875
89.65,1780135505.734375
90.08,1780135505.75
87.85,1780135505.765625
83.43,1780135505.78125
77.48,1780135505.796875
70.67,1780135505.8125
63.62,1780135505.828125
56.77,1780135505.84375
50.37,1780135505.859375
44.48,1780135505.875
39.18,1780135505.890625
34.56,1780135505.90625
30.85,1780135505.921875
28.26,1780135505.9375
26.95,1780135505.953125
26.75,1780135505.96875
27.21,1780135505.984375
27.64,1780135506.0
27.19,1780135506.015625
25.17,1780135506.03125
21.19,1780135506.046875
15.3,1780135506.0625
7.96,1780135506.078125
-0.11,1780135506.09375
-8.2,1780135506.109375
-15.77,1780135506.125
-22.63,1780135506.140625
-28.92,1780135506.15625
-35.05,1780135506.171875
-41.58,1780135506.1875
-49.08,1780135506.203125
-57.96,1780135506.21875
-68.14,1780135506.234375
-78.88,1780135506.25
-88.5,1780135506.265625
-94.67,1780135506.28125
-94.91,1780135506.296875
-87.42,1780135506.3125
-71.8,1780135506.328125
-49.34,1780135506.34375
-22.68,1780135506.359375
4.94,1780135506.375
30.58,1780135506.390625
52.24,1780135506.40625
68.98,1780135506.421875
80.76,1780135506.4375
87.97,1780135506.453125
91.07,1780135506.46875
90.46,1780135506.484375
86.56,1780135506.5
79.98,1780135506.515625
71.53,1780135506.53125
62.19,1780135506.546875
52.9,1780135506.5625
44.42,1780135506.578125
37.17,1780135506.59375
31.23,1780135506.609375
26.44,1780135506.625
22.6,1780135506.640625
19.5,1780135506.65625
16.99,1780135506.671875
14.98,1780135506.6875
13.35,1780135506.703125
11.94,1780135506.71875
10.51,1780135506.734375
8.76,1780135506.75
6.28,1780135506.765625
2.71,1780135506.78125
-2.21,1780135506.796875
-8.51,1780135506.8125
-15.92,1780135506.828125
-23.92,1780135506.84375
-31.89,1780135506.859375
-39.32,1780135506.875
-45.94,1780135506.890625
-51.8,1780135506.90625
-57.26,1780135506.921875
-62.87,1780135506.9375
-69.25,1780135506.953125
-76.99,1780135506.96875
-86.38,1780135506.984375
-97.09,1780135507.0
-107.93,1780135507.015625
-116.76,1780135507.03125
-120.94,1780135507.046875
-117.97,1780135507.0625
-106.47,1780135507.078125
-86.66,1780135507.09375
-60.5,1780135507.109375
-31.09,1780135507.125
-1.75,1780135507.140625
24.79,1780135507.15625
46.97,1780135507.171875
64.31,1780135507.1875
77.09,1780135507.203125
85.81,1780135507.21875
90.95,1780135507.234375
92.85,1780135507.25
91.86,1780135507.265625
88.46,1780135507.28125
83.26,1780135507.296875
76.99,1780135507.3125
70.3,1780135507.328125
63.6,1780135507.34375
57.07,1780135507.359375
50.67,1780135507.375
44.32,1780135507.390625
38.07,1780135507.40625
32.11,1780135507.421875
26.8,1780135507.4375
22.5,1780135507.453125
19.46,1780135507.46875
17.55,1780135507.484375
16.31,1780135507.5
14.93,1780135507.515625
12.53,1780135507.53125
8.45,1780135507.546875
2.48,1780135507.5625
-5.04,1780135507.578125
-13.37,1780135507.59375
-21.74,1780135507.609375
-29.59,1780135507.625
-36.78,1780135507.640625
-43.56,1780135507.65625
-50.42,1780135507.671875
-57.88,1780135507.6875
-66.44,1780135507.703125
-76.32,1780135507.71875
-87.35,1780135507.734375
-98.65,1780135507.75
-108.47,1780135507.765625
-114.35,1780135507.78125
-113.83,1780135507.796875
-105.19,1780135507.8125
-88.21,1780135507.828125
-64.45,1780135507.84375
-36.72,1780135507.859375
-8.3,1780135507.875
18.03,1780135507.890625
40.54,1780135507.90625
58.56,1780135507.921875
72.14,1780135507.9375
81.59,1780135507.953125
87.22,1780135507.96875
89.32,1780135507.984375
88.33,1780135508.0
84.93,1780135508.015625
79.91,1780135508.03125
74.11,1780135508.046875
68.11,1780135508.0625
62.13,1780135508.078125
56.13,1780135508.09375
49.93,1780135508.109375
43.42,1780135508.125
36.8,1780135508.140625
30.51,1780135508.15625
25.13,1780135508.171875
21.17,1780135508.1875
18.79,1780135508.203125
17.62,1780135508.21875
16.86,1780135508.234375
15.53,1780135508.25
12.74,1780135508.265625
8.12,1780135508.28125
1.89,1780135508.296875
-5.21,1780135508.3125
-12.25,1780135508.328125
-18.48,1780135508.34375
-23.68,1780135508.359375
-28.14,1780135508.375
-32.61,1780135508.390625
-37.92,1780135508.40625
-44.85,1780135508.421875
-53.75,1780135508.4375
-64.37,1780135508.453125
-75.6,1780135508.46875
-85.53,1780135508.484375
-91.67,1780135508.5
-91.52,1780135508.515625
-83.46,1780135508.53125
-67.32,1780135508.546875
-44.68,1780135508.5625
-18.43,1780135508.578125
8.01,1780135508.59375
31.73,1780135508.609375
50.79,1780135508.625
64.54,1780135508.640625
73.23,1780135508.65625
77.53,1780135508.671875
78.17,1780135508.6875
75.86,1780135508.703125
71.27,1780135508.71875
65.11,1780135508.734375
58.06,1780135508.75
50.67,1780135508.765625
43.29,1780135508.78125
36.0,1780135508.796875
28.76,1780135508.8125
21.59,1780135508.828125
14.71,1780135508.84375
8.49,1780135508.859375
3.38,1780135508.875
-0.41,1780135508.890625
-2.98,1780135508.90625
-4.82,1780135508.921875
-6.63,1780135508.9375
-9.1,1780135508.953125
-12.61,1780135508.96875
-17.11,1780135508.984375
-22.21,1780135509.0
-27.38,1780135509.015625
-32.2,1780135509.03125
-36.65,1780135509.046875
-41.04,1780135509.0625
-46.04,1780135509.078125
-52.38,1780135509.09375
-60.48,1780135509.109375
-70.18,1780135509.125
-80.46,1780135509.140625
-89.39,1780135509.15625
-94.5,1780135509.171875
-93.41,1780135509.1875
-84.52,1780135509.203125
-67.76,1780135509.21875
-44.65,1780135509.234375
-18.03,1780135509.25
8.72,1780135509.265625
32.59,1780135509.28125
51.6,1780135509.296875
65.04,1780135509.3125
73.17,1780135509.328125
76.82,1780135509.34375
76.91,1780135509.359375
74.19,1780135509.375
69.22,1780135509.390625
62.47,1780135509.40625
54.38,1780135509.421875
45.48,1780135509.4375
36.29,1780135509.453125
27.2,1780135509.46875
18.6,1780135509.484375
10.78,1780135509.5
4.06,1780135509.515625
-1.28,1780135509.53125
-5.08,1780135509.546875
-7.42,1780135509.5625
-8.75,1780135509.578125
-9.77,1780135509.59375
-11.29,1780135509.609375
-13.92,1780135509.625
-17.96,1780135509.640625
-23.16,1780135509.65625
-29.01,1780135509.671875
-34.9,1780135509.6875
-40.45,1780135509.703125
-45.7,1780135509.71875
-51.16,1780135509.734375
-57.64,1780135509.75
-65.87,1780135509.765625
-76.05,1780135509.78125
-87.36,1780135509.796875
-97.82,1780135509.8125
-104.64,1780135509.828125
-105.01,1780135509.84375
-96.96,1780135509.859375
-80.14,1780135509.875
-56.01,1780135509.890625
-27.48,1780135509.90625
2.0,1780135509.921875
29.27,1780135509.9375
52.25,1780135509.953125
69.91,1780135509.96875
82.3,1780135509.984375
89.95,1780135510.0
93.64,1780135510.015625
94.08,1780135510.03125
91.9,1780135510.046875
87.57,1780135510.0625
81.49,1780135510.078125
74.05,1780135510.09375
65.57,1780135510.109375
56.42,1780135510.125
46.98,1780135510.140625
37.64,1780135510.15625
28.85,1780135510.171875
21.01,1780135510.1875
14.48,1780135510.203125
9.41,1780135510.21875
5.75,1780135510.234375
3.16,1780135510.25
1.16,1780135510.265625
-0.77,1780135510.28125
-3.02,1780135510.296875
-5.7,1780135510.3125
-8.77,1780135510.328125
-12.11,1780135510.34375
-15.69,1780135510.359375
-19.68,1780135510.375
-24.45,1780135510.390625
-30.46,1780135510.40625
-37.95,1780135510.421875
-46.68,1780135510.4375
-55.57,1780135510.453125
-62.86,1780135510.46875
-66.32,1780135510.484375
-63.93,1780135510.5
-54.62,1780135510.515625
-38.71,1780135510.53125
-17.87,1780135510.546875
5.27,1780135510.5625
27.95,1780135510.578125
48.01,1780135510.59375
64.18,1780135510.609375
76.11,1780135510.625
83.92,1780135510.640625
87.86,1780135510.65625
88.11,1780135510.671875
84.91,1780135510.6875
78.68,1780135510.703125
70.21,1780135510.71875
60.51,1780135510.734375
50.59,1780135510.75
41.27,1780135510.765625
32.93,1780135510.78125
25.64,1780135510.796875
19.26,1780135510.8125
13.62,1780135510.828125
8.66,1780135510.84375
4.37,1780135510.859375
0.64,1780135510.875
-2.78,1780135510.890625
-6.35,1780135510.90625
-10.54,1780135510.921875
-15.76,1780135510.9375
-22.13,1780135510.953125
-29.44,1780135510.96875
-37.3,1780135510.984375
-45.29,1780135511.0
-53.18,1780135511.015625
-61.16,1780135511.03125
-69.72,1780135511.046875
-79.44,1780135511.0625
-90.52,1780135511.078125
-102.27,1780135511.09375
-112.97,1780135511.109375
-120.07,1780135511.125
-120.84,1780135511.140625
-113.35,1780135511.15625
-97.1,1780135511.171875
-73.43,1780135511.1875
-45.18,1780135511.203125
-15.8,1780135511.21875
11.52,1780135511.234375
34.5,1780135511.25
52.04,1780135511.265625
64.05,1780135511.28125
71.04,1780135511.296875
73.77,1780135511.3125
73.03,1780135511.328125
69.52,1780135511.34375
63.93,1780135511.359375
56.9,1780135511.375
49.04,1780135511.390625
40.91,1780135511.40625
32.98,1780135511.421875
25.58,1780135511.4375
18.94,1780135511.453125
13.18,1780135511.46875
8.27,1780135511.484375
4.16,1780135511.5
0.72,1780135511.515625
-2.23,1780135511.53125
-4.93,1780135511.546875
-7.67,1780135511.5625
-10.73,1780135511.578125
-14.34,1780135511.59375
-18.59,1780135511.609375
-23.39,1780135511.625
-28.56,1780135511.640625
-33.89,1780135511.65625
-39.37,1780135511.671875
-45.28,1780135511.6875
-52.2,1780135511.703125
-60.71,1780135511.71875
-70.93,1780135511.734375
-82.04,1780135511.75
-92.11,1780135511.765625
-98.48,1780135511.78125
-98.45,1780135511.796875
-90.29,1780135511.8125
-73.85,1780135511.828125
-50.77,1780135511.84375
-23.87,1780135511.859375
3.62,1780135511.875
28.99,1780135511.890625
50.45,1780135511.90625
67.17,1780135511.921875
79.01,1780135511.9375
86.14,1780135511.953125
88.95,1780135511.96875
88.01,1780135511.984375
84.11,1780135512.0
78.16,1780135512.015625
71.08,1780135512.03125
63.58,1780135512.046875
56.01,1780135512.0625
48.45,1780135512.078125
40.87,1780135512.09375
33.33,1780135512.109375
26.08,1780135512.125
19.54,1780135512.140625
14.12,1780135512.15625
10.08,1780135512.171875
7.41,1780135512.1875
5.71,1780135512.203125
4.35,1780135512.21875
2.48,1780135512.234375
-0.65,1780135512.25
-5.44,1780135512.265625
-11.84,1780135512.28125
-19.31,1780135512.296875
-27.03,1780135512.3125
-34.26,1780135512.328125
-40.64,1780135512.34375
-46.32,1780135512.359375
-51.97,1780135512.375
-58.47,1780135512.390625
-66.59,1780135512.40625
-76.65,1780135512.421875
-88.13,1780135512.4375
-99.54,1780135512.453125
-108.52,1780135512.46875
-112.36,1780135512.484375
-108.69,1780135512.5
-96.35,1780135512.515625
-75.84,1780135512.53125
-49.33,1780135512.546875
-20.09,1780135512.5625
8.54,1780135512.578125
33.94,1780135512.59375
54.66,1780135512.609375
70.39,1780135512.625
81.54,1780135512.640625
88.71,1780135512.65625
92.42,1780135512.671875
93.06,1780135512.6875
90.9,1780135512.703125
86.42,1780135512.71875
80.2,1780135512.734375
72.96,1780135512.75
65.34,1780135512.765625
57.88,1780135512.78125
50.92,1780135512.796875
44.69,1780135512.8125
39.39,1780135512.828125
35.15,1780135512.84375
32.0,1780135512.859375
29.77,1780135512.875
28.09,1780135512.890625
26.46,1780135512.90625
24.44,1780135512.921875
21.75,1780135512.9375
18.33,1780135512.953125
14.28,1780135512.96875
9.72,1780135512.984375
4.67,1780135513.0
-0.89,1780135513.015625
-6.99,1780135513.03125
-13.49,1780135513.046875
-20.16,1780135513.0625
-26.71,1780135513.078125
-32.9,1780135513.09375
-38.65,1780135513.109375
-44.09,1780135513.125
-49.5,1780135513.140625
-55.29,1780135513.15625
-61.89,1780135513.171875
-69.64,1780135513.1875
-78.56,1780135513.203125
-88.16,1780135513.21875
-97.14,1780135513.234375
-103.47,1780135513.25
-104.73,1780135513.265625
-98.86,1780135513.28125
-84.9,1780135513.296875
-63.51,1780135513.3125
-36.9,1780135513.328125
-8.24,1780135513.34375
19.19,1780135513.359375
42.91,1780135513.375
61.54,1780135513.390625
74.86,1780135513.40625
83.35,1780135513.421875
87.77,1780135513.4375
88.81,1780135513.453125
87.07,1780135513.46875
83.13,1780135513.484375
77.58,1780135513.5
71.06,1780135513.515625
64.16,1780135513.53125
57.27,1780135513.546875
50.63,1780135513.5625
44.36,1780135513.578125
38.57,1780135513.59375
33.5,1780135513.609375
29.45,1780135513.625
26.64,1780135513.640625
25.06,1780135513.65625
24.4,1780135513.671875
24.1,1780135513.6875
23.54,1780135513.703125
22.29,1780135513.71875
20.25,1780135513.734375
17.53,1780135513.75
14.4,1780135513.765625
10.99,1780135513.78125
7.25,1780135513.796875
2.97,1780135513.8125
-2.03,1780135513.828125
-7.83,1780135513.84375
-14.27,1780135513.859375
-21.03,1780135513.875
-27.72,1780135513.890625
-34.06,1780135513.90625
-39.89,1780135513.921875
-45.22,1780135513.9375
-50.24,1780135513.953125
-55.34,1780135513.96875
-61.03,1780135513.984375
-67.77,1780135514.0
-75.68,1780135514.015625
-84.05,1780135514.03125
-91.29,1780135514.046875
-95.08,1780135514.0625
-93.06,1780135514.078125
-83.71,1780135514.09375
-67.04,1780135514.109375
-44.66,1780135514.125
-19.36,1780135514.140625
5.77,1780135514.15625
28.24,1780135514.171875
46.6,1780135514.1875
60.35,1780135514.203125
69.69,1780135514.21875
75.02,1780135514.234375
76.79,1780135514.25
75.4,1780135514.265625
71.34,1780135514.28125
65.21,1780135514.296875
57.79,1780135514.3125
49.89,1780135514.328125
42.21,1780135514.34375
35.29,1780135514.359375
29.4,1780135514.375
24.58,1780135514.390625
20.68,1780135514.40625
17.48,1780135514.421875
14.81,1780135514.4375
12.55,1780135514.453125
10.63,1780135514.46875
9.04,1780135514.484375
7.71,1780135514.5
6.47,1780135514.515625
5.08,1780135514.53125
3.21,1780135514.546875
0.47,1780135514.5625
-3.39,1780135514.578125
-8.41,1780135514.59375
-14.38,1780135514.609375
-20.83,1780135514.625
-27.24,1780135514.640625
-33.22,1780135514.65625
-38.58,1780135514.671875
-43.36,1780135514.6875
-47.77,1780135514.703125
-52.15,1780135514.71875
-56.95,1780135514.734375
-62.7,1780135514.75
-69.78,1780135514.765625
-78.02,1780135514.78125
-86.43,1780135514.796875
-93.01,1780135514.8125
-95.25,1780135514.828125
-90.84,1780135514.84375
-78.66,1780135514.859375
-59.3,1780135514.875
-34.92,1780135514.890625
-8.62,1780135514.90625
16.55,1780135514.921875
38.37,1780135514.9375
55.73,1780135514.953125
68.45,1780135514.96875
76.85,1780135514.984375
81.4,1780135515.0
82.51,1780135515.015625
80.61,1780135515.03125
76.29,1780135515.046875
70.31,1780135515.0625
63.48,1780135515.078125
56.49,1780135515.09375
49.77,1780135515.109375
43.46,1780135515.125
37.51,1780135515.140625
32.0,1780135515.15625
27.14,1780135515.171875
23.27,1780135515.1875
20.77,1780135515.203125
19.75,1780135515.21875
19.91,1780135515.234375
20.57,1780135515.25
20.89,1780135515.265625
20.19,1780135515.28125
18.1,1780135515.296875
14.69,1780135515.3125
10.35,1780135515.328125
5.55,1780135515.34375
0.68,1780135515.359375
-4.13,1780135515.375
-9.01,1780135515.390625
-14.22,1780135515.40625
-19.99,1780135515.421875
-26.41,1780135515.4375
-33.32,1780135515.453125
-40.38,1780135515.46875
-47.13,1780135515.484375
-53.21,1780135515.5
-58.46,1780135515.515625
-63.06,1780135515.53125
-67.53,1780135515.546875
-72.65,1780135515.5625
-79.13,1780135515.578125
-87.22,1780135515.59375
-96.33,1780135515.609375
-104.86,1780135515.625
-110.4,1780135515.640625
-110.37,1780135515.65625
-102.9,1780135515.671875
-87.54,1780135515.6875
-65.52,1780135515.703125
-39.38,1780135515.71875
-12.22,1780135515.734375
13.19,1780135515.75
34.95,1780135515.765625
52.22,1780135515.78125
64.93,1780135515.796875
73.4,1780135515.8125
78.05,1780135515.828125
79.4,1780135515.84375
78.0,1780135515.859375
74.57,1780135515.875
69.89,1780135515.890625
64.65,1780135515.90625
59.31,1780135515.921875
54.04,1780135515.9375
48.78,1780135515.953125
43.47,1780135515.96875
38.19,1780135515.984375
33.21,1780135516.0
28.99,1780135516.015625
25.92,1780135516.03125
24.21,1780135516.046875
23.71,1780135516.0625
23.97,1780135516.078125
24.28,1780135516.09375
23.92,1780135516.109375
22.45,1780135516.125
19.72,1780135516.140625
15.98,1780135516.15625
11.7,1780135516.171875
7.35,1780135516.1875
3.17,1780135516.203125
-0.91,1780135516.21875
-5.26,1780135516.234375
-10.28,1780135516.25
-16.23,1780135516.265625
-23.06,1780135516.28125
-30.4,1780135516.296875
-37.65,1780135516.3125
-44.32,1780135516.328125
-50.13,1780135516.34375
-55.16,1780135516.359375
-59.87,1780135516.375
-65.02,1780135516.390625
-71.37,1780135516.40625
-79.38,1780135516.421875
-88.83,1780135516.4375
-98.56,1780135516.453125
-106.5,1780135516.46875
-110.16,1780135516.484375
-107.27,1780135516.5
-96.61,1780135516.515625
-78.5,1780135516.53125
-54.75,1780135516.546875
-28.18,1780135516.5625
-1.77,1780135516.578125
22.04,1780135516.59375
41.74,1780135516.609375
56.75,1780135516.625
67.16,1780135516.640625
73.43,1780135516.65625
76.1,1780135516.671875
75.85,1780135516.6875
73.32,1780135516.703125
69.21,1780135516.71875
64.12,1780135516.734375
58.47,1780135516.75
52.54,1780135516.765625
46.5,1780135516.78125
40.54,1780135516.796875
34.89,1780135516.8125
29.84,1780135516.828125
25.61,1780135516.84375
22.27,1780135516.859375
19.8,1780135516.875
17.97,1780135516.890625
16.56,1780135516.90625
15.36,1780135516.921875
14.19,1780135516.9375
12.86,1780135516.953125
11.18,1780135516.96875
8.87,1780135516.984375
5.67,1780135517.0
1.44,1780135517.015625
-3.76,1780135517.03125
-9.66,1780135517.046875
-15.82,1780135517.0625
-21.85,1780135517.078125
-27.45,1780135517.09375
-32.5,1780135517.109375
-37.12,1780135517.125
-41.53,1780135517.140625
-46.09,1780135517.15625
-51.25,1780135517.171875
-57.38,1780135517.1875
-64.66,1780135517.203125
-72.78,1780135517.21875
-80.75,1780135517.234375
-86.81,1780135517.25
-88.85,1780135517.265625
-84.91,1780135517.28125
-73.93,1780135517.296875
-56.3,1780135517.3125
-33.78,1780135517.328125
-9.11,1780135517.34375
14.78,1780135517.359375
35.61,1780135517.375
52.06,1780135517.390625
63.8,1780135517.40625
71.12,1780135517.421875
74.58,1780135517.4375
74.64,1780135517.453125
71.74,1780135517.46875
66.32,1780135517.484375
58.98,1780135517.5
50.55,1780135517.515625
42.03,1780135517.53125
34.28,1780135517.546875
27.89,1780135517.5625
23.07,1780135517.578125
19.57,1780135517.59375
16.93,1780135517.609375
14.61,1780135517.625
12.24,1780135517.640625
9.73,1780135517.65625
7.17,1780135517.671875
4.73,1780135517.6875
2.45,1780135517.703125
0.18,1780135517.71875
-2.4,1780135517.734375
-5.64,1780135517.75
-9.78,1780135517.765625
-14.82,1780135517.78125
-20.51,1780135517.796875
-26.55,1780135517.8125
-32.63,1780135517.828125
-38.57,1780135517.84375
-44.34,1780135517.859375
-49.97,1780135517.875
-55.63,1780135517.890625
-61.55,1780135517.90625
-68.08,1780135517.921875
-75.6,1780135517.9375
-84.42,1780135517.953125
-94.49,1780135517.96875
-105.02,1780135517.984375
-114.38,1780135518.0
-120.33,1780135518.015625
-120.46,1780135518.03125
-113.0,1780135518.046875
-97.44,1780135518.0625
-74.86,1780135518.078125
-47.65,1780135518.09375
-18.87,1780135518.109375
8.58,1780135518.125
32.53,1780135518.140625
51.8,1780135518.15625
66.11,1780135518.171875
75.76,1780135518.1875
81.23,1780135518.203125
83.07,1780135518.21875
81.86,1780135518.234375
78.29,1780135518.25
73.1,1780135518.265625
67.01,1780135518.28125
60.66,1780135518.296875
54.44,1780135518.3125
48.54,1780135518.328125
42.98,1780135518.34375
37.74,1780135518.359375
32.85,1780135518.375
28.43,1780135518.390625
24.63,1780135518.40625
21.61,1780135518.421875
19.4,1780135518.4375
17.88,1780135518.453125
16.76,1780135518.46875
15.65,1780135518.484375
14.17,1780135518.5
11.96,1780135518.515625
8.75,1780135518.53125
4.35,1780135518.546875
-1.22,1780135518.5625
-7.85,1780135518.578125
-15.22,1780135518.59375
-22.95,1780135518.609375
-30.67,1780135518.625
-38.12,1780135518.640625
-45.25,1780135518.65625
-52.24,1780135518.671875
-59.51,1780135518.6875
-67.57,1780135518.703125
-76.91,1780135518.71875
-87.73,1780135518.734375
-99.62,1780135518.75
-111.2,1780135518.765625
-120.24,1780135518.78125
-123.97,1780135518.796875
-119.97,1780135518.8125
-107.02,1780135518.828125
-85.61,1780135518.84375
-57.99,1780135518.859375
-27.46,1780135518.875
2.62,1780135518.890625
29.64,1780135518.90625
52.06,1780135518.921875
69.41,1780135518.9375
81.84,1780135518.953125
89.73,1780135518.96875
93.57,1780135518.984375
93.88,1780135519.0
91.38,1780135519.015625
86.89,1780135519.03125
81.23,1780135519.046875
75.03,1780135519.0625
68.68,1780135519.078125
62.41,1780135519.09375
56.34,1780135519.109375
50.65,1780135519.125
45.51,1780135519.140625
41.1,1780135519.15625
37.46,1780135519.171875
34.46,1780135519.1875
31.91,1780135519.203125
29.55,1780135519.21875
27.24,1780135519.234375
24.84,1780135519.25
22.31,1780135519.265625
19.56,1780135519.28125
16.49,1780135519.296875
12.93,1780135519.3125
8.7,1780135519.328125
3.67,1780135519.34375
-2.27,1780135519.359375
-9.08,1780135519.375
-16.61,1780135519.390625
-24.56,1780135519.40625
-32.56,1780135519.421875
-40.31,1780135519.4375
-47.7,1780135519.453125
-54.93,1780135519.46875
-62.56,1780135519.484375
-71.29,1780135519.5
-81.66,1780135519.515625
-93.6,1780135519.53125
-105.96,1780135519.546875
-116.59,1780135519.5625
-122.63,1780135519.578125
-121.37,1780135519.59375
-111.22,1780135519.609375
-92.29,1780135519.625
-66.46,1780135519.640625
-36.78,1780135519.65625
-6.63,1780135519.671875
21.18,1780135519.6875
44.82,1780135519.703125
63.46,1780135519.71875
76.99,1780135519.734375
85.68,1780135519.75
90.03,1780135519.765625
90.66,1780135519.78125
88.31,1780135519.796875
83.77,1780135519.8125
77.73,1780135519.828125
70.77,1780135519.84375
63.34,1780135519.859375
55.88,1780135519.875
48.74,1780135519.890625
42.33,1780135519.90625
36.93,1780135519.921875
32.65,1780135519.9375
29.49,1780135519.953125
27.23,1780135519.96875
25.62,1780135519.984375
24.41,1780135520.0
23.33,1780135520.015625
22.14,1780135520.03125
20.57,1780135520.046875
18.39,1780135520.0625
15.35,1780135520.078125
11.31,1780135520.09375
6.23,1780135520.109375
0.23,1780135520.125
-6.41,1780135520.140625
-13.31,1780135520.15625
-20.07,1780135520.171875
-26.37,1780135520.1875
-32.03,1780135520.203125
-37.13,1780135520.21875
-42.0,1780135520.234375
-47.19,1780135520.25
-53.36,1780135520.265625
-61.06,1780135520.28125
-70.33,1780135520.296875
-80.36,1780135520.3125
-89.42,1780135520.328125
-95.01,1780135520.34375
-94.59,1780135520.359375
-86.36,1780135520.375
-69.98,1780135520.390625
-46.87,1780135520.40625
-19.75,1780135520.421875
8.09,1780135520.4375
33.71,1780135520.453125
55.1,1780135520.46875
71.37,1780135520.484375
82.45,1780135520.5
88.73,1780135520.515625
90.71,1780135520.53125
88.91,1780135520.546875
83.96,1780135520.5625
76.62,1780135520.578125
67.91,1780135520.59375
58.91,1780135520.609375
50.6,1780135520.625
43.62,1780135520.640625
38.18,1780135520.65625
34.09,1780135520.671875
30.91,1780135520.6875
28.18,1780135520.703125
25.56,1780135520.71875
22.91,1780135520.734375
20.29,1780135520.75
17.82,1780135520.765625
15.52,1780135520.78125
13.23,1780135520.796875
10.61,1780135520.8125
7.18,1780135520.828125
2.54,1780135520.84375
-3.5,1780135520.859375
-10.79,1780135520.875
-18.85,1780135520.890625
-27.04,1780135520.90625
-34.84,1780135520.921875
-42.0,1780135520.9375
-48.61,1780135520.953125
-55.02,1780135520.96875
-61.7,1780135520.984375
-69.13,1780135521.0
-77.75,1780135521.015625
-87.88,1780135521.03125
-99.47,1780135521.046875
-111.75,1780135521.0625
-122.99,1780135521.078125
-130.56,1780135521.09375
-131.58,1780135521.109375
-123.79,1780135521.125
-106.51,1780135521.140625
-81.0,1780135521.15625
-50.15,1780135521.171875
-17.59,1780135521.1875
13.38,1780135521.203125
40.42,1780135521.21875
62.38,1780135521.234375
78.99,1780135521.25
90.49,1780135521.265625
97.37,1780135521.28125
100.17,1780135521.296875
99.56,1780135521.3125
96.32,1780135521.328125
91.27,1780135521.34375
85.13,1780135521.359375
78.45,1780135521.375
71.57,1780135521.390625
64.76,1780135521.40625
58.22,1780135521.421875
52.16,1780135521.4375
46.83,1780135521.453125
42.4,1780135521.46875
38.91,1780135521.484375
36.28,1780135521.5
34.33,1780135521.515625
32.79,1780135521.53125
31.38,1780135521.546875
29.81,1780135521.5625
27.76,1780135521.578125
24.95,1780135521.59375
21.1,1780135521.609375
16.0,1780135521.625
9.62,1780135521.640625
2.09,1780135521.65625
-6.25,1780135521.671875
-14.93,1780135521.6875
-23.48,1780135521.703125
-31.58,1780135521.71875
-39.09,1780135521.734375
-46.17,1780135521.75
-53.22,1780135521.765625
-60.87,1780135521.78125
-69.79,1780135521.796875
-80.47,1780135521.8125
-92.87,1780135521.828125
-106.08,1780135521.84375
-118.18,1780135521.859375
-126.42,1780135521.875
-127.89,1780135521.890625
-120.41,1780135521.90625
-103.38,1780135521.921875
-78.07,1780135521.9375
-47.37,1780135521.953125
-14.92,1780135521.96875
15.9,1780135521.984375
42.68,1780135522.0
64.22,1780135522.015625
80.29,1780135522.03125
91.24,1780135522.046875
97.58,1780135522.0625
99.98,1780135522.078125
99.13,1780135522.09375
95.87,1780135522.109375
91.05,1780135522.125
85.4,1780135522.140625
79.36,1780135522.15625
73.19,1780135522.171875
66.93,1780135522.1875
60.74,1780135522.203125
54.92,1780135522.21875
49.85,1780135522.234375
45.91,1780135522.25
43.29,1780135522.265625
41.83,1780135522.28125
41.04,1780135522.296875
40.29,1780135522.3125
38.95,1780135522.328125
36.58,1780135522.34375
33.05,1780135522.359375
28.5,1780135522.375
23.22,1780135522.390625
17.52,1780135522.40625
11.54,1780135522.421875
5.21,1780135522.4375
-1.67,1780135522.453125
-9.23,1780135522.46875
-17.46,1780135522.484375
-26.04,1780135522.5
-34.55,1780135522.515625
-42.53,1780135522.53125
-49.75,1780135522.546875
-56.32,1780135522.5625
-62.65,1780135522.578125
-69.48,1780135522.59375
-77.56,1780135522.609375
-87.33,1780135522.625
-98.55,1780135522.640625
-109.88,1780135522.65625
-118.94,1780135522.671875
-122.74,1780135522.6875
-118.58,1780135522.703125
-105.02,1780135522.71875
-82.6,1780135522.734375
-53.78,1780135522.75
-22.19,1780135522.765625
8.41,1780135522.78125
35.18,1780135522.796875
56.6,1780135522.8125
72.48,1780135522.828125
83.36,1780135522.84375
90.0,1780135522.859375
93.06,1780135522.875
93.01,1780135522.890625
90.3,1780135522.90625
85.48,1780135522.921875
79.19,1780135522.9375
72.16,1780135522.953125
65.01,1780135522.96875
58.14,1780135522.984375
51.78,1780135523.0
45.94,1780135523.015625
40.69,1780135523.03125
36.11,1780135523.046875
32.34,1780135523.0625
29.49,1780135523.078125
27.52,1780135523.09375
26.2,1780135523.109375
25.18,1780135523.125
24.02,1780135523.140625
22.29,1780135523.15625
19.65,1780135523.171875
15.86,1780135523.1875
10.84,1780135523.203125
4.69,1780135523.21875
-2.28,1780135523.234375
-9.6,1780135523.25
-16.74,1780135523.265625
-23.31,1780135523.28125
-29.13,1780135523.296875
-34.35,1780135523.3125
-39.34,1780135523.328125
-44.61,1780135523.34375
-50.67,1780135523.359375
-57.97,1780135523.375
-66.77,1780135523.390625
-76.8,1780135523.40625
-87.05,1780135523.421875
-95.65,1780135523.4375
-100.12,1780135523.453125
-97.99,1780135523.46875
-87.67,1780135523.484375
-69.18,1780135523.5
-44.33,1780135523.515625
-16.27,1780135523.53125
11.49,1780135523.546875
36.03,1780135523.5625
55.7,1780135523.578125
70.1,1780135523.59375
79.62,1780135523.609375
84.94,1780135523.625
86.61,1780135523.640625
85.01,1780135523.65625
80.59,1780135523.671875
73.98,1780135523.6875
66.05,1780135523.703125
57.81,1780135523.71875
50.07,1780135523.734375
43.35,1780135523.75
37.84,1780135523.765625
33.47,1780135523.78125
30.03,1780135523.796875
27.29,1780135523.8125
24.99,1780135523.828125
22.92,1780135523.84375
20.95,1780135523.859375
18.97,1780135523.875
16.85,1780135523.890625
14.41,1780135523.90625
11.36,1780135523.921875
7.38,1780135523.9375
2.23,1780135523.953125
-4.18,1780135523.96875
-11.68,1780135523.984375
-19.89,1780135524.0
-28.34,1780135524.015625
-36.61,1780135524.03125
-44.4,1780135524.046875
-51.58,1780135524.0625
-58.15,1780135524.078125
-64.28,1780135524.09375
-70.36,1780135524.109375
-77.0,1780135524.125
-84.95,1780135524.140625
-94.69,1780135524.15625
-106.02,1780135524.171875
-117.63,1780135524.1875
-127.09,1780135524.203125
-131.36,1780135524.21875
-127.71,1780135524.234375
-114.73,1780135524.25
-92.99,1780135524.265625
-64.86,1780135524.28125
-33.8,1780135524.296875
-3.33,1780135524.3125
23.85,1780135524.328125
46.25,1780135524.34375
63.53,1780135524.359375
76.04,1780135524.375
84.4,1780135524.390625
89.18,1780135524.40625
90.89,1780135524.421875
90.01,1780135524.4375
87.08,1780135524.453125
82.67,1780135524.46875
77.34,1780135524.484375
71.52,1780135524.5
65.51,1780135524.515625
59.48,1780135524.53125
53.5,1780135524.546875
47.66,1780135524.5625
42.17,1780135524.578125
37.21,1780135524.59375
33.02,1780135524.609375
29.7,1780135524.625
27.18,1780135524.640625
25.19,1780135524.65625
23.31,1780135524.671875
21.0,1780135524.6875
17.72,1780135524.703125
13.08,1780135524.71875
6.89,1780135524.734375
-0.66,1780135524.75
-9.13,1780135524.765625
-17.89,1780135524.78125
-26.37,1780135524.796875
-34.2,1780135524.8125
-41.35,1780135524.828125
-48.15,1780135524.84375
-55.18,1780135524.859375
-63.17,1780135524.875
-72.71,1780135524.890625
-84.05,1780135524.90625
-96.77,1780135524.921875
-109.52,1780135524.9375
-120.03,1780135524.953125
-125.5,1780135524.96875
-123.36,1780135524.984375
-112.12,1780135525.0
-92.02,1780135525.015625
-65.02,1780135525.03125
-34.27,1780135525.046875
-3.31,1780135525.0625
24.92,1780135525.078125
48.63,1780135525.09375
67.18,1780135525.109375
80.81,1780135525.125
90.12,1780135525.140625
95.69,1780135525.15625
97.95,1780135525.171875
97.24,1780135525.1875
93.91,1780135525.203125
88.45,1780135525.21875
81.51,1780135525.234375
73.83,1780135525.25
66.05,1780135525.265625
58.65,1780135525.28125
51.9,1780135525.296875
45.89,1780135525.3125
40.67,1780135525.328125
36.23,1780135525.34375
32.66,1780135525.359375
30.02,1780135525.375
28.32,1780135525.390625
27.35,1780135525.40625
26.77,1780135525.421875
26.02,1780135525.4375
24.43,1780135525.453125
21.34,1780135525.46875
16.31,1780135525.484375
9.26,1780135525.5
0.59,1780135525.515625
-8.99,1780135525.53125
-18.64,1780135525.546875
-27.63,1780135525.5625
-35.67,1780135525.578125
-42.9,1780135525.59375
-49.87,1780135525.609375
-57.3,1780135525.625
-65.93,1780135525.640625
-76.22,1780135525.65625
-88.15,1780135525.671875
-100.8,1780135525.6875
-112.29,1780135525.703125
-119.93,1780135525.71875
-120.84,1780135525.734375
-112.93,1780135525.75
-95.64,1780135525.765625
-70.44,1780135525.78125
-40.32,1780135525.796875
-8.99,1780135525.8125
20.3,1780135525.828125
45.34,1780135525.84375
65.23,1780135525.859375
79.93,1780135525.875
89.77,1780135525.890625
95.11,1780135525.90625
96.24,1780135525.921875
93.62,1780135525.9375
88.05,1780135525.953125
80.64,1780135525.96875
72.55,1780135525.984375
64.76,1780135526.0
57.69,1780135526.015625
51.29,1780135526.03125
45.29,1780135526.046875
39.37,1780135526.0625
33.57,1780135526.078125
28.22,1780135526.09375
23.9,1780135526.109375
21.09,1780135526.125
19.92,1780135526.140625
19.93,1780135526.15625
20.17,1780135526.171875
19.5,1780135526.1875
16.93,1780135526.203125
12.03,1780135526.21875
5.04,1780135526.234375
-3.23,1780135526.25
-11.73,1780135526.265625
-19.57,1780135526.28125
-26.36,1780135526.296875
-32.28,1780135526.3125
-37.92,1780135526.328125
-44.11,1780135526.34375
-51.65,1780135526.359375
-61.03,1780135526.375
-72.2,1780135526.390625
-84.25,1780135526.40625
-95.4,1780135526.421875
-103.08,1780135526.4375
-104.65,1780135526.453125
-98.09,1780135526.46875
-82.87,1780135526.484375
-60.2,1780135526.5
-32.76,1780135526.515625
-3.95,1780135526.53125
23.17,1780135526.546875
46.45,1780135526.5625
64.9,1780135526.578125
78.37,1780135526.59375
87.14,1780135526.609375
91.47,1780135526.625
91.64,1780135526.640625
88.08,1780135526.65625
81.53,1780135526.671875
73.14,1780135526.6875
64.1,1780135526.703125
55.43,1780135526.71875
47.62,1780135526.734375
40.65,1780135526.75
34.12,1780135526.765625
27.66,1780135526.78125
21.32,1780135526.796875
15.49,1780135526.8125
10.83,1780135526.828125
7.81,1780135526.84375
6.39,1780135526.859375
5.86,1780135526.875
5.08,1780135526.890625
2.9,1780135526.90625
-1.37,1780135526.921875
-7.72,1780135526.9375
-15.58,1780135526.953125
-23.99,1780135526.96875
-32.05,1780135526.984375
-39.25,1780135527.0
-45.59,1780135527.015625
-51.54,1780135527.03125
-57.93,1780135527.046875
-65.69,1780135527.0625
-75.55,1780135527.078125
-87.6,1780135527.09375
-100.92,1780135527.109375
-113.45,1780135527.125
-122.24,1780135527.140625
-124.24,1780135527.15625
-117.23,1780135527.171875
-100.62,1780135527.1875
-75.78,1780135527.203125
-45.67,1780135527.21875
-13.98,1780135527.234375
15.98,1780135527.25
41.89,1780135527.265625
62.73,1780135527.28125
78.51,1780135527.296875
89.74,1780135527.3125
97.01,1780135527.328125
100.76,1780135527.34375
101.34,1780135527.359375
99.12,1780135527.375
94.65,1780135527.390625
88.63,1780135527.40625
81.79,1780135527.421875
74.73,1780135527.4375
67.79,1780135527.453125
61.05,1780135527.46875
54.49,1780135527.484375
48.11,1780135527.5
42.08,1780135527.515625
36.69,1780135527.53125
32.29,1780135527.546875
29.11,1780135527.5625
27.07,1780135527.578125
25.68,1780135527.59375
24.17,1780135527.609375
21.69,1780135527.625
17.55,1780135527.640625
11.45,1780135527.65625
3.63,1780135527.671875
-5.31,1780135527.6875
-14.55,1780135527.703125
-23.38,1780135527.71875
-31.37,1780135527.734375
-38.55,1780135527.75
-45.29,1780135527.765625
-52.16,1780135527.78125
-59.85,1780135527.796875
-68.96,1780135527.8125
-79.83,1780135527.828125
-92.25,1780135527.84375
-105.18,1780135527.859375
-116.59,1780135527.875
-123.78,1780135527.890625
-123.95,1780135527.90625
-115.13,1780135527.921875
-96.94,1780135527.9375
-70.88,1780135527.953125
-39.93,1780135527.96875
-7.72,1780135527.984375
22.51,1780135528.0
48.55,1780135528.015625
69.37,1780135528.03125
84.91,1780135528.046875
95.56,1780135528.0625
101.85,1780135528.078125
104.38,1780135528.09375
103.77,1780135528.109375
100.73,1780135528.125
96.01,1780135528.140625
90.24,1780135528.15625
83.85,1780135528.171875
77.07,1780135528.1875
70.02,1780135528.203125
62.9,1780135528.21875
56.08,1780135528.234375
50.03,1780135528.25
45.12,1780135528.265625
41.53,1780135528.28125
39.09,1780135528.296875
37.35,1780135528.3125
35.83,1780135528.328125
34.12,1780135528.34375
31.97,1780135528.359375
29.33,1780135528.375
26.16,1780135528.390625
22.36,1780135528.40625
17.77,1780135528.421875
12.2,1780135528.4375
5.52,1780135528.453125
-2.19,1780135528.46875
-10.63,1780135528.484375
-19.34,1780135528.5
-27.84,1780135528.515625
-35.78,1780135528.53125
-43.0,1780135528.546875
-49.65,1780135528.5625
-56.16,1780135528.578125
-63.25,1780135528.59375
-71.65,1780135528.609375
-81.8,1780135528.625
-93.41,1780135528.640625
-105.13,1780135528.65625
-114.61,1780135528.671875
-118.93,1780135528.6875
-115.53,1780135528.703125
-103.07,1780135528.71875
-82.0,1780135528.734375
-54.57,1780135528.75
-24.12,1780135528.765625
5.84,1780135528.78125
32.54,1780135528.796875
54.36,1780135528.8125
70.83,1780135528.828125
82.23,1780135528.84375
89.11,1780135528.859375
92.09,1780135528.875
91.77,1780135528.890625
88.75,1780135528.90625
83.64,1780135528.921875
77.1,1780135528.9375
69.69,1780135528.953125
61.89,1780135528.96875
54.13,1780135528.984375
46.81,1780135529.0
40.36,1780135529.015625
35.14,1780135529.03125
31.33,1780135529.046875
28.88,1780135529.0625
27.49,1780135529.078125
26.72,1780135529.09375
26.1,1780135529.109375
25.3,1780135529.125
24.11,1780135529.140625
22.41,1780135529.15625
20.08,1780135529.171875
16.93,1780135529.1875
12.79,1780135529.203125
7.64,1780135529.21875
1.55,1780135529.234375
-5.19,1780135529.25
-12.19,1780135529.265625
-19.08,1780135529.28125
-25.65,1780135529.296875
-31.81,1780135529.3125
-37.63,1780135529.328125
-43.31,1780135529.34375
-49.2,1780135529.359375
-55.81,1780135529.375
-63.62,1780135529.390625
-72.8,1780135529.40625
-82.85,1780135529.421875
-92.34,1780135529.4375
-98.97,1780135529.453125
-100.21,1780135529.46875
-94.07,1780135529.484375
-79.88,1780135529.5
-58.63,1780135529.515625
-32.7,1780135529.53125
-5.18,1780135529.546875
21.01,1780135529.5625
43.71,1780135529.578125
61.81,1780135529.59375
74.96,1780135529.609375
83.32,1780135529.625
87.33,1780135529.640625
87.49,1780135529.65625
84.45,1780135529.671875
79.04,1780135529.6875
72.16,1780135529.703125
64.68,1780135529.71875
57.33,1780135529.734375
50.51,1780135529.75
44.41,1780135529.765625
39.05,1780135529.78125
34.37,1780135529.796875
30.44,1780135529.8125
27.37,1780135529.828125
25.3,1780135529.84375
24.22,1780135529.859375
23.9,1780135529.875
23.82,1780135529.890625
23.31,1780135529.90625
21.75,1780135529.921875
18.79,1780135529.9375
14.55,1780135529.953125
9.46,1780135529.96875
4.14,1780135529.984375
-1.0,1780135530.0
-5.88,1780135530.015625
-10.85,1780135530.03125
-16.41,1780135530.046875
-22.91,1780135530.0625
-30.35,1780135530.078125
-38.23,1780135530.09375
-45.86,1780135530.109375
-52.62,1780135530.125
-58.22,1780135530.140625
-62.82,1780135530.15625
-67.02,1780135530.171875
-71.62,1780135530.1875
-77.42,1780135530.203125
-84.96,1780135530.21875
-94.13,1780135530.234375
-103.99,1780135530.25
-112.61,1780135530.265625
-117.39,1780135530.28125
-115.75,1780135530.296875
-105.94,1780135530.3125
-87.82,1780135530.328125
-62.99,1780135530.34375
-34.41,1780135530.359375
-5.47,1780135530.375
20.94,1780135530.390625
43.03,1780135530.40625
60.17,1780135530.421875
72.58,1780135530.4375
80.78,1780135530.453125
85.3,1780135530.46875
86.65,1780135530.484375
85.33,1780135530.5
81.96,1780135530.515625
77.29,1780135530.53125
71.96,1780135530.546875
66.4,1780135530.5625
60.79,1780135530.578125
55.11,1780135530.59375
49.33,1780135530.609375
43.57,1780135530.625
