PPG GREEN,time
2171585.0,1780135453.638
2172522.0,1780135453.678
2173607.0,1780135453.717
2175662.0,1780135453.757
2177660.0,1780135453.798
2180025.0,1780135453.838
2182543.0,1780135453.877
2185211.0,1780135453.919
2187746.0,1780135453.958
2190529.0,1780135453.998
2193595.0,1780135454.04
2196743.0,1780135454.078
2200290.0,1780135454.118
2203496.0,1780135454.159
2207042.0,1780135454.198
2210332.0,1780135454.239
2213469.0,1780135454.279
2216712.0,1780135454.318
2218257.0,1780135454.359
2219055.0,1780135454.4
2220183.0,1780135454.44
2222029.0,1780135454.479
2224051.0,1780135454.52
2226265.0,1780135454.559
2229448.0,1780135454.599
2232636.0,1780135454.641
2235268.0,1780135454.679
2237705.0,1780135454.719
2239862.0,1780135454.76
2242459.0,1780135454.8
2244852.0,1780135454.841
2247721.0,1780135454.881
2250595.0,1780135454.92
2254085.0,1780135454.96
2257303.0,1780135455.001
2261069.0,1780135455.041
2264376.0,1780135455.08
2268055.0,1780135455.121
2271092.0,1780135455.16
2273814.0,1780135455.201
2274734.0,1780135455.243
2276310.0,1780135455.281
2278380.0,1780135455.321
2280504.0,1780135455.362
2282967.0,1780135455.401
2286051.0,1780135455.442
2288990.0,1780135455.482
2291294.0,1780135455.521
2293716.0,1780135455.561
2295215.0,1780135455.603
2296399.0,1780135455.643
2298055.0,1780135455.682
2300809.0,1780135455.723
2304265.0,1780135455.762
2307589.0,1780135455.802
2310444.0,1780135455.844
2313234.0,1780135455.882
2315861.0,1780135455.922
2318619.0,1780135455.963
2321594.0,1780135456.003
2324204.0,1780135456.044
2324834.0,1780135456.084
2325973.0,1780135456.123
2326804.0,1780135456.163
2327230.0,1780135456.204
2327791.0,1780135456.244
2329110.0,1780135456.283
2331159.0,1780135456.324
2333200.0,1780135456.364
2334787.0,1780135456.404
2335957.0,1780135456.446
2337888.0,1780135456.484
2340647.0,1780135456.524
2343509.0,1780135456.565
2345972.0,1780135456.604
2347859.0,1780135456.645
2349028.0,1780135456.685
2350424.0,1780135456.724
2351414.0,1780135456.765
2352672.0,1780135456.806
2353959.0,1780135456.846
2354157.0,1780135456.885
2354236.0,1780135456.926
2354585.0,1780135456.965
2355207.0,1780135457.005
2356520.0,1780135457.047
2358443.0,1780135457.085
2361581.0,1780135457.125
2365265.0,1780135457.167
2367501.0,1780135457.206
2367872.0,1780135457.247
2367570.0,1780135457.287
2368378.0,1780135457.326
2370111.0,1780135457.366
2373203.0,1780135457.407
2376136.0,1780135457.447
2376983.0,1780135457.486
2377498.0,1780135457.528
2378272.0,1780135457.567
2380124.0,1780135457.607
2380726.0,1780135457.649
2380575.0,1780135457.687
2380598.0,1780135457.727
2381007.0,1780135457.768
2381673.0,1780135457.807
2382491.0,1780135457.848
2383342.0,1780135457.888
2384211.0,1780135457.927
2388264.0,1780135457.967
2392868.0,1780135458.008
2395301.0,1780135458.048
2394527.0,1780135458.087
2394991.0,1780135458.129
2395203.0,1780135458.168
2395164.0,1780135458.208
2395750.0,1780135458.25
2395023.0,1780135458.288
2393783.0,1780135458.328
2390763.0,1780135458.369
2379420.0,1780135458.408
2365775.0,1780135458.449
2351844.0,1780135458.489
2350401.0,1780135458.528
2352011.0,1780135458.568
2353413.0,1780135458.609
2353653.0,1780135458.649
2352377.0,1780135458.688
2361549.0,1780135458.73
2362464.0,1780135458.769
2363798.0,1780135458.809
2365056.0,1780135458.851
2363149.0,1780135458.889
2360195.0,1780135458.929
2365743.0,1780135458.97
2382967.0,1780135459.009
2389129.0,1780135459.098
2390642.0,1780135459.138
2393482.0,1780135459.177
2395939.0,1780135459.217
2395684.0,1780135459.259
2397379.0,1780135459.299
2399319.0,1780135459.338
2401332.0,1780135459.379
2403731.0,1780135459.418
2405489.0,1780135459.458
2406083.0,1780135459.5
2405812.0,1780135459.538
2405423.0,1780135459.578
2404372.0,1780135459.619
2402718.0,1780135459.658
2399658.0,1780135459.699
2395812.0,1780135459.739
2390978.0,1780135459.778
2385954.0,1780135459.819
2381641.0,1780135459.86
2378171.0,1780135459.9
2375549.0,1780135459.939
2373005.0,1780135459.98
2370551.0,1780135460.019
2367864.0,1780135460.059
2365055.0,1780135460.101
2361916.0,1780135460.139
2358918.0,1780135460.179
2356623.0,1780135460.221
2354498.0,1780135460.259
2350883.0,1780135460.3
2344406.0,1780135460.34
2336388.0,1780135460.379
2328324.0,1780135460.42
2321165.0,1780135460.461
2315223.0,1780135460.501
2310912.0,1780135460.54
2306826.0,1780135460.581
2303131.0,1780135460.62
2299011.0,1780135460.66
2294567.0,1780135460.702
2289760.0,1780135460.74
2285458.0,1780135460.78
2281472.0,1780135460.821
2278015.0,1780135460.86
2274694.0,1780135460.901
2270573.0,1780135460.942
2264130.0,1780135460.981
2255668.0,1780135461.021
2246304.0,1780135461.062
2237941.0,1780135461.102
2230928.0,1780135461.141
2225322.0,1780135461.182
2220735.0,1780135461.221
2216614.0,1780135461.261
2212529.0,1780135461.303
2208547.0,1780135461.341
2204160.0,1780135461.381
2200658.0,1780135461.422
2196952.0,1780135461.461
2194166.0,1780135461.503
2191199.0,1780135461.543
2189208.0,1780135461.582
2186857.0,1780135461.622
2184389.0,1780135461.663
2181489.0,1780135461.703
2174899.0,1780135461.742
2165993.0,1780135461.783
2156854.0,1780135461.822
2149698.0,1780135461.862
2143879.0,1780135461.904
2139480.0,1780135461.942
2136180.0,1780135461.982
2132947.0,1780135462.023
2129867.0,1780135462.063
2126644.0,1780135462.104
2123370.0,1780135462.144
2120427.0,1780135462.183
2117728.0,1780135462.223
2115518.0,1780135462.264
2113416.0,1780135462.304
2111849.0,1780135462.343
2110299.0,1780135462.384
2108958.0,1780135462.423
2107635.0,1780135462.463
2106294.0,1780135462.505
2102319.0,1780135462.543
2095132.0,1780135462.583
2087698.0,1780135462.624
2081412.0,1780135462.663
2076338.0,1780135462.705
2073032.0,1780135462.745
2070574.0,1780135462.784
2069160.0,1780135462.824
2067712.0,1780135462.865
2066051.0,1780135462.905
2064548.0,1780135462.944
2062940.0,1780135462.985
2061624.0,1780135463.024
2060850.0,1780135463.064
2060585.0,1780135463.106
2059789.0,1780135463.144
2059506.0,1780135463.184
2059402.0,1780135463.225
2059266.0,1780135463.264
2058959.0,1780135463.306
2058861.0,1780135463.346
2056642.0,1780135463.385
2051862.0,1780135463.425
2046188.0,1780135463.466
2041420.0,1780135463.506
2038005.0,1780135463.545
2035571.0,1780135463.586
2034687.0,1780135463.625
2033949.0,1780135463.665
2033475.0,1780135463.707
2032826.0,1780135463.746
2032250.0,1780135463.786
2031646.0,1780135463.827
2031466.0,1780135463.866
2032071.0,1780135463.907
2032611.0,1780135463.947
2033486.0,1780135463.986
2034364.0,1780135464.026
2035333.0,1780135464.067
2036527.0,1780135464.107
2037784.0,1780135464.146
2037770.0,1780135464.187
2035623.0,1780135464.227
2032623.0,1780135464.267
2030534.0,1780135464.309
2029053.0,1780135464.347
2028854.0,1780135464.387
2029167.0,1780135464.428
2030313.0,1780135464.467
2031682.0,1780135464.508
2032677.0,1780135464.548
2033492.0,1780135464.587
2034095.0,1780135464.627
2035271.0,1780135464.668
2036628.0,1780135464.708
2037849.0,1780135464.747
2039335.0,1780135464.789
2040820.0,1780135464.828
2042315.0,1780135464.868
2043864.0,1780135464.909
2045730.0,1780135464.948
2046856.0,1780135464.988
2046324.0,1780135465.029
2044250.0,1780135465.068
2041980.0,1780135465.109
2040637.0,1780135465.149
2040190.0,1780135465.188
2039823.0,1780135465.228
2040617.0,1780135465.269
2042079.0,1780135465.309
2043439.0,1780135465.349
2044542.0,1780135465.39
2046069.0,1780135465.429
2047451.0,1780135465.469
2048980.0,1780135465.511
2050658.0,1780135465.549
2052516.0,1780135465.589
2054238.0,1780135465.63
2056167.0,1780135465.669
2058169.0,1780135465.71
2059845.0,1780135465.75
2061619.0,1780135465.789
2063120.0,1780135465.822
2062954.0,1780135465.863
2061357.0,1780135465.901
2059946.0,1780135465.94
2058929.0,1780135465.981
2058581.0,1780135466.02
2059044.0,1780135466.061
2059464.0,1780135466.102
2060609.0,1780135466.141
2061529.0,1780135466.181
2062247.0,1780135466.222
2062722.0,1780135466.262
2063332.0,1780135466.303
2063770.0,1780135466.341
2064250.0,1780135466.38
2064887.0,1780135466.42
2065550.0,1780135466.462
2065848.0,1780135466.502
2067166.0,1780135466.582
2066508.0,1780135466.541
2068077.0,1780135466.662
2067676.0,1780135466.622
2066948.0,1780135466.704
2065299.0,1780135466.742
2063027.0,1780135466.774
2061879.0,1780135466.815
2061282.0,1780135466.854
2061383.0,1780135466.895
2063140.0,1780135466.975
2062187.0,1780135466.936
2064150.0,1780135467.015
2064699.0,1780135467.056
2065754.0,1780135467.096
2066545.0,1780135467.135
2067849.0,1780135467.176
2068725.0,1780135467.215
2069884.0,1780135467.255
2071019.0,1780135467.297
2072475.0,1780135467.335
2075058.0,1780135467.417
2073632.0,1780135467.375
2074005.0,1780135467.495
2074851.0,1780135467.456
2072556.0,1780135467.536
2071695.0,1780135467.571
2071346.0,1780135467.603
2071091.0,1780135467.643
2071689.0,1780135467.682
2072303.0,1780135467.722
2073024.0,1780135467.763
2074115.0,1780135467.802
2074782.0,1780135467.843
2076196.0,1780135467.923
2075434.0,1780135467.885
2077143.0,1780135467.963
2078242.0,1780135468.005
2079242.0,1780135468.042
2082161.0,1780135468.162
2081089.0,1780135468.123
2080410.0,1780135468.083
2082276.0,1780135468.244
2083004.0,1780135468.202
2080697.0,1780135468.284
2078719.0,1780135468.323
2077628.0,1780135468.365
2076446.0,1780135468.404
2076089.0,1780135468.442
2076341.0,1780135468.484
2076741.0,1780135468.522
2077321.0,1780135468.563
2077590.0,1780135468.601
2077923.0,1780135468.641
2078104.0,1780135468.682
2078503.0,1780135468.723
2079119.0,1780135468.762
2079415.0,1780135468.802
2079820.0,1780135468.844
2080701.0,1780135468.883
2081158.0,1780135468.923
2081453.0,1780135468.964
2080775.0,1780135469.003
2078647.0,1780135469.043
2075838.0,1780135469.086
2073258.0,1780135469.124
2071199.0,1780135469.162
2069459.0,1780135469.203
2068837.0,1780135469.242
2068058.0,1780135469.284
2067442.0,1780135469.324
2067048.0,1780135469.363
2066035.0,1780135469.403
2065088.0,1780135469.445
2064513.0,1780135469.485
2063973.0,1780135469.524
2063895.0,1780135469.563
2063664.0,1780135469.602
2063904.0,1780135469.643
2064227.0,1780135469.685
2064986.0,1780135469.723
2064459.0,1780135469.763
2062401.0,1780135469.805
2060181.0,1780135469.844
2058163.0,1780135469.885
2057157.0,1780135469.925
2056680.0,1780135469.962
2056827.0,1780135470.003
2057704.0,1780135470.044
2058526.0,1780135470.084
2059201.0,1780135470.123
2059661.0,1780135470.165
2060296.0,1780135470.204
2061112.0,1780135470.244
2062043.0,1780135470.286
2062718.0,1780135470.324
2063870.0,1780135470.363
2064974.0,1780135470.404
2066085.0,1780135470.443
2066728.0,1780135470.484
2066193.0,1780135470.525
2063951.0,1780135470.564
2061258.0,1780135470.604
2058765.0,1780135470.645
2057246.0,1780135470.685
2056257.0,1780135470.725
2056194.0,1780135470.764
2056869.0,1780135470.803
2057142.0,1780135470.843
2057456.0,1780135470.885
2057732.0,1780135470.924
2057621.0,1780135470.964
2057716.0,1780135471.005
2058089.0,1780135471.044
2058308.0,1780135471.081
2058909.0,1780135471.122
2059230.0,1780135471.161
2059783.0,1780135471.201
2060260.0,1780135471.242
2059126.0,1780135471.282
2056174.0,1780135471.321
2052256.0,1780135471.362
2049278.0,1780135471.401
2046857.0,1780135471.441
2045514.0,1780135471.483
2044512.0,1780135471.522
2044166.0,1780135471.561
2043999.0,1780135471.6
2043548.0,1780135471.639
2042974.0,1780135471.68
2042500.0,1780135471.721
2042073.0,1780135471.76
2042051.0,1780135471.8
2041333.0,1780135471.842
2040949.0,1780135471.881
2040661.0,1780135471.921
2040713.0,1780135471.962
2040372.0,1780135471.999
2039430.0,1780135472.039
2036551.0,1780135472.082
2032239.0,1780135472.12
2027177.0,1780135472.16
2023688.0,1780135472.202
2021554.0,1780135472.241
2020756.0,1780135472.282
2020842.0,1780135472.322
2021107.0,1780135472.361
2021494.0,1780135472.399
2021551.0,1780135472.441
2021892.0,1780135472.481
2022087.0,1780135472.52
2022816.0,1780135472.562
2023362.0,1780135472.6
2024173.0,1780135472.641
2025335.0,1780135472.683
2026404.0,1780135472.721
2027443.0,1780135472.761
2026413.0,1780135472.801
2023878.0,1780135472.84
2021472.0,1780135472.881
2019364.0,1780135472.922
2018591.0,1780135472.96
2018160.0,1780135473.001
2018864.0,1780135473.042
2019762.0,1780135473.082
2020897.0,1780135473.121
2021611.0,1780135473.163
2022414.0,1780135473.2
2022713.0,1780135473.24
2023482.0,1780135473.282
2024642.0,1780135473.32
2025402.0,1780135473.361
2026567.0,1780135473.402
2027666.0,1780135473.441
2028575.0,1780135473.482
2028556.0,1780135473.523
2026118.0,1780135473.562
2022757.0,1780135473.6
2019579.0,1780135473.641
2017451.0,1780135473.681
2016258.0,1780135473.72
2016125.0,1780135473.762
2017322.0,1780135473.801
2018584.0,1780135473.841
2019636.0,1780135473.883
2019930.0,1780135473.922
2020455.0,1780135473.962
2021097.0,1780135474.001
2021672.0,1780135474.04
2022437.0,1780135474.081
2023585.0,1780135474.122
2024455.0,1780135474.161
2025559.0,1780135474.201
2026731.0,1780135474.243
2026201.0,1780135474.282
2023549.0,1780135474.322
2020467.0,1780135474.363
2017579.0,1780135474.4
2015690.0,1780135474.441
2014581.0,1780135474.483
2014621.0,1780135474.521
2015568.0,1780135474.561
2016135.0,1780135474.603
2017099.0,1780135474.642
2017456.0,1780135474.683
2017904.0,1780135474.723
2018174.0,1780135474.762
2018389.0,1780135474.8
2018987.0,1780135474.842
2019684.0,1780135474.882
2020286.0,1780135474.921
2020858.0,1780135474.963
2021518.0,1780135475.002
2021824.0,1780135475.042
2019924.0,1780135475.084
2016423.0,1780135475.122
2012942.0,1780135475.162
2009797.0,1780135475.202
2008332.0,1780135475.241
2007313.0,1780135475.282
2007552.0,1780135475.323
2008252.0,1780135475.362
2009064.0,1780135475.402
2009868.0,1780135475.443
2010728.0,1780135475.483
2011273.0,1780135475.523
2012279.0,1780135475.564
2013264.0,1780135475.601
2014302.0,1780135475.641
2015838.0,1780135475.683
2017430.0,1780135475.721
2018720.0,1780135475.762
2020230.0,1780135475.803
2019427.0,1780135475.842
2017315.0,1780135475.883
2014878.0,1780135475.924
2013283.0,1780135475.963
2012429.0,1780135476.001
2012448.0,1780135476.042
2013384.0,1780135476.082
2014792.0,1780135476.122
2016019.0,1780135476.163
2016880.0,1780135476.202
2017925.0,1780135476.242
2018715.0,1780135476.281
2019561.0,1780135476.319
2020766.0,1780135476.359
2022023.0,1780135476.402
2023546.0,1780135476.441
2024494.0,1780135476.482
2025770.0,1780135476.522
2027070.0,1780135476.561
2027470.0,1780135476.602
2025642.0,1780135476.643
2023143.0,1780135476.683
2020701.0,1780135476.722
2018876.0,1780135476.764
2018474.0,1780135476.803
2018681.0,1780135476.843
2019401.0,1780135476.885
2020525.0,1780135476.921
2021404.0,1780135476.962
2022235.0,1780135477.003
2022898.0,1780135477.042
2023668.0,1780135477.083
2024789.0,1780135477.124
2025632.0,1780135477.163
2026815.0,1780135477.203
2027905.0,1780135477.244
2028800.0,1780135477.284
2029871.0,1780135477.322
2030390.0,1780135477.363
2029119.0,1780135477.402
2026313.0,1780135477.442
2023471.0,1780135477.484
2021103.0,1780135477.523
2019494.0,1780135477.563
2018652.0,1780135477.604
2018498.0,1780135477.643
2018706.0,1780135477.684
2018980.0,1780135477.723
2018888.0,1780135477.762
2018894.0,1780135477.802
2019119.0,1780135477.844
2019227.0,1780135477.883
2019476.0,1780135477.923
2020267.0,1780135477.964
2021052.0,1780135478.003
2022138.0,1780135478.044
2023788.0,1780135478.086
2025556.0,1780135478.122
2025401.0,1780135478.162
2024115.0,1780135478.204
2022737.0,1780135478.243
2021560.0,1780135478.284
2021388.0,1780135478.324
2021926.0,1780135478.363
2023498.0,1780135478.404
2025073.0,1780135478.445
2026987.0,1780135478.485
2028391.0,1780135478.522
2029689.0,1780135478.563
2031132.0,1780135478.602
2032437.0,1780135478.643
2033842.0,1780135478.685
2035462.0,1780135478.723
2036416.0,1780135478.763
2037812.0,1780135478.804
2038968.0,1780135478.841
2040157.0,1780135478.883
2040237.0,1780135478.923
2038442.0,1780135478.962
2035551.0,1780135479.003
2033211.0,1780135479.044
2031731.0,1780135479.084
2031004.0,1780135479.123
2030896.0,1780135479.165
2031315.0,1780135479.204
2032019.0,1780135479.244
2032798.0,1780135479.286
2033223.0,1780135479.324
2033775.0,1780135479.362
2034222.0,1780135479.404
2034999.0,1780135479.443
2036079.0,1780135479.484
2036770.0,1780135479.525
2037733.0,1780135479.564
2038925.0,1780135479.604
2039891.0,1780135479.645
2040774.0,1780135479.685
2039928.0,1780135479.725
2037618.0,1780135479.764
2035132.0,1780135479.803
2033156.0,1780135479.843
2032162.0,1780135479.885
2031468.0,1780135479.923
2031691.0,1780135479.964
2032199.0,1780135480.005
2032936.0,1780135480.044
2032942.0,1780135480.085
2033301.0,1780135480.126
2033351.0,1780135480.163
2033203.0,1780135480.203
2033347.0,1780135480.244
2033939.0,1780135480.284
2034180.0,1780135480.324
2034302.0,1780135480.365
2034852.0,1780135480.404
2035322.0,1780135480.444
2034671.0,1780135480.486
2032328.0,1780135480.525
2029608.0,1780135480.563
2027489.0,1780135480.604
2026024.0,1780135480.643
2025712.0,1780135480.678
2025712.0,1780135480.719
2026300.0,1780135480.758
2027184.0,1780135480.798
2028329.0,1780135480.839
2029363.0,1780135480.879
2030286.0,1780135480.918
2030815.0,1780135480.959
2031928.0,1780135480.998
2033096.0,1780135481.038
2033871.0,1780135481.08
2035127.0,1780135481.119
2036233.0,1780135481.159
2037473.0,1780135481.2
2038042.0,1780135481.239
2036768.0,1780135481.28
2034427.0,1780135481.32
2032212.0,1780135481.359
2030721.0,1780135481.399
2030114.0,1780135481.438
2030294.0,1780135481.473
2030785.0,1780135481.504
2031983.0,1780135481.545
2033795.0,1780135481.665
2034352.0,1780135481.703
2032680.0,1780135481.583
2033256.0,1780135481.623
2035130.0,1780135481.743
2035954.0,1780135481.785
2036721.0,1780135481.824
2037649.0,1780135481.865
2038640.0,1780135481.905
2039563.0,1780135481.944
2039895.0,1780135481.983
2038240.0,1780135482.024
2035261.0,1780135482.064
2030476.0,1780135482.145
2032629.0,1780135482.103
2029318.0,1780135482.184
2028894.0,1780135482.224
2029337.0,1780135482.266
2030043.0,1780135482.304
2030752.0,1780135482.345
2031322.0,1780135482.386
2031506.0,1780135482.423
2032005.0,1780135482.464
2032577.0,1780135482.504
2033295.0,1780135482.544
2034056.0,1780135482.584
2035037.0,1780135482.625
2035931.0,1780135482.665
2036792.0,1780135482.704
2037742.0,1780135482.746
2037283.0,1780135482.785
2035063.0,1780135482.825
2032045.0,1780135482.865
2028658.0,1780135482.903
2026206.0,1780135482.944
2025043.0,1780135482.985
2024123.0,1780135483.024
2024197.0,1780135483.069
2024637.0,1780135483.11
2025101.0,1780135483.149
2026297.0,1780135483.189
2026922.0,1780135483.23
2027181.0,1780135483.27
2027205.0,1780135483.309
2027522.0,1780135483.35
2027757.0,1780135483.389
2028238.0,1780135483.429
2029624.0,1780135483.471
2033552.0,1780135483.509
2035823.0,1780135483.549
2036548.0,1780135483.591
2034581.0,1780135483.63
2031790.0,1780135483.67
2029454.0,1780135483.711
2028285.0,1780135483.75
2028428.0,1780135483.79
2029756.0,1780135483.831
2031122.0,1780135483.87
2032695.0,1780135483.91
2033828.0,1780135483.951
2035195.0,1780135483.99
2036000.0,1780135484.03
2036949.0,1780135484.072
2038261.0,1780135484.11
2039639.0,1780135484.15
2041144.0,1780135484.191
2042455.0,1780135484.23
2043732.0,1780135484.271
2045212.0,1780135484.312
2045147.0,1780135484.351
2043234.0,1780135484.391
2040078.0,1780135484.432
2037324.0,1780135484.471
2035629.0,1780135484.511
2034685.0,1780135484.552
2034511.0,1780135484.591
2035271.0,1780135484.631
2036328.0,1780135484.673
2037294.0,1780135484.711
2037586.0,1780135484.751
2038335.0,1780135484.792
2039051.0,1780135484.831
2039469.0,1780135484.872
2040356.0,1780135484.913
2041561.0,1780135484.952
2042668.0,1780135484.992
2043256.0,1780135485.033
2044734.0,1780135485.073
2045782.0,1780135485.112
2044625.0,1780135485.153
2041948.0,1780135485.192
2038510.0,1780135485.232
2035380.0,1780135485.274
2033414.0,1780135485.312
2033107.0,1780135485.352
2033099.0,1780135485.394
2033665.0,1780135485.433
2034496.0,1780135485.473
2035159.0,1780135485.514
2035634.0,1780135485.553
2035810.0,1780135485.593
2036462.0,1780135485.634
2036953.0,1780135485.674
2037497.0,1780135485.713
2038493.0,1780135485.754
2039106.0,1780135485.793
2039205.0,1780135485.833
2039711.0,1780135485.875
2039743.0,1780135485.914
2037279.0,1780135485.954
2032635.0,1780135485.995
2027419.0,1780135486.034
2023324.0,1780135486.074
2020441.0,1780135486.115
2019291.0,1780135486.154
2018721.0,1780135486.194
2018980.0,1780135486.235
2019211.0,1780135486.275
2019275.0,1780135486.314
2019203.0,1780135486.355
2019204.0,1780135486.394
2019516.0,1780135486.434
2020025.0,1780135486.476
2020774.0,1780135486.515
2022023.0,1780135486.555
2022965.0,1780135486.596
2024293.0,1780135486.635
2025609.0,1780135486.676
2024961.0,1780135486.716
2022659.0,1780135486.755
2019852.0,1780135486.795
2017362.0,1780135486.836
2015844.0,1780135486.876
2014945.0,1780135486.915
2015201.0,1780135486.956
2015980.0,1780135486.995
2017562.0,1780135487.035
2018341.0,1780135487.077
2019149.0,1780135487.116
2019976.0,1780135487.156
2021018.0,1780135487.197
2022172.0,1780135487.236
2023435.0,1780135487.277
2024638.0,1780135487.317
2025756.0,1780135487.356
2026864.0,1780135487.396
2027405.0,1780135487.437
2026357.0,1780135487.477
2023434.0,1780135487.516
2019788.0,1780135487.558
2016699.0,1780135487.597
2014830.0,1780135487.637
2014244.0,1780135487.678
2014438.0,1780135487.717
2015132.0,1780135487.757
2015936.0,1780135487.798
2017165.0,1780135487.878
2019111.0,1780135487.992
2016398.0,1780135487.837
2018178.0,1780135487.957
2017416.0,1780135487.918
2019801.0,1780135488.03
2021003.0,1780135488.07
2021862.0,1780135488.11
2023177.0,1780135488.151
2024207.0,1780135488.19
2024044.0,1780135488.231
2021549.0,1780135488.273
2018349.0,1780135488.311
2015547.0,1780135488.351
2013690.0,1780135488.391
2012319.0,1780135488.43
2012449.0,1780135488.471
2012424.0,1780135488.511
2013001.0,1780135488.551
2013217.0,1780135488.591
2013455.0,1780135488.632
2013915.0,1780135488.672
2013546.0,1780135488.712
2012756.0,1780135488.751
2012285.0,1780135488.79
2012818.0,1780135488.83
2013464.0,1780135488.872
2014259.0,1780135488.911
2015204.0,1780135488.951
2015948.0,1780135488.992
2014763.0,1780135489.031
2011747.0,1780135489.07
2007940.0,1780135489.111
2004486.0,1780135489.15
2001979.0,1780135489.19
2001336.0,1780135489.231
2001180.0,1780135489.271
2001718.0,1780135489.31
2002677.0,1780135489.352
2003497.0,1780135489.391
2004489.0,1780135489.431
2005350.0,1780135489.473
2006454.0,1780135489.511
2008084.0,1780135489.552
2009467.0,1780135489.593
2011099.0,1780135489.63
2012721.0,1780135489.671
2014791.0,1780135489.712
2016068.0,1780135489.751
2017356.0,1780135489.791
2016254.0,1780135489.832
2014298.0,1780135489.872
2013088.0,1780135489.912
2013198.0,1780135489.953
2013787.0,1780135489.99
2015102.0,1780135490.031
2016959.0,1780135490.073
2018609.0,1780135490.111
2022836.0,1780135490.194
2020917.0,1780135490.151
2024413.0,1780135490.232
2025839.0,1780135490.273
2027430.0,1780135490.313
2029161.0,1780135490.35
2030752.0,1780135490.391
2032014.0,1780135490.432
2033869.0,1780135490.472
2034884.0,1780135490.511
2033314.0,1780135490.552
2030732.0,1780135490.591
2028119.0,1780135490.631
2026449.0,1780135490.673
2025694.0,1780135490.712
2025649.0,1780135490.752
2026800.0,1780135490.793
2027909.0,1780135490.832
2029422.0,1780135490.871
2030512.0,1780135490.912
2031749.0,1780135490.951
2032438.0,1780135490.991
2033626.0,1780135491.033
2034705.0,1780135491.073
2036188.0,1780135491.112
2037625.0,1780135491.153
2038846.0,1780135491.193
2040235.0,1780135491.231
2040586.0,1780135491.311
2037381.0,1780135491.351
2041299.0,1780135491.273
2034005.0,1780135491.393
2031270.0,1780135491.432
2029742.0,1780135491.473
2028937.0,1780135491.513
2029192.0,1780135491.553
2029467.0,1780135491.593
2030106.0,1780135491.631
2030543.0,1780135491.672
2030593.0,1780135491.752
2030435.0,1780135491.711
2030317.0,1780135491.791
2030603.0,1780135491.832
2031073.0,1780135491.873
2031317.0,1780135491.912
2031578.0,1780135491.952
2032343.0,1780135491.994
2032767.0,1780135492.033
2031701.0,1780135492.074
2029473.0,1780135492.112
2026877.0,1780135492.151
2025325.0,1780135492.192
2024875.0,1780135492.233
2025243.0,1780135492.273
2026579.0,1780135492.312
2028071.0,1780135492.354
2029704.0,1780135492.393
2030942.0,1780135492.433
2032248.0,1780135492.475
2033403.0,1780135492.511
2033884.0,1780135492.552
2034622.0,1780135492.593
2035381.0,1780135492.632
2036323.0,1780135492.673
2037734.0,1780135492.714
2039125.0,1780135492.753
2039023.0,1780135492.793
2036989.0,1780135492.834
2034391.0,1780135492.872
2032317.0,1780135492.912
2031333.0,1780135492.953
2031315.0,1780135492.992
2032146.0,1780135493.033
2033253.0,1780135493.075
2034639.0,1780135493.113
2035624.0,1780135493.153
2036588.0,1780135493.195
2037244.0,1780135493.232
2037817.0,1780135493.273
2039062.0,1780135493.313
2040064.0,1780135493.352
2041143.0,1780135493.393
2042145.0,1780135493.434
2043427.0,1780135493.474
2043879.0,1780135493.513
2042069.0,1780135493.555
2039057.0,1780135493.594
2036133.0,1780135493.632
2034371.0,1780135493.674
2033595.0,1780135493.712
2033769.0,1780135493.753
2034534.0,1780135493.794
2035528.0,1780135493.833
2036451.0,1780135493.874
2037160.0,1780135493.915
2037518.0,1780135493.954
2038275.0,1780135493.992
2038522.0,1780135494.033
2039141.0,1780135494.073
2039694.0,1780135494.113
2040536.0,1780135494.154
2040661.0,1780135494.193
2041214.0,1780135494.233
2040658.0,1780135494.275
2037876.0,1780135494.313
2034018.0,1780135494.354
2030983.0,1780135494.395
2028610.0,1780135494.432
2027299.0,1780135494.473
2026708.0,1780135494.514
2027123.0,1780135494.553
2026962.0,1780135494.593
2026775.0,1780135494.634
2026309.0,1780135494.674
2026537.0,1780135494.714
2026910.0,1780135494.755
2027595.0,1780135494.792
2028799.0,1780135494.833
2029989.0,1780135494.875
2031504.0,1780135494.913
2033343.0,1780135494.953
2034551.0,1780135494.995
2033905.0,1780135495.034
2031927.0,1780135495.072
2030176.0,1780135495.112
2028693.0,1780135495.151
2028743.0,1780135495.191
2029791.0,1780135495.232
2031020.0,1780135495.272
2032463.0,1780135495.311
2033756.0,1780135495.352
2034667.0,1780135495.392
2035592.0,1780135495.432
2036539.0,1780135495.473
2037897.0,1780135495.512
2038746.0,1780135495.551
2040404.0,1780135495.59
2041818.0,1780135495.629
2043085.0,1780135495.67
2044655.0,1780135495.71
2045407.0,1780135495.75
2044173.0,1780135495.79
2041698.0,1780135495.831
2039674.0,1780135495.871
2038377.0,1780135495.911
2037413.0,1780135495.95
2037511.0,1780135495.989
2038377.0,1780135496.029
2039544.0,1780135496.071
2040818.0,1780135496.11
2042200.0,1780135496.15
2042687.0,1780135496.191
2043326.0,1780135496.231
2044461.0,1780135496.272
2045736.0,1780135496.31
2046722.0,1780135496.349
2048412.0,1780135496.389
2049633.0,1780135496.431
2050726.0,1780135496.471
2052182.0,1780135496.51
2051955.0,1780135496.551
2050228.0,1780135496.591
2048003.0,1780135496.631
2045389.0,1780135496.671
2042307.0,1780135496.709
2039835.0,1780135496.749
2038475.0,1780135496.79
2038041.0,1780135496.829
2037839.0,1780135496.87
2037821.0,1780135496.91
2037890.0,1780135496.95
2037862.0,1780135496.99
2038559.0,1780135497.031
2038782.0,1780135497.068
2039310.0,1780135497.107
2039742.0,1780135497.148
2040230.0,1780135497.188
2040916.0,1780135497.228
2041919.0,1780135497.27
2042554.0,1780135497.308
2042180.0,1780135497.348
2040488.0,1780135497.389
2038048.0,1780135497.428
2036471.0,1780135497.469
2035852.0,1780135497.509
2036070.0,1780135497.548
2037307.0,1780135497.588
2038920.0,1780135497.629
2040588.0,1780135497.669
2042415.0,1780135497.708
2043663.0,1780135497.751
2043345.0,1780135497.79
2043806.0,1780135497.83
2045259.0,1780135497.871
2046939.0,1780135497.91
2048966.0,1780135497.95
2050549.0,1780135497.991
2052319.0,1780135498.031
2053952.0,1780135498.072
2054585.0,1780135498.112
2053278.0,1780135498.151
2051809.0,1780135498.192
2050275.0,1780135498.231
2050140.0,1780135498.271
2049954.0,1780135498.31
2050898.0,1780135498.351
2052352.0,1780135498.391
2053837.0,1780135498.431
2055058.0,1780135498.473
2056283.0,1780135498.511
2056797.0,1780135498.552
2057630.0,1780135498.591
2058446.0,1780135498.63
2059697.0,1780135498.671
2060802.0,1780135498.712
2062199.0,1780135498.751
2063380.0,1780135498.791
2064974.0,1780135498.832
2065825.0,1780135498.872
2065955.0,1780135498.912
2064347.0,1780135498.951
2062824.0,1780135498.99
2061359.0,1780135499.031
2060705.0,1780135499.073
2060540.0,1780135499.111
2061058.0,1780135499.151
2061937.0,1780135499.193
2063259.0,1780135499.232
2063934.0,1780135499.273
2064495.0,1780135499.313
2064856.0,1780135499.352
2065351.0,1780135499.39
2065562.0,1780135499.432
2065911.0,1780135499.471
2066483.0,1780135499.511
2067204.0,1780135499.552
2067243.0,1780135499.591
2067814.0,1780135499.632
2068267.0,1780135499.674
2067009.0,1780135499.712
2063657.0,1780135499.75
2056768.0,1780135499.831
2059793.0,1780135499.792
2055377.0,1780135499.872
2055192.0,1780135499.992
2055268.0,1780135500.033
2055535.0,1780135500.073
2054827.0,1780135499.912
2055605.0,1780135500.111
2055820.0,1780135500.152
2056423.0,1780135500.191
2057393.0,1780135500.231
2058374.0,1780135500.273
2059230.0,1780135500.312
2054854.0,1780135499.952
2060589.0,1780135500.352
2061709.0,1780135500.393
2062045.0,1780135500.432
2060959.0,1780135500.471
2059015.0,1780135500.512
2057507.0,1780135500.551
2056325.0,1780135500.591
2056019.0,1780135500.633
2056675.0,1780135500.673
2057767.0,1780135500.712
2058374.0,1780135500.753
2059383.0,1780135500.793
2059887.0,1780135500.831
2060614.0,1780135500.873
2061209.0,1780135500.911
2061951.0,1780135500.952
2062780.0,1780135500.993
2063632.0,1780135501.032
2064650.0,1780135501.073
2065517.0,1780135501.113
2066248.0,1780135501.152
2064644.0,1780135501.193
2061972.0,1780135501.234
2058825.0,1780135501.272
2056408.0,1780135501.311
2055073.0,1780135501.353
2054525.0,1780135501.392
2054925.0,1780135501.432
2055392.0,1780135501.474
2056408.0,1780135501.594
2056399.0,1780135501.553
2056781.0,1780135501.631
2055843.0,1780135501.512
2056927.0,1780135501.672
2057598.0,1780135501.713
2058077.0,1780135501.752
2058901.0,1780135501.792
2059548.0,1780135501.833
2060373.0,1780135501.871
2059611.0,1780135501.91
2056556.0,1780135501.951
2053445.0,1780135501.991
2050512.0,1780135502.032
2048217.0,1780135502.073
2046821.0,1780135502.111
2046479.0,1780135502.152
2046691.0,1780135502.193
2046346.0,1780135502.232
2046170.0,1780135502.273
2045919.0,1780135502.314
2045241.0,1780135502.353
2044708.0,1780135502.393
2044533.0,1780135502.434
2044160.0,1780135502.474
2044019.0,1780135502.512
2044293.0,1780135502.553
2044435.0,1780135502.592
2044139.0,1780135502.632
2034877.0,1780135502.753
2032044.0,1780135502.794
2038513.0,1780135502.713
2041988.0,1780135502.674
2030107.0,1780135502.872
2030277.0,1780135502.913
2031276.0,1780135502.952
2032322.0,1780135502.992
2032986.0,1780135503.034
2033969.0,1780135503.113
2030399.0,1780135502.834
2033319.0,1780135503.074
2035007.0,1780135503.154
2035979.0,1780135503.194
2038564.0,1780135503.274
2037197.0,1780135503.232
2039859.0,1780135503.312
2040921.0,1780135503.353
2040069.0,1780135503.394
2037893.0,1780135503.433
2035326.0,1780135503.474
2032840.0,1780135503.554
2033917.0,1780135503.515
2035020.0,1780135503.673
2033073.0,1780135503.592
2033865.0,1780135503.633
2035849.0,1780135503.713
2038441.0,1780135503.754
2026209.0,1780135503.793
2009399.0,1780135503.834
1996069.0,1780135503.875
1995613.0,1780135503.914
2013838.0,1780135504.033
2013375.0,1780135504.074
2021053.0,1780135504.114
2021093.0,1780135503.993
2015492.0,1780135503.952
2031232.0,1780135504.153
2051128.0,1780135504.194
2089051.0,1780135504.235
2176849.0,1780135504.354
2154839.0,1780135504.312
2195410.0,1780135504.393
2125174.0,1780135504.275
2228719.0,1780135504.475
2214043.0,1780135504.433
2240625.0,1780135504.513
2259944.0,1780135504.595
2268286.0,1780135504.634
2250948.0,1780135504.554
2271735.0,1780135504.675
2270750.0,1780135504.714
2269843.0,1780135504.753
2269153.0,1780135504.793
2273013.0,1780135504.874
2268090.0,1780135504.834
2276856.0,1780135504.914
2277587.0,1780135504.994
2281821.0,1780135505.035
2276086.0,1780135504.955
2287713.0,1780135505.074
2307854.0,1780135505.194
2302164.0,1780135505.153
2295767.0,1780135505.113
2317610.0,1780135505.234
2326129.0,1780135505.275
2331108.0,1780135505.315
2333817.0,1780135505.354
2336819.0,1780135505.395
2338206.0,1780135505.434
2338897.0,1780135505.474
2339328.0,1780135505.513
2339908.0,1780135505.555
2339703.0,1780135505.594
2336938.0,1780135505.634
2327184.0,1780135505.676
2319787.0,1780135505.715
2315497.0,1780135505.755
2314238.0,1780135505.794
2328330.0,1780135505.874
2339580.0,1780135505.915
2317795.0,1780135505.833
2347288.0,1780135505.954
2357357.0,1780135506.036
2352572.0,1780135505.994
2362846.0,1780135506.115
2366764.0,1780135506.154
2360672.0,1780135506.075
2373350.0,1780135506.193
2375491.0,1780135506.234
2375791.0,1780135506.276
2376219.0,1780135506.314
2376210.0,1780135506.354
2375990.0,1780135506.396
2374826.0,1780135506.435
2361258.0,1780135506.514
2355605.0,1780135506.554
2350847.0,1780135506.594
2368346.0,1780135506.476
2348167.0,1780135506.635
2343462.0,1780135506.675
2342313.0,1780135506.715
2344839.0,1780135506.756
2350696.0,1780135506.795
2359133.0,1780135506.835
2365899.0,1780135506.875
2371424.0,1780135506.914
2376634.0,1780135506.954
2382138.0,1780135506.995
2386700.0,1780135507.034
2391470.0,1780135507.073
2396361.0,1780135507.112
2402193.0,1780135507.151
2405937.0,1780135507.19
2408276.0,1780135507.229
2409700.0,1780135507.268
2410068.0,1780135507.307
2410295.0,1780135507.346
2410461.0,1780135507.385
2410806.0,1780135507.424
2410508.0,1780135507.463
2409387.0,1780135507.502
2409554.0,1780135507.541
2408270.0,1780135507.58
2407256.0,1780135507.619
2406530.0,1780135507.658
2407367.0,1780135507.697
2408012.0,1780135507.736
2408095.0,1780135507.775
2404610.0,1780135507.814
2398901.0,1780135507.853
2394136.0,1780135507.892
2388625.0,1780135507.931
2385973.0,1780135507.97
2386624.0,1780135508.009
2389222.0,1780135508.087
2387099.0,1780135508.126
2389998.0,1780135508.165
2395303.0,1780135508.204
2395930.0,1780135508.243
2397643.0,1780135508.282
2399502.0,1780135508.321
2401193.0,1780135508.36
2402217.0,1780135508.399
2401734.0,1780135508.438
2387653.0,1780135508.048
2396617.0,1780135508.477
2389467.0,1780135508.517
2382401.0,1780135508.557
2379110.0,1780135508.597
2370871.0,1780135508.637
2344042.0,1780135508.677
2324601.0,1780135508.717
2331615.0,1780135508.757
2333735.0,1780135508.797
2342266.0,1780135508.837
2354394.0,1780135508.877
2366762.0,1780135508.917
2367530.0,1780135509.037
2377031.0,1780135508.957
2364117.0,1780135509.077
2365514.0,1780135509.117
2365375.0,1780135509.157
2368879.0,1780135509.197
2370905.0,1780135509.237
2362218.0,1780135509.277
2335111.0,1780135509.317
2303362.0,1780135509.357
2300553.0,1780135509.437
2299056.0,1780135509.477
2297826.0,1780135509.397
2307363.0,1780135509.517
2323559.0,1780135509.557
2335724.0,1780135509.597
2345138.0,1780135509.637
2349892.0,1780135509.677
2372825.0,1780135508.997
2312998.0,1780135509.757
2337677.0,1780135509.717
2292705.0,1780135509.837
2293553.0,1780135509.877
2294520.0,1780135509.917
2298608.0,1780135509.797
2283794.0,1780135509.997
2277745.0,1780135510.037
2290745.0,1780135509.957
2270901.0,1780135510.077
2263531.0,1780135510.117
2254995.0,1780135510.157
2246650.0,1780135510.197
2240426.0,1780135510.237
2237531.0,1780135510.277
2239106.0,1780135510.317
2240618.0,1780135510.357
2241635.0,1780135510.397
2241120.0,1780135510.437
2236758.0,1780135510.477
2230416.0,1780135510.517
2223532.0,1780135510.557
2217434.0,1780135510.597
2213182.0,1780135510.637
2210049.0,1780135510.677
2207444.0,1780135510.717
2204788.0,1780135510.757
2202586.0,1780135510.797
2200199.0,1780135510.837
2197829.0,1780135510.877
2195700.0,1780135510.917
2193941.0,1780135510.957
2192849.0,1780135510.997
2192498.0,1780135511.037
2192412.0,1780135511.077
2190721.0,1780135511.117
2186519.0,1780135511.157
2181245.0,1780135511.197
2175090.0,1780135511.237
2168338.0,1780135511.277
2162696.0,1780135511.317
2158605.0,1780135511.357
2155965.0,1780135511.397
2154212.0,1780135511.437
2152943.0,1780135511.477
2153347.0,1780135511.517
2154705.0,1780135511.557
2156550.0,1780135511.597
2158714.0,1780135511.637
2159073.0,1780135511.677
2158125.0,1780135511.717
2156541.0,1780135511.757
2155293.0,1780135511.797
2152630.0,1780135511.837
2148405.0,1780135511.877
2143859.0,1780135511.917
2140472.0,1780135511.957
2139086.0,1780135511.997
2139902.0,1780135512.037
2141678.0,1780135512.077
2143856.0,1780135512.117
2147737.0,1780135512.197
2145839.0,1780135512.157
2153076.0,1780135512.317
2149344.0,1780135512.237
2155091.0,1780135512.357
2150975.0,1780135512.277
2162216.0,1780135512.477
2159632.0,1780135512.437
2167265.0,1780135512.557
2167626.0,1780135512.597
2157194.0,1780135512.397
2165805.0,1780135512.637
2164920.0,1780135512.517
2163561.0,1780135512.677
2161413.0,1780135512.757
2161860.0,1780135512.717
2161628.0,1780135512.797
2162986.0,1780135512.837
2164778.0,1780135512.877
2166652.0,1780135512.917
2168502.0,1780135512.957
2170014.0,1780135512.997
2171791.0,1780135513.037
2173685.0,1780135513.077
2175843.0,1780135513.117
2178055.0,1780135513.157
2180685.0,1780135513.197
2183462.0,1780135513.237
2185775.0,1780135513.277
2188726.0,1780135513.317
2191150.0,1780135513.357
2192287.0,1780135513.397
2191122.0,1780135513.437
2190265.0,1780135513.477
2189672.0,1780135513.517
2189539.0,1780135513.557
2190639.0,1780135513.597
2192297.0,1780135513.637
2194145.0,1780135513.677
2196181.0,1780135513.717
2198173.0,1780135513.757
2199878.0,1780135513.797
2201881.0,1780135513.837
2204299.0,1780135513.877
2206339.0,1780135513.917
2208835.0,1780135513.957
2211259.0,1780135513.997
2213806.0,1780135514.037
2216188.0,1780135514.077
2218740.0,1780135514.117
2219802.0,1780135514.157
2219147.0,1780135514.197
2218406.0,1780135514.237
2218124.0,1780135514.277
2218185.0,1780135514.317
2219428.0,1780135514.357
2220939.0,1780135514.397
2222342.0,1780135514.437
2224182.0,1780135514.477
2225661.0,1780135514.517
2227408.0,1780135514.557
2228750.0,1780135514.597
2230257.0,1780135514.637
2232175.0,1780135514.677
2234053.0,1780135514.717
2235678.0,1780135514.757
2237546.0,1780135514.797
2239462.0,1780135514.837
2241070.0,1780135514.877
2242669.0,1780135514.917
2244197.0,1780135514.957
2242937.0,1780135514.997
2241062.0,1780135515.037
2239437.0,1780135515.077
2237989.0,1780135515.117
2237282.0,1780135515.157
2237179.0,1780135515.197
2236869.0,1780135515.237
2237393.0,1780135515.277
2237566.0,1780135515.317
2237513.0,1780135515.357
2237856.0,1780135515.397
2237845.0,1780135515.437
2238152.0,1780135515.517
2237985.0,1780135515.477
2238799.0,1780135515.557
2239251.0,1780135515.597
2239876.0,1780135515.637
2240717.0,1780135515.677
2241126.0,1780135515.717
2241823.0,1780135515.757
2241506.0,1780135515.797
2239591.0,1780135515.837
2236881.0,1780135515.877
2234447.0,1780135515.917
2232400.0,1780135515.957
2231191.0,1780135515.997
2230628.0,1780135516.037
2230569.0,1780135516.077
2229812.0,1780135516.117
2229546.0,1780135516.157
2229070.0,1780135516.197
2228292.0,1780135516.237
2227381.0,1780135516.277
2227036.0,1780135516.317
2226529.0,1780135516.357
2226541.0,1780135516.397
2226410.0,1780135516.437
2226226.0,1780135516.477
2226511.0,1780135516.517
2226076.0,1780135516.557
2224223.0,1780135516.597
2221328.0,1780135516.637
2218272.0,1780135516.677
2215646.0,1780135516.717
2214056.0,1780135516.757
2213322.0,1780135516.797
2212440.0,1780135516.837
2212247.0,1780135516.877
2211808.0,1780135516.917
2210862.0,1780135516.957
2210239.0,1780135516.997
2209347.0,1780135517.037
2208829.0,1780135517.077
2208094.0,1780135517.117
2207763.0,1780135517.157
2207251.0,1780135517.197
2206804.0,1780135517.237
2206758.0,1780135517.277
2206153.0,1780135517.317
2203604.0,1780135517.357
2199551.0,1780135517.397
2195021.0,1780135517.437
2190978.0,1780135517.477
2187844.0,1780135517.517
2185421.0,1780135517.557
2183508.0,1780135517.597
2181890.0,1780135517.637
2180450.0,1780135517.677
2178746.0,1780135517.717
2177178.0,1780135517.757
2175157.0,1780135517.797
2173511.0,1780135517.837
2171891.0,1780135517.877
2170555.0,1780135517.917
2169441.0,1780135517.957
2168544.0,1780135517.997
2167533.0,1780135518.037
2166720.0,1780135518.077
2164144.0,1780135518.117
2159589.0,1780135518.157
2153405.0,1780135518.197
2148020.0,1780135518.237
2143980.0,1780135518.277
2140457.0,1780135518.317
2137730.0,1780135518.357
2135837.0,1780135518.397
2133621.0,1780135518.437
2131387.0,1780135518.477
2129083.0,1780135518.517
2126745.0,1780135518.557
2124844.0,1780135518.597
2122538.0,1780135518.637
2120973.0,1780135518.677
2119629.0,1780135518.717
2118200.0,1780135518.757
2117136.0,1780135518.797
2115847.0,1780135518.837
2114337.0,1780135518.877
2110744.0,1780135518.917
2104814.0,1780135518.957
2098899.0,1780135518.997
2093646.0,1780135519.078
2089720.0,1780135519.118
2086435.0,1780135519.157
2084050.0,1780135519.197
2081703.0,1780135519.238
2079693.0,1780135519.278
2077290.0,1780135519.317
2074769.0,1780135519.359
2072192.0,1780135519.398
2070096.0,1780135519.438
2068339.0,1780135519.479
2066613.0,1780135519.518
2065032.0,1780135519.558
2063448.0,1780135519.599
2061827.0,1780135519.638
2060769.0,1780135519.679
2057231.0,1780135519.719
2051705.0,1780135519.758
2045696.0,1780135519.798
2041130.0,1780135519.839
2037778.0,1780135519.879
2035419.0,1780135519.918
2034435.0,1780135519.959
2033265.0,1780135519.998
2032376.0,1780135520.038
2031893.0,1780135520.08
2030657.0,1780135520.119
2029688.0,1780135520.159
2029116.0,1780135520.2
2028556.0,1780135520.239
2028146.0,1780135520.28
2028160.0,1780135520.32
2027984.0,1780135520.359
2028116.0,1780135520.399
2027479.0,1780135520.44
2025309.0,1780135520.48
2020435.0,1780135520.519
2015101.0,1780135520.56
2010872.0,1780135520.599
2007820.0,1780135520.64
2006004.0,1780135520.681
2005155.0,1780135520.72
2004909.0,1780135520.76
2004982.0,1780135520.801
2004647.0,1780135520.84
2004398.0,1780135520.881
2004089.0,1780135520.921
2003745.0,1780135520.96
2003598.0,1780135521.0
2003409.0,1780135521.041
2003920.0,1780135521.081
2004477.0,1780135521.121
2005170.0,1780135521.162
2005664.0,1780135521.201
2005139.0,1780135521.24
2002060.0,1780135521.281
1997362.0,1780135521.32
1993004.0,1780135521.36
1990083.0,1780135521.401
1988198.0,1780135521.441
1987698.0,1780135521.482
1987797.0,1780135521.522
1988715.0,1780135521.561
1988982.0,1780135521.6
1989234.0,1780135521.641
1989322.0,1780135521.681
1989400.0,1780135521.72
1989551.0,1780135521.762
1989948.0,1780135521.801
1990332.0,1780135521.841
1990824.0,1780135521.883
1991356.0,1780135521.922
1991888.0,1780135521.96
1992462.0,1780135522.001
1992065.0,1780135522.04
1989026.0,1780135522.081
1984619.0,1780135522.122
1980470.0,1780135522.161
1977428.0,1780135522.201
1975440.0,1780135522.243
1975059.0,1780135522.282
1975157.0,1780135522.322
1975451.0,1780135522.36
1975683.0,1780135522.399
1975577.0,1780135522.439
1974906.0,1780135522.481
1974738.0,1780135522.52
1974609.0,1780135522.56
1974940.0,1780135522.601
1975121.0,1780135522.641
1975998.0,1780135522.682
1976950.0,1780135522.722
1977969.0,1780135522.761
1978803.0,1780135522.802
1977463.0,1780135522.843
1974537.0,1780135522.883
1971755.0,1780135522.92
1969526.0,1780135522.961
1968875.0,1780135523.001
1969301.0,1780135523.041
1970446.0,1780135523.083
1971651.0,1780135523.121
1973028.0,1780135523.162
1973873.0,1780135523.203
1974720.0,1780135523.242
1975151.0,1780135523.281
1976189.0,1780135523.322
1977227.0,1780135523.361
1978316.0,1780135523.401
1979673.0,1780135523.442
1980950.0,1780135523.482
1981871.0,1780135523.522
1982703.0,1780135523.563
1981294.0,1780135523.602
1978086.0,1780135523.642
1974408.0,1780135523.682
1971959.0,1780135523.721
1970431.0,1780135523.761
1969889.0,1780135523.802
1970313.0,1780135523.841
1971481.0,1780135523.882
1972245.0,1780135523.923
1972936.0,1780135523.962
1973564.0,1780135524.002
1974067.0,1780135524.042
1974640.0,1780135524.082
1975208.0,1780135524.121
1976255.0,1780135524.162
1977306.0,1780135524.202
1978303.0,1780135524.242
1979259.0,1780135524.284
1979677.0,1780135524.322
1977951.0,1780135524.363
1974676.0,1780135524.402
1971238.0,1780135524.441
1969145.0,1780135524.482
1968086.0,1780135524.523
1967804.0,1780135524.562
1968445.0,1780135524.602
1969395.0,1780135524.643
1970481.0,1780135524.683
1970842.0,1780135524.723
1971113.0,1780135524.762
1971030.0,1780135524.801
1971178.0,1780135524.841
1971550.0,1780135524.887
1971332.0,1780135524.92
1971098.0,1780135524.961
1971265.0,1780135525.002
1972136.0,1780135525.041
1972234.0,1780135525.082
1969892.0,1780135525.123
1966020.0,1780135525.162
1962251.0,1780135525.202
1959574.0,1780135525.243
1957526.0,1780135525.283
1957048.0,1780135525.323
1957307.0,1780135525.364
1958239.0,1780135525.401
1959262.0,1780135525.441
1959577.0,1780135525.483
1960077.0,1780135525.522
1960544.0,1780135525.562
1961520.0,1780135525.603
1962478.0,1780135525.643
1963510.0,1780135525.684
1964914.0,1780135525.724
1966484.0,1780135525.761
1967167.0,1780135525.802
1965815.0,1780135525.843
1963557.0,1780135525.883
1961240.0,1780135525.922
1959921.0,1780135525.964
1959790.0,1780135526.003
1960431.0,1780135526.043
1962062.0,1780135526.085
1963380.0,1780135526.122
1964952.0,1780135526.162
1966106.0,1780135526.203
1967029.0,1780135526.242
1968209.0,1780135526.283
1969727.0,1780135526.324
1970884.0,1780135526.363
1972100.0,1780135526.403
1973805.0,1780135526.444
1975041.0,1780135526.484
1974883.0,1780135526.522
1972638.0,1780135526.563
1969874.0,1780135526.602
1967423.0,1780135526.642
1966085.0,1780135526.684
1965673.0,1780135526.723
1966232.0,1780135526.763
1967524.0,1780135526.804
1968612.0,1780135526.844
1969504.0,1780135526.882
1970442.0,1780135526.923
1971082.0,1780135526.962
1971937.0,1780135527.002
1973058.0,1780135527.044
1974606.0,1780135527.079
1975979.0,1780135527.118
1977405.0,1780135527.159
1978524.0,1780135527.198
1979566.0,1780135527.238
1978836.0,1780135527.28
1976397.0,1780135527.319
1973720.0,1780135527.359
1972079.0,1780135527.4
1970864.0,1780135527.439
1970891.0,1780135527.48
1971618.0,1780135527.52
1972374.0,1780135527.559
1973554.0,1780135527.599
1974289.0,1780135527.64
1974778.0,1780135527.68
1975228.0,1780135527.719
1976023.0,1780135527.761
1976707.0,1780135527.8
1977496.0,1780135527.841
1978355.0,1780135527.884
1979304.0,1780135527.922
1980239.0,1780135527.962
1980993.0,1780135528.003
1981396.0,1780135528.042
1979808.0,1780135528.083
1977222.0,1780135528.124
1974728.0,1780135528.163
1973073.0,1780135528.203
1971972.0,1780135528.244
1971901.0,1780135528.284
1972353.0,1780135528.324
1973194.0,1780135528.365
1974212.0,1780135528.402
1974861.0,1780135528.443
1975624.0,1780135528.485
1976479.0,1780135528.523
1977683.0,1780135528.563
1979048.0,1780135528.605
1980308.0,1780135528.644
1981956.0,1780135528.685
1983294.0,1780135528.725
1984920.0,1780135528.762
1986664.0,1780135528.803
1986397.0,1780135528.844
1985313.0,1780135528.884
1983972.0,1780135528.923
1983163.0,1780135528.965
1983259.0,1780135529.004
1983938.0,1780135529.044
1985375.0,1780135529.086
1987100.0,1780135529.123
1988530.0,1780135529.163
1990011.0,1780135529.204
1991625.0,1780135529.243
1992946.0,1780135529.284
1994676.0,1780135529.325
1996195.0,1780135529.364
1998137.0,1780135529.404
1999728.0,1780135529.446
2001338.0,1780135529.485
2003356.0,1780135529.523
2004549.0,1780135529.564
2006090.0,1780135529.603
2007222.0,1780135529.644
2006634.0,1780135529.686
2004977.0,1780135529.724
2003291.0,1780135529.764
2002183.0,1780135529.806
2001769.0,1780135529.845
2001643.0,1780135529.884
2001941.0,1780135529.924
2003269.0,1780135529.963
2004124.0,1780135530.005
2004870.0,1780135530.043
2005660.0,1780135530.084
2005975.0,1780135530.124
2006464.0,1780135530.164
2007127.0,1780135530.203
2007881.0,1780135530.243
2008305.0,1780135530.285
2008920.0,1780135530.324
2009548.0,1780135530.364
2009892.0,1780135530.405
2010208.0,1780135530.445
2009809.0,1780135530.486
2007928.0,1780135530.526
2005642.0,1780135530.563
2003382.0,1780135530.603
2001789.0,1780135530.645
2000750.0,1780135530.685
2000456.0,1780135530.724
2000354.0,1780135530.765
2001316.0,1780135530.805
2002804.0,1780135530.845
2003891.0,1780135530.887
2004655.0,1780135530.923
2005097.0,1780135530.964
2005710.0,1780135531.005
2006463.0,1780135531.044
2006840.0,1780135531.082
2007719.0,1780135531.122
2008626.0,1780135531.161
2009524.0,1780135531.201
2010460.0,1780135531.242
2010277.0,1780135531.282
2009025.0,1780135531.321
2007526.0,1780135531.363
2006940.0,1780135531.402
2006285.0,1780135531.442
2006609.0,1780135531.483
2007523.0,1780135531.522
2008600.0,1780135531.562
2009732.0,1780135531.603
2010751.0,1780135531.642
2011645.0,1780135531.683
2012173.0,1780135531.722
2013045.0,1780135531.761
2013940.0,1780135531.801
2014834.0,1780135531.842
2015741.0,1780135531.882
2016882.0,1780135531.922
2017640.0,1780135531.963
2018784.0,1780135532.002
2019029.0,1780135532.043
2017844.0,1780135532.083
2015881.0,1780135532.121
2013640.0,1780135532.161
2012158.0,1780135532.203
2010947.0,1780135532.242
2010603.0,1780135532.283
2010938.0,1780135532.323
2011651.0,1780135532.362
2012825.0,1780135532.403
2014094.0,1780135532.444
2015049.0,1780135532.482
2015405.0,1780135532.521
2015658.0,1780135532.562
2016195.0,1780135532.601
2016378.0,1780135532.642
2016716.0,1780135532.683
2017237.0,1780135532.722
2017918.0,1780135532.762
2018231.0,1780135532.803
2017875.0,1780135532.842
2015663.0,1780135532.883
2012641.0,1780135532.924
2009692.0,1780135532.963
2007552.0,1780135533.001
2006177.0,1780135533.042
2005424.0,1780135533.082
2005042.0,1780135533.122
2005154.0,1780135533.163
2005101.0,1780135533.202
2004763.0,1780135533.243
2004456.0,1780135533.285
2003858.0,1780135533.323
2003473.0,1780135533.361
2003204.0,1780135533.403
2003022.0,1780135533.442
2003072.0,1780135533.483
2003056.0,1780135533.523
2003296.0,1780135533.563
2003039.0,1780135533.603
2001420.0,1780135533.644
1998396.0,1780135533.684
1995552.0,1780135533.721
1993086.0,1780135533.763
1991985.0,1780135533.802
1992038.0,1780135533.842
1992407.0,1780135533.884
1993412.0,1780135533.923
1994298.0,1780135533.963
1994586.0,1780135534.004
1995198.0,1780135534.043
1995944.0,1780135534.082
1996554.0,1780135534.123
1997357.0,1780135534.162
1998322.0,1780135534.202
1999323.0,1780135534.244
2000031.0,1780135534.283
2001156.0,1780135534.323
2000908.0,1780135534.364
1998643.0,1780135534.403
1995465.0,1780135534.444
1992751.0,1780135534.484
1990683.0,1780135534.522
1989801.0,1780135534.562
1989713.0,1780135534.604
1990497.0,1780135534.643
1991258.0,1780135534.684
1991781.0,1780135534.724
1992449.0,1780135534.764
1992442.0,1780135534.804
1992844.0,1780135534.843
1993217.0,1780135534.883
1993760.0,1780135534.922
1994510.0,1780135534.964
1995330.0,1780135535.003
1996155.0,1780135535.043
1996743.0,1780135535.085
1996775.0,1780135535.124
1994310.0,1780135535.161
1990593.0,1780135535.202
1987667.0,1780135535.241
1985526.0,1780135535.282
1984237.0,1780135535.323
1984013.0,1780135535.362
1984806.0,1780135535.402
1985350.0,1780135535.443
1985879.0,1780135535.483
1985775.0,1780135535.523
1985636.0,1780135535.563
1985588.0,1780135535.602
1985536.0,1780135535.643
1985815.0,1780135535.685
1985921.0,1780135535.723
1986613.0,1780135535.763
1986419.0,1780135535.805
1986827.0,1780135535.844
1987006.0,1780135535.885
1985520.0,1780135535.925
1981335.0,1780135535.962
1976925.0,1780135536.003
1973378.0,1780135536.044
1970764.0,1780135536.084
1969228.0,1780135536.123
1968318.0,1780135536.165
1967662.0,1780135536.204
1966788.0,1780135536.244
1966140.0,1780135536.286
1965537.0,1780135536.323
1965624.0,1780135536.363
1966676.0,1780135536.404
1968236.0,1780135536.443
1970151.0,1780135536.484
1971964.0,1780135536.525
1973264.0,1780135536.564
1974643.0,1780135536.604
1975098.0,1780135536.646
1973344.0,1780135536.683
1969885.0,1780135536.723
1966374.0,1780135536.764
1964212.0,1780135536.803
1963861.0,1780135536.844
1966409.0,1780135536.886
1969037.0,1780135536.924
1972238.0,1780135536.964
1975052.0,1780135537.006
1977231.0,1780135537.043
1978417.0,1780135537.084
1979563.0,1780135537.124
1980442.0,1780135537.164
1981063.0,1780135537.204
1982101.0,1780135537.245
1983272.0,1780135537.285
1984522.0,1780135537.325
1985808.0,1780135537.366
1986512.0,1780135537.405
1984401.0,1780135537.443
1980572.0,1780135537.485
1976691.0,1780135537.523
1973677.0,1780135537.564
1972316.0,1780135537.605
1972176.0,1780135537.644
1972990.0,1780135537.683
1974154.0,1780135537.723
1975201.0,1780135537.762
1976014.0,1780135537.802
1976448.0,1780135537.843
1976747.0,1780135537.884
1977380.0,1780135537.924
1977893.0,1780135537.964
1978310.0,1780135538.003
1978997.0,1780135538.044
1979651.0,1780135538.086
1980406.0,1780135538.124
1980463.0,1780135538.164
1978105.0,1780135538.206
1973960.0,1780135538.245
1969438.0,1780135538.286
1966189.0,1780135538.326
1964446.0,1780135538.363
1963450.0,1780135538.404
1963744.0,1780135538.445
1964500.0,1780135538.485
1964893.0,1780135538.524
1965280.0,1780135538.566
1965512.0,1780135538.605
1965878.0,1780135538.645
1966470.0,1780135538.687
1967058.0,1780135538.724
1968144.0,1780135538.764
1969374.0,1780135538.805
1970625.0,1780135538.844
1971977.0,1780135538.885
1971177.0,1780135538.926
1968459.0,1780135538.965
1965185.0,1780135539.005
1962738.0,1780135539.047
1961381.0,1780135539.084
1961420.0,1780135539.124
1962584.0,1780135539.165
1963902.0,1780135539.204
1965333.0,1780135539.245
1966576.0,1780135539.287
1967319.0,1780135539.325
1968107.0,1780135539.365
1969253.0,1780135539.407
1970285.0,1780135539.444
1971502.0,1780135539.485
1972729.0,1780135539.525
1974008.0,1780135539.565
1975144.0,1780135539.605
1975979.0,1780135539.646
1974219.0,1780135539.686
1970242.0,1780135539.726
1966011.0,1780135539.767
1963233.0,1780135539.804
1961034.0,1780135539.844
1960375.0,1780135539.886
1960663.0,1780135539.925
1961582.0,1780135539.965
1962396.0,1780135540.006
1962663.0,1780135540.045
1962853.0,1780135540.086
1963078.0,1780135540.127
1963932.0,1780135540.164
1964664.0,1780135540.204
1965929.0,1780135540.246
1966784.0,1780135540.285
1968084.0,1780135540.325
1970313.0,1780135540.366
1971891.0,1780135540.405
1971565.0,1780135540.446
1968033.0,1780135540.488
1964018.0,1780135540.526
1960205.0,1780135540.564
1957992.0,1780135540.606
1956781.0,1780135540.645
1956950.0,1780135540.686
1957804.0,1780135540.726
1958526.0,1780135540.766
1958992.0,1780135540.806
1959345.0,1780135540.847
1959506.0,1780135540.887
1959453.0,1780135540.924
1959781.0,1780135540.966
1960241.0,1780135541.005
1960824.0,1780135541.045
1961287.0,1780135541.087
1962139.0,1780135541.117
1963140.0,1780135541.157
1962383.0,1780135541.198
1959470.0,1780135541.237
1956229.0,1780135541.278
1953692.0,1780135541.318
1952555.0,1780135541.357
1952412.0,1780135541.397
1954098.0,1780135541.438
1955467.0,1780135541.478
1957269.0,1780135541.518
1958571.0,1780135541.559
1959674.0,1780135541.598
1960961.0,1780135541.638
1962146.0,1780135541.68
1963621.0,1780135541.718
1964591.0,1780135541.758
1966186.0,1780135541.799
1967727.0,1780135541.831
1969447.0,1780135541.868
1969597.0,1780135541.907
1967700.0,1780135541.946
1964348.0,1780135541.986
1961426.0,1780135542.028
1959755.0,1780135542.067
1959456.0,1780135542.107
1960015.0,1780135542.148
1961219.0,1780135542.187
1963072.0,1780135542.228
1964233.0,1780135542.268
1965556.0,1780135542.306
1966358.0,1780135542.346
1967210.0,1780135542.388
1968469.0,1780135542.427
1969545.0,1780135542.468
1970762.0,1780135542.509
1972508.0,1780135542.548
1973649.0,1780135542.586
1975572.0,1780135542.627
1976478.0,1780135542.667
1975260.0,1780135542.707
1972021.0,1780135542.748
1969132.0,1780135542.787
1967087.0,1780135542.824
1965975.0,1780135542.866
1966088.0,1780135542.904
1967178.0,1780135542.944
1968615.0,1780135542.985
1969723.0,1780135543.025
1970547.0,1780135543.066
1971297.0,1780135543.107
1972071.0,1780135543.146
1972620.0,1780135543.186
1973029.0,1780135543.227
1973654.0,1780135543.267
1974818.0,1780135543.306
1975217.0,1780135543.347
1975885.0,1780135543.386
1977003.0,1780135543.426
1977132.0,1780135543.468
1974969.0,1780135543.506
1971647.0,1780135543.547
1968312.0,1780135543.589
1965505.0,1780135543.628
1964635.0,1780135543.669
1964148.0,1780135543.709
1964931.0,1780135543.748
1966045.0,1780135543.789
1966894.0,1780135543.83
1967598.0,1780135543.87
1968189.0,1780135543.91
1970016.0,1780135543.988
1969193.0,1780135543.949
1971086.0,1780135544.028
1972423.0,1780135544.07
1973949.0,1780135544.109
1975399.0,1780135544.149
1977255.0,1780135544.19
1978073.0,1780135544.229
1976728.0,1780135544.27
1974378.0,1780135544.309
1972354.0,1780135544.348
1971293.0,1780135544.388
1971855.0,1780135544.43
1972624.0,1780135544.47
1974504.0,1780135544.509
1976087.0,1780135544.55
1977577.0,1780135544.59
1978603.0,1780135544.63
1979606.0,1780135544.67
1980500.0,1780135544.708
1981793.0,1780135544.748
1983186.0,1780135544.79
1984737.0,1780135544.829
1986029.0,1780135544.87
1987005.0,1780135544.911
1988586.0,1780135544.95
1988669.0,1780135544.99
1986956.0,1780135545.029
1983749.0,1780135545.069
1980964.0,1780135545.109
1979261.0,1780135545.15
1978351.0,1780135545.189
1978786.0,1780135545.229
1979680.0,1780135545.271
1981034.0,1780135545.31
1982078.0,1780135545.35
1982804.0,1780135545.388
1983793.0,1780135545.428
1984391.0,1780135545.469
1985173.0,1780135545.509
1986120.0,1780135545.548
1987336.0,1780135545.589
1988267.0,1780135545.63
1989366.0,1780135545.67
1990070.0,1780135545.71
1990608.0,1780135545.751
1988391.0,1780135545.79
1985063.0,1780135545.83
1982048.0,1780135545.87
1979550.0,1780135545.909
1978161.0,1780135545.949
1977910.0,1780135545.99
1978987.0,1780135546.07
1978529.0,1780135546.029
1979841.0,1780135546.111
1980235.0,1780135546.15
1980343.0,1780135546.19
1980224.0,1780135546.23
1980350.0,1780135546.27
1980748.0,1780135546.309
1980763.0,1780135546.351
1981311.0,1780135546.39
1981645.0,1780135546.43
1982038.0,1780135546.472
1982806.0,1780135546.51
1982347.0,1780135546.549
1979967.0,1780135546.59
1976543.0,1780135546.629
1973255.0,1780135546.67
1970856.0,1780135546.711
1969949.0,1780135546.75
1970177.0,1780135546.79
1970953.0,1780135546.832
1972167.0,1780135546.872
1972995.0,1780135546.909
1973928.0,1780135546.95
1974607.0,1780135546.989
1975284.0,1780135547.03
1976117.0,1780135547.072
1977144.0,1780135547.11
1978410.0,1780135547.15
1979591.0,1780135547.192
1980854.0,1780135547.231
1982168.0,1780135547.27
1982490.0,1780135547.311
1980545.0,1780135547.35
1977949.0,1780135547.39
1975425.0,1780135547.431
1974551.0,1780135547.471
1974158.0,1780135547.511
1975020.0,1780135547.552
1976297.0,1780135547.591
1977527.0,1780135547.629
1978873.0,1780135547.671
1979523.0,1780135547.71
1980244.0,1780135547.75
1981024.0,1780135547.791
1981887.0,1780135547.83
1983036.0,1780135547.871
1983992.0,1780135547.912
1984883.0,1780135547.95
1986014.0,1780135547.99
1987014.0,1780135548.031
1987037.0,1780135548.071
1984711.0,1780135548.107
1980597.0,1780135548.15
1976683.0,1780135548.189
1973582.0,1780135548.229
1971369.0,1780135548.271
1970212.0,1780135548.31
1970780.0,1780135548.391
1971538.0,1780135548.471
1970162.0,1780135548.35
1970925.0,1780135548.43
1971706.0,1780135548.512
1971944.0,1780135548.551
1972575.0,1780135548.591
1972973.0,1780135548.631
1973680.0,1780135548.671
1974225.0,1780135548.71
1974916.0,1780135548.752
1975753.0,1780135548.791
1976334.0,1780135548.831
1975288.0,1780135548.873
1972024.0,1780135548.911
1968398.0,1780135548.952
1965299.0,1780135548.991
1963238.0,1780135549.03
1962682.0,1780135549.071
1962774.0,1780135549.112
1963990.0,1780135549.151
1964382.0,1780135549.191
1964899.0,1780135549.232
1965289.0,1780135549.272
1965221.0,1780135549.31
1965451.0,1780135549.351
1965680.0,1780135549.39
1966242.0,1780135549.431
1966543.0,1780135549.473
1966804.0,1780135549.511
1967438.0,1780135549.551
1968258.0,1780135549.593
1968436.0,1780135549.632
1966740.0,1780135549.671
1963387.0,1780135549.712
1959845.0,1780135549.75
1956890.0,1780135549.791
1955229.0,1780135549.832
1954943.0,1780135549.872
1955704.0,1780135549.912
1956848.0,1780135549.953
1958143.0,1780135549.992
1958925.0,1780135550.03
1959833.0,1780135550.072
1960454.0,1780135550.111
1961363.0,1780135550.151
1962629.0,1780135550.192
1963741.0,1780135550.231
1965148.0,1780135550.273
1966387.0,1780135550.313
1968086.0,1780135550.35
1969037.0,1780135550.391
1967413.0,1780135550.432
1964730.0,1780135550.471
1962218.0,1780135550.51
1960136.0,1780135550.553
1959612.0,1780135550.592
1960370.0,1780135550.632
1961828.0,1780135550.674
1963124.0,1780135550.712
1964426.0,1780135550.75
1965337.0,1780135550.792
1965816.0,1780135550.831
1966632.0,1780135550.872
1967755.0,1780135550.913
1968970.0,1780135550.952
1969931.0,1780135550.992
1971253.0,1780135551.033
1972207.0,1780135551.073
1973569.0,1780135551.111
1973356.0,1780135551.152
1971293.0,1780135551.191
1967934.0,1780135551.231
1965168.0,1780135551.273
1963563.0,1780135551.312
1963178.0,1780135551.352
1963277.0,1780135551.394
1964485.0,1780135551.433
1965632.0,1780135551.472
1966485.0,1780135551.512
1967115.0,1780135551.551
1967863.0,1780135551.592
1968473.0,1780135551.633
1968857.0,1780135551.673
1969735.0,1780135551.712
1970745.0,1780135551.754
1971614.0,1780135551.793
1972551.0,1780135551.831
1973433.0,1780135551.873
1972510.0,1780135551.911
1969367.0,1780135551.952
1965522.0,1780135551.993
1962232.0,1780135552.032
1959935.0,1780135552.073
1958902.0,1780135552.114
1958807.0,1780135552.153
1959652.0,1780135552.191
1960156.0,1780135552.232
1960484.0,1780135552.272
1960368.0,1780135552.312
1960582.0,1780135552.353
1960573.0,1780135552.392
1960685.0,1780135552.433
1961110.0,1780135552.475
1961379.0,1780135552.513
1961805.0,1780135552.551
1962399.0,1780135552.593
1962569.0,1780135552.632
1960968.0,1780135552.673
1957823.0,1780135552.713
1954452.0,1780135552.752
1951855.0,1780135552.793
1950373.0,1780135552.834
1950595.0,1780135552.874
1951651.0,1780135552.911
1953130.0,1780135552.953
1954315.0,1780135552.992
1955447.0,1780135553.032
1956497.0,1780135553.073
1957282.0,1780135553.109
1958544.0,1780135553.149
1959611.0,1780135553.19
1961009.0,1780135553.23
1962422.0,1780135553.271
1964127.0,1780135553.312
1964898.0,1780135553.351
1963575.0,1780135553.392
1960646.0,1780135553.433
1957989.0,1780135553.473
1955691.0,1780135553.512
1954879.0,1780135553.554
1955284.0,1780135553.593
1956555.0,1780135553.633
1958120.0,1780135553.675
1959522.0,1780135553.712
1960535.0,1780135553.752
1961591.0,1780135553.793
1962417.0,1780135553.832
1963308.0,1780135553.873
1964279.0,1780135553.914
1965442.0,1780135553.953
1966686.0,1780135553.993
1967991.0,1780135554.035
1969170.0,1780135554.073
1969367.0,1780135554.112
1967031.0,1780135554.153
1963496.0,1780135554.192
1960526.0,1780135554.233
1958571.0,1780135554.275
1957552.0,1780135554.313
1957980.0,1780135554.354
1959070.0,1780135554.395
1960680.0,1780135554.432
1961991.0,1780135554.473
1962998.0,1780135554.514
1963926.0,1780135554.553
1964506.0,1780135554.593
1965662.0,1780135554.634
1966957.0,1780135554.674
1968222.0,1780135554.714
1969676.0,1780135554.755
1970750.0,1780135554.792
1971927.0,1780135554.832
1972456.0,1780135554.875
1972120.0,1780135554.913
1969633.0,1780135554.953
1966138.0,1780135554.994
1963075.0,1780135555.034
1961151.0,1780135555.072
1960480.0,1780135555.112
1960478.0,1780135555.151
1961432.0,1780135555.191
1962272.0,1780135555.232
1962797.0,1780135555.272
1963537.0,1780135555.311
1963729.0,1780135555.352
1964088.0,1780135555.391
1964356.0,1780135555.431
1964897.0,1780135555.473
1965720.0,1780135555.512
1966577.0,1780135555.552
1967622.0,1780135555.593
1968167.0,1780135555.632
1969341.0,1780135555.672
1969205.0,1780135555.713
1967479.0,1780135555.749
1965208.0,1780135555.79
1962855.0,1780135555.831
1961815.0,1780135555.871
1961934.0,1780135555.911
1963114.0,1780135555.952
1964805.0,1780135555.991
1966669.0,1780135556.031
1968019.0,1780135556.074
1969602.0,1780135556.112
1970809.0,1780135556.152
1972222.0,1780135556.194
1973832.0,1780135556.231
1975254.0,1780135556.272
1977020.0,1780135556.312
1978383.0,1780135556.351
1979923.0,1780135556.392
1981873.0,1780135556.433
1982843.0,1780135556.473
1982298.0,1780135556.513
1979927.0,1780135556.554
1977919.0,1780135556.591
1976623.0,1780135556.631
1976316.0,1780135556.673
1976788.0,1780135556.712
1978214.0,1780135556.752
1980054.0,1780135556.793
1981415.0,1780135556.832
1982701.0,1780135556.873
1983848.0,1780135556.914
1985114.0,1780135556.95
1985114.0,1780135556.985
1985857.0,1780135557.026
1987361.0,1780135557.066
1988522.0,1780135557.105
1989860.0,1780135557.147
1991375.0,1780135557.186
1992640.0,1780135557.226
1993886.0,1780135557.268
1995214.0,1780135557.306
1995217.0,1780135557.346
1993253.0,1780135557.387
1990743.0,1780135557.426
1988797.0,1780135557.467
1987741.0,1780135557.507
1987597.0,1780135557.546
1988084.0,1780135557.587
1989187.0,1780135557.628
1990622.0,1780135557.665
1991967.0,1780135557.705
1992782.0,1780135557.742
1993528.0,1780135557.771
1994334.0,1780135557.811
1994967.0,1780135557.853
1995716.0,1780135557.892
1996475.0,1780135557.932
1997430.0,1780135557.973
1998150.0,1780135558.012
1998747.0,1780135558.051
1999569.0,1780135558.092
2000460.0,1780135558.131
1999673.0,1780135558.171
1997433.0,1780135558.212
1994709.0,1780135558.252
1992253.0,1780135558.291
1990721.0,1780135558.332
1989787.0,1780135558.372
1989654.0,1780135558.412
1990156.0,1780135558.454
1990899.0,1780135558.492
1991150.0,1780135558.533
1991240.0,1780135558.572
1991505.0,1780135558.611
1991724.0,1780135558.652
1992347.0,1780135558.693
1992836.0,1780135558.732
1993729.0,1780135558.772
1994765.0,1780135558.813
1995588.0,1780135558.853
1996700.0,1780135558.893
1997956.0,1780135558.932
1998386.0,1780135558.971
1996895.0,1780135559.011
1995330.0,1780135559.053
1993764.0,1780135559.092
1993308.0,1780135559.173
1993273.0,1780135559.132
1994484.0,1780135559.213
1997182.0,1780135559.292
1995764.0,1780135559.254
1998346.0,1780135559.331
1999457.0,1780135559.371
2001270.0,1780135559.453
2003014.0,1780135559.533
2005222.0,1780135559.613
2006347.0,1780135559.653
2006967.0,1780135559.691
2000516.0,1780135559.413
2002258.0,1780135559.492
2004128.0,1780135559.573
2007940.0,1780135559.732
2004398.0,1780135559.812
2007085.0,1780135559.773
2001057.0,1780135559.853
1998362.0,1780135559.894
1996845.0,1780135559.933
1995993.0,1780135559.973
1996156.0,1780135560.012
1996693.0,1780135560.052
1998070.0,1780135560.133
1997259.0,1780135560.092
1998638.0,1780135560.172
1998905.0,1780135560.213
1999259.0,1780135560.255
2000542.0,1780135560.333
1999928.0,1780135560.293
2002404.0,1780135560.412
2001610.0,1780135560.372
2003199.0,1780135560.453
2003956.0,1780135560.493
2004461.0,1780135560.532
2003563.0,1780135560.573
2000996.0,1780135560.614
1998460.0,1780135560.654
1994707.0,1780135560.732
1994291.0,1780135560.771
1995990.0,1780135560.693
1994221.0,1780135560.811
1994498.0,1780135560.853
1994900.0,1780135560.891
1994891.0,1780135560.973
1994974.0,1780135560.931
1994626.0,1780135561.012
1994478.0,1780135561.093
1994529.0,1780135561.053
1994741.0,1780135561.173
1994400.0,1780135561.132
1994440.0,1780135561.214
1994524.0,1780135561.254
1994685.0,1780135561.293
1993629.0,1780135561.335
1990724.0,1780135561.374
1984160.0,1780135561.454
1981035.0,1780135561.533
1987292.0,1780135561.412
1982066.0,1780135561.492
1980882.0,1780135561.574
1981472.0,1780135561.613
1981839.0,1780135561.654
1981654.0,1780135561.734
1981815.0,1780135561.695
1981535.0,1780135561.772
1981712.0,1780135561.853
1981310.0,1780135561.813
1982378.0,1780135561.893
1982976.0,1780135561.934
1983870.0,1780135561.973
1985449.0,1780135562.055
1981065.0,1780135562.132
1983533.0,1780135562.094
1985232.0,1780135562.013
1977553.0,1780135562.213
1977621.0,1780135562.254
1978227.0,1780135562.294
1978788.0,1780135562.173
1979721.0,1780135562.333
1980812.0,1780135562.374
1982549.0,1780135562.455
1981843.0,1780135562.415
1983928.0,1780135562.533
1983215.0,1780135562.494
1984864.0,1780135562.573
1985515.0,1780135562.613
1986473.0,1780135562.655
1987724.0,1780135562.693
1988462.0,1780135562.734
1987232.0,1780135562.775
1984168.0,1780135562.814
1980604.0,1780135562.855
1977642.0,1780135562.893
1975846.0,1780135562.933
1975155.0,1780135562.973
1975634.0,1780135563.014
1976522.0,1780135563.054
1977740.0,1780135563.094
1978283.0,1780135563.135
1978716.0,1780135563.174
1979230.0,1780135563.214
1979478.0,1780135563.254
1980023.0,1780135563.293
1980829.0,1780135563.333
1981727.0,1780135563.374
1982173.0,1780135563.413
1980953.0,1780135563.454
1977804.0,1780135563.495
1974113.0,1780135563.534
1971553.0,1780135563.574
1970056.0,1780135563.615
1969613.0,1780135563.655
1970380.0,1780135563.693
1971711.0,1780135563.734
1972828.0,1780135563.773
1973912.0,1780135563.814
1974835.0,1780135563.855
1975548.0,1780135563.894
1976245.0,1780135563.934
1976913.0,1780135563.976
1977703.0,1780135564.015
1978522.0,1780135564.054
1978950.0,1780135564.094
1978068.0,1780135564.133
1974231.0,1780135564.174
1970069.0,1780135564.215
1966545.0,1780135564.255
1963912.0,1780135564.294
1962621.0,1780135564.336
1962482.0,1780135564.375
1962981.0,1780135564.415
1963089.0,1780135564.455
1963051.0,1780135564.493
1963105.0,1780135564.534
1963158.0,1780135564.575
1963430.0,1780135564.614
1963691.0,1780135564.655
1964038.0,1780135564.696
1964434.0,1780135564.735
1965442.0,1780135564.775
1966190.0,1780135564.814
1965773.0,1780135564.854
1963672.0,1780135564.894
1961401.0,1780135564.935
1960399.0,1780135564.974
1960069.0,1780135565.014
1961126.0,1780135565.056
1962789.0,1780135565.095
1964591.0,1780135565.135
1966469.0,1780135565.174
1968057.0,1780135565.214
1969682.0,1780135565.255
1970940.0,1780135565.295
1974630.0,1780135565.374
1972498.0,1780135565.334
1976240.0,1780135565.416
1978138.0,1780135565.456
1980216.0,1780135565.495
1981646.0,1780135565.536
1981401.0,1780135565.575
1979909.0,1780135565.615
1978532.0,1780135565.657
1977844.0,1780135565.696
1977878.0,1780135565.734
1978745.0,1780135565.775
1980379.0,1780135565.814
1982325.0,1780135565.855
1984076.0,1780135565.895
1985792.0,1780135565.934
1987109.0,1780135565.974
1988853.0,1780135566.015
1990353.0,1780135566.055
1992171.0,1780135566.095
1994275.0,1780135566.136
1995665.0,1780135566.175
1997687.0,1780135566.216
1999381.0,1780135566.256
2001525.0,1780135566.294
2002665.0,1780135566.334
2002521.0,1780135566.375
2001674.0,1780135566.415
2000918.0,1780135566.456
2000513.0,1780135566.496
2001015.0,1780135566.535
2002494.0,1780135566.576
2004104.0,1780135566.615
2006188.0,1780135566.655
2007805.0,1780135566.694
2009149.0,1780135566.736
2010259.0,1780135566.775
2011452.0,1780135566.815
2012485.0,1780135566.857
2013662.0,1780135566.896
2015100.0,1780135566.936
2017297.0,1780135567.014
2016169.0,1780135566.975
2018545.0,1780135567.059
2019470.0,1780135567.099
2020511.0,1780135567.138
2021689.0,1780135567.178
2022047.0,1780135567.22
2021489.0,1780135567.259
2020736.0,1780135567.299
2019691.0,1780135567.34
2019276.0,1780135567.379
2019385.0,1780135567.419
2019410.0,1780135567.461
2020150.0,1780135567.499
2021126.0,1780135567.539
2022103.0,1780135567.581
2022841.0,1780135567.62
2023600.0,1780135567.661
2024891.0,1780135567.701
2026182.0,1780135567.738
2027635.0,1780135567.779
2028747.0,1780135567.82
2030263.0,1780135567.86
2031668.0,1780135567.899
2033342.0,1780135567.941
2034852.0,1780135567.98
2037805.0,1780135568.062
2036169.0,1780135568.02
2038678.0,1780135568.099
2038639.0,1780135568.139
2038797.0,1780135568.18
2039124.0,1780135568.219
2039557.0,1780135568.26
2039869.0,1780135568.301
2040748.0,1780135568.34
2040941.0,1780135568.38
2041492.0,1780135568.419
2041885.0,1780135568.46
2042731.0,1780135568.499
2043853.0,1780135568.579
2044986.0,1780135568.619
2043122.0,1780135568.54
2045751.0,1780135568.661
2046755.0,1780135568.7
2047878.0,1780135568.74
2048981.0,1780135568.781
2049692.0,1780135568.82
2050656.0,1780135568.861
2051670.0,1780135568.9
2053606.0,1780135568.979
2053790.0,1780135569.021
2052793.0,1780135568.939
2054121.0,1780135569.061
2054626.0,1780135569.1
2054694.0,1780135569.141
2054937.0,1780135569.181
2055403.0,1780135569.221
2056220.0,1780135569.261
2057090.0,1780135569.299
2057707.0,1780135569.339
2059285.0,1780135569.381
2061664.0,1780135569.42
2063633.0,1780135569.461
2065067.0,1780135569.501
2065994.0,1780135569.541
2066526.0,1780135569.581
2066332.0,1780135569.62
2066015.0,1780135569.66
2065776.0,1780135569.7
2065721.0,1780135569.741
2065395.0,1780135569.78
2065315.0,1780135569.82
2065233.0,1780135569.862
2064978.0,1780135569.901
2062643.0,1780135569.98
2064181.0,1780135569.941
2060844.0,1780135570.02
2059024.0,1780135570.061
2056580.0,1780135570.14
2056211.0,1780135570.181
2055794.0,1780135570.222
2055817.0,1780135570.262
2055700.0,1780135570.301
2058032.0,1780135570.101
2055549.0,1780135570.341
2055559.0,1780135570.38
2055794.0,1780135570.42
2056185.0,1780135570.462
2056719.0,1780135570.5
2057108.0,1780135570.541
2057992.0,1780135570.582
2058575.0,1780135570.621
2059495.0,1780135570.662
2060557.0,1780135570.701
2060859.0,1780135570.74
2061071.0,1780135570.78
2060477.0,1780135570.821
2059488.0,1780135570.861
2057437.0,1780135570.942
2058304.0,1780135570.901
2057253.0,1780135570.979
2057422.0,1780135571.019
2057806.0,1780135571.06
2059055.0,1780135571.139
2058425.0,1780135571.1
2059617.0,1780135571.181
2059883.0,1780135571.22
2060563.0,1780135571.301
2059936.0,1780135571.261
2060848.0,1780135571.34
2061382.0,1780135571.38
2062096.0,1780135571.461
2062921.0,1780135571.542
2063323.0,1780135571.582
2062356.0,1780135571.622
2061532.0,1780135571.422
2062526.0,1780135571.501
2058092.0,1780135571.7
2060495.0,1780135571.662
2056119.0,1780135571.74
2054658.0,1780135571.782
2053662.0,1780135571.821
2053724.0,1780135571.862
2053588.0,1780135571.903
2053809.0,1780135571.942
2053754.0,1780135571.982
2053561.0,1780135572.021
2052773.0,1780135572.142
2053261.0,1780135572.061
2053175.0,1780135572.101
2052542.0,1780135572.181
2052420.0,1780135572.221
2052217.0,1780135572.263
2051925.0,1780135572.302
2051936.0,1780135572.342
2051798.0,1780135572.381
2050585.0,1780135572.421
2047840.0,1780135572.462
2044324.0,1780135572.502
2038089.0,1780135572.582
2041050.0,1780135572.541
2036388.0,1780135572.623
2034811.0,1780135572.663
2034251.0,1780135572.702
2033644.0,1780135572.742
2033477.0,1780135572.781
2032623.0,1780135572.821
2032120.0,1780135572.863
2031589.0,1780135572.901
2031314.0,1780135572.942
2031363.0,1780135572.983
2031675.0,1780135573.022
2032186.0,1780135573.063
2032543.0,1780135573.102
2033120.0,1780135573.141
2033535.0,1780135573.181
2032559.0,1780135573.222
2029953.0,1780135573.262
2026694.0,1780135573.302
2024286.0,1780135573.343
2022416.0,1780135573.382
2021790.0,1780135573.422
2021759.0,1780135573.464
2022409.0,1780135573.502
2022693.0,1780135573.542
2023053.0,1780135573.583
2023164.0,1780135573.622
2023215.0,1780135573.663
2023277.0,1780135573.704
2023588.0,1780135573.743
2023946.0,1780135573.783
2024296.0,1780135573.824
2024825.0,1780135573.863
2025371.0,1780135573.903
2026079.0,1780135573.944
2025970.0,1780135573.981
2023631.0,1780135574.021
2019715.0,1780135574.063
2015723.0,1780135574.102
2012449.0,1780135574.142
2010475.0,1780135574.183
2009831.0,1780135574.222
2009890.0,1780135574.263
2010323.0,1780135574.304
2011034.0,1780135574.341
2011495.0,1780135574.381
2011417.0,1780135574.423
2011824.0,1780135574.463
2011782.0,1780135574.502
2011829.0,1780135574.543
2012196.0,1780135574.583
2012428.0,1780135574.623
2012240.0,1780135574.665
2012342.0,1780135574.701
2012248.0,1780135574.742
2010100.0,1780135574.783
2005257.0,1780135574.822
1999822.0,1780135574.863
1995245.0,1780135574.903
1992023.0,1780135574.942
1989915.0,1780135574.982
1988824.0,1780135575.023
1988641.0,1780135575.063
1988404.0,1780135575.103
1988058.0,1780135575.144
1987022.0,1780135575.183
1986134.0,1780135575.222
1985537.0,1780135575.263
1985010.0,1780135575.302
1984911.0,1780135575.342
1984656.0,1780135575.383
1985029.0,1780135575.423
1985604.0,1780135575.464
1985118.0,1780135575.504
1982346.0,1780135575.543
1977566.0,1780135575.584
1973685.0,1780135575.623
1971202.0,1780135575.663
1970236.0,1780135575.702
1970587.0,1780135575.743
1971729.0,1780135575.783
1972780.0,1780135575.823
1973490.0,1780135575.865
1974041.0,1780135575.903
1974680.0,1780135575.944
1974928.0,1780135575.983
1975521.0,1780135576.022
1976344.0,1780135576.063
1977147.0,1780135576.102
1978066.0,1780135576.141
1979158.0,1780135576.181
1978649.0,1780135576.222
1975342.0,1780135576.263
1969998.0,1780135576.302
1965386.0,1780135576.343
1962159.0,1780135576.382
1960522.0,1780135576.423
1960407.0,1780135576.465
1961978.0,1780135576.543
1961006.0,1780135576.503
1963128.0,1780135576.585
1963241.0,1780135576.624
1963496.0,1780135576.665
1963814.0,1780135576.703
1964167.0,1780135576.742
1964903.0,1780135576.783
1965814.0,1780135576.824
1966558.0,1780135576.864
1967801.0,1780135576.903
1968407.0,1780135576.945
1967082.0,1780135576.984
1962418.0,1780135577.024
1957004.0,1780135577.064
1952759.0,1780135577.103
1950250.0,1780135577.143
1949302.0,1780135577.184
1949432.0,1780135577.223
1950393.0,1780135577.264
1951440.0,1780135577.305
1952127.0,1780135577.344
1952162.0,1780135577.384
1952130.0,1780135577.423
1952087.0,1780135577.463
1952328.0,1780135577.503
1952928.0,1780135577.544
1953547.0,1780135577.583
1954029.0,1780135577.624
1954737.0,1780135577.666
1955363.0,1780135577.704
1955093.0,1780135577.744
1951452.0,1780135577.784
1945797.0,1780135577.823
1940914.0,1780135577.864
1936167.0,1780135577.944
1937702.0,1780135577.904
1935720.0,1780135577.984
1936511.0,1780135578.025
1937710.0,1780135578.065
1938673.0,1780135578.105
1939135.0,1780135578.144
1939638.0,1780135578.183
1940423.0,1780135578.223
1941172.0,1780135578.265
1942441.0,1780135578.304
1945106.0,1780135578.385
1943486.0,1780135578.344
1948459.0,1780135578.504
1946707.0,1780135578.424
1941501.0,1780135578.583
1945584.0,1780135578.543
1938192.0,1780135578.625
1948271.0,1780135578.465
1936517.0,1780135578.664
1936501.0,1780135578.704
1937446.0,1780135578.745
1939390.0,1780135578.784
1941330.0,1780135578.824
1942740.0,1780135578.866
1944782.0,1780135578.943
1943751.0,1780135578.905
1945876.0,1780135578.984
1946773.0,1780135579.024
1949826.0,1780135579.109
1948138.0,1780135579.068
1952887.0,1780135579.188
1954421.0,1780135579.229
1951460.0,1780135579.148
1955175.0,1780135579.269
1948681.0,1780135579.349
1952870.0,1780135579.308
1941580.0,1780135579.428
1944541.0,1780135579.388
1940437.0,1780135579.508
1940379.0,1780135579.47
1941663.0,1780135579.549
1943303.0,1780135579.59
1945093.0,1780135579.629
1946109.0,1780135579.67
1947934.0,1780135579.748
1947000.0,1780135579.708
1949027.0,1780135579.788
1950038.0,1780135579.829
1951496.0,1780135579.869
1953297.0,1780135579.909
1954449.0,1780135579.95
1956100.0,1780135579.989
1957737.0,1780135580.029
1957716.0,1780135580.069
1954729.0,1780135580.108
1950399.0,1780135580.148
1946369.0,1780135580.189
1944085.0,1780135580.229
1942951.0,1780135580.27
1943018.0,1780135580.31
1944055.0,1780135580.349
1945083.0,1780135580.389
1946210.0,1780135580.431
1946847.0,1780135580.468
1947102.0,1780135580.508
1947517.0,1780135580.549
1948000.0,1780135580.588
1948674.0,1780135580.628
1949620.0,1780135580.67
1950250.0,1780135580.708
1951239.0,1780135580.749
1952026.0,1780135580.79
1953052.0,1780135580.829
1951860.0,1780135580.87
1948397.0,1780135580.911
1944693.0,1780135580.948
1941787.0,1780135580.988
1940766.0,1780135581.029
1940796.0,1780135581.069
1942317.0,1780135581.109
1944435.0,1780135581.15
1946240.0,1780135581.189
1947773.0,1780135581.227
1948919.0,1780135581.269
1950104.0,1780135581.307
1951581.0,1780135581.347
1953078.0,1780135581.389
1954770.0,1780135581.428
1956289.0,1780135581.469
1958143.0,1780135581.509
1960135.0,1780135581.549
1961538.0,1780135581.589
1960452.0,1780135581.63
1957538.0,1780135581.67
1954390.0,1780135581.71
1952457.0,1780135581.751
1951725.0,1780135581.79
1952215.0,1780135581.828
1953682.0,1780135581.87
1957563.0,1780135581.949
1955906.0,1780135581.909
1959369.0,1780135581.99
1960434.0,1780135582.03
1961504.0,1780135582.071
1962514.0,1780135582.111
1964144.0,1780135582.15
1965468.0,1780135582.188
1967073.0,1780135582.23
1968473.0,1780135582.27
1970209.0,1780135582.309
1971458.0,1780135582.35
1971923.0,1780135582.39
1969470.0,1780135582.43
1966126.0,1780135582.472
1962895.0,1780135582.51
1961017.0,1780135582.551
1960501.0,1780135582.59
1961107.0,1780135582.629
1962413.0,1780135582.67
1964025.0,1780135582.71
1965528.0,1780135582.75
1966462.0,1780135582.79
1966879.0,1780135582.831
1966682.0,1780135582.871
1966947.0,1780135582.911
1967830.0,1780135582.95
1968934.0,1780135582.989
1970392.0,1780135583.029
1971862.0,1780135583.071
1973043.0,1780135583.11
1974501.0,1780135583.15
1974758.0,1780135583.191
1972584.0,1780135583.231
1968870.0,1780135583.272
1965371.0,1780135583.31
1962975.0,1780135583.349
1961481.0,1780135583.389
1961345.0,1780135583.431
1961938.0,1780135583.471
1963076.0,1780135583.51
1963974.0,1780135583.551
1964175.0,1780135583.591
1963890.0,1780135583.631
1963759.0,1780135583.671
1963765.0,1780135583.709
1963800.0,1780135583.75
1964263.0,1780135583.791
1965476.0,1780135583.871
1966229.0,1780135583.911
1964992.0,1780135583.83
1965663.0,1780135584.032
1967392.0,1780135583.95
1967266.0,1780135583.991
1962348.0,1780135584.072
1959514.0,1780135584.109
1957582.0,1780135584.151
1957383.0,1780135584.19
1958297.0,1780135584.23
1959976.0,1780135584.272
1961877.0,1780135584.31
1963683.0,1780135584.351
1964835.0,1780135584.392
1966238.0,1780135584.431
1967285.0,1780135584.47
1968415.0,1780135584.511
1970121.0,1780135584.55
1971326.0,1780135584.59
1972727.0,1780135584.631
1974430.0,1780135584.671
1975898.0,1780135584.711
1976348.0,1780135584.752
1974091.0,1780135584.791
1970967.0,1780135584.83
1968221.0,1780135584.872
1966125.0,1780135584.95
1966453.0,1780135584.91
1966631.0,1780135584.992
1968037.0,1780135585.031
1969806.0,1780135585.072
1970875.0,1780135585.112
1971964.0,1780135585.151
1972857.0,1780135585.19
1973644.0,1780135585.231
1974616.0,1780135585.271
1975490.0,1780135585.31
1976837.0,1780135585.352
1977972.0,1780135585.391
1979190.0,1780135585.431
1980325.0,1780135585.473
1980939.0,1780135585.512
1978875.0,1780135585.55
1971851.0,1780135585.63
1969396.0,1780135585.671
1975305.0,1780135585.591
1968089.0,1780135585.712
1967994.0,1780135585.751
1969192.0,1780135585.791
1970515.0,1780135585.833
1971764.0,1780135585.873
1972856.0,1780135585.91
1973347.0,1780135585.951
1974019.0,1780135585.991
1974649.0,1780135586.031
1975213.0,1780135586.073
1975945.0,1780135586.111
1977089.0,1780135586.152
1977808.0,1780135586.193
1979098.0,1780135586.232
1979580.0,1780135586.271
1978180.0,1780135586.311
1974187.0,1780135586.35
1969932.0,1780135586.39
1966460.0,1780135586.431
1964151.0,1780135586.471
1963259.0,1780135586.511
1963175.0,1780135586.552
1963956.0,1780135586.591
1964486.0,1780135586.631
1965017.0,1780135586.673
1965133.0,1780135586.712
1964543.0,1780135586.752
1964995.0,1780135586.793
1965228.0,1780135586.83
1965743.0,1780135586.865
1966399.0,1780135586.906
1967333.0,1780135586.945
1968580.0,1780135586.985
1969258.0,1780135587.026
1967713.0,1780135587.066
1964654.0,1780135587.105
1961791.0,1780135587.146
1960111.0,1780135587.185
1959798.0,1780135587.225
1960539.0,1780135587.267
1962489.0,1780135587.306
1964118.0,1780135587.346
1965982.0,1780135587.387
1967037.0,1780135587.426
1968100.0,1780135587.467
1969003.0,1780135587.507
1970168.0,1780135587.546
1971294.0,1780135587.587
1972573.0,1780135587.626
1974174.0,1780135587.662
1975407.0,1780135587.692
1976551.0,1780135587.733
1976636.0,1780135587.772
1974146.0,1780135587.813
1970256.0,1780135587.855
1966671.0,1780135587.893
1964732.0,1780135587.934
1963676.0,1780135587.973
1963920.0,1780135588.012
1965270.0,1780135588.053
1966365.0,1780135588.094
1967667.0,1780135588.133
1968234.0,1780135588.173
1968893.0,1780135588.215
1969333.0,1780135588.254
1970101.0,1780135588.294
1971069.0,1780135588.333
1972337.0,1780135588.372
1973239.0,1780135588.413
1975964.0,1780135588.493
1974453.0,1780135588.455
1976030.0,1780135588.533
1973628.0,1780135588.575
1969814.0,1780135588.614
1966188.0,1780135588.655
1963741.0,1780135588.693
1962770.0,1780135588.732
1962727.0,1780135588.773
1963669.0,1780135588.814
1964986.0,1780135588.854
1965801.0,1780135588.893
1966523.0,1780135588.931
1966965.0,1780135588.971
1967387.0,1780135589.012
1967611.0,1780135589.054
1968609.0,1780135589.092
1969274.0,1780135589.133
1970078.0,1780135589.174
1970751.0,1780135589.213
1971792.0,1780135589.254
1972428.0,1780135589.295
1972316.0,1780135589.334
1969356.0,1780135589.374
1965637.0,1780135589.416
1961681.0,1780135589.453
1959498.0,1780135589.493
1958228.0,1780135589.534
1958228.0,1780135589.573
1958728.0,1780135589.613
1959763.0,1780135589.656
1960850.0,1780135589.694
1961342.0,1780135589.734
1961666.0,1780135589.776
1962242.0,1780135589.813
1963014.0,1780135589.854
1964072.0,1780135589.894
1965416.0,1780135589.933
1966876.0,1780135589.974
1968319.0,1780135590.015
1970758.0,1780135590.094
1969898.0,1780135590.055
1969594.0,1780135590.136
1967114.0,1780135590.173
1965271.0,1780135590.213
1964149.0,1780135590.255
1964443.0,1780135590.293
1965566.0,1780135590.334
1967268.0,1780135590.375
1969080.0,1780135590.414
1970862.0,1780135590.455
1971927.0,1780135590.496
1973136.0,1780135590.533
1974448.0,1780135590.573
1975475.0,1780135590.615
1977033.0,1780135590.654
1978407.0,1780135590.694
1980026.0,1780135590.735
1981510.0,1780135590.774
1982866.0,1780135590.815
1984352.0,1780135590.857
1984160.0,1780135590.893
1981723.0,1780135590.933
1979199.0,1780135590.975
1976953.0,1780135591.014
1975814.0,1780135591.049
1975743.0,1780135591.089
1976251.0,1780135591.128
1980424.0,1780135591.249
1979292.0,1780135591.21
1977793.0,1780135591.168
1981394.0,1780135591.289
1982254.0,1780135591.33
1983129.0,1780135591.369
1983968.0,1780135591.409
1985169.0,1780135591.451
1986629.0,1780135591.489
1987898.0,1780135591.529
1989110.0,1780135591.57
1990309.0,1780135591.609
1991471.0,1780135591.65
1989089.0,1780135591.73
1986163.0,1780135591.768
1991164.0,1780135591.69
1983803.0,1780135591.81
1982406.0,1780135591.85
1981942.0,1780135591.931
1982436.0,1780135591.97
1981455.0,1780135591.889
1983114.0,1780135592.01
1983673.0,1780135592.052
1984110.0,1780135592.09
1984307.0,1780135592.129
1984528.0,1780135592.17
1985227.0,1780135592.25
1985874.0,1780135592.291
1984827.0,1780135592.209
1986338.0,1780135592.33
1987051.0,1780135592.37
1987547.0,1780135592.412
1988276.0,1780135592.451
1984976.0,1780135592.53
1982585.0,1780135592.569
1987387.0,1780135592.489
1980785.0,1780135592.61
1980133.0,1780135592.652
1980098.0,1780135592.69
1981324.0,1780135592.73
1983014.0,1780135592.772
1984425.0,1780135592.811
1985975.0,1780135592.85
1987162.0,1780135592.89
1988112.0,1780135592.929
1989489.0,1780135592.97
1991093.0,1780135593.011
1992215.0,1780135593.051
1993694.0,1780135593.09
1995217.0,1780135593.132
1996653.0,1780135593.171
1998354.0,1780135593.209
1998643.0,1780135593.251
1997357.0,1780135593.29
1995320.0,1780135593.33
1993584.0,1780135593.371
1992109.0,1780135593.41
1991934.0,1780135593.451
1992504.0,1780135593.492
1993756.0,1780135593.529
1995061.0,1780135593.569
1996155.0,1780135593.611
1997091.0,1780135593.651
1997838.0,1780135593.69
1998571.0,1780135593.732
1999299.0,1780135593.771
2000352.0,1780135593.811
2001777.0,1780135593.853
2002661.0,1780135593.889
2003948.0,1780135593.93
2005007.0,1780135593.971
2006157.0,1780135594.009
2007212.0,1780135594.05
2006934.0,1780135594.09
2004995.0,1780135594.129
2002519.0,1780135594.169
2000364.0,1780135594.211
1999125.0,1780135594.251
1998734.0,1780135594.291
1999034.0,1780135594.332
2000168.0,1780135594.371
2000784.0,1780135594.41
2001782.0,1780135594.452
2002153.0,1780135594.49
2002668.0,1780135594.53
2002883.0,1780135594.572
2003377.0,1780135594.611
2003742.0,1780135594.652
2004051.0,1780135594.692
2004547.0,1780135594.731
2004870.0,1780135594.77
2005482.0,1780135594.811
2005747.0,1780135594.851
2006200.0,1780135594.89
2006270.0,1780135594.932
2004720.0,1780135594.971
2001760.0,1780135595.011
1998720.0,1780135595.053
1996092.0,1780135595.092
1994515.0,1780135595.13
1993957.0,1780135595.171
1994316.0,1780135595.21
1994722.0,1780135595.251
1995450.0,1780135595.292
1996016.0,1780135595.331
1996241.0,1780135595.371
1996901.0,1780135595.413
1997425.0,1780135595.453
1998175.0,1780135595.49
1999065.0,1780135595.531
2000302.0,1780135595.57
2001415.0,1780135595.611
2002810.0,1780135595.653
2004217.0,1780135595.691
2005203.0,1780135595.731
2005324.0,1780135595.773
2003630.0,1780135595.812
2001508.0,1780135595.851
1999814.0,1780135595.892
1998693.0,1780135595.931
1998683.0,1780135595.971
1999345.0,1780135596.012
2000620.0,1780135596.052
2002242.0,1780135596.092
2003024.0,1780135596.133
2003614.0,1780135596.172
2004465.0,1780135596.21
2005078.0,1780135596.252
2005964.0,1780135596.291
2006542.0,1780135596.331
2007515.0,1780135596.372
2008525.0,1780135596.412
2009609.0,1780135596.453
2010438.0,1780135596.493
2011686.0,1780135596.532
2011742.0,1780135596.569
2010000.0,1780135596.612
2007113.0,1780135596.651
2003986.0,1780135596.691
2001553.0,1780135596.732
2000084.0,1780135596.771
1999971.0,1780135596.812
2000267.0,1780135596.854
2001353.0,1780135596.892
2001905.0,1780135596.932
2002276.0,1780135596.972
2002831.0,1780135597.011
2003225.0,1780135597.052
2003402.0,1780135597.093
2004038.0,1780135597.132
2004728.0,1780135597.172
2005440.0,1780135597.213
2006031.0,1780135597.253
2007072.0,1780135597.293
2007898.0,1780135597.332
2008660.0,1780135597.371
2008126.0,1780135597.411
2005607.0,1780135597.453
2001713.0,1780135597.492
1998201.0,1780135597.532
1995684.0,1780135597.573
1994346.0,1780135597.613
1993545.0,1780135597.654
1993607.0,1780135597.692
1993927.0,1780135597.731
1994096.0,1780135597.771
1993836.0,1780135597.813
1993654.0,1780135597.853
1993447.0,1780135597.892
1993140.0,1780135597.934
1993015.0,1780135597.973
1992960.0,1780135598.013
1992984.0,1780135598.053
1993318.0,1780135598.091
1993427.0,1780135598.132
1994025.0,1780135598.173
1993927.0,1780135598.212
1992334.0,1780135598.253
1989233.0,1780135598.294
1985473.0,1780135598.333
1983014.0,1780135598.371
1981407.0,1780135598.413
1981361.0,1780135598.452
1982165.0,1780135598.492
1983605.0,1780135598.533
1984805.0,1780135598.572
1985431.0,1780135598.613
1986212.0,1780135598.655
1987125.0,1780135598.693
1987883.0,1780135598.731
1988697.0,1780135598.773
1989692.0,1780135598.812
1991085.0,1780135598.853
1992114.0,1780135598.894
1993828.0,1780135598.933
1994850.0,1780135598.973
1994866.0,1780135599.014
1992624.0,1780135599.054
1989557.0,1780135599.092
1984920.0,1780135599.171
1984426.0,1780135599.211
1984846.0,1780135599.253
1986811.0,1780135599.132
1985737.0,1780135599.291
1988939.0,1780135599.332
1991591.0,1780135599.373
1993275.0,1780135599.412
1994491.0,1780135599.453
1994824.0,1780135599.494
1995246.0,1780135599.533
1995601.0,1780135599.573
1996028.0,1780135599.615
1996765.0,1780135599.652
1997539.0,1780135599.692
1998354.0,1780135599.733
1999357.0,1780135599.772
1998929.0,1780135599.813
1995890.0,1780135599.855
1991894.0,1780135599.893
1987751.0,1780135599.933
1984954.0,1780135599.975
1983720.0,1780135600.012
1983194.0,1780135600.053
1984166.0,1780135600.133
1983426.0,1780135600.094
1984559.0,1780135600.173
1984707.0,1780135600.214
1984573.0,1780135600.254
1984317.0,1780135600.294
1984242.0,1780135600.335
1984470.0,1780135600.372
1984627.0,1780135600.412
1984698.0,1780135600.454
1985381.0,1780135600.533
1985215.0,1780135600.493
1985659.0,1780135600.574
1985079.0,1780135600.614
1982096.0,1780135600.655
1977617.0,1780135600.695
1973690.0,1780135600.732
1971071.0,1780135600.772
1969428.0,1780135600.814
1968987.0,1780135600.854
1969799.0,1780135600.893
1970628.0,1780135600.935
1971361.0,1780135600.974
1972594.0,1780135601.053
1971964.0,1780135601.012
1973218.0,1780135601.093
1974031.0,1780135601.132
1975047.0,1780135601.173
1976115.0,1780135601.212
1977538.0,1780135601.253
1978985.0,1780135601.293
1980353.0,1780135601.332
1980010.0,1780135601.372
1977922.0,1780135601.413
1972370.0,1780135601.492
1974828.0,1780135601.453
1970785.0,1780135601.534
1970770.0,1780135601.573
1971583.0,1780135601.613
1973102.0,1780135601.654
1974517.0,1780135601.693
1976004.0,1780135601.732
1977955.0,1780135601.773
1980503.0,1780135601.812
1982543.0,1780135601.853
1984621.0,1780135601.894
1985773.0,1780135601.933
1986523.0,1780135601.973
1987482.0,1780135602.015
1988221.0,1780135602.055
1989334.0,1780135602.094
1989952.0,1780135602.136
1988182.0,1780135602.175
1984646.0,1780135602.213
1981348.0,1780135602.255
1978859.0,1780135602.293
1977589.0,1780135602.334
1977576.0,1780135602.375
1978211.0,1780135602.414
1979730.0,1780135602.455
1980500.0,1780135602.496
1981534.0,1780135602.535
1982128.0,1780135602.573
1982646.0,1780135602.614
1983268.0,1780135602.654
1984073.0,1780135602.694
1984699.0,1780135602.735
1985465.0,1780135602.774
1986332.0,1780135602.815
1987083.0,1780135602.857
1987876.0,1780135602.895
1987817.0,1780135602.933
1984815.0,1780135602.975
1981405.0,1780135603.014
1978157.0,1780135603.06
1975733.0,1780135603.1
1974806.0,1780135603.139
1974634.0,1780135603.179
1975246.0,1780135603.22
1975997.0,1780135603.26
1976622.0,1780135603.299
1976880.0,1780135603.341
1977306.0,1780135603.38
1977106.0,1780135603.42
1977584.0,1780135603.461
1978357.0,1780135603.5
1979110.0,1780135603.541
1980327.0,1780135603.582
1981410.0,1780135603.621
1982880.0,1780135603.66
1984008.0,1780135603.701
1983582.0,1780135603.74
1981940.0,1780135603.78
1979662.0,1780135603.822
1978770.0,1780135603.861
1978642.0,1780135603.901
1979299.0,1780135603.942
1980973.0,1780135603.981
1982674.0,1780135604.02
1984434.0,1780135604.062
1985624.0,1780135604.1
1986821.0,1780135604.14
1988051.0,1780135604.182
1989150.0,1780135604.221
1990002.0,1780135604.258
1991355.0,1780135604.299
1992044.0,1780135604.338
1993167.0,1780135604.378
1994263.0,1780135604.42
1995361.0,1780135604.46
1995973.0,1780135604.5
1994443.0,1780135604.541
1992107.0,1780135604.58
1989561.0,1780135604.62
1988177.0,1780135604.662
1987738.0,1780135604.701
1988037.0,1780135604.741
1989275.0,1780135604.782
1990764.0,1780135604.821
1992108.0,1780135604.863
1993047.0,1780135604.901
1993840.0,1780135604.94
1994804.0,1780135604.98
1995543.0,1780135605.022
1996835.0,1780135605.062
1997748.0,1780135605.101
1999066.0,1780135605.143
2000247.0,1780135605.182
2001482.0,1780135605.222
2003077.0,1780135605.262
2003423.0,1780135605.3
2002410.0,1780135605.341
2000186.0,1780135605.382
1997598.0,1780135605.421
1995917.0,1780135605.462
1994460.0,1780135605.503
1994135.0,1780135605.542
1995063.0,1780135605.58
1995714.0,1780135605.622
1996601.0,1780135605.661
1997208.0,1780135605.701
1997203.0,1780135605.742
1997574.0,1780135605.781
1997402.0,1780135605.822
1997790.0,1780135605.864
1998257.0,1780135605.902
1998435.0,1780135605.94
1999178.0,1780135605.982
1999531.0,1780135606.021
1999662.0,1780135606.062
2000382.0,1780135606.103
1999855.0,1780135606.142
1997750.0,1780135606.182
1994827.0,1780135606.223
1992167.0,1780135606.263
1990672.0,1780135606.301
1989842.0,1780135606.342
1990103.0,1780135606.381
1991401.0,1780135606.421
1992614.0,1780135606.463
1993752.0,1780135606.502
1994992.0,1780135606.542
1995901.0,1780135606.584
1997121.0,1780135606.623
1998895.0,1780135606.662
2000641.0,1780135606.702
2003028.0,1780135606.741
2005306.0,1780135606.781
2007479.0,1780135606.822
2009547.0,1780135606.86
2011749.0,1780135606.942
2011860.0,1780135606.9
2010478.0,1780135606.981
2008496.0,1780135607.021
2007405.0,1780135607.063
2007765.0,1780135607.142
2007162.0,1780135607.102
2008570.0,1780135607.183
2009926.0,1780135607.222
2011526.0,1780135607.263
2012618.0,1780135607.304
2012884.0,1780135607.341
2013766.0,1780135607.381
2014459.0,1780135607.423
2015070.0,1780135607.462
2016141.0,1780135607.502
2017353.0,1780135607.543
2018760.0,1780135607.582
2019338.0,1780135607.623
2020270.0,1780135607.665
2021173.0,1780135607.701
2019873.0,1780135607.741
2017056.0,1780135607.783
2013980.0,1780135607.822
2010967.0,1780135607.863
2008894.0,1780135607.904
2007995.0,1780135607.943
2007682.0,1780135607.983
2007751.0,1780135608.024
2008165.0,1780135608.062
2008352.0,1780135608.102
2008517.0,1780135608.143
2008540.0,1780135608.182
2008381.0,1780135608.222
2008628.0,1780135608.264
2009087.0,1780135608.303
2011137.0,1780135608.343
2014941.0,1780135608.385
2017863.0,1780135608.421
2018843.0,1780135608.462
2017886.0,1780135608.503
2013693.0,1780135608.542
2009946.0,1780135608.583
2006942.0,1780135608.624
2004404.0,1780135608.664
2002912.0,1780135608.703
2003164.0,1780135608.745
2004753.0,1780135608.782
2006356.0,1780135608.822
2007466.0,1780135608.864
2008324.0,1780135608.902
2009865.0,1780135608.943
2010764.0,1780135608.984
2010679.0,1780135609.023
2007546.0,1780135609.064
2005299.0,1780135609.105
2000598.0,1780135609.142
1993689.0,1780135609.182
1985968.0,1780135609.224
1974864.0,1780135609.263
1966630.0,1780135609.303
1960505.0,1780135609.344
1956649.0,1780135609.384
1958109.0,1780135609.42
1959650.0,1780135609.462
1966449.0,1780135609.5
1984010.0,1780135609.54
2006995.0,1780135609.582
2038532.0,1780135609.622
2042260.0,1780135609.663
2037713.0,1780135609.703
2034938.0,1780135609.742
2035949.0,1780135609.783
2036896.0,1780135609.824
2044436.0,1780135609.864
2054533.0,1780135609.903
2065650.0,1780135609.945
2077121.0,1780135609.984
2088676.0,1780135610.022
2107888.0,1780135610.064
2128967.0,1780135610.103
2151745.0,1780135610.143
2180873.0,1780135610.185
2201867.0,1780135610.224
2225877.0,1780135610.265
2244189.0,1780135610.306
2257871.0,1780135610.342
2269511.0,1780135610.383
2282484.0,1780135610.424
2292492.0,1780135610.464
2295503.0,1780135610.503
2295940.0,1780135610.545
2294091.0,1780135610.584
2294373.0,1780135610.624
2293635.0,1780135610.666
2299619.0,1780135610.703
2297096.0,1780135610.743
2282670.0,1780135610.784
2271046.0,1780135610.823
2278365.0,1780135610.864
2285474.0,1780135610.905
2275274.0,1780135610.944
2265574.0,1780135610.984
2255699.0,1780135611.026
2256343.0,1780135611.063
2261813.0,1780135611.103
2267737.0,1780135611.144
2272344.0,1780135611.183
2278414.0,1780135611.224
2288705.0,1780135611.266
2299534.0,1780135611.304
2306485.0,1780135611.345
2313912.0,1780135611.384
2321840.0,1780135611.423
2325905.0,1780135611.464
2310984.0,1780135611.505
2296981.0,1780135611.544
2286185.0,1780135611.584
2277559.0,1780135611.626
2270250.0,1780135611.665
2268319.0,1780135611.705
2272401.0,1780135611.744
2276695.0,1780135611.783
2281043.0,1780135611.824
2286089.0,1780135611.866
2290908.0,1780135611.904
2294921.0,1780135611.943
2298292.0,1780135611.982
2302115.0,1780135612.021
2306879.0,1780135612.062
2310156.0,1780135612.102
2310548.0,1780135612.142
2310041.0,1780135612.183
2309767.0,1780135612.224
2310079.0,1780135612.264
2310307.0,1780135612.304
2311301.0,1780135612.345
2312327.0,1780135612.384
2312616.0,1780135612.425
2313690.0,1780135612.467
2315823.0,1780135612.505
2317793.0,1780135612.545
2319951.0,1780135612.585
2322057.0,1780135612.624
2323080.0,1780135612.665
2324213.0,1780135612.705
2324560.0,1780135612.744
2321366.0,1780135612.785
2317472.0,1780135612.826
2315361.0,1780135612.866
2314397.0,1780135612.905
2314142.0,1780135612.945
2313982.0,1780135613.024
2314159.0,1780135612.984
2313975.0,1780135613.066
2314028.0,1780135613.105
2314322.0,1780135613.145
2314179.0,1780135613.186
2314250.0,1780135613.226
2314343.0,1780135613.264
2314964.0,1780135613.305
2315629.0,1780135613.344
2314724.0,1780135613.384
2312115.0,1780135613.426
2310397.0,1780135613.466
2309618.0,1780135613.505
2308695.0,1780135613.547
2308678.0,1780135613.584
2308785.0,1780135613.624
2309786.0,1780135613.666
2309616.0,1780135613.705
2309531.0,1780135613.745
2308357.0,1780135613.786
2307521.0,1780135613.825
2306969.0,1780135613.866
2307327.0,1780135613.907
2307379.0,1780135613.944
2304920.0,1780135613.984
2302254.0,1780135614.026
2300787.0,1780135614.066
2300225.0,1780135614.105
2300600.0,1780135614.147
2301104.0,1780135614.186
2302002.0,1780135614.226
2302530.0,1780135614.266
2303559.0,1780135614.304
2304648.0,1780135614.345
2305913.0,1780135614.386
2307412.0,1780135614.425
2309172.0,1780135614.466
2311229.0,1780135614.506
2312808.0,1780135614.543
2312400.0,1780135614.583
2311046.0,1780135614.625
2310680.0,1780135614.665
2311381.0,1780135614.704
2312435.0,1780135614.746
2314113.0,1780135614.785
2315827.0,1780135614.825
2318622.0,1780135614.867
2320493.0,1780135614.906
2322316.0,1780135614.946
2324378.0,1780135614.988
2325897.0,1780135615.024
2326522.0,1780135615.058
2327983.0,1780135615.099
2329093.0,1780135615.138
2328991.0,1780135615.178
2327378.0,1780135615.219
2326423.0,1780135615.259
2326580.0,1780135615.298
2327283.0,1780135615.339
2328673.0,1780135615.378
2329674.0,1780135615.418
2330980.0,1780135615.46
2332315.0,1780135615.498
2333248.0,1780135615.539
2334481.0,1780135615.581
2335047.0,1780135615.62
2336082.0,1780135615.661
2337705.0,1780135615.702
2337785.0,1780135615.739
2336407.0,1780135615.779
2335586.0,1780135615.821
2335590.0,1780135615.86
2335388.0,1780135615.9
2336173.0,1780135615.941
2337489.0,1780135615.98
2338636.0,1780135616.021
2340096.0,1780135616.061
2341213.0,1780135616.099
2342284.0,1780135616.139
2343235.0,1780135616.181
2344393.0,1780135616.22
2345830.0,1780135616.261
2347389.0,1780135616.302
2347917.0,1780135616.341
2346425.0,1780135616.379
2346055.0,1780135616.421
2345951.0,1780135616.46
2346252.0,1780135616.5
2347499.0,1780135616.541
2348972.0,1780135616.58
2350010.0,1780135616.621
2351111.0,1780135616.663
2352217.0,1780135616.699
2353006.0,1780135616.739
2353545.0,1780135616.781
2354299.0,1780135616.82
2355395.0,1780135616.861
2356460.0,1780135616.902
2355397.0,1780135616.941
2353438.0,1780135616.977
2351114.0,1780135617.018
2347483.0,1780135617.058
2343907.0,1780135617.097
2340342.0,1780135617.138
2336221.0,1780135617.177
2331238.0,1780135617.217
2327879.0,1780135617.259
2324222.0,1780135617.298
2330857.0,1780135617.338
2338677.0,1780135617.379
2343299.0,1780135617.418
2343313.0,1780135617.459
2342629.0,1780135617.499
2339230.0,1780135617.538
2337387.0,1780135617.578
2336554.0,1780135617.619
2334641.0,1780135617.659
2331324.0,1780135617.699
2330588.0,1780135617.741
2324985.0,1780135617.78
2326303.0,1780135617.82
2332085.0,1780135617.862
2333917.0,1780135617.901
2338744.0,1780135617.941
2345775.0,1780135617.982
2350068.0,1780135618.021
2356967.0,1780135618.06
2350378.0,1780135618.101
2348605.0,1780135618.14
2342978.0,1780135618.18
2336005.0,1780135618.222
2330527.0,1780135618.262
2328157.0,1780135618.301
2325568.0,1780135618.343
2323497.0,1780135618.38
2321532.0,1780135618.42
2319469.0,1780135618.462
2317819.0,1780135618.501
2316014.0,1780135618.541
2314522.0,1780135618.582
2313510.0,1780135618.621
2311406.0,1780135618.662
2305729.0,1780135618.701
2299124.0,1780135618.74
2291694.0,1780135618.78
2284636.0,1780135618.822
2278322.0,1780135618.862
2272706.0,1780135618.901
2269214.0,1780135618.943
2265557.0,1780135618.982
2260788.0,1780135619.02
2256576.0,1780135619.062
2250834.0,1780135619.101
2248059.0,1780135619.141
2244803.0,1780135619.182
2241195.0,1780135619.222
2235903.0,1780135619.262
2229463.0,1780135619.303
2222864.0,1780135619.34
2215935.0,1780135619.38
2210111.0,1780135619.422
2205614.0,1780135619.462
2202298.0,1780135619.501
2199744.0,1780135619.543
2196934.0,1780135619.582
2193957.0,1780135619.623
2190424.0,1780135619.662
2186677.0,1780135619.7
2184025.0,1780135619.74
2181418.0,1780135619.782
2178827.0,1780135619.821
2173416.0,1780135619.862
2166215.0,1780135619.903
2158521.0,1780135619.942
2151913.0,1780135619.982
2146448.0,1780135620.023
2142411.0,1780135620.063
2139200.0,1780135620.105
2136711.0,1780135620.142
2134086.0,1780135620.181
2131488.0,1780135620.222
2128829.0,1780135620.264
2125980.0,1780135620.302
2123386.0,1780135620.342
2121011.0,1780135620.382
2118627.0,1780135620.421
2116910.0,1780135620.462
2115004.0,1780135620.503
2111764.0,1780135620.542
2105460.0,1780135620.582
2099431.0,1780135620.623
2093550.0,1780135620.663
2088479.0,1780135620.703
2083987.0,1780135620.742
2080511.0,1780135620.781
2077568.0,1780135620.821
2074265.0,1780135620.864
2070748.0,1780135620.901
2067540.0,1780135620.942
2064118.0,1780135620.984
2061279.0,1780135621.023
2058437.0,1780135621.064
2056001.0,1780135621.102
2053960.0,1780135621.141
2051962.0,1780135621.181
2050098.0,1780135621.223
2048349.0,1780135621.263
2044275.0,1780135621.302
2038049.0,1780135621.344
2031209.0,1780135621.383
2025257.0,1780135621.421
2019701.0,1780135621.463
2015431.0,1780135621.502
2012202.0,1780135621.542
2009090.0,1780135621.583
2006135.0,1780135621.623
2003036.0,1780135621.663
2000089.0,1780135621.704
1996696.0,1780135621.741
1993459.0,1780135621.781
1989939.0,1780135621.823
1986618.0,1780135621.863
1983444.0,1780135621.902
1980624.0,1780135621.944
1978425.0,1780135621.983
1976444.0,1780135622.023
1973856.0,1780135622.063
1969263.0,1780135622.102
1963826.0,1780135622.142
1958031.0,1780135622.182
1953708.0,1780135622.221
1950151.0,1780135622.262
1947391.0,1780135622.303
1945401.0,1780135622.342
1942914.0,1780135622.383
1940561.0,1780135622.424
1937850.0,1780135622.464
1935627.0,1780135622.502
1933495.0,1780135622.543
1931537.0,1780135622.582
1929599.0,1780135622.622
1928274.0,1780135622.665
1927237.0,1780135622.703
1926115.0,1780135622.743
1925097.0,1780135622.785
1923674.0,1780135622.822
1920403.0,1780135622.863
1916645.0,1780135622.903
1913388.0,1780135622.942
1910971.0,1780135622.983
1909084.0,1780135623.024
1907989.0,1780135623.064
1907255.0,1780135623.104
1906600.0,1780135623.145
1905901.0,1780135623.182
1905338.0,1780135623.222
1904382.0,1780135623.264
1903965.0,1780135623.303
1903409.0,1780135623.343
1902947.0,1780135623.384
1902297.0,1780135623.424
1900995.0,1780135623.465
1898759.0,1780135623.503
1895472.0,1780135623.542
1892226.0,1780135623.582
1889524.0,1780135623.624
1887230.0,1780135623.664
1886192.0,1780135623.703
1885024.0,1780135623.745
1884216.0,1780135623.784
1883172.0,1780135623.822
1882161.0,1780135623.864
1881090.0,1780135623.903
1880402.0,1780135623.943
1878975.0,1780135623.984
1878035.0,1780135624.024
1877050.0,1780135624.064
1875466.0,1780135624.105
1872185.0,1780135624.142
1868860.0,1780135624.182
1865894.0,1780135624.224
1863528.0,1780135624.264
1861666.0,1780135624.303
1860504.0,1780135624.345
1859135.0,1780135624.384
1858099.0,1780135624.424
1857099.0,1780135624.464
1855696.0,1780135624.503
1854398.0,1780135624.543
1853021.0,1780135624.584
1851641.0,1780135624.623
1850342.0,1780135624.664
1849284.0,1780135624.705
1846365.0,1780135624.744
1842718.0,1780135624.781
1839518.0,1780135624.822
1836734.0,1780135624.863
1834256.0,1780135624.902
1832505.0,1780135624.944
1831211.0,1780135624.983
1829857.0,1780135625.023
1828316.0,1780135625.065
1826956.0,1780135625.104
1825532.0,1780135625.144
1823885.0,1780135625.185
1822635.0,1780135625.224
1821263.0,1780135625.263
1820095.0,1780135625.304
1818312.0,1780135625.343
1815190.0,1780135625.383
1812055.0,1780135625.425
1808771.0,1780135625.465
1805849.0,1780135625.504
1803587.0,1780135625.546
1801679.0,1780135625.583
1800053.0,1780135625.623
1798222.0,1780135625.665
1796292.0,1780135625.704
1794774.0,1780135625.744
1793276.0,1780135625.785
1792203.0,1780135625.824
1791112.0,1780135625.865
1789862.0,1780135625.904
1789169.0,1780135625.943
1787227.0,1780135625.983
1784224.0,1780135626.025
1780968.0,1780135626.065
1777583.0,1780135626.104
1775091.0,1780135626.146
1773088.0,1780135626.185
1771355.0,1780135626.225
1769634.0,1780135626.265
1768057.0,1780135626.303
1766516.0,1780135626.344
1764933.0,1780135626.385
1763202.0,1780135626.424
1761677.0,1780135626.465
1760393.0,1780135626.506
1759406.0,1780135626.545
1758124.0,1780135626.583
1756840.0,1780135626.625
1754197.0,1780135626.665
1750670.0,1780135626.704
1747472.0,1780135626.745
1744895.0,1780135626.785
1742782.0,1780135626.825
1741504.0,1780135626.867
1739972.0,1780135626.903
1739118.0,1780135626.944
1742030.0,1780135626.985
1744959.0,1780135627.024
1745808.0,1780135627.069
1741574.0,1780135627.11
1739268.0,1780135627.149
1750138.0,1780135627.189
1785777.0,1780135627.23
1816708.0,1780135627.269
1835662.0,1780135627.309
1873483.0,1780135627.35
1910241.0,1780135627.389
1927641.0,1780135627.429
1932262.0,1780135627.471
1938098.0,1780135627.509
1947425.0,1780135627.549
1959386.0,1780135627.591
1969787.0,1780135627.63
1982733.0,1780135627.67
1992142.0,1780135627.711
2004254.0,1780135627.749
2007381.0,1780135627.789
2006942.0,1780135627.831
2007427.0,1780135627.87
2012251.0,1780135627.91
2016697.0,1780135627.951
2019204.0,1780135627.99
2020505.0,1780135628.031
2023590.0,1780135628.071
2030854.0,1780135628.109
2037964.0,1780135628.149
2046379.0,1780135628.191
2057936.0,1780135628.23
2071580.0,1780135628.271
2080320.0,1780135628.312
2089588.0,1780135628.351
2100107.0,1780135628.389
2108046.0,1780135628.431
2116743.0,1780135628.47
2124381.0,1780135628.51
2132269.0,1780135628.551
2140069.0,1780135628.59
2147876.0,1780135628.631
2156830.0,1780135628.673
2163859.0,1780135628.709
2167750.0,1780135628.749
2168721.0,1780135628.791
2166770.0,1780135628.83
2164998.0,1780135628.871
2164318.0,1780135628.912
2163096.0,1780135628.951
2162293.0,1780135628.991
2161497.0,1780135629.032
2160330.0,1780135629.07
2160571.0,1780135629.11
2161191.0,1780135629.151
2161746.0,1780135629.19
2162671.0,1780135629.23
2162563.0,1780135629.273
2160659.0,1780135629.311
2158776.0,1780135629.351
2158148.0,1780135629.391
2158008.0,1780135629.43
2158280.0,1780135629.471
2159391.0,1780135629.511
2160428.0,1780135629.55
2161555.0,1780135629.591
2162914.0,1780135629.632
2163100.0,1780135629.672
2165027.0,1780135629.711
2176909.0,1780135629.751
2202213.0,1780135629.79
2223753.0,1780135629.83
2239466.0,1780135629.872
2248926.0,1780135629.908
2253167.0,1780135629.948
2256226.0,1780135629.99
2258511.0,1780135630.029
2260003.0,1780135630.07
2261064.0,1780135630.111
2266453.0,1780135630.15
2272775.0,1780135630.19
2276862.0,1780135630.232
2279120.0,1780135630.272
2278648.0,1780135630.311
2276387.0,1780135630.353
2273460.0,1780135630.392
2271499.0,1780135630.43
2270068.0,1780135630.472
2269067.0,1780135630.51
2267855.0,1780135630.551
2265760.0,1780135630.592
2263469.0,1780135630.631
2261295.0,1780135630.672
2260768.0,1780135630.713
2263233.0,1780135630.752
2269142.0,1780135630.79
2278355.0,1780135630.831
2293347.0,1780135630.871
2310637.0,1780135630.952
2304435.0,1780135630.911
2322604.0,1780135630.991
2336305.0,1780135631.032
2354259.0,1780135631.074
2370027.0,1780135631.11
2381389.0,1780135631.15
2388314.0,1780135631.192
2388232.0,1780135631.231
2388661.0,1780135631.272
2389414.0,1780135631.313
2390928.0,1780135631.352
2392140.0,1780135631.392
2391653.0,1780135631.431
2389601.0,1780135631.471
2387690.0,1780135631.511
2386023.0,1780135631.552
2383198.0,1780135631.591
2378700.0,1780135631.632
2372242.0,1780135631.674
2365697.0,1780135631.712
2355328.0,1780135631.75
2345530.0,1780135631.792
2339818.0,1780135631.831
2335325.0,1780135631.872
2333843.0,1780135631.913
2334281.0,1780135631.952
2335407.0,1780135631.992
2337509.0,1780135632.033
2339275.0,1780135632.073
2342040.0,1780135632.111
2344289.0,1780135632.152
2344859.0,1780135632.191
2346049.0,1780135632.231
2347596.0,1780135632.274
2348032.0,1780135632.312
2346572.0,1780135632.352
2343656.0,1780135632.394
2340701.0,1780135632.429
2337994.0,1780135632.47
2337627.0,1780135632.51
2338173.0,1780135632.55
2338716.0,1780135632.59
2339449.0,1780135632.632
2339715.0,1780135632.672
2338553.0,1780135632.711
2338406.0,1780135632.753
2338732.0,1780135632.792
2339115.0,1780135632.832
2339653.0,1780135632.874
2340329.0,1780135632.913
2339016.0,1780135632.945
2339016.0,1780135632.986
2334824.0,1780135633.025
2329136.0,1780135633.066
2324434.0,1780135633.106
2319221.0,1780135633.145
2313861.0,1780135633.185
2310980.0,1780135633.226
2310103.0,1780135633.266
2309371.0,1780135633.306
2307945.0,1780135633.347
2305854.0,1780135633.386
2302748.0,1780135633.426
2300995.0,1780135633.468
2299964.0,1780135633.506
2299056.0,1780135633.546
2294951.0,1780135633.587
2288346.0,1780135633.626
2282067.0,1780135633.668
2276449.0,1780135633.707
2271818.0,1780135633.743
2269420.0,1780135633.779
2270710.0,1780135633.814
2274119.0,1780135633.851
2277488.0,1780135633.891
2279016.0,1780135633.932
2277408.0,1780135633.971
2274383.0,1780135634.011
2271598.0,1780135634.053
2270256.0,1780135634.092
2269441.0,1780135634.132
2263195.0,1780135634.173
2255606.0,1780135634.21
2248082.0,1780135634.251
2241372.0,1780135634.292
2235117.0,1780135634.331
2230757.0,1780135634.371
2227950.0,1780135634.413
2225686.0,1780135634.453
2222010.0,1780135634.492
2219264.0,1780135634.533
2217441.0,1780135634.571
2215986.0,1780135634.611
2214118.0,1780135634.653
2213846.0,1780135634.691
2213119.0,1780135634.732
2209482.0,1780135634.773
2202178.0,1780135634.812
2193903.0,1780135634.853
2187316.0,1780135634.894
2183039.0,1780135634.931
2180476.0,1780135634.971
2178037.0,1780135635.012
2176007.0,1780135635.052
2173370.0,1780135635.091
2171363.0,1780135635.133
2169074.0,1780135635.172
2167414.0,1780135635.212
2165867.0,1780135635.254
2164856.0,1780135635.293
2164466.0,1780135635.331
2165241.0,1780135635.372
2163466.0,1780135635.411
2158232.0,1780135635.452
2152046.0,1780135635.493
2145684.0,1780135635.532
2141463.0,1780135635.572
2138361.0,1780135635.614
2137128.0,1780135635.654
2136279.0,1780135635.691
2135724.0,1780135635.732
2135084.0,1780135635.771
2135087.0,1780135635.812
2134895.0,1780135635.854
2135455.0,1780135635.892
2136136.0,1780135635.932
2136911.0,1780135635.974
2138411.0,1780135636.013
2140164.0,1780135636.054
2142077.0,1780135636.093
2143794.0,1780135636.131
2145002.0,1780135636.172
2143927.0,1780135636.213
2139346.0,1780135636.253
2134628.0,1780135636.292
2130799.0,1780135636.328
2127866.0,1780135636.367
2126052.0,1780135636.408
2121922.0,1780135636.449
2116888.0,1780135636.488
2115881.0,1780135636.528
2115006.0,1780135636.569
2114213.0,1780135636.608
2112398.0,1780135636.649
2105716.0,1780135636.689
2092460.0,1780135636.729
2088481.0,1780135636.769
2085766.0,1780135636.81
2082577.0,1780135636.85
2081957.0,1780135636.889
2081253.0,1780135636.93
2080118.0,1780135636.969
2075946.0,1780135637.009
2069752.0,1780135637.051
2063481.0,1780135637.09
2057498.0,1780135637.13
2053073.0,1780135637.171
2050337.0,1780135637.21
2047454.0,1780135637.251
2042479.0,1780135637.291
2037726.0,1780135637.331
2035087.0,1780135637.372
2037422.0,1780135637.413
2040545.0,1780135637.452
2046604.0,1780135637.492
2052170.0,1780135637.533
2052835.0,1780135637.572
2050902.0,1780135637.612
2045155.0,1780135637.654
2040379.0,1780135637.692
2053483.0,1780135637.732
2073027.0,1780135637.774
2082466.0,1780135637.813
2103251.0,1780135637.854
2096663.0,1780135637.895
2094734.0,1780135637.934
2096121.0,1780135637.972
2096752.0,1780135638.013
2098764.0,1780135638.053
2101651.0,1780135638.093
2106747.0,1780135638.134
2114093.0,1780135638.173
2121404.0,1780135638.213
2124970.0,1780135638.255
2126534.0,1780135638.294
2128128.0,1780135638.332
2131401.0,1780135638.373
2134089.0,1780135638.413
2135297.0,1780135638.454
2135605.0,1780135638.494
2135728.0,1780135638.533
2134377.0,1780135638.574
2131575.0,1780135638.615
2126300.0,1780135638.655
2120728.0,1780135638.692
2115398.0,1780135638.733
2110766.0,1780135638.773
2106964.0,1780135638.813
2105538.0,1780135638.855
2104981.0,1780135638.893
2106079.0,1780135638.934
