bvp,time
35.87,1597571032.890625
34.89,1597571032.90625
32.09,1597571032.921875
28.48,1597571032.9375
25.35,1597571032.953125
24.05,1597571032.96875
25.52,1597571032.984375
30.02,1597571033.0
37.09,1597571033.015625
45.76,1597571033.03125
55.05,1597571033.046875
64.25,1597571033.0625
73.13,1597571033.078125
81.63,1597571033.09375
89.6,1597571033.109375
96.47,1597571033.125
101.25,1597571033.140625
102.79,1597571033.15625
100.15,1597571033.171875
92.96,1597571033.1875
81.65,1597571033.203125
67.47,1597571033.21875
52.3,1597571033.234375
38.26,1597571033.25
27.39,1597571033.265625
21.08,1597571033.28125
19.76,1597571033.296875
22.72,1597571033.3125
28.29,1597571033.328125
34.29,1597571033.34375
38.57,1597571033.359375
39.73,1597571033.375
37.41,1597571033.390625
32.27,1597571033.40625
25.72,1597571033.421875
19.47,1597571033.4375
14.98,1597571033.453125
13.04,1597571033.46875
13.69,1597571033.484375
16.24,1597571033.5
19.65,1597571033.515625
22.82,1597571033.53125
24.97,1597571033.546875
25.71,1597571033.5625
25.12,1597571033.578125
23.57,1597571033.59375
21.64,1597571033.609375
19.99,1597571033.625
19.29,1597571033.640625
20.23,1597571033.65625
23.39,1597571033.671875
29.09,1597571033.6875
37.19,1597571033.703125
47.09,1597571033.71875
57.87,1597571033.734375
68.72,1597571033.75
79.33,1597571033.765625
90.06,1597571033.78125
101.94,1597571033.796875
116.38,1597571033.8125
134.95,1597571033.828125
159.27,1597571033.84375
190.65,1597571033.859375
229.78,1597571033.875
275.96,1597571033.890625
326.7,1597571033.90625
377.68,1597571033.921875
423.52,1597571033.9375
459.12,1597571033.953125
480.79,1597571033.96875
487.02,1597571033.984375
478.22,1597571034.0
456.04,1597571034.015625
422.63,1597571034.03125
380.2,1597571034.046875
331.26,1597571034.0625
278.62,1597571034.078125
225.4,1597571034.09375
174.42,1597571034.109375
127.44,1597571034.125
84.49,1597571034.140625
44.01,1597571034.15625
3.15,1597571034.171875
-41.55,1597571034.1875
-93.04,1597571034.203125
-152.35,1597571034.21875
-217.34,1597571034.234375
-282.19,1597571034.25
-338.28,1597571034.265625
-376.71,1597571034.28125
-391.44,1597571034.296875
-381.85,1597571034.3125
-353.47,1597571034.328125
-316.12,1597571034.34375
-280.59,1597571034.359375
-255.14,1597571034.375
-243.49,1597571034.390625
-244.81,1597571034.40625
-255.36,1597571034.421875
-270.61,1597571034.4375
-286.68,1597571034.453125
-300.88,1597571034.46875
-311.36,1597571034.484375
-316.75,1597571034.5
-316.19,1597571034.515625
-309.5,1597571034.53125
-297.55,1597571034.546875
-282.18,1597571034.5625
-265.97,1597571034.578125
-251.47,1597571034.59375
-240.32,1597571034.609375
-232.71,1597571034.625
-227.55,1597571034.640625
-222.93,1597571034.65625
-217.07,1597571034.671875
-209.08,1597571034.6875
-199.41,1597571034.703125
-189.53,1597571034.71875
-181.22,1597571034.734375
-175.6,1597571034.75
-172.49,1597571034.765625
-170.36,1597571034.78125
-166.82,1597571034.796875
-159.64,1597571034.8125
-147.57,1597571034.828125
-130.98,1597571034.84375
-111.67,1597571034.859375
-92.17,1597571034.875
-74.86,1597571034.890625
-61.17,1597571034.90625
-51.28,1597571034.921875
-44.35,1597571034.9375
-39.01,1597571034.953125
-34.09,1597571034.96875
-29.03,1597571034.984375
-24.03,1597571035.0
-19.82,1597571035.015625
-17.26,1597571035.03125
-16.81,1597571035.046875
-18.32,1597571035.0625
-20.96,1597571035.078125
-23.55,1597571035.09375
-25.02,1597571035.109375
-24.72,1597571035.125
-22.74,1597571035.140625
-19.71,1597571035.15625
-16.66,1597571035.171875
-14.57,1597571035.1875
-14.07,1597571035.203125
-14.96,1597571035.21875
-15.9,1597571035.234375
-14.18,1597571035.25
-5.97,1597571035.265625
12.9,1597571035.28125
45.38,1597571035.296875
91.69,1597571035.3125
148.18,1597571035.328125
207.58,1597571035.34375
260.68,1597571035.359375
298.87,1597571035.375
316.6,1597571035.390625
312.63,1597571035.40625
289.7,1597571035.421875
252.93,1597571035.4375
207.91,1597571035.453125
159.3,1597571035.46875
110.56,1597571035.484375
64.39,1597571035.5
23.25,1597571035.515625
-10.59,1597571035.53125
-35.45,1597571035.546875
-51.03,1597571035.5625
-58.71,1597571035.578125
-61.29,1597571035.59375
-62.08,1597571035.609375
-63.78,1597571035.625
-67.89,1597571035.640625
-74.43,1597571035.65625
-82.35,1597571035.671875
-90.18,1597571035.6875
-96.56,1597571035.703125
-100.53,1597571035.71875
-101.53,1597571035.734375
-99.35,1597571035.75
-93.91,1597571035.765625
-85.26,1597571035.78125
-73.57,1597571035.796875
-59.28,1597571035.8125
-43.15,1597571035.828125
-26.31,1597571035.84375
-10.12,1597571035.859375
4.15,1597571035.875
15.62,1597571035.890625
24.07,1597571035.90625
29.87,1597571035.921875
33.8,1597571035.9375
36.66,1597571035.953125
39.04,1597571035.96875
41.14,1597571035.984375
43.02,1597571036.0
44.62,1597571036.015625
46.06,1597571036.03125
47.47,1597571036.046875
48.92,1597571036.0625
50.42,1597571036.078125
51.86,1597571036.09375
53.17,1597571036.109375
54.34,1597571036.125
55.47,1597571036.140625
56.54,1597571036.15625
57.42,1597571036.171875
57.85,1597571036.1875
57.63,1597571036.203125
56.75,1597571036.21875
55.46,1597571036.234375
54.1,1597571036.25
52.88,1597571036.265625
51.71,1597571036.28125
50.26,1597571036.296875
48.17,1597571036.3125
45.29,1597571036.328125
41.79,1597571036.34375
38.07,1597571036.359375
34.43,1597571036.375
31.01,1597571036.390625
27.68,1597571036.40625
24.21,1597571036.421875
20.41,1597571036.4375
16.2,1597571036.453125
11.65,1597571036.46875
6.91,1597571036.484375
2.18,1597571036.5
-2.29,1597571036.515625
-6.23,1597571036.53125
-9.55,1597571036.546875
-12.4,1597571036.5625
-15.18,1597571036.578125
-18.57,1597571036.59375
-23.18,1597571036.609375
-29.24,1597571036.625
-36.38,1597571036.640625
-43.59,1597571036.65625
-49.48,1597571036.671875
-52.73,1597571036.6875
-52.49,1597571036.703125
-48.59,1597571036.71875
-41.47,1597571036.734375
-31.89,1597571036.75
-20.81,1597571036.765625
-9.13,1597571036.78125
2.26,1597571036.796875
12.56,1597571036.8125
21.06,1597571036.828125
27.34,1597571036.84375
31.41,1597571036.859375
33.69,1597571036.875
34.93,1597571036.890625
35.87,1597571036.90625
37.02,1597571036.921875
38.52,1597571036.9375
40.3,1597571036.953125
42.11,1597571036.96875
43.8,1597571036.984375
45.27,1597571037.0
46.47,1597571037.015625
47.48,1597571037.03125
48.36,1597571037.046875
49.19,1597571037.0625
50.03,1597571037.078125
50.85,1597571037.09375
51.47,1597571037.109375
51.7,1597571037.125
51.38,1597571037.140625
50.47,1597571037.15625
49.08,1597571037.171875
47.39,1597571037.1875
45.6,1597571037.203125
43.8,1597571037.21875
41.94,1597571037.234375
39.91,1597571037.25
37.58,1597571037.265625
34.92,1597571037.28125
31.95,1597571037.296875
28.81,1597571037.3125
25.6,1597571037.328125
22.41,1597571037.34375
19.26,1597571037.359375
16.13,1597571037.375
12.99,1597571037.390625
9.78,1597571037.40625
6.46,1597571037.421875
2.96,1597571037.4375
-0.66,1597571037.453125
-4.27,1597571037.46875
-7.68,1597571037.484375
-10.74,1597571037.5
-13.48,1597571037.515625
-16.21,1597571037.53125
-19.46,1597571037.546875
-23.69,1597571037.5625
-29.07,1597571037.578125
-35.25,1597571037.59375
-41.47,1597571037.609375
-46.72,1597571037.625
-50.08,1597571037.640625
-50.87,1597571037.65625
-48.74,1597571037.671875
-43.67,1597571037.6875
-36.01,1597571037.703125
-26.43,1597571037.71875
-15.9,1597571037.734375
-5.53,1597571037.75
3.7,1597571037.765625
11.16,1597571037.78125
16.74,1597571037.796875
20.71,1597571037.8125
23.5,1597571037.828125
25.5,1597571037.84375
26.97,1597571037.859375
28.09,1597571037.875
29.07,1597571037.890625
30.12,1597571037.90625
31.42,1597571037.921875
32.99,1597571037.9375
34.63,1597571037.953125
36.03,1597571037.96875
36.89,1597571037.984375
37.11,1597571038.0
36.8,1597571038.015625
36.23,1597571038.03125
35.7,1597571038.046875
35.39,1597571038.0625
35.36,1597571038.078125
35.48,1597571038.09375
35.49,1597571038.109375
35.09,1597571038.125
34.02,1597571038.140625
32.22,1597571038.15625
29.9,1597571038.171875
27.48,1597571038.1875
25.47,1597571038.203125
24.18,1597571038.21875
23.56,1597571038.234375
23.26,1597571038.25
22.74,1597571038.265625
21.62,1597571038.28125
19.74,1597571038.296875
17.3,1597571038.3125
14.57,1597571038.328125
11.83,1597571038.34375
9.2,1597571038.359375
6.68,1597571038.375
4.21,1597571038.390625
1.76,1597571038.40625
-0.66,1597571038.421875
-3.07,1597571038.4375
-5.49,1597571038.453125
-7.99,1597571038.46875
-10.56,1597571038.484375
-13.15,1597571038.5
-15.73,1597571038.515625
-18.29,1597571038.53125
-20.98,1597571038.546875
-23.99,1597571038.5625
-27.48,1597571038.578125
-31.38,1597571038.59375
-35.34,1597571038.609375
-38.76,1597571038.625
-40.92,1597571038.640625
-41.19,1597571038.65625
-39.22,1597571038.671875
-35.04,1597571038.6875
-29.01,1597571038.703125
-21.72,1597571038.71875
-13.87,1597571038.734375
-6.11,1597571038.75
1.03,1597571038.765625
7.19,1597571038.78125
12.14,1597571038.796875
15.83,1597571038.8125
18.31,1597571038.828125
19.79,1597571038.84375
20.59,1597571038.859375
21.07,1597571038.875
21.5,1597571038.890625
22.05,1597571038.90625
22.69,1597571038.921875
23.28,1597571038.9375
23.65,1597571038.953125
23.69,1597571038.96875
23.43,1597571038.984375
22.99,1597571039.0
22.46,1597571039.015625
21.92,1597571039.03125
21.34,1597571039.046875
20.67,1597571039.0625
19.86,1597571039.078125
18.94,1597571039.09375
18.04,1597571039.109375
17.24,1597571039.125
16.58,1597571039.140625
15.98,1597571039.15625
15.27,1597571039.171875
14.29,1597571039.1875
12.92,1597571039.203125
11.21,1597571039.21875
9.31,1597571039.234375
7.43,1597571039.25
5.71,1597571039.265625
4.19,1597571039.28125
2.78,1597571039.296875
1.38,1597571039.3125
-0.09,1597571039.328125
-1.58,1597571039.34375
-2.97,1597571039.359375
-4.16,1597571039.375
-5.12,1597571039.390625
-5.96,1597571039.40625
-6.84,1597571039.421875
-7.91,1597571039.4375
-9.27,1597571039.453125
-10.88,1597571039.46875
-12.63,1597571039.484375
-14.35,1597571039.5
-15.94,1597571039.515625
-17.35,1597571039.53125
-18.66,1597571039.546875
-19.99,1597571039.5625
-21.54,1597571039.578125
-23.48,1597571039.59375
-25.94,1597571039.609375
-28.89,1597571039.625
-32.12,1597571039.640625
-35.23,1597571039.65625
-37.64,1597571039.671875
-38.79,1597571039.6875
-38.2,1597571039.703125
-35.65,1597571039.71875
-31.25,1597571039.734375
-25.41,1597571039.75
-18.74,1597571039.765625
-11.93,1597571039.78125
-5.59,1597571039.796875
-0.19,1597571039.8125
4.03,1597571039.828125
7.01,1597571039.84375
8.9,1597571039.859375
9.94,1597571039.875
10.46,1597571039.890625
10.73,1597571039.90625
10.96,1597571039.921875
11.27,1597571039.9375
11.67,1597571039.953125
12.11,1597571039.96875
12.54,1597571039.984375
12.88,1597571040.0
13.12,1597571040.015625
13.28,1597571040.03125
13.41,1597571040.046875
13.57,1597571040.0625
13.82,1597571040.078125
14.09,1597571040.09375
14.3,1597571040.109375
14.31,1597571040.125
14.04,1597571040.140625
13.48,1597571040.15625
12.73,1597571040.171875
11.91,1597571040.1875
11.15,1597571040.203125
10.5,1597571040.21875
9.97,1597571040.234375
9.56,1597571040.25
9.27,1597571040.265625
9.13,1597571040.28125
9.13,1597571040.296875
9.15,1597571040.3125
9.04,1597571040.328125
8.59,1597571040.34375
7.67,1597571040.359375
6.26,1597571040.375
4.54,1597571040.390625
2.72,1597571040.40625
0.94,1597571040.421875
-0.73,1597571040.4375
-2.35,1597571040.453125
-4.07,1597571040.46875
-5.99,1597571040.484375
-8.1,1597571040.5
-10.35,1597571040.515625
-12.62,1597571040.53125
-14.81,1597571040.546875
-16.89,1597571040.5625
-18.89,1597571040.578125
-20.86,1597571040.59375
-22.89,1597571040.609375
-25.04,1597571040.625
-27.33,1597571040.640625
-29.75,1597571040.65625
-32.18,1597571040.671875
-34.4,1597571040.6875
-36.05,1597571040.703125
-36.78,1597571040.71875
-36.26,1597571040.734375
-34.39,1597571040.75
-31.23,1597571040.765625
-27.1,1597571040.78125
-22.41,1597571040.796875
-17.59,1597571040.8125
-12.98,1597571040.828125
-8.77,1597571040.84375
-5.04,1597571040.859375
-1.89,1597571040.875
0.56,1597571040.890625
2.13,1597571040.90625
2.68,1597571040.921875
2.16,1597571040.9375
0.83,1597571040.953125
-0.85,1597571040.96875
-2.3,1597571040.984375
-3.01,1597571041.0
-2.82,1597571041.015625
-1.99,1597571041.03125
-1.14,1597571041.046875
-1.01,1597571041.0625
-2.07,1597571041.078125
-4.27,1597571041.09375
-7.1,1597571041.109375
-9.73,1597571041.125
-11.42,1597571041.140625
-11.95,1597571041.15625
-11.69,1597571041.171875
-11.51,1597571041.1875
-12.33,1597571041.203125
-14.75,1597571041.21875
-18.64,1597571041.234375
-23.31,1597571041.25
-27.71,1597571041.265625
-30.93,1597571041.28125
-32.51,1597571041.296875
-32.6,1597571041.3125
-31.82,1597571041.328125
-31.03,1597571041.34375
-31.01,1597571041.359375
-32.28,1597571041.375
-34.84,1597571041.390625
-37.87,1597571041.40625
-39.52,1597571041.421875
-36.99,1597571041.4375
-27.16,1597571041.453125
-7.64,1597571041.46875
21.95,1597571041.484375
59.25,1597571041.5
99.29,1597571041.515625
135.64,1597571041.53125
162.25,1597571041.546875
175.02,1597571041.5625
172.7,1597571041.578125
156.73,1597571041.59375
130.32,1597571041.609375
97.29,1597571041.625
61.34,1597571041.640625
25.59,1597571041.65625
-7.23,1597571041.671875
-34.79,1597571041.6875
-55.19,1597571041.703125
-67.29,1597571041.71875
-71.07,1597571041.734375
-67.78,1597571041.75
-59.74,1597571041.765625
-49.8,1597571041.78125
-40.48,1597571041.796875
-33.37,1597571041.8125
-28.84,1597571041.828125
-26.21,1597571041.84375
-24.39,1597571041.859375
-22.46,1597571041.875
-20.14,1597571041.890625
-17.76,1597571041.90625
-15.85,1597571041.921875
-14.76,1597571041.9375
-14.3,1597571041.953125
-13.91,1597571041.96875
-12.93,1597571041.984375
-11.01,1597571042.0
-8.35,1597571042.015625
-5.5,1597571042.03125
-3.04,1597571042.046875
-1.34,1597571042.0625
-0.34,1597571042.078125
0.3,1597571042.09375
0.97,1597571042.109375
1.9,1597571042.125
3.13,1597571042.140625
4.51,1597571042.15625
5.8,1597571042.171875
6.82,1597571042.1875
7.47,1597571042.203125
7.74,1597571042.21875
7.69,1597571042.234375
7.48,1597571042.25
7.24,1597571042.265625
7.08,1597571042.28125
6.97,1597571042.296875
6.8,1597571042.3125
6.35,1597571042.328125
5.46,1597571042.34375
4.07,1597571042.359375
2.31,1597571042.375
0.38,1597571042.390625
-1.51,1597571042.40625
-3.2,1597571042.421875
-4.7,1597571042.4375
-6.05,1597571042.453125
-7.38,1597571042.46875
-8.8,1597571042.484375
-10.34,1597571042.5
-11.92,1597571042.515625
-13.45,1597571042.53125
-14.82,1597571042.546875
-16.05,1597571042.5625
-17.31,1597571042.578125
-18.81,1597571042.59375
-20.79,1597571042.609375
-23.37,1597571042.625
-26.49,1597571042.640625
-29.93,1597571042.65625
-33.26,1597571042.671875
-35.97,1597571042.6875
-37.49,1597571042.703125
-37.35,1597571042.71875
-35.29,1597571042.734375
-31.39,1597571042.75
-26.0,1597571042.765625
-19.75,1597571042.78125
-13.37,1597571042.796875
-7.5,1597571042.8125
-2.63,1597571042.828125
1.04,1597571042.84375
3.55,1597571042.859375
5.13,1597571042.875
6.16,1597571042.890625
7.01,1597571042.90625
7.93,1597571042.921875
9.02,1597571042.9375
10.23,1597571042.953125
11.42,1597571042.96875
12.54,1597571042.984375
13.56,1597571043.0
14.52,1597571043.015625
15.42,1597571043.03125
16.23,1597571043.046875
16.89,1597571043.0625
17.4,1597571043.078125
17.79,1597571043.09375
18.1,1597571043.109375
18.36,1597571043.125
18.51,1597571043.140625
18.4,1597571043.15625
17.9,1597571043.171875
16.92,1597571043.1875
15.54,1597571043.203125
13.86,1597571043.21875
12.1,1597571043.234375
10.4,1597571043.25
8.93,1597571043.265625
7.79,1597571043.28125
7.04,1597571043.296875
6.62,1597571043.3125
6.35,1597571043.328125
5.95,1597571043.34375
5.15,1597571043.359375
3.8,1597571043.375
2.02,1597571043.390625
0.05,1597571043.40625
-1.79,1597571043.421875
-3.37,1597571043.4375
-4.82,1597571043.453125
-6.42,1597571043.46875
-8.45,1597571043.484375
-11.02,1597571043.5
-13.96,1597571043.515625
-16.94,1597571043.53125
-19.68,1597571043.546875
-22.09,1597571043.5625
-24.3,1597571043.578125
-26.6,1597571043.59375
-29.29,1597571043.609375
-32.58,1597571043.625
-36.45,1597571043.640625
-40.71,1597571043.65625
-44.92,1597571043.671875
-48.5,1597571043.6875
-50.75,1597571043.703125
-51.05,1597571043.71875
-49.01,1597571043.734375
-44.69,1597571043.75
-38.6,1597571043.765625
-31.5,1597571043.78125
-24.21,1597571043.796875
-17.31,1597571043.8125
-11.07,1597571043.828125
-5.5,1597571043.84375
-0.54,1597571043.859375
3.79,1597571043.875
7.36,1597571043.890625
10.08,1597571043.90625
11.97,1597571043.921875
13.25,1597571043.9375
14.33,1597571043.953125
15.54,1597571043.96875
17.02,1597571043.984375
18.66,1597571044.0
20.17,1597571044.015625
21.32,1597571044.03125
22.08,1597571044.046875
22.66,1597571044.0625
23.4,1597571044.078125
24.61,1597571044.09375
26.33,1597571044.109375
28.34,1597571044.125
30.17,1597571044.140625
31.31,1597571044.15625
31.42,1597571044.171875
30.4,1597571044.1875
28.43,1597571044.203125
25.95,1597571044.21875
23.4,1597571044.234375
21.07,1597571044.25
19.01,1597571044.265625
17.02,1597571044.28125
14.83,1597571044.296875
12.27,1597571044.3125
9.45,1597571044.328125
6.7,1597571044.34375
4.35,1597571044.359375
2.54,1597571044.375
1.07,1597571044.390625
-0.47,1597571044.40625
-2.49,1597571044.421875
-5.14,1597571044.4375
-8.24,1597571044.453125
-11.45,1597571044.46875
-14.42,1597571044.484375
-17.07,1597571044.5
-19.53,1597571044.515625
-22.09,1597571044.53125
-25.01,1597571044.546875
-28.46,1597571044.5625
-32.48,1597571044.578125
-36.98,1597571044.59375
-41.72,1597571044.609375
-46.21,1597571044.625
-49.74,1597571044.640625
-51.42,1597571044.65625
-50.51,1597571044.671875
-46.66,1597571044.6875
-40.13,1597571044.703125
-31.75,1597571044.71875
-22.63,1597571044.734375
-13.88,1597571044.75
-6.21,1597571044.765625
0.16,1597571044.78125
5.38,1597571044.796875
9.76,1597571044.8125
13.62,1597571044.828125
17.13,1597571044.84375
20.31,1597571044.859375
23.09,1597571044.875
25.42,1597571044.890625
27.21,1597571044.90625
28.4,1597571044.921875
28.99,1597571044.9375
29.06,1597571044.953125
28.81,1597571044.96875
28.44,1597571044.984375
28.23,1597571045.0
28.33,1597571045.015625
28.76,1597571045.03125
29.42,1597571045.046875
30.16,1597571045.0625
30.85,1597571045.078125
31.39,1597571045.09375
31.67,1597571045.109375
31.63,1597571045.125
31.16,1597571045.140625
30.28,1597571045.15625
29.08,1597571045.171875
27.74,1597571045.1875
26.45,1597571045.203125
25.29,1597571045.21875
24.22,1597571045.234375
23.13,1597571045.25
21.94,1597571045.265625
20.59,1597571045.28125
19.14,1597571045.296875
17.6,1597571045.3125
15.95,1597571045.328125
14.18,1597571045.34375
12.24,1597571045.359375
10.21,1597571045.375
8.2,1597571045.390625
6.32,1597571045.40625
4.58,1597571045.421875
2.86,1597571045.4375
0.92,1597571045.453125
-1.49,1597571045.46875
-4.53,1597571045.484375
-8.12,1597571045.5
-12.01,1597571045.515625
-15.81,1597571045.53125
-19.19,1597571045.546875
-21.97,1597571045.5625
-24.28,1597571045.578125
-26.49,1597571045.59375
-29.1,1597571045.609375
-32.54,1597571045.625
-37.01,1597571045.640625
-42.36,1597571045.65625
-47.98,1597571045.671875
-52.99,1597571045.6875
-56.34,1597571045.703125
-57.12,1597571045.71875
-54.79,1597571045.734375
-49.32,1597571045.75
-41.28,1597571045.765625
-31.63,1597571045.78125
-21.55,1597571045.796875
-12.1,1597571045.8125
-4.07,1597571045.828125
2.18,1597571045.84375
6.64,1597571045.859375
9.55,1597571045.875
11.39,1597571045.890625
12.69,1597571045.90625
13.95,1597571045.921875
15.48,1597571045.9375
17.32,1597571045.953125
19.23,1597571045.96875
20.82,1597571045.984375
21.77,1597571046.0
22.0,1597571046.015625
21.73,1597571046.03125
21.42,1597571046.046875
21.57,1597571046.0625
22.46,1597571046.078125
24.04,1597571046.09375
25.93,1597571046.109375
27.61,1597571046.125
28.65,1597571046.140625
28.88,1597571046.15625
28.43,1597571046.171875
27.6,1597571046.1875
26.68,1597571046.203125
25.79,1597571046.21875
24.86,1597571046.234375
23.72,1597571046.25
22.23,1597571046.265625
20.45,1597571046.28125
18.51,1597571046.296875
16.58,1597571046.3125
14.73,1597571046.328125
12.85,1597571046.34375
10.77,1597571046.359375
8.33,1597571046.375
5.5,1597571046.390625
2.42,1597571046.40625
-0.66,1597571046.421875
-3.55,1597571046.4375
-6.11,1597571046.453125
-8.36,1597571046.46875
-10.45,1597571046.484375
-12.56,1597571046.5
-14.9,1597571046.515625
-17.67,1597571046.53125
-21.07,1597571046.546875
-25.19,1597571046.5625
-29.97,1597571046.578125
-35.11,1597571046.59375
-39.98,1597571046.609375
-43.76,1597571046.625
-45.54,1597571046.640625
-44.66,1597571046.65625
-40.92,1597571046.671875
-34.74,1597571046.6875
-26.95,1597571046.703125
-18.61,1597571046.71875
-10.67,1597571046.734375
-3.71,1597571046.75
2.06,1597571046.765625
6.72,1597571046.78125
10.49,1597571046.796875
13.68,1597571046.8125
16.54,1597571046.828125
19.3,1597571046.84375
22.02,1597571046.859375
24.56,1597571046.875
26.62,1597571046.890625
27.89,1597571046.90625
28.25,1597571046.921875
27.86,1597571046.9375
27.1,1597571046.953125
26.36,1597571046.96875
25.88,1597571046.984375
25.69,1597571047.0
25.72,1597571047.015625
25.97,1597571047.03125
26.53,1597571047.046875
27.51,1597571047.0625
28.83,1597571047.078125
30.16,1597571047.09375
31.04,1597571047.109375
31.1,1597571047.125
30.26,1597571047.140625
28.79,1597571047.15625
27.14,1597571047.171875
25.63,1597571047.1875
24.43,1597571047.203125
23.48,1597571047.21875
22.59,1597571047.234375
21.63,1597571047.25
20.51,1597571047.265625
19.2,1597571047.28125
17.65,1597571047.296875
15.82,1597571047.3125
13.68,1597571047.328125
11.29,1597571047.34375
8.77,1597571047.359375
6.24,1597571047.375
3.77,1597571047.390625
1.33,1597571047.40625
-1.21,1597571047.421875
-3.99,1597571047.4375
-7.1,1597571047.453125
-10.5,1597571047.46875
-14.05,1597571047.484375
-17.52,1597571047.5
-20.68,1597571047.515625
-23.39,1597571047.53125
-25.61,1597571047.546875
-27.49,1597571047.5625
-29.3,1597571047.578125
-31.4,1597571047.59375
-34.16,1597571047.609375
-37.82,1597571047.625
-42.44,1597571047.640625
-47.76,1597571047.65625
-53.17,1597571047.671875
-57.73,1597571047.6875
-60.32,1597571047.703125
-59.95,1597571047.71875
-56.0,1597571047.734375
-48.53,1597571047.75
-38.28,1597571047.765625
-26.49,1597571047.78125
-14.61,1597571047.796875
-3.9,1597571047.8125
4.85,1597571047.828125
11.37,1597571047.84375
15.87,1597571047.859375
18.85,1597571047.875
20.8,1597571047.890625
22.17,1597571047.90625
23.23,1597571047.921875
24.17,1597571047.9375
25.05,1597571047.953125
25.9,1597571047.96875
26.65,1597571047.984375
27.2,1597571048.0
27.44,1597571048.015625
27.37,1597571048.03125
27.09,1597571048.046875
26.81,1597571048.0625
26.74,1597571048.078125
26.99,1597571048.09375
27.48,1597571048.109375
28.01,1597571048.125
28.33,1597571048.140625
28.33,1597571048.15625
27.99,1597571048.171875
27.37,1597571048.1875
26.57,1597571048.203125
25.59,1597571048.21875
24.39,1597571048.234375
22.91,1597571048.25
21.18,1597571048.265625
19.24,1597571048.28125
17.13,1597571048.296875
14.87,1597571048.3125
12.48,1597571048.328125
9.96,1597571048.34375
7.37,1597571048.359375
4.83,1597571048.375
2.43,1597571048.390625
0.24,1597571048.40625
-1.72,1597571048.421875
-3.52,1597571048.4375
-5.34,1597571048.453125
-7.47,1597571048.46875
-10.25,1597571048.484375
-14.02,1597571048.5
-18.9,1597571048.515625
-24.64,1597571048.53125
-30.6,1597571048.546875
-35.94,1597571048.5625
-40.01,1597571048.578125
-42.73,1597571048.59375
-44.76,1597571048.609375
-47.35,1597571048.625
-51.75,1597571048.640625
-58.48,1597571048.65625
-66.92,1597571048.671875
-75.25,1597571048.6875
-81.03,1597571048.703125
-82.17,1597571048.71875
-77.77,1597571048.734375
-68.57,1597571048.75
-56.7,1597571048.765625
-44.84,1597571048.78125
-35.23,1597571048.796875
-28.87,1597571048.8125
-25.37,1597571048.828125
-23.33,1597571048.84375
-21.19,1597571048.859375
-17.85,1597571048.875
-13.08,1597571048.890625
-7.48,1597571048.90625
-2.14,1597571048.921875
1.75,1597571048.9375
3.44,1597571048.953125
3.05,1597571048.96875
1.96,1597571048.984375
3.05,1597571049.0
10.25,1597571049.015625
27.56,1597571049.03125
57.44,1597571049.046875
99.26,1597571049.0625
148.6,1597571049.078125
197.86,1597571049.09375
238.1,1597571049.109375
261.74,1597571049.125
264.66,1597571049.140625
247.17,1597571049.15625
213.43,1597571049.171875
169.74,1597571049.1875
122.5,1597571049.203125
76.8,1597571049.21875
35.92,1597571049.234375
1.63,1597571049.25
-25.21,1597571049.265625
-44.23,1597571049.28125
-55.55,1597571049.296875
-60.09,1597571049.3125
-59.66,1597571049.328125
-56.73,1597571049.34375
-53.71,1597571049.359375
-52.27,1597571049.375
-52.78,1597571049.390625
-54.38,1597571049.40625
-55.67,1597571049.421875
-55.44,1597571049.4375
-53.4,1597571049.453125
-50.26,1597571049.46875
-47.28,1597571049.484375
-45.63,1597571049.5
-45.82,1597571049.515625
-47.48,1597571049.53125
-49.72,1597571049.546875
-51.53,1597571049.5625
-52.28,1597571049.578125
-51.95,1597571049.59375
-51.09,1597571049.609375
-50.52,1597571049.625
-51.03,1597571049.640625
-53.03,1597571049.65625
-56.48,1597571049.671875
-60.78,1597571049.6875
-64.96,1597571049.703125
-67.82,1597571049.71875
-68.26,1597571049.734375
-65.53,1597571049.75
-59.44,1597571049.765625
-50.37,1597571049.78125
-39.16,1597571049.796875
-26.97,1597571049.8125
-14.93,1597571049.828125
-4.08,1597571049.84375
4.92,1597571049.859375
11.74,1597571049.875
16.43,1597571049.890625
19.37,1597571049.90625
21.06,1597571049.921875
22.06,1597571049.9375
22.82,1597571049.953125
23.65,1597571049.96875
24.66,1597571049.984375
25.82,1597571050.0
26.99,1597571050.015625
28.0,1597571050.03125
28.73,1597571050.046875
29.16,1597571050.0625
29.35,1597571050.078125
29.5,1597571050.09375
29.77,1597571050.109375
30.28,1597571050.125
30.98,1597571050.140625
31.66,1597571050.15625
32.03,1597571050.171875
31.84,1597571050.1875
30.97,1597571050.203125
29.54,1597571050.21875
27.81,1597571050.234375
26.05,1597571050.25
24.37,1597571050.265625
22.75,1597571050.28125
20.99,1597571050.296875
18.94,1597571050.3125
16.57,1597571050.328125
14.0,1597571050.34375
11.42,1597571050.359375
8.94,1597571050.375
6.5,1597571050.390625
3.95,1597571050.40625
1.12,1597571050.421875
-1.99,1597571050.4375
-5.26,1597571050.453125
-8.44,1597571050.46875
-11.36,1597571050.484375
-13.98,1597571050.5
-16.37,1597571050.515625
-18.71,1597571050.53125
-21.19,1597571050.546875
-23.95,1597571050.5625
-27.15,1597571050.578125
-30.9,1597571050.59375
-35.3,1597571050.609375
-40.18,1597571050.625
-45.06,1597571050.640625
-49.15,1597571050.65625
-51.44,1597571050.671875
-51.07,1597571050.6875
-47.57,1597571050.703125
-41.06,1597571050.71875
-32.27,1597571050.734375
-22.31,1597571050.75
-12.4,1597571050.765625
-3.53,1597571050.78125
3.74,1597571050.796875
9.37,1597571050.8125
13.62,1597571050.828125
16.93,1597571050.84375
19.63,1597571050.859375
21.87,1597571050.875
23.62,1597571050.890625
24.87,1597571050.90625
25.68,1597571050.921875
26.29,1597571050.9375
26.92,1597571050.953125
27.69,1597571050.96875
28.5,1597571050.984375
29.1,1597571051.0
29.27,1597571051.015625
29.0,1597571051.03125
28.47,1597571051.046875
27.99,1597571051.0625
27.78,1597571051.078125
27.84,1597571051.09375
27.96,1597571051.109375
27.85,1597571051.125
27.33,1597571051.140625
26.43,1597571051.15625
25.3,1597571051.171875
24.15,1597571051.1875
23.11,1597571051.203125
22.23,1597571051.21875
21.43,1597571051.234375
20.62,1597571051.25
19.66,1597571051.265625
18.43,1597571051.28125
16.85,1597571051.296875
14.96,1597571051.3125
12.89,1597571051.328125
10.91,1597571051.34375
9.28,1597571051.359375
8.17,1597571051.375
7.52,1597571051.390625
7.09,1597571051.40625
6.53,1597571051.421875
5.54,1597571051.4375
3.99,1597571051.453125
1.98,1597571051.46875
-0.24,1597571051.484375
-2.46,1597571051.5
-4.53,1597571051.515625
-6.4,1597571051.53125
-8.11,1597571051.546875
-9.78,1597571051.5625
-11.52,1597571051.578125
-13.44,1597571051.59375
-15.65,1597571051.609375
-18.26,1597571051.625
-21.3,1597571051.640625
-24.66,1597571051.65625
-28.16,1597571051.671875
-31.59,1597571051.6875
-34.84,1597571051.703125
-38.05,1597571051.71875
-41.48,1597571051.734375
-45.43,1597571051.75
-49.93,1597571051.765625
-54.57,1597571051.78125
-58.48,1597571051.796875
-60.55,1597571051.8125
-59.78,1597571051.828125
-55.62,1597571051.84375
-48.21,1597571051.859375
-38.32,1597571051.875
-27.18,1597571051.890625
-16.07,1597571051.90625
-6.09,1597571051.921875
2.07,1597571051.9375
8.15,1597571051.953125
12.2,1597571051.96875
14.54,1597571051.984375
15.62,1597571052.0
15.96,1597571052.015625
16.06,1597571052.03125
16.28,1597571052.046875
16.87,1597571052.0625
17.78,1597571052.078125
18.84,1597571052.09375
19.78,1597571052.109375
20.39,1597571052.125
20.58,1597571052.140625
20.44,1597571052.15625
20.18,1597571052.171875
20.06,1597571052.1875
20.28,1597571052.203125
20.95,1597571052.21875
22.01,1597571052.234375
23.19,1597571052.25
24.11,1597571052.265625
24.4,1597571052.28125
23.85,1597571052.296875
22.5,1597571052.3125
20.66,1597571052.328125
18.67,1597571052.34375
16.83,1597571052.359375
15.24,1597571052.375
13.81,1597571052.390625
12.37,1597571052.40625
10.73,1597571052.421875
8.79,1597571052.4375
6.51,1597571052.453125
3.95,1597571052.46875
1.25,1597571052.484375
-1.41,1597571052.5
-3.86,1597571052.515625
-6.03,1597571052.53125
-8.02,1597571052.546875
-10.08,1597571052.5625
-12.45,1597571052.578125
-15.25,1597571052.59375
-18.39,1597571052.609375
-21.64,1597571052.625
-24.72,1597571052.640625
-27.47,1597571052.65625
-29.87,1597571052.671875
-32.03,1597571052.6875
-34.13,1597571052.703125
-36.38,1597571052.71875
-38.93,1597571052.734375
-41.8,1597571052.75
-44.76,1597571052.765625
-47.21,1597571052.78125
-48.23,1597571052.796875
-46.88,1597571052.8125
-42.56,1597571052.828125
-35.34,1597571052.84375
-26.09,1597571052.859375
-16.13,1597571052.875
-6.85,1597571052.890625
0.83,1597571052.90625
6.62,1597571052.921875
10.76,1597571052.9375
13.76,1597571052.953125
16.09,1597571052.96875
18.03,1597571052.984375
19.72,1597571053.0
21.2,1597571053.015625
22.56,1597571053.03125
23.86,1597571053.046875
25.07,1597571053.0625
26.08,1597571053.078125
26.75,1597571053.09375
26.95,1597571053.109375
26.73,1597571053.125
26.23,1597571053.140625
25.69,1597571053.15625
25.29,1597571053.171875
25.12,1597571053.1875
25.18,1597571053.203125
25.35,1597571053.21875
25.5,1597571053.234375
25.51,1597571053.25
25.24,1597571053.265625
24.65,1597571053.28125
23.69,1597571053.296875
22.4,1597571053.3125
20.84,1597571053.328125
19.11,1597571053.34375
17.27,1597571053.359375
15.39,1597571053.375
13.47,1597571053.390625
11.52,1597571053.40625
9.56,1597571053.421875
7.62,1597571053.4375
5.71,1597571053.453125
3.8,1597571053.46875
1.87,1597571053.484375
-0.1,1597571053.5
-2.05,1597571053.515625
-3.92,1597571053.53125
-5.61,1597571053.546875
-7.14,1597571053.5625
-8.63,1597571053.578125
-10.29,1597571053.59375
-12.28,1597571053.609375
-14.71,1597571053.625
-17.47,1597571053.640625
-20.36,1597571053.65625
-23.18,1597571053.671875
-25.75,1597571053.6875
-28.07,1597571053.703125
-30.28,1597571053.71875
-32.62,1597571053.734375
-35.43,1597571053.75
-39.0,1597571053.765625
-43.37,1597571053.78125
-48.23,1597571053.796875
-52.81,1597571053.8125
-56.02,1597571053.828125
-56.77,1597571053.84375
-54.35,1597571053.859375
-48.73,1597571053.875
-40.6,1597571053.890625
-31.15,1597571053.90625
-21.65,1597571053.921875
-13.14,1597571053.9375
-6.17,1597571053.953125
-0.87,1597571053.96875
3.01,1597571053.984375
5.8,1597571054.0
7.87,1597571054.015625
9.55,1597571054.03125
11.09,1597571054.046875
12.68,1597571054.0625
14.36,1597571054.078125
16.05,1597571054.09375
17.53,1597571054.109375
18.59,1597571054.125
19.07,1597571054.140625
19.05,1597571054.15625
18.75,1597571054.171875
18.46,1597571054.1875
18.45,1597571054.203125
18.8,1597571054.21875
19.4,1597571054.234375
20.08,1597571054.25
20.65,1597571054.265625
20.98,1597571054.28125
20.98,1597571054.296875
20.64,1597571054.3125
19.98,1597571054.328125
19.03,1597571054.34375
17.9,1597571054.359375
16.73,1597571054.375
15.62,1597571054.390625
14.59,1597571054.40625
13.55,1597571054.421875
12.42,1597571054.4375
11.12,1597571054.453125
9.66,1597571054.46875
8.12,1597571054.484375
6.52,1597571054.5
4.81,1597571054.515625
2.86,1597571054.53125
0.63,1597571054.546875
-1.79,1597571054.5625
-4.15,1597571054.578125
-6.2,1597571054.59375
-7.88,1597571054.609375
-9.36,1597571054.625
-11.05,1597571054.640625
-13.35,1597571054.65625
-16.39,1597571054.671875
-19.98,1597571054.6875
-23.66,1597571054.703125
-26.94,1597571054.71875
-29.53,1597571054.734375
-31.5,1597571054.75
-33.19,1597571054.765625
-35.09,1597571054.78125
-37.69,1597571054.796875
-41.27,1597571054.8125
-45.78,1597571054.828125
-50.8,1597571054.84375
-55.54,1597571054.859375
-58.99,1597571054.875
-60.15,1597571054.890625
-58.3,1597571054.90625
-53.21,1597571054.921875
-45.26,1597571054.9375
-35.39,1597571054.953125
-24.81,1597571054.96875
-14.72,1597571054.984375
-5.97,1597571055.0
0.98,1597571055.015625
6.12,1597571055.03125
9.68,1597571055.046875
12.0,1597571055.0625
13.42,1597571055.078125
14.27,1597571055.09375
14.82,1597571055.109375
15.29,1597571055.125
15.83,1597571055.140625
16.49,1597571055.15625
17.25,1597571055.171875
18.12,1597571055.1875
19.14,1597571055.203125
20.44,1597571055.21875
22.12,1597571055.234375
24.2,1597571055.25
26.54,1597571055.265625
28.93,1597571055.28125
31.13,1597571055.296875
32.98,1597571055.3125
34.37,1597571055.328125
35.18,1597571055.34375
35.36,1597571055.359375
34.87,1597571055.375
33.78,1597571055.390625
32.23,1597571055.40625
30.46,1597571055.421875
28.7,1597571055.4375
27.05,1597571055.453125
25.58,1597571055.46875
24.29,1597571055.484375
23.13,1597571055.5
22.0,1597571055.515625
20.75,1597571055.53125
19.13,1597571055.546875
16.99,1597571055.5625
14.28,1597571055.578125
11.2,1597571055.59375
8.01,1597571055.609375
4.97,1597571055.625
2.21,1597571055.640625
-0.38,1597571055.65625
-2.94,1597571055.671875
-5.54,1597571055.6875
-8.13,1597571055.703125
-10.57,1597571055.71875
-12.75,1597571055.734375
-14.75,1597571055.75
-16.77,1597571055.765625
-19.05,1597571055.78125
-21.69,1597571055.796875
-24.59,1597571055.8125
-27.58,1597571055.828125
-30.52,1597571055.84375
-33.49,1597571055.859375
-36.79,1597571055.875
-40.72,1597571055.890625
-45.37,1597571055.90625
-50.39,1597571055.921875
-54.95,1597571055.9375
-57.98,1597571055.953125
-58.4,1597571055.96875
-55.57,1597571055.984375
-49.51,1597571056.0
-40.9,1597571056.015625
-30.91,1597571056.03125
-20.85,1597571056.046875
-11.76,1597571056.0625
-4.24,1597571056.078125
1.64,1597571056.09375
6.12,1597571056.109375
9.55,1597571056.125
12.24,1597571056.140625
14.36,1597571056.15625
16.03,1597571056.171875
17.38,1597571056.1875
18.58,1597571056.203125
19.79,1597571056.21875
21.1,1597571056.234375
22.47,1597571056.25
23.72,1597571056.265625
24.7,1597571056.28125
25.37,1597571056.296875
25.85,1597571056.3125
26.41,1597571056.328125
27.32,1597571056.34375
28.7,1597571056.359375
30.46,1597571056.375
32.23,1597571056.390625
33.55,1597571056.40625
34.08,1597571056.421875
33.73,1597571056.4375
32.71,1597571056.453125
31.33,1597571056.46875
29.91,1597571056.484375
28.52,1597571056.5
27.11,1597571056.515625
25.48,1597571056.53125
23.48,1597571056.546875
21.06,1597571056.5625
18.26,1597571056.578125
15.2,1597571056.59375
12.01,1597571056.609375
8.79,1597571056.625
5.71,1597571056.640625
2.89,1597571056.65625
0.46,1597571056.671875
-1.52,1597571056.6875
-3.1,1597571056.703125
-4.43,1597571056.71875
-5.63,1597571056.734375
-6.88,1597571056.75
-8.3,1597571056.765625
-10.02,1597571056.78125
-12.11,1597571056.796875
-14.62,1597571056.8125
-17.46,1597571056.828125
-20.41,1597571056.84375
-23.27,1597571056.859375
-25.91,1597571056.875
-28.45,1597571056.890625
-31.17,1597571056.90625
-34.44,1597571056.921875
-38.52,1597571056.9375
-43.48,1597571056.953125
-49.15,1597571056.96875
-55.01,1597571056.984375
-60.32,1597571057.0
-64.09,1597571057.015625
-65.3,1597571057.03125
-63.16,1597571057.046875
-57.42,1597571057.0625
-48.53,1597571057.078125
-37.62,1597571057.09375
-26.21,1597571057.109375
-15.74,1597571057.125
-7.14,1597571057.140625
-0.75,1597571057.15625
3.65,1597571057.171875
6.62,1597571057.1875
8.77,1597571057.203125
10.56,1597571057.21875
12.35,1597571057.234375
14.29,1597571057.25
16.37,1597571057.265625
18.5,1597571057.28125
20.51,1597571057.296875
22.26,1597571057.3125
23.71,1597571057.328125
24.9,1597571057.34375
25.91,1597571057.359375
26.82,1597571057.375
27.64,1597571057.390625
28.35,1597571057.40625
28.93,1597571057.421875
29.38,1597571057.4375
29.77,1597571057.453125
30.11,1597571057.46875
30.34,1597571057.484375
30.28,1597571057.5
29.69,1597571057.515625
28.43,1597571057.53125
26.56,1597571057.546875
24.34,1597571057.5625
22.16,1597571057.578125
20.33,1597571057.59375
18.96,1597571057.609375
17.92,1597571057.625
16.89,1597571057.640625
15.59,1597571057.65625
13.85,1597571057.671875
11.7,1597571057.6875
9.33,1597571057.703125
7.0,1597571057.71875
4.93,1597571057.734375
3.21,1597571057.75
1.78,1597571057.765625
0.45,1597571057.78125
-1.1,1597571057.796875
-3.17,1597571057.8125
-5.93,1597571057.828125
-9.36,1597571057.84375
-13.23,1597571057.859375
-17.21,1597571057.875
-21.04,1597571057.890625
-24.59,1597571057.90625
-27.92,1597571057.921875
-31.24,1597571057.9375
-34.8,1597571057.953125
-38.82,1597571057.96875
-43.44,1597571057.984375
-48.66,1597571058.0
-54.18,1597571058.015625
-59.36,1597571058.03125
-63.23,1597571058.046875
-64.68,1597571058.0625
-62.88,1597571058.078125
-57.63,1597571058.09375
-49.5,1597571058.109375
-39.64,1597571058.125
-29.33,1597571058.140625
-19.63,1597571058.15625
-10.97,1597571058.171875
-3.31,1597571058.1875
3.63,1597571058.203125
10.1,1597571058.21875
16.1,1597571058.234375
21.44,1597571058.25
25.92,1597571058.265625
29.49,1597571058.28125
32.31,1597571058.296875
34.67,1597571058.3125
36.78,1597571058.328125
38.71,1597571058.34375
40.33,1597571058.359375
41.51,1597571058.375
42.19,1597571058.390625
42.51,1597571058.40625
42.68,1597571058.421875
42.91,1597571058.4375
43.26,1597571058.453125
43.63,1597571058.46875
43.81,1597571058.484375
43.56,1597571058.5
42.74,1597571058.515625
41.31,1597571058.53125
39.32,1597571058.546875
36.89,1597571058.5625
34.22,1597571058.578125
31.52,1597571058.59375
29.0,1597571058.609375
26.82,1597571058.625
25.03,1597571058.640625
23.54,1597571058.65625
22.14,1597571058.671875
20.59,1597571058.6875
18.72,1597571058.703125
16.42,1597571058.71875
13.75,1597571058.734375
10.86,1597571058.75
7.94,1597571058.765625
5.15,1597571058.78125
2.6,1597571058.796875
0.26,1597571058.8125
-1.98,1597571058.828125
-4.23,1597571058.84375
-6.61,1597571058.859375
-9.23,1597571058.875
-12.15,1597571058.890625
-15.38,1597571058.90625
-18.93,1597571058.921875
-22.72,1597571058.9375
-26.65,1597571058.953125
-30.55,1597571058.96875
-34.26,1597571058.984375
-37.82,1597571059.0
-41.4,1597571059.015625
-45.33,1597571059.03125
-49.93,1597571059.046875
-55.2,1597571059.0625
-60.68,1597571059.078125
-65.39,1597571059.09375
-68.13,1597571059.109375
-67.79,1597571059.125
-63.82,1597571059.140625
-56.4,1597571059.15625
-46.45,1597571059.171875
-35.29,1597571059.1875
-24.23,1597571059.203125
-14.23,1597571059.21875
-5.78,1597571059.234375
1.04,1597571059.25
6.42,1597571059.265625
10.62,1597571059.28125
13.94,1597571059.296875
16.64,1597571059.3125
18.97,1597571059.328125
21.16,1597571059.34375
23.35,1597571059.359375
25.55,1597571059.375
27.64,1597571059.390625
29.5,1597571059.40625
31.02,1597571059.421875
32.21,1597571059.4375
33.14,1597571059.453125
33.97,1597571059.46875
34.86,1597571059.484375
35.87,1597571059.5
36.99,1597571059.515625
38.11,1597571059.53125
39.05,1597571059.546875
39.56,1597571059.5625
39.48,1597571059.578125
38.7,1597571059.59375
37.3,1597571059.609375
35.48,1597571059.625
33.51,1597571059.640625
31.56,1597571059.65625
29.7,1597571059.671875
27.81,1597571059.6875
25.81,1597571059.703125
23.71,1597571059.71875
21.61,1597571059.734375
19.66,1597571059.75
17.92,1597571059.765625
16.33,1597571059.78125
14.78,1597571059.796875
13.22,1597571059.8125
11.76,1597571059.828125
10.58,1597571059.84375
9.79,1597571059.859375
9.25,1597571059.875
8.62,1597571059.890625
7.46,1597571059.90625
5.51,1597571059.921875
2.84,1597571059.9375
-0.27,1597571059.953125
-3.47,1597571059.96875
-6.58,1597571059.984375
-9.69,1597571060.0
-13.06,1597571060.015625
-16.89,1597571060.03125
-21.17,1597571060.046875
-25.67,1597571060.0625
-30.01,1597571060.078125
-33.92,1597571060.09375
-37.33,1597571060.109375
-40.38,1597571060.125
-43.4,1597571060.140625
-46.75,1597571060.15625
-50.69,1597571060.171875
-55.26,1597571060.1875
-60.19,1597571060.203125
-64.87,1597571060.21875
-68.36,1597571060.234375
-69.64,1597571060.25
-67.89,1597571060.265625
-62.78,1597571060.28125
-54.61,1597571060.296875
-44.27,1597571060.3125
-32.95,1597571060.328125
-21.85,1597571060.34375
-11.87,1597571060.359375
-3.52,1597571060.375
3.03,1597571060.390625
7.92,1597571060.40625
11.42,1597571060.421875
13.92,1597571060.4375
15.8,1597571060.453125
17.42,1597571060.46875
19.02,1597571060.484375
20.69,1597571060.5
22.31,1597571060.515625
23.75,1597571060.53125
24.86,1597571060.546875
25.61,1597571060.5625
26.04,1597571060.578125
26.29,1597571060.59375
26.52,1597571060.609375
26.84,1597571060.625
27.3,1597571060.640625
27.85,1597571060.65625
28.36,1597571060.671875
28.68,1597571060.6875
28.67,1597571060.703125
28.32,1597571060.71875
27.7,1597571060.734375
26.87,1597571060.75
25.91,1597571060.765625
24.8,1597571060.78125
23.49,1597571060.796875
21.98,1597571060.8125
20.34,1597571060.828125
18.65,1597571060.84375
16.97,1597571060.859375
15.24,1597571060.875
13.26,1597571060.890625
10.85,1597571060.90625
7.98,1597571060.921875
4.89,1597571060.9375
1.96,1597571060.953125
-0.41,1597571060.96875
-2.06,1597571060.984375
-3.19,1597571061.0
-4.25,1597571061.015625
-5.72,1597571061.03125
-7.85,1597571061.046875
-10.59,1597571061.0625
-13.66,1597571061.078125
-16.72,1597571061.09375
-19.62,1597571061.109375
-22.36,1597571061.125
-25.08,1597571061.140625
-27.96,1597571061.15625
-31.1,1597571061.171875
-34.56,1597571061.1875
-38.39,1597571061.203125
-42.55,1597571061.21875
-46.76,1597571061.234375
-50.48,1597571061.25
-52.85,1597571061.265625
-52.92,1597571061.28125
-50.02,1597571061.296875
-44.01,1597571061.3125
-35.39,1597571061.328125
-25.19,1597571061.34375
-14.65,1597571061.359375
-4.89,1597571061.375
3.35,1597571061.390625
9.75,1597571061.40625
14.39,1597571061.421875
17.62,1597571061.4375
19.87,1597571061.453125
21.52,1597571061.46875
22.83,1597571061.484375
23.84,1597571061.5
24.51,1597571061.515625
24.79,1597571061.53125
24.72,1597571061.546875
24.48,1597571061.5625
24.31,1597571061.578125
24.43,1597571061.59375
24.89,1597571061.609375
25.66,1597571061.625
26.6,1597571061.640625
27.6,1597571061.65625
28.61,1597571061.671875
29.68,1597571061.6875
30.85,1597571061.703125
32.0,1597571061.71875
32.87,1597571061.734375
33.13,1597571061.75
32.54,1597571061.765625
31.12,1597571061.78125
29.14,1597571061.796875
27.0,1597571061.8125
25.0,1597571061.828125
23.18,1597571061.84375
21.33,1597571061.859375
19.18,1597571061.875
16.55,1597571061.890625
13.55,1597571061.90625
10.48,1597571061.921875
7.66,1597571061.9375
5.3,1597571061.953125
3.35,1597571061.96875
1.6,1597571061.984375
-0.24,1597571062.0
-2.4,1597571062.015625
-5.03,1597571062.03125
-8.14,1597571062.046875
-11.63,1597571062.0625
-15.35,1597571062.078125
-19.07,1597571062.09375
-22.63,1597571062.109375
-25.95,1597571062.125
-29.13,1597571062.140625
-32.35,1597571062.15625
-35.88,1597571062.171875
-39.96,1597571062.1875
-44.69,1597571062.203125
-50.04,1597571062.21875
-55.73,1597571062.234375
-61.19,1597571062.25
-65.58,1597571062.265625
-67.91,1597571062.28125
-67.27,1597571062.296875
-63.14,1597571062.3125
-55.67,1597571062.328125
-45.69,1597571062.34375
-34.59,1597571062.359375
-23.88,1597571062.375
-14.87,1597571062.390625
-8.29,1597571062.40625
-4.23,1597571062.421875
-2.22,1597571062.4375
-1.44,1597571062.453125
-0.99,1597571062.46875
-0.12,1597571062.484375
1.58,1597571062.5
4.02,1597571062.515625
6.76,1597571062.53125
9.09,1597571062.546875
10.38,1597571062.5625
10.35,1597571062.578125
9.25,1597571062.59375
7.87,1597571062.609375
7.26,1597571062.625
8.24,1597571062.640625
11.07,1597571062.65625
15.24,1597571062.671875
19.63,1597571062.6875
22.95,1597571062.703125
24.39,1597571062.71875
24.01,1597571062.734375
23.01,1597571062.75
23.48,1597571062.765625
28.01,1597571062.78125
38.95,1597571062.796875
57.61,1597571062.8125
83.46,1597571062.828125
113.69,1597571062.84375
143.49,1597571062.859375
167.01,1597571062.875
179.11,1597571062.890625
176.93,1597571062.90625
160.88,1597571062.921875
134.39,1597571062.9375
102.54,1597571062.953125
70.3,1597571062.96875
41.14,1597571062.984375
16.63,1597571063.0
-3.1,1597571063.015625
-18.5,1597571063.03125
-29.96,1597571063.046875
-37.67,1597571063.0625
-41.99,1597571063.078125
-43.76,1597571063.09375
-44.29,1597571063.109375
-44.92,1597571063.125
-46.62,1597571063.140625
-49.61,1597571063.15625
-53.42,1597571063.171875
-57.21,1597571063.1875
-60.24,1597571063.203125
-62.13,1597571063.21875
-63.04,1597571063.234375
-63.51,1597571063.25
-64.21,1597571063.265625
-65.64,1597571063.28125
-67.96,1597571063.296875
-71.04,1597571063.3125
-74.54,1597571063.328125
-78.11,1597571063.34375
-81.52,1597571063.359375
-84.54,1597571063.375
-86.81,1597571063.390625
-87.69,1597571063.40625
-86.31,1597571063.421875
-81.88,1597571063.4375
-74.02,1597571063.453125
-63.04,1597571063.46875
-49.96,1597571063.484375
-36.31,1597571063.5
-23.6,1597571063.515625
-13.01,1597571063.53125
-5.07,1597571063.546875
0.39,1597571063.5625
4.02,1597571063.578125
6.7,1597571063.59375
9.23,1597571063.609375
12.13,1597571063.625
15.49,1597571063.640625
19.01,1597571063.65625
22.24,1597571063.671875
24.71,1597571063.6875
26.2,1597571063.703125
26.82,1597571063.71875
26.95,1597571063.734375
27.07,1597571063.75
27.59,1597571063.765625
28.65,1597571063.78125
30.15,1597571063.796875
31.78,1597571063.8125
33.22,1597571063.828125
34.27,1597571063.84375
34.9,1597571063.859375
35.13,1597571063.875
34.93,1597571063.890625
34.23,1597571063.90625
32.9,1597571063.921875
30.98,1597571063.9375
28.73,1597571063.953125
26.58,1597571063.96875
24.9,1597571063.984375
23.85,1597571064.0
23.23,1597571064.015625
22.65,1597571064.03125
21.7,1597571064.046875
20.23,1597571064.0625
18.32,1597571064.078125
16.21,1597571064.09375
14.11,1597571064.109375
12.12,1597571064.125
10.17,1597571064.140625
8.16,1597571064.15625
6.03,1597571064.171875
3.78,1597571064.1875
1.4,1597571064.203125
-1.14,1597571064.21875
-3.91,1597571064.234375
-6.96,1597571064.25
-10.24,1597571064.265625
-13.65,1597571064.28125
-17.04,1597571064.296875
-20.32,1597571064.3125
-23.48,1597571064.328125
-26.64,1597571064.34375
-30.01,1597571064.359375
-33.83,1597571064.375
-38.36,1597571064.390625
-43.65,1597571064.40625
-49.53,1597571064.421875
-55.36,1597571064.4375
-60.13,1597571064.453125
-62.57,1597571064.46875
-61.63,1597571064.484375
-56.78,1597571064.5
-48.34,1597571064.515625
-37.42,1597571064.53125
-25.53,1597571064.546875
-14.12,1597571064.5625
-4.19,1597571064.578125
3.91,1597571064.59375
10.27,1597571064.609375
15.22,1597571064.625
19.02,1597571064.640625
21.8,1597571064.65625
23.62,1597571064.671875
24.59,1597571064.6875
25.0,1597571064.703125
25.21,1597571064.71875
25.6,1597571064.734375
26.41,1597571064.75
27.67,1597571064.765625
29.24,1597571064.78125
30.88,1597571064.796875
32.36,1597571064.8125
33.52,1597571064.828125
34.39,1597571064.84375
35.07,1597571064.859375
35.73,1597571064.875
36.49,1597571064.890625
37.27,1597571064.90625
37.88,1597571064.921875
38.03,1597571064.9375
37.5,1597571064.953125
36.28,1597571064.96875
34.56,1597571064.984375
32.65,1597571065.0
30.83,1597571065.015625
29.18,1597571065.03125
27.58,1597571065.046875
25.83,1597571065.0625
23.76,1597571065.078125
21.41,1597571065.09375
18.98,1597571065.109375
16.76,1597571065.125
14.95,1597571065.140625
13.57,1597571065.15625
12.47,1597571065.171875
11.42,1597571065.1875
10.23,1597571065.203125
8.82,1597571065.21875
7.17,1597571065.234375
5.32,1597571065.25
3.29,1597571065.265625
1.14,1597571065.28125
-1.04,1597571065.296875
-3.11,1597571065.3125
-5.01,1597571065.328125
-6.82,1597571065.34375
-8.81,1597571065.359375
-11.29,1597571065.375
-14.5,1597571065.390625
-18.44,1597571065.40625
-22.89,1597571065.421875
-27.48,1597571065.4375
-31.82,1597571065.453125
-35.67,1597571065.46875
-38.95,1597571065.484375
-41.76,1597571065.5
-44.4,1597571065.515625
-47.31,1597571065.53125
-50.98,1597571065.546875
-55.74,1597571065.5625
-61.43,1597571065.578125
-67.2,1597571065.59375
-71.65,1597571065.609375
-73.13,1597571065.625
-70.43,1597571065.640625
-63.26,1597571065.65625
-52.46,1597571065.671875
-39.69,1597571065.6875
-26.86,1597571065.703125
-15.47,1597571065.71875
-6.24,1597571065.734375
0.83,1597571065.75
6.22,1597571065.765625
10.39,1597571065.78125
13.7,1597571065.796875
16.3,1597571065.8125
18.34,1597571065.828125
20.09,1597571065.84375
21.85,1597571065.859375
23.89,1597571065.875
26.17,1597571065.890625
28.46,1597571065.90625
30.4,1597571065.921875
31.8,1597571065.9375
32.71,1597571065.953125
33.42,1597571065.96875
34.28,1597571065.984375
35.51,1597571066.0
37.07,1597571066.015625
38.73,1597571066.03125
40.2,1597571066.046875
41.21,1597571066.0625
41.62,1597571066.078125
41.39,1597571066.09375
40.53,1597571066.109375
39.15,1597571066.125
37.39,1597571066.140625
35.39,1597571066.15625
33.29,1597571066.171875
31.2,1597571066.1875
29.22,1597571066.203125
27.36,1597571066.21875
25.65,1597571066.234375
24.06,1597571066.25
22.51,1597571066.265625
20.86,1597571066.28125
18.99,1597571066.296875
16.87,1597571066.3125
14.59,1597571066.328125
12.3,1597571066.34375
10.15,1597571066.359375
8.16,1597571066.375
6.16,1597571066.390625
3.92,1597571066.40625
1.29,1597571066.421875
-1.73,1597571066.4375
-4.92,1597571066.453125
-7.97,1597571066.46875
-10.58,1597571066.484375
-12.7,1597571066.5
-14.52,1597571066.515625
-16.42,1597571066.53125
-18.79,1597571066.546875
-21.8,1597571066.5625
-25.35,1597571066.578125
-29.11,1597571066.59375
-32.71,1597571066.609375
-35.9,1597571066.625
-38.7,1597571066.640625
-41.33,1597571066.65625
-44.22,1597571066.671875
-47.8,1597571066.6875
-52.4,1597571066.703125
-58.06,1597571066.71875
-64.34,1597571066.734375
-70.31,1597571066.75
-74.53,1597571066.765625
-75.5,1597571066.78125
-72.11,1597571066.796875
-64.17,1597571066.8125
-52.57,1597571066.828125
-39.06,1597571066.84375
-25.64,1597571066.859375
-13.91,1597571066.875
-4.71,1597571066.890625
1.96,1597571066.90625
6.6,1597571066.921875
9.82,1597571066.9375
12.16,1597571066.953125
13.94,1597571066.96875
15.46,1597571066.984375
16.97,1597571067.0
18.66,1597571067.015625
20.61,1597571067.03125
22.71,1597571067.046875
24.72,1597571067.0625
26.39,1597571067.078125
27.64,1597571067.09375
28.55,1597571067.109375
29.36,1597571067.125
30.26,1597571067.140625
31.38,1597571067.15625
32.65,1597571067.171875
33.91,1597571067.1875
34.97,1597571067.203125
35.64,1597571067.21875
35.84,1597571067.234375
35.51,1597571067.25
34.72,1597571067.265625
33.56,1597571067.28125
32.21,1597571067.296875
30.82,1597571067.3125
29.53,1597571067.328125
28.41,1597571067.34375
27.42,1597571067.359375
26.47,1597571067.375
25.43,1597571067.390625
24.19,1597571067.40625
22.71,1597571067.421875
21.0,1597571067.4375
19.14,1597571067.453125
17.16,1597571067.46875
15.1,1597571067.484375
12.92,1597571067.5
10.55,1597571067.515625
7.92,1597571067.53125
5.08,1597571067.546875
2.11,1597571067.5625
-0.84,1597571067.578125
-3.64,1597571067.59375
-6.27,1597571067.609375
-8.88,1597571067.625
-11.75,1597571067.640625
-15.15,1597571067.65625
-19.23,1597571067.671875
-23.86,1597571067.6875
-28.66,1597571067.703125
-33.1,1597571067.71875
-36.76,1597571067.734375
-39.53,1597571067.75
-41.7,1597571067.765625
-43.87,1597571067.78125
-46.74,1597571067.796875
-50.77,1597571067.8125
-55.9,1597571067.828125
-61.49,1597571067.84375
-66.41,1597571067.859375
-69.33,1597571067.875
-69.09,1597571067.890625
-65.07,1597571067.90625
-57.37,1597571067.921875
-46.79,1597571067.9375
-34.65,1597571067.953125
-22.45,1597571067.96875
-11.47,1597571067.984375
-2.45,1597571068.0
4.39,1597571068.015625
9.25,1597571068.03125
12.54,1597571068.046875
14.7,1597571068.0625
16.2,1597571068.078125
17.45,1597571068.09375
18.87,1597571068.109375
20.77,1597571068.125
23.2,1597571068.140625
25.91,1597571068.15625
28.46,1597571068.171875
30.42,1597571068.1875
31.55,1597571068.203125
31.92,1597571068.21875
31.88,1597571068.234375
31.83,1597571068.25
32.04,1597571068.265625
32.54,1597571068.28125
33.18,1597571068.296875
33.73,1597571068.3125
33.97,1597571068.328125
33.82,1597571068.34375
33.27,1597571068.359375
32.38,1597571068.375
31.24,1597571068.390625
29.93,1597571068.40625
28.5,1597571068.421875
27.01,1597571068.4375
25.51,1597571068.453125
23.97,1597571068.46875
22.3,1597571068.484375
20.37,1597571068.5
18.15,1597571068.515625
15.7,1597571068.53125
13.31,1597571068.546875
11.32,1597571068.5625
9.92,1597571068.578125
8.98,1597571068.59375
8.03,1597571068.609375
6.43,1597571068.625
3.71,1597571068.640625
-0.15,1597571068.65625
-4.69,1597571068.671875
-9.1,1597571068.6875
-12.54,1597571068.703125
-14.57,1597571068.71875
-15.2,1597571068.734375
-14.97,1597571068.75
-14.66,1597571068.765625
-15.11,1597571068.78125
-16.88,1597571068.796875
-19.97,1597571068.8125
-23.67,1597571068.828125
-26.48,1597571068.84375
-26.37,1597571068.859375
-21.31,1597571068.875
-10.09,1597571068.890625
6.94,1597571068.90625
27.4,1597571068.921875
47.29,1597571068.9375
62.04,1597571068.953125
68.01,1597571068.96875
63.66,1597571068.984375
50.07,1597571069.0
30.34,1597571069.015625
8.32,1597571069.03125
-12.75,1597571069.046875
-31.03,1597571069.0625
-46.07,1597571069.078125
-58.12,1597571069.09375
-67.3,1597571069.109375
-73.34,1597571069.125
-75.7,1597571069.140625
-74.12,1597571069.15625
-69.1,1597571069.171875
-61.84,1597571069.1875
-53.81,1597571069.203125
-46.16,1597571069.21875
-39.33,1597571069.234375
-33.09,1597571069.25
-26.89,1597571069.265625
-20.34,1597571069.28125
-13.5,1597571069.296875
-6.83,1597571069.3125
-0.95,1597571069.328125
3.72,1597571069.34375
7.12,1597571069.359375
9.56,1597571069.375
11.53,1597571069.390625
13.42,1597571069.40625
15.36,1597571069.421875
17.25,1597571069.4375
18.87,1597571069.453125
19.99,1597571069.46875
20.55,1597571069.484375
20.6,1597571069.5
20.26,1597571069.515625
19.58,1597571069.53125
18.62,1597571069.546875
17.41,1597571069.5625
16.07,1597571069.578125
14.78,1597571069.59375
13.74,1597571069.609375
13.02,1597571069.625
12.53,1597571069.640625
12.06,1597571069.65625
11.36,1597571069.671875
10.29,1597571069.6875
8.88,1597571069.703125
7.28,1597571069.71875
5.68,1597571069.734375
4.28,1597571069.75
3.12,1597571069.765625
2.15,1597571069.78125
1.17,1597571069.796875
-0.08,1597571069.8125
-1.9,1597571069.828125
-4.45,1597571069.84375
-7.74,1597571069.859375
-11.55,1597571069.875
-15.54,1597571069.890625
-19.4,1597571069.90625
-22.94,1597571069.921875
-26.19,1597571069.9375
-29.29,1597571069.953125
-32.45,1597571069.96875
-35.87,1597571069.984375
-39.7,1597571070.0
-44.05,1597571070.015625
-48.89,1597571070.03125
-53.84,1597571070.046875
-58.13,1597571070.0625
-60.62,1597571070.078125
-60.11,1597571070.09375
-55.83,1597571070.109375
-47.84,1597571070.125
-37.1,1597571070.140625
-25.17,1597571070.15625
-13.66,1597571070.171875
-3.77,1597571070.1875
4.04,1597571070.203125
9.87,1597571070.21875
14.14,1597571070.234375
17.28,1597571070.25
19.61,1597571070.265625
21.28,1597571070.28125
22.42,1597571070.296875
23.25,1597571070.3125
23.98,1597571070.328125
24.83,1597571070.34375
25.9,1597571070.359375
27.17,1597571070.375
28.53,1597571070.390625
29.81,1597571070.40625
30.98,1597571070.421875
32.07,1597571070.4375
33.2,1597571070.453125
34.49,1597571070.46875
35.97,1597571070.484375
37.55,1597571070.5
38.98,1597571070.515625
39.93,1597571070.53125
40.13,1597571070.546875
39.46,1597571070.5625
37.97,1597571070.578125
35.95,1597571070.59375
33.73,1597571070.609375
31.64,1597571070.625
29.84,1597571070.640625
28.32,1597571070.65625
26.88,1597571070.671875
25.31,1597571070.6875
23.48,1597571070.703125
21.43,1597571070.71875
19.3,1597571070.734375
17.21,1597571070.75
15.17,1597571070.765625
13.07,1597571070.78125
10.76,1597571070.796875
8.2,1597571070.8125
5.49,1597571070.828125
2.83,1597571070.84375
0.39,1597571070.859375
-1.81,1597571070.875
-3.99,1597571070.890625
-6.43,1597571070.90625
-9.4,1597571070.921875
-12.96,1597571070.9375
-16.99,1597571070.953125
-21.22,1597571070.96875
-25.38,1597571070.984375
-29.27,1597571071.0
-32.78,1597571071.015625
-35.97,1597571071.03125
-39.06,1597571071.046875
-42.38,1597571071.0625
-46.36,1597571071.078125
-51.36,1597571071.09375
-57.43,1597571071.109375
-64.11,1597571071.125
-70.37,1597571071.140625
-74.82,1597571071.15625
-76.09,1597571071.171875
-73.32,1597571071.1875
-66.43,1597571071.203125
-56.26,1597571071.21875
-44.24,1597571071.234375
-31.92,1597571071.25
-20.61,1597571071.265625
-11.06,1597571071.28125
-3.51,1597571071.296875
2.24,1597571071.3125
6.53,1597571071.328125
9.77,1597571071.34375
12.34,1597571071.359375
14.57,1597571071.375
16.76,1597571071.390625
19.09,1597571071.40625
21.62,1597571071.421875
24.28,1597571071.4375
26.85,1597571071.453125
29.13,1597571071.46875
30.95,1597571071.484375
32.26,1597571071.5
33.18,1597571071.515625
33.88,1597571071.53125
34.55,1597571071.546875
35.29,1597571071.5625
36.11,1597571071.578125
36.88,1597571071.59375
37.41,1597571071.609375
37.56,1597571071.625
37.29,1597571071.640625
36.67,1597571071.65625
35.83,1597571071.671875
34.81,1597571071.6875
33.64,1597571071.703125
32.27,1597571071.71875
30.71,1597571071.734375
29.03,1597571071.75
27.32,1597571071.765625
25.64,1597571071.78125
23.92,1597571071.796875
22.05,1597571071.8125
19.98,1597571071.828125
17.78,1597571071.84375
15.62,1597571071.859375
13.7,1597571071.875
12.04,1597571071.890625
10.48,1597571071.90625
8.7,1597571071.921875
6.45,1597571071.9375
3.72,1597571071.953125
0.73,1597571071.96875
-2.21,1597571071.984375
-4.9,1597571072.0
-7.4,1597571072.015625
-9.97,1597571072.03125
-12.89,1597571072.046875
-16.36,1597571072.0625
-20.39,1597571072.078125
-24.77,1597571072.09375
-29.28,1597571072.109375
-33.69,1597571072.125
-37.82,1597571072.140625
-41.55,1597571072.15625
-44.87,1597571072.171875
-47.94,1597571072.1875
-51.09,1597571072.203125
-54.76,1597571072.21875
-59.19,1597571072.234375
-64.23,1597571072.25
-69.09,1597571072.265625
-72.51,1597571072.28125
-73.1,1597571072.296875
-69.84,1597571072.3125
-62.53,1597571072.328125
-51.84,1597571072.34375
-39.18,1597571072.359375
-26.14,1597571072.375
-14.14,1597571072.390625
-4.04,1597571072.40625
3.79,1597571072.421875
9.42,1597571072.4375
13.17,1597571072.453125
15.48,1597571072.46875
16.84,1597571072.484375
17.75,1597571072.5
18.62,1597571072.515625
19.71,1597571072.53125
21.04,1597571072.546875
22.48,1597571072.5625
23.83,1597571072.578125
24.99,1597571072.59375
26.01,1597571072.609375
27.04,1597571072.625
28.21,1597571072.640625
29.57,1597571072.65625
31.05,1597571072.671875
32.5,1597571072.6875
33.78,1597571072.703125
34.82,1597571072.71875
35.61,1597571072.734375
36.09,1597571072.75
36.23,1597571072.765625
35.89,1597571072.78125
34.98,1597571072.796875
33.47,1597571072.8125
31.4,1597571072.828125
28.96,1597571072.84375
26.4,1597571072.859375
23.94,1597571072.875
21.77,1597571072.890625
19.96,1597571072.90625
18.45,1597571072.921875
17.09,1597571072.9375
15.7,1597571072.953125
14.14,1597571072.96875
12.38,1597571072.984375
10.46,1597571073.0
8.52,1597571073.015625
6.7,1597571073.03125
5.04,1597571073.046875
3.51,1597571073.0625
1.95,1597571073.078125
0.2,1597571073.09375
-1.89,1597571073.109375
-4.4,1597571073.125
-7.35,1597571073.140625
-10.63,1597571073.15625
-14.13,1597571073.171875
-17.7,1597571073.1875
-21.22,1597571073.203125
-24.65,1597571073.21875
-28.07,1597571073.234375
-31.74,1597571073.25
-35.99,1597571073.265625
-41.21,1597571073.28125
-47.53,1597571073.296875
-54.63,1597571073.3125
-61.63,1597571073.328125
-67.21,1597571073.34375
-69.96,1597571073.359375
-68.75,1597571073.375
-63.18,1597571073.390625
-53.67,1597571073.40625
-41.44,1597571073.421875
-28.12,1597571073.4375
-15.33,1597571073.453125
-4.29,1597571073.46875
4.4,1597571073.484375
10.76,1597571073.5
15.25,1597571073.515625
18.51,1597571073.53125
21.1,1597571073.546875
23.38,1597571073.5625
25.44,1597571073.578125
27.24,1597571073.59375
28.71,1597571073.609375
29.82,1597571073.625
30.61,1597571073.640625
31.14,1597571073.65625
31.46,1597571073.671875
31.58,1597571073.6875
31.55,1597571073.703125
31.51,1597571073.71875
31.66,1597571073.734375
32.22,1597571073.75
33.27,1597571073.765625
34.65,1597571073.78125
35.97,1597571073.796875
36.78,1597571073.8125
36.7,1597571073.828125
35.63,1597571073.84375
33.79,1597571073.859375
31.61,1597571073.875
29.53,1597571073.890625
27.81,1597571073.90625
26.47,1597571073.921875
25.38,1597571073.9375
24.32,1597571073.953125
23.16,1597571073.96875
21.82,1597571073.984375
20.29,1597571074.0
18.56,1597571074.015625
16.58,1597571074.03125
14.32,1597571074.046875
11.8,1597571074.0625
9.12,1597571074.078125
6.46,1597571074.09375
3.94,1597571074.109375
1.59,1597571074.125
-0.67,1597571074.140625
-3.01,1597571074.15625
-5.59,1597571074.171875
-8.51,1597571074.1875
-11.85,1597571074.203125
-15.61,1597571074.21875
-19.7,1597571074.234375
-23.96,1597571074.25
-28.17,1597571074.265625
-32.07,1597571074.28125
-35.56,1597571074.296875
-38.69,1597571074.3125
-41.76,1597571074.328125
-45.17,1597571074.34375
-49.28,1597571074.359375
-54.26,1597571074.375
-60.05,1597571074.390625
-66.22,1597571074.40625
-72.04,1597571074.421875
-76.49,1597571074.4375
-78.39,1597571074.453125
-76.72,1597571074.46875
-70.98,1597571074.484375
-61.47,1597571074.5
-49.34,1597571074.515625
-36.27,1597571074.53125
-23.91,1597571074.546875
-13.41,1597571074.5625
-5.15,1597571074.578125
1.12,1597571074.59375
5.99,1597571074.609375
9.94,1597571074.625
13.25,1597571074.640625
16.01,1597571074.65625
18.24,1597571074.671875
20.09,1597571074.6875
21.7,1597571074.703125
23.21,1597571074.71875
24.67,1597571074.734375
26.03,1597571074.75
27.28,1597571074.765625
28.38,1597571074.78125
29.32,1597571074.796875
30.13,1597571074.8125
30.85,1597571074.828125
31.52,1597571074.84375
32.24,1597571074.859375
33.05,1597571074.875
33.89,1597571074.890625
34.58,1597571074.90625
34.82,1597571074.921875
34.4,1597571074.9375
33.29,1597571074.953125
31.69,1597571074.96875
29.96,1597571074.984375
28.44,1597571075.0
27.26,1597571075.015625
26.31,1597571075.03125
25.34,1597571075.046875
24.11,1597571075.0625
22.54,1597571075.078125
20.73,1597571075.09375
18.85,1597571075.109375
17.06,1597571075.125
15.41,1597571075.140625
13.9,1597571075.15625
12.48,1597571075.171875
11.13,1597571075.1875
9.79,1597571075.203125
8.43,1597571075.21875
6.95,1597571075.234375
5.25,1597571075.25
3.3,1597571075.265625
1.15,1597571075.28125
-1.06,1597571075.296875
-3.12,1597571075.3125
-4.93,1597571075.328125
-6.49,1597571075.34375
-7.95,1597571075.359375
-9.55,1597571075.375
-11.51,1597571075.390625
-13.99,1597571075.40625
-17.02,1597571075.421875
-20.52,1597571075.4375
-24.28,1597571075.453125
-28.08,1597571075.46875
-31.68,1597571075.484375
-34.93,1597571075.5
-37.87,1597571075.515625
-40.78,1597571075.53125
-44.16,1597571075.546875
-48.56,1597571075.5625
-54.2,1597571075.578125
-60.73,1597571075.59375
-67.1,1597571075.609375
-71.79,1597571075.625
-73.24,1597571075.640625
-70.45,1597571075.65625
-63.35,1597571075.671875
-52.77,1597571075.6875
-40.23,1597571075.703125
-27.34,1597571075.71875
-15.42,1597571075.734375
-5.32,1597571075.75
2.7,1597571075.765625
8.66,1597571075.78125
12.8,1597571075.796875
15.5,1597571075.8125
17.22,1597571075.828125
18.47,1597571075.84375
19.68,1597571075.859375
21.15,1597571075.875
22.99,1597571075.890625
25.07,1597571075.90625
27.17,1597571075.921875
29.0,1597571075.9375
30.36,1597571075.953125
31.2,1597571075.96875
31.64,1597571075.984375
31.94,1597571076.0
32.42,1597571076.015625
33.27,1597571076.03125
34.45,1597571076.046875
35.63,1597571076.0625
36.27,1597571076.078125
35.91,1597571076.09375
34.38,1597571076.109375
31.93,1597571076.125
29.13,1597571076.140625
26.6,1597571076.15625
24.73,1597571076.171875
23.53,1597571076.1875
22.57,1597571076.203125
21.31,1597571076.21875
19.34,1597571076.234375
16.52,1597571076.25
13.12,1597571076.265625
9.71,1597571076.28125
6.93,1597571076.296875
5.19,1597571076.3125
4.58,1597571076.328125
4.64,1597571076.34375
4.53,1597571076.359375
3.33,1597571076.375
0.43,1597571076.390625
-4.1,1597571076.40625
-9.5,1597571076.421875
-14.56,1597571076.4375
-18.19,1597571076.453125
-19.81,1597571076.46875
-19.64,1597571076.484375
-18.52,1597571076.5
-17.63,1597571076.515625
-18.01,1597571076.53125
-20.16,1597571076.546875
-23.77,1597571076.5625
-27.43,1597571076.578125
-28.64,1597571076.59375
-24.25,1597571076.609375
-11.4,1597571076.625
11.16,1597571076.640625
41.84,1597571076.65625
75.92,1597571076.671875
106.64,1597571076.6875
127.2,1597571076.703125
133.09,1597571076.71875
123.44,1597571076.734375
100.97,1597571076.75
70.5,1597571076.765625
37.04,1597571076.78125
4.37,1597571076.796875
-25.28,1597571076.8125
-50.69,1597571076.828125
-70.84,1597571076.84375
-84.65,1597571076.859375
-91.28,1597571076.875
-90.75,1597571076.890625
-84.4,1597571076.90625
-74.59,1597571076.921875
-63.95,1597571076.9375
-54.48,1597571076.953125
-46.99,1597571076.96875
-41.18,1597571076.984375
-36.08,1597571077.0
-30.76,1597571077.015625
-24.74,1597571077.03125
-18.17,1597571077.046875
-11.64,1597571077.0625
-5.86,1597571077.078125
-1.33,1597571077.09375
1.88,1597571077.109375
4.11,1597571077.125
5.97,1597571077.140625
8.05,1597571077.15625
10.62,1597571077.171875
13.5,1597571077.1875
16.25,1597571077.203125
18.28,1597571077.21875
19.25,1597571077.234375
19.12,1597571077.25
18.18,1597571077.265625
16.86,1597571077.28125
15.56,1597571077.296875
14.51,1597571077.3125
13.79,1597571077.328125
13.34,1597571077.34375
13.05,1597571077.359375
12.73,1597571077.375
12.17,1597571077.390625
11.19,1597571077.40625
9.67,1597571077.421875
7.62,1597571077.4375
5.24,1597571077.453125
2.8,1597571077.46875
0.55,1597571077.484375
-1.4,1597571077.5
-3.11,1597571077.515625
-4.8,1597571077.53125
-6.72,1597571077.546875
-9.11,1597571077.5625
-12.1,1597571077.578125
-15.68,1597571077.59375
-19.74,1597571077.609375
-24.05,1597571077.625
-28.34,1597571077.640625
-32.35,1597571077.65625
-35.92,1597571077.671875
-39.11,1597571077.6875
-42.21,1597571077.703125
-45.71,1597571077.71875
-50.11,1597571077.734375
-55.64,1597571077.75
-62.0,1597571077.765625
-68.25,1597571077.78125
-72.95,1597571077.796875
-74.59,1597571077.8125
-72.06,1597571077.828125
-65.09,1597571077.84375
-54.37,1597571077.859375
-41.28,1597571077.875
-27.58,1597571077.890625
-14.83,1597571077.90625
-4.18,1597571077.921875
3.85,1597571077.9375
9.29,1597571077.953125
12.62,1597571077.96875
14.58,1597571077.984375
15.96,1597571078.0
17.4,1597571078.015625
19.23,1597571078.03125
21.47,1597571078.046875
23.9,1597571078.0625
26.26,1597571078.078125
28.42,1597571078.09375
30.38,1597571078.109375
32.19,1597571078.125
33.85,1597571078.140625
35.3,1597571078.15625
36.43,1597571078.171875
37.23,1597571078.1875
37.87,1597571078.203125
38.6,1597571078.21875
39.64,1597571078.234375
40.93,1597571078.25
42.15,1597571078.265625
42.79,1597571078.28125
42.4,1597571078.296875
40.87,1597571078.3125
38.47,1597571078.328125
35.74,1597571078.34375
33.21,1597571078.359375
31.14,1597571078.375
29.4,1597571078.390625
27.59,1597571078.40625
25.22,1597571078.421875
22.03,1597571078.4375
18.12,1597571078.453125
13.87,1597571078.46875
9.83,1597571078.484375
6.42,1597571078.5
3.75,1597571078.515625
1.64,1597571078.53125
-0.34,1597571078.546875
-2.64,1597571078.5625
-5.53,1597571078.578125
-8.98,1597571078.59375
-12.79,1597571078.609375
-16.67,1597571078.625
-20.45,1597571078.640625
-24.12,1597571078.65625
-27.75,1597571078.671875
-31.47,1597571078.6875
-35.36,1597571078.703125
-39.57,1597571078.71875
-44.28,1597571078.734375
-49.67,1597571078.75
-55.65,1597571078.765625
-61.66,1597571078.78125
-66.56,1597571078.796875
-68.91,1597571078.8125
-67.41,1597571078.828125
-61.46,1597571078.84375
-51.48,1597571078.859375
-38.8,1597571078.875
-25.28,1597571078.890625
-12.62,1597571078.90625
-1.98,1597571078.921875
6.25,1597571078.9375
12.28,1597571078.953125
16.66,1597571078.96875
19.9,1597571078.984375
22.35,1597571079.0
24.22,1597571079.015625
25.61,1597571079.03125
26.65,1597571079.046875
27.51,1597571079.0625
28.34,1597571079.078125
29.26,1597571079.09375
30.24,1597571079.109375
31.27,1597571079.125
32.31,1597571079.140625
33.39,1597571079.15625
34.6,1597571079.171875
35.96,1597571079.1875
37.46,1597571079.203125
39.0,1597571079.21875
40.36,1597571079.234375
41.33,1597571079.25
41.69,1597571079.265625
41.36,1597571079.28125
40.32,1597571079.296875
38.7,1597571079.3125
36.66,1597571079.328125
34.32,1597571079.34375
31.75,1597571079.359375
29.01,1597571079.375
26.16,1597571079.390625
23.33,1597571079.40625
20.69,1597571079.421875
18.3,1597571079.4375
16.11,1597571079.453125
13.91,1597571079.46875
11.48,1597571079.484375
8.68,1597571079.5
5.64,1597571079.515625
2.61,1597571079.53125
-0.12,1597571079.546875
-2.48,1597571079.5625
-4.63,1597571079.578125
-6.9,1597571079.59375
-9.6,1597571079.609375
-12.88,1597571079.625
-16.63,1597571079.640625
-20.63,1597571079.65625
-24.64,1597571079.671875
-28.57,1597571079.6875
-32.47,1597571079.703125
-36.45,1597571079.71875
-40.63,1597571079.734375
-45.11,1597571079.75
-50.02,1597571079.765625
-55.45,1597571079.78125
-61.34,1597571079.796875
-67.33,1597571079.8125
-72.54,1597571079.828125
-75.72,1597571079.84375
-75.57,1597571079.859375
-71.22,1597571079.875
-62.7,1597571079.890625
-50.95,1597571079.90625
-37.55,1597571079.921875
-24.21,1597571079.9375
-12.29,1597571079.953125
-2.49,1597571079.96875
5.08,1597571079.984375
10.66,1597571080.0
14.66,1597571080.015625
17.48,1597571080.03125
19.53,1597571080.046875
21.18,1597571080.0625
22.74,1597571080.078125
24.45,1597571080.09375
26.39,1597571080.109375
28.52,1597571080.125
30.72,1597571080.140625
32.85,1597571080.15625
34.74,1597571080.171875
36.3,1597571080.1875
37.52,1597571080.203125
38.48,1597571080.21875
39.37,1597571080.234375
40.37,1597571080.25
41.54,1597571080.265625
42.73,1597571080.28125
43.65,1597571080.296875
43.93,1597571080.3125
43.33,1597571080.328125
41.86,1597571080.34375
39.7,1597571080.359375
37.18,1597571080.375
34.54,1597571080.390625
31.89,1597571080.40625
29.19,1597571080.421875
26.35,1597571080.4375
23.31,1597571080.453125
20.17,1597571080.46875
17.08,1597571080.484375
14.22,1597571080.5
11.64,1597571080.515625
9.27,1597571080.53125
7.05,1597571080.546875
4.92,1597571080.5625
2.89,1597571080.578125
0.99,1597571080.59375
-0.79,1597571080.609375
-2.58,1597571080.625
-4.53,1597571080.640625
-6.76,1597571080.65625
-9.24,1597571080.671875
-11.88,1597571080.6875
-14.56,1597571080.703125
-17.3,1597571080.71875
-20.2,1597571080.734375
-23.39,1597571080.75
-26.91,1597571080.765625
-30.6,1597571080.78125
-34.22,1597571080.796875
-37.64,1597571080.8125
-40.97,1597571080.828125
-44.6,1597571080.84375
-49.05,1597571080.859375
-54.76,1597571080.875
-61.68,1597571080.890625
-69.2,1597571080.90625
-76.09,1597571080.921875
-80.84,1597571080.9375
-82.02,1597571080.953125
-78.77,1597571080.96875
-71.09,1597571080.984375
-59.87,1597571081.0
-46.66,1597571081.015625
-33.18,1597571081.03125
-20.91,1597571081.046875
-10.77,1597571081.0625
-3.02,1597571081.078125
2.53,1597571081.09375
6.42,1597571081.109375
9.21,1597571081.125
11.38,1597571081.140625
13.19,1597571081.15625
14.81,1597571081.171875
16.25,1597571081.1875
17.54,1597571081.203125
18.76,1597571081.21875
20.06,1597571081.234375
21.6,1597571081.25
23.52,1597571081.265625
25.83,1597571081.28125
28.43,1597571081.296875
31.17,1597571081.3125
33.85,1597571081.328125
36.33,1597571081.34375
38.48,1597571081.359375
40.19,1597571081.375
41.31,1597571081.390625
41.73,1597571081.40625
41.28,1597571081.421875
39.92,1597571081.4375
37.74,1597571081.453125
34.99,1597571081.46875
32.02,1597571081.484375
29.24,1597571081.5
26.89,1597571081.515625
24.97,1597571081.53125
23.31,1597571081.546875
21.62,1597571081.5625
19.71,1597571081.578125
17.58,1597571081.59375
15.46,1597571081.609375
13.57,1597571081.625
11.99,1597571081.640625
10.54,1597571081.65625
8.81,1597571081.671875
6.43,1597571081.6875
3.16,1597571081.703125
-0.93,1597571081.71875
-5.54,1597571081.734375
-10.29,1597571081.75
-14.92,1597571081.765625
-19.31,1597571081.78125
-23.51,1597571081.796875
-27.7,1597571081.8125
-32.12,1597571081.828125
-37.07,1597571081.84375
-42.83,1597571081.859375
-49.47,1597571081.875
-56.72,1597571081.890625
-63.78,1597571081.90625
-69.41,1597571081.921875
-72.21,1597571081.9375
-71.05,1597571081.953125
-65.49,1597571081.96875
-55.94,1597571081.984375
-43.64,1597571082.0
-30.21,1597571082.015625
-17.27,1597571082.03125
-6.01,1597571082.046875
2.96,1597571082.0625
9.62,1597571082.078125
14.33,1597571082.09375
17.63,1597571082.109375
20.02,1597571082.125
21.85,1597571082.140625
23.31,1597571082.15625
24.48,1597571082.171875
25.48,1597571082.1875
26.47,1597571082.203125
27.64,1597571082.21875
29.12,1597571082.234375
30.87,1597571082.25
32.72,1597571082.265625
34.45,1597571082.28125
35.89,1597571082.296875
37.01,1597571082.3125
37.86,1597571082.328125
38.53,1597571082.34375
39.01,1597571082.359375
39.24,1597571082.375
39.08,1597571082.390625
38.48,1597571082.40625
37.44,1597571082.421875
36.04,1597571082.4375
34.38,1597571082.453125
32.56,1597571082.46875
30.63,1597571082.484375
28.66,1597571082.5
26.74,1597571082.515625
24.92,1597571082.53125
23.23,1597571082.546875
21.59,1597571082.5625
19.86,1597571082.578125
17.86,1597571082.59375
15.45,1597571082.609375
12.67,1597571082.625
9.66,1597571082.640625
6.62,1597571082.65625
3.71,1597571082.671875
0.97,1597571082.6875
-1.71,1597571082.703125
-4.5,1597571082.71875
-7.55,1597571082.734375
-10.94,1597571082.75
-14.63,1597571082.765625
-18.54,1597571082.78125
-22.57,1597571082.796875
-26.69,1597571082.8125
-30.84,1597571082.828125
-35.03,1597571082.84375
-39.19,1597571082.859375
-43.29,1597571082.875
-47.37,1597571082.890625
-51.54,1597571082.90625
-56.02,1597571082.921875
-61.03,1597571082.9375
-66.66,1597571082.953125
-72.65,1597571082.96875
-78.27,1597571082.984375
-82.36,1597571083.0
-83.59,1597571083.015625
-80.91,1597571083.03125
-73.94,1597571083.046875
-63.19,1597571083.0625
-49.95,1597571083.078125
-35.89,1597571083.09375
-22.55,1597571083.109375
-11.02,1597571083.125
-1.72,1597571083.140625
5.42,1597571083.15625
10.81,1597571083.171875
14.87,1597571083.1875
18.0,1597571083.203125
20.56,1597571083.21875
22.86,1597571083.234375
25.15,1597571083.25
27.6,1597571083.265625
30.16,1597571083.28125
32.64,1597571083.296875
34.73,1597571083.3125
36.18,1597571083.328125
37.0,1597571083.34375
37.44,1597571083.359375
37.95,1597571083.375
38.96,1597571083.390625
40.64,1597571083.40625
42.83,1597571083.421875
45.14,1597571083.4375
47.1,1597571083.453125
48.34,1597571083.46875
48.73,1597571083.484375
48.33,1597571083.5
47.29,1597571083.515625
45.79,1597571083.53125
44.0,1597571083.546875
42.07,1597571083.5625
40.06,1597571083.578125
37.94,1597571083.59375
35.61,1597571083.609375
32.94,1597571083.625
29.85,1597571083.640625
26.49,1597571083.65625
23.09,1597571083.671875
19.92,1597571083.6875
17.04,1597571083.703125
14.31,1597571083.71875
11.45,1597571083.734375
8.21,1597571083.75
4.6,1597571083.765625
0.88,1597571083.78125
-2.6,1597571083.796875
-5.57,1597571083.8125
-8.04,1597571083.828125
-10.32,1597571083.84375
-12.83,1597571083.859375
-15.93,1597571083.875
-19.72,1597571083.890625
-24.01,1597571083.90625
-28.45,1597571083.921875
-32.73,1597571083.9375
-36.62,1597571083.953125
-40.11,1597571083.96875
-43.36,1597571083.984375
-46.7,1597571084.0
-50.54,1597571084.015625
-55.29,1597571084.03125
-61.16,1597571084.046875
-67.97,1597571084.0625
-74.98,1597571084.078125
-80.89,1597571084.09375
-84.16,1597571084.109375
-83.48,1597571084.125
-78.21,1597571084.140625
-68.73,1597571084.15625
-56.31,1597571084.171875
-42.7,1597571084.1875
-29.55,1597571084.203125
-18.03,1597571084.21875
-8.58,1597571084.234375
-1.14,1597571084.25
4.65,1597571084.265625
9.14,1597571084.28125
12.66,1597571084.296875
15.47,1597571084.3125
17.89,1597571084.328125
20.21,1597571084.34375
22.69,1597571084.359375
25.44,1597571084.375
28.36,1597571084.390625
31.22,1597571084.40625
33.77,1597571084.421875
35.9,1597571084.4375
37.62,1597571084.453125
39.1,1597571084.46875
40.58,1597571084.484375
42.21,1597571084.5
44.01,1597571084.515625
45.79,1597571084.53125
47.27,1597571084.546875
48.11,1597571084.5625
48.02,1597571084.578125
46.89,1597571084.59375
44.8,1597571084.609375
42.05,1597571084.625
39.01,1597571084.640625
36.07,1597571084.65625
33.47,1597571084.671875
31.28,1597571084.6875
29.36,1597571084.703125
27.49,1597571084.71875
25.41,1597571084.734375
22.99,1597571084.75
20.25,1597571084.765625
17.32,1597571084.78125
14.41,1597571084.796875
11.64,1597571084.8125
9.07,1597571084.828125
6.64,1597571084.84375
4.29,1597571084.859375
1.94,1597571084.875
-0.47,1597571084.890625
-3.04,1597571084.90625
-5.93,1597571084.921875
-9.26,1597571084.9375
-13.04,1597571084.953125
-17.15,1597571084.96875
-21.32,1597571084.984375
-25.3,1597571085.0
-28.92,1597571085.015625
-32.26,1597571085.03125
-35.58,1597571085.046875
-39.27,1597571085.0625
-43.71,1597571085.078125
-49.12,1597571085.09375
-55.41,1597571085.109375
-62.08,1597571085.125
-68.11,1597571085.140625
-72.19,1597571085.15625
-73.0,1597571085.171875
-69.65,1597571085.1875
-62.06,1597571085.203125
-51.05,1597571085.21875
-38.12,1597571085.234375
-24.97,1597571085.25
-13.03,1597571085.265625
-3.15,1597571085.28125
4.4,1597571085.296875
9.86,1597571085.3125
13.68,1597571085.328125
16.42,1597571085.34375
18.61,1597571085.359375
20.65,1597571085.375
22.75,1597571085.390625
24.95,1597571085.40625
27.13,1597571085.421875
29.18,1597571085.4375
31.01,1597571085.453125
32.65,1597571085.46875
34.17,1597571085.484375
35.61,1597571085.5
36.94,1597571085.515625
38.02,1597571085.53125
38.71,1597571085.546875
38.93,1597571085.5625
38.67,1597571085.578125
38.01,1597571085.59375
37.07,1597571085.609375
35.94,1597571085.625
34.71,1597571085.640625
33.38,1597571085.65625
31.93,1597571085.671875
30.33,1597571085.6875
28.58,1597571085.703125
26.72,1597571085.71875
24.86,1597571085.734375
23.19,1597571085.75
21.86,1597571085.765625
20.91,1597571085.78125
20.24,1597571085.796875
19.58,1597571085.8125
18.63,1597571085.828125
17.15,1597571085.84375
15.05,1597571085.859375
12.42,1597571085.875
9.51,1597571085.890625
6.56,1597571085.90625
3.78,1597571085.921875
1.22,1597571085.9375
-1.17,1597571085.953125
-3.57,1597571085.96875
-6.15,1597571085.984375
-9.08,1597571086.0
-12.45,1597571086.015625
-16.24,1597571086.03125
-20.35,1597571086.046875
-24.6,1597571086.0625
-28.78,1597571086.078125
-32.8,1597571086.09375
-36.66,1597571086.109375
-40.54,1597571086.125
-44.72,1597571086.140625
-49.55,1597571086.15625
-55.28,1597571086.171875
-61.84,1597571086.1875
-68.7,1597571086.203125
-74.75,1597571086.21875
-78.55,1597571086.234375
-78.66,1597571086.25
-74.17,1597571086.265625
-65.15,1597571086.28125
-52.7,1597571086.296875
-38.65,1597571086.3125
-24.97,1597571086.328125
-13.17,1597571086.34375
-3.87,1597571086.359375
3.06,1597571086.375
8.3,1597571086.390625
12.54,1597571086.40625
16.26,1597571086.421875
19.68,1597571086.4375
22.85,1597571086.453125
25.83,1597571086.46875
28.71,1597571086.484375
31.59,1597571086.5
34.42,1597571086.515625
37.03,1597571086.53125
39.2,1597571086.546875
40.78,1597571086.5625
41.78,1597571086.578125
42.4,1597571086.59375
42.93,1597571086.609375
43.57,1597571086.625
44.41,1597571086.640625
45.36,1597571086.65625
46.26,1597571086.671875
46.94,1597571086.6875
47.26,1597571086.703125
47.14,1597571086.71875
46.54,1597571086.734375
45.47,1597571086.75
44.04,1597571086.765625
42.42,1597571086.78125
40.8,1597571086.796875
39.26,1597571086.8125
37.75,1597571086.828125
36.05,1597571086.84375
33.94,1597571086.859375
31.37,1597571086.875
28.51,1597571086.890625
25.71,1597571086.90625
23.28,1597571086.921875
21.37,1597571086.9375
19.89,1597571086.953125
18.65,1597571086.96875
17.42,1597571086.984375
16.13,1597571087.0
14.75,1597571087.015625
13.25,1597571087.03125
11.51,1597571087.046875
9.33,1597571087.0625
6.63,1597571087.078125
3.5,1597571087.09375
0.23,1597571087.109375
-2.89,1597571087.125
-5.72,1597571087.140625
-8.4,1597571087.15625
-11.23,1597571087.171875
-14.5,1597571087.1875
-18.29,1597571087.203125
-22.39,1597571087.21875
-26.5,1597571087.234375
-30.34,1597571087.25
-33.86,1597571087.265625
-37.22,1597571087.28125
-40.67,1597571087.296875
-44.45,1597571087.3125
-48.73,1597571087.328125
-53.64,1597571087.34375
-59.16,1597571087.359375
-65.09,1597571087.375
-70.83,1597571087.390625
-75.35,1597571087.40625
-77.33,1597571087.421875
-75.54,1597571087.4375
-69.39,1597571087.453125
-59.26,1597571087.46875
-46.48,1597571087.484375
-32.91,1597571087.5
-20.29,1597571087.515625
-9.78,1597571087.53125
-1.76,1597571087.546875
4.0,1597571087.5625
8.03,1597571087.578125
10.91,1597571087.59375
13.07,1597571087.609375
14.86,1597571087.625
16.6,1597571087.640625
18.51,1597571087.65625
20.73,1597571087.671875
23.14,1597571087.6875
25.43,1597571087.703125
27.26,1597571087.71875
28.36,1597571087.734375
28.77,1597571087.75
28.76,1597571087.765625
28.74,1597571087.78125
29.05,1597571087.796875
29.8,1597571087.8125
30.89,1597571087.828125
32.02,1597571087.84375
32.9,1597571087.859375
33.32,1597571087.875
33.22,1597571087.890625
32.64,1597571087.90625
31.69,1597571087.921875
30.41,1597571087.9375
28.77,1597571087.953125
26.72,1597571087.96875
24.23,1597571087.984375
21.42,1597571088.0
18.56,1597571088.015625
15.99,1597571088.03125
13.95,1597571088.046875
12.54,1597571088.0625
11.54,1597571088.078125
10.65,1597571088.09375
9.49,1597571088.109375
7.92,1597571088.125
6.0,1597571088.140625
3.99,1597571088.15625
2.11,1597571088.171875
0.44,1597571088.1875
-1.15,1597571088.203125
-2.89,1597571088.21875
-5.0,1597571088.234375
-7.58,1597571088.25
-10.58,1597571088.265625
-13.85,1597571088.28125
-17.21,1597571088.296875
-20.51,1597571088.3125
-23.69,1597571088.328125
-26.74,1597571088.34375
-29.75,1597571088.359375
-32.88,1597571088.375
-36.37,1597571088.390625
-40.5,1597571088.40625
-45.46,1597571088.421875
-51.2,1597571088.4375
-57.25,1597571088.453125
-62.72,1597571088.46875
-66.48,1597571088.484375
-67.39,1597571088.5
-64.72,1597571088.515625
-58.37,1597571088.53125
-48.93,1597571088.546875
-37.57,1597571088.5625
-25.63,1597571088.578125
-14.34,1597571088.59375
-4.52,1597571088.609375
3.46,1597571088.625
9.6,1597571088.640625
14.14,1597571088.65625
17.35,1597571088.671875
19.46,1597571088.6875
20.64,1597571088.703125
21.04,1597571088.71875
20.92,1597571088.734375
20.6,1597571088.75
20.42,1597571088.765625
20.65,1597571088.78125
21.36,1597571088.796875
22.46,1597571088.8125
23.72,1597571088.828125
24.99,1597571088.84375
26.28,1597571088.859375
27.7,1597571088.875
29.37,1597571088.890625
31.29,1597571088.90625
33.24,1597571088.921875
34.86,1597571088.9375
35.78,1597571088.953125
35.82,1597571088.96875
34.99,1597571088.984375
33.46,1597571089.0
31.5,1597571089.015625
29.33,1597571089.03125
27.07,1597571089.046875
24.71,1597571089.0625
22.2,1597571089.078125
19.44,1597571089.09375
16.34,1597571089.109375
12.92,1597571089.125
9.25,1597571089.140625
5.53,1597571089.15625
1.98,1597571089.171875
-1.17,1597571089.1875
-3.77,1597571089.203125
-5.85,1597571089.21875
-7.6,1597571089.234375
-9.41,1597571089.25
-11.64,1597571089.265625
-14.55,1597571089.28125
-18.17,1597571089.296875
-22.21,1597571089.3125
-26.24,1597571089.328125
-29.88,1597571089.34375
-32.9,1597571089.359375
-35.41,1597571089.375
-37.84,1597571089.390625
-40.72,1597571089.40625
-44.63,1597571089.421875
-49.85,1597571089.4375
-56.21,1597571089.453125
-63.03,1597571089.46875
-69.08,1597571089.484375
-72.86,1597571089.5
-73.05,1597571089.515625
-68.88,1597571089.53125
-60.51,1597571089.546875
-48.95,1597571089.5625
-35.83,1597571089.578125
-22.81,1597571089.59375
-11.21,1597571089.609375
-1.73,1597571089.625
5.5,1597571089.640625
10.75,1597571089.65625
14.43,1597571089.671875
16.96,1597571089.6875
18.74,1597571089.703125
20.14,1597571089.71875
21.5,1597571089.734375
23.02,1597571089.75
24.7,1597571089.765625
26.37,1597571089.78125
27.72,1597571089.796875
28.5,1597571089.8125
28.67,1597571089.828125
28.44,1597571089.84375
28.19,1597571089.859375
28.33,1597571089.875
29.08,1597571089.890625
30.48,1597571089.90625
32.25,1597571089.921875
33.99,1597571089.9375
35.26,1597571089.953125
35.75,1597571089.96875
35.31,1597571089.984375
34.1,1597571090.0
32.44,1597571090.015625
30.69,1597571090.03125
29.13,1597571090.046875
27.82,1597571090.0625
26.62,1597571090.078125
25.26,1597571090.09375
23.57,1597571090.109375
21.51,1597571090.125
19.24,1597571090.140625
17.04,1597571090.15625
15.12,1597571090.171875
13.53,1597571090.1875
12.14,1597571090.203125
10.65,1597571090.21875
8.8,1597571090.234375
6.43,1597571090.25
3.6,1597571090.265625
0.53,1597571090.28125
-2.53,1597571090.296875
-5.39,1597571090.3125
-8.01,1597571090.328125
-10.5,1597571090.34375
-13.11,1597571090.359375
-16.06,1597571090.375
-19.47,1597571090.390625
-23.31,1597571090.40625
-27.37,1597571090.421875
-31.37,1597571090.4375
-35.05,1597571090.453125
-38.32,1597571090.46875
-41.23,1597571090.484375
-44.02,1597571090.5
-47.01,1597571090.515625
-50.58,1597571090.53125
-55.01,1597571090.546875
-60.4,1597571090.5625
-66.48,1597571090.578125
-72.48,1597571090.59375
-77.21,1597571090.609375
-79.26,1597571090.625
-77.47,1597571090.640625
-71.35,1597571090.65625
-61.39,1597571090.671875
-48.88,1597571090.6875
-35.59,1597571090.703125
-23.16,1597571090.71875
-12.61,1597571090.734375
-4.32,1597571090.75
1.9,1597571090.765625
6.47,1597571090.78125
9.81,1597571090.796875
12.24,1597571090.8125
14.08,1597571090.828125
15.62,1597571090.84375
17.18,1597571090.859375
18.96,1597571090.875
21.01,1597571090.890625
23.15,1597571090.90625
25.13,1597571090.921875
26.73,1597571090.9375
27.91,1597571090.953125
28.75,1597571090.96875
29.45,1597571090.984375
30.2,1597571091.0
31.08,1597571091.015625
32.1,1597571091.03125
33.17,1597571091.046875
34.15,1597571091.0625
34.88,1597571091.078125
35.19,1597571091.09375
34.91,1597571091.109375
33.94,1597571091.125
32.36,1597571091.140625
30.36,1597571091.15625
28.2,1597571091.171875
26.18,1597571091.1875
24.4,1597571091.203125
22.83,1597571091.21875
21.24,1597571091.234375
19.42,1597571091.25
17.21,1597571091.265625
14.65,1597571091.28125
11.94,1597571091.296875
9.32,1597571091.3125
6.97,1597571091.328125
4.89,1597571091.34375
2.94,1597571091.359375
0.9,1597571091.375
-1.42,1597571091.390625
-4.13,1597571091.40625
-7.21,1597571091.421875
-10.59,1597571091.4375
-14.12,1597571091.453125
-17.66,1597571091.46875
-21.06,1597571091.484375
-24.2,1597571091.5
-27.0,1597571091.515625
-29.56,1597571091.53125
-32.11,1597571091.546875
-35.1,1597571091.5625
-38.97,1597571091.578125
-44.0,1597571091.59375
-50.04,1597571091.609375
-56.29,1597571091.625
-61.46,1597571091.640625
-64.03,1597571091.65625
-62.82,1597571091.671875
-57.36,1597571091.6875
-48.12,1597571091.703125
-36.38,1597571091.71875
-23.82,1597571091.734375
-12.01,1597571091.75
-2.04,1597571091.765625
5.61,1597571091.78125
11.02,1597571091.796875
14.6,1597571091.8125
16.87,1597571091.828125
18.34,1597571091.84375
19.42,1597571091.859375
20.41,1597571091.875
21.49,1597571091.890625
22.73,1597571091.90625
24.08,1597571091.921875
25.45,1597571091.9375
26.69,1597571091.953125
27.75,1597571091.96875
28.61,1597571091.984375
29.41,1597571092.0
30.29,1597571092.015625
31.43,1597571092.03125
32.91,1597571092.046875
34.67,1597571092.0625
36.47,1597571092.078125
37.95,1597571092.09375
38.71,1597571092.109375
38.43,1597571092.125
37.06,1597571092.140625
34.8,1597571092.15625
32.06,1597571092.171875
29.35,1597571092.1875
27.03,1597571092.203125
25.25,1597571092.21875
23.88,1597571092.234375
22.65,1597571092.25
21.26,1597571092.265625
19.54,1597571092.28125
17.47,1597571092.296875
15.12,1597571092.3125
12.65,1597571092.328125
10.15,1597571092.34375
7.74,1597571092.359375
5.5,1597571092.375
3.53,1597571092.390625
1.88,1597571092.40625
0.46,1597571092.421875
-0.96,1597571092.4375
-2.82,1597571092.453125
-5.55,1597571092.46875
-9.46,1597571092.484375
-14.45,1597571092.5
-20.09,1597571092.515625
-25.73,1597571092.53125
-30.75,1597571092.546875
-34.9,1597571092.5625
-38.31,1597571092.578125
-41.48,1597571092.59375
-45.02,1597571092.609375
-49.49,1597571092.625
-55.2,1597571092.640625
-62.1,1597571092.65625
-69.65,1597571092.671875
-76.85,1597571092.6875
-82.31,1597571092.703125
-84.54,1597571092.71875
-82.4,1597571092.734375
-75.51,1597571092.75
-64.5,1597571092.765625
-50.8,1597571092.78125
-36.27,1597571092.796875
-22.69,1597571092.8125
-11.22,1597571092.828125
-2.37,1597571092.84375
4.0,1597571092.859375
8.46,1597571092.875
11.74,1597571092.890625
14.5,1597571092.90625
17.16,1597571092.921875
19.87,1597571092.9375
22.52,1597571092.953125
24.92,1597571092.96875
26.89,1597571092.984375
28.39,1597571093.0
29.56,1597571093.015625
30.56,1597571093.03125
31.53,1597571093.046875
32.51,1597571093.0625
33.5,1597571093.078125
34.47,1597571093.09375
35.42,1597571093.109375
36.37,1597571093.125
37.33,1597571093.140625
38.19,1597571093.15625
38.77,1597571093.171875
38.82,1597571093.1875
38.18,1597571093.203125
36.83,1597571093.21875
34.98,1597571093.234375
32.96,1597571093.25
31.08,1597571093.265625
29.46,1597571093.28125
27.99,1597571093.296875
26.45,1597571093.3125
24.61,1597571093.328125
22.52,1597571093.34375
20.29,1597571093.359375
18.14,1597571093.375
16.1,1597571093.390625
13.96,1597571093.40625
11.44,1597571093.421875
8.41,1597571093.4375
4.98,1597571093.453125
1.57,1597571093.46875
-1.42,1597571093.484375
-3.81,1597571093.5
-5.77,1597571093.515625
-7.72,1597571093.53125
-10.12,1597571093.546875
-13.16,1597571093.5625
-16.8,1597571093.578125
-20.74,1597571093.59375
-24.7,1597571093.609375
-28.45,1597571093.625
-31.9,1597571093.640625
-35.08,1597571093.65625
-38.1,1597571093.671875
-41.2,1597571093.6875
-44.74,1597571093.703125
-49.15,1597571093.71875
-54.71,1597571093.734375
-61.29,1597571093.75
-68.13,1597571093.765625
-73.93,1597571093.78125
-77.11,1597571093.796875
-76.34,1597571093.8125
-71.01,1597571093.828125
-61.5,1597571093.84375
-49.07,1597571093.859375
-35.45,1597571093.875
-22.33,1597571093.890625
-10.94,1597571093.90625
-1.86,1597571093.921875
4.97,1597571093.9375
9.96,1597571093.953125
13.64,1597571093.96875
16.48,1597571093.984375
18.79,1597571094.0
20.7,1597571094.015625
22.3,1597571094.03125
23.63,1597571094.046875
24.75,1597571094.0625
25.8,1597571094.078125
26.88,1597571094.09375
28.11,1597571094.109375
29.49,1597571094.125
31.02,1597571094.140625
32.61,1597571094.15625
34.21,1597571094.171875
35.76,1597571094.1875
37.24,1597571094.203125
38.61,1597571094.21875
39.69,1597571094.234375
40.3,1597571094.25
40.23,1597571094.265625
39.37,1597571094.28125
37.77,1597571094.296875
35.61,1597571094.3125
33.14,1597571094.328125
30.57,1597571094.34375
27.96,1597571094.359375
25.28,1597571094.375
22.42,1597571094.390625
19.36,1597571094.40625
16.15,1597571094.421875
12.94,1597571094.4375
9.86,1597571094.453125
7.0,1597571094.46875
4.37,1597571094.484375
1.95,1597571094.5
-0.33,1597571094.515625
-2.58,1597571094.53125
-4.96,1597571094.546875
-7.68,1597571094.5625
-10.9,1597571094.578125
-14.67,1597571094.59375
-18.84,1597571094.609375
-23.13,1597571094.625
-27.19,1597571094.640625
-30.82,1597571094.65625
-34.06,1597571094.671875
-37.3,1597571094.6875
-41.13,1597571094.703125
-46.07,1597571094.71875
-52.35,1597571094.734375
-59.59,1597571094.75
-66.76,1597571094.765625
-72.36,1597571094.78125
-74.83,1597571094.796875
-73.05,1597571094.8125
-66.75,1597571094.828125
-56.65,1597571094.84375
-44.17,1597571094.859375
-31.01,1597571094.875
-18.63,1597571094.890625
-8.01,1597571094.90625
0.45,1597571094.921875
6.78,1597571094.9375
11.25,1597571094.953125
14.24,1597571094.96875
16.16,1597571094.984375
17.49,1597571095.0
18.66,1597571095.015625
20.05,1597571095.03125
21.8,1597571095.046875
23.84,1597571095.0625
25.93,1597571095.078125
27.79,1597571095.09375
29.28,1597571095.109375
30.45,1597571095.125
31.48,1597571095.140625
32.6,1597571095.15625
33.97,1597571095.171875
35.62,1597571095.1875
37.43,1597571095.203125
39.25,1597571095.21875
40.83,1597571095.234375
41.9,1597571095.25
42.2,1597571095.265625
41.52,1597571095.28125
39.86,1597571095.296875
37.46,1597571095.3125
34.72,1597571095.328125
32.06,1597571095.34375
29.72,1597571095.359375
27.63,1597571095.375
25.51,1597571095.390625
23.05,1597571095.40625
20.15,1597571095.421875
16.98,1597571095.4375
13.88,1597571095.453125
11.13,1597571095.46875
8.81,1597571095.484375
6.68,1597571095.5
4.35,1597571095.515625
1.4,1597571095.53125
-2.37,1597571095.546875
-6.9,1597571095.5625
-11.9,1597571095.578125
-16.98,1597571095.59375
-21.84,1597571095.609375
-26.4,1597571095.625
-30.78,1597571095.640625
-35.25,1597571095.65625
-40.18,1597571095.671875
-45.85,1597571095.6875
-52.46,1597571095.703125
-60.02,1597571095.71875
-68.22,1597571095.734375
-76.34,1597571095.75
-83.2,1597571095.765625
-87.32,1597571095.78125
-87.36,1597571095.796875
-82.51,1597571095.8125
-72.98,1597571095.828125
-59.97,1597571095.84375
-45.33,1597571095.859375
-31.02,1597571095.875
-18.5,1597571095.890625
-8.47,1597571095.90625
-0.88,1597571095.921875
4.8,1597571095.9375
9.21,1597571095.953125
12.89,1597571095.96875
16.18,1597571095.984375
19.19,1597571096.0
21.97,1597571096.015625
24.53,1597571096.03125
26.88,1597571096.046875
29.01,1597571096.0625
30.93,1597571096.078125
32.64,1597571096.09375
34.11,1597571096.109375
35.31,1597571096.125
36.26,1597571096.140625
37.02,1597571096.15625
37.65,1597571096.171875
38.17,1597571096.1875
38.54,1597571096.203125
38.65,1597571096.21875
38.35,1597571096.234375
37.55,1597571096.25
36.23,1597571096.265625
34.51,1597571096.28125
32.55,1597571096.296875
30.62,1597571096.3125
28.98,1597571096.328125
27.8,1597571096.34375
27.1,1597571096.359375
26.67,1597571096.375
26.13,1597571096.390625
25.11,1597571096.40625
23.36,1597571096.421875
20.89,1597571096.4375
17.97,1597571096.453125
14.93,1597571096.46875
12.02,1597571096.484375
9.22,1597571096.5
6.32,1597571096.515625
2.96,1597571096.53125
-1.08,1597571096.546875
-5.84,1597571096.5625
-11.13,1597571096.578125
-16.62,1597571096.59375
-22.05,1597571096.609375
-27.19,1597571096.625
-31.95,1597571096.640625
-36.32,1597571096.65625
-40.4,1597571096.671875
-44.47,1597571096.6875
-48.95,1597571096.703125
-54.32,1597571096.71875
-60.85,1597571096.734375
-68.28,1597571096.75
-75.59,1597571096.765625
-81.18,1597571096.78125
-83.29,1597571096.796875
-80.6,1597571096.8125
-72.83,1597571096.828125
-60.85,1597571096.84375
-46.38,1597571096.859375
-31.42,1597571096.875
-17.68,1597571096.890625
-6.12,1597571096.90625
3.04,1597571096.921875
10.16,1597571096.9375
15.85,1597571096.953125
20.73,1597571096.96875
25.18,1597571096.984375
29.39,1597571097.0
33.34,1597571097.015625
36.94,1597571097.03125
40.1,1597571097.046875
42.76,1597571097.0625
44.94,1597571097.078125
46.65,1597571097.09375
47.91,1597571097.109375
48.73,1597571097.125
49.22,1597571097.140625
49.58,1597571097.15625
50.08,1597571097.171875
50.93,1597571097.1875
52.13,1597571097.203125
53.39,1597571097.21875
54.21,1597571097.234375
54.1,1597571097.25
52.85,1597571097.265625
50.61,1597571097.28125
47.84,1597571097.296875
45.07,1597571097.3125
42.63,1597571097.328125
40.56,1597571097.34375
38.62,1597571097.359375
36.53,1597571097.375
34.16,1597571097.390625
31.55,1597571097.40625
28.87,1597571097.421875
26.32,1597571097.4375
23.94,1597571097.453125
21.7,1597571097.46875
19.48,1597571097.484375
17.16,1597571097.5
14.65,1597571097.515625
11.9,1597571097.53125
8.87,1597571097.546875
5.52,1597571097.5625
1.87,1597571097.578125
-1.99,1597571097.59375
-5.95,1597571097.609375
-9.94,1597571097.625
-13.96,1597571097.640625
-18.13,1597571097.65625
-22.56,1597571097.671875
-27.26,1597571097.6875
-32.11,1597571097.703125
-36.82,1597571097.71875
-41.12,1597571097.734375
-44.92,1597571097.75
-48.42,1597571097.765625
-52.07,1597571097.78125
-56.46,1597571097.796875
-62.06,1597571097.8125
-68.96,1597571097.828125
-76.72,1597571097.84375
-84.32,1597571097.859375
-90.27,1597571097.875
-92.99,1597571097.890625
-91.24,1597571097.90625
-84.53,1597571097.921875
-73.32,1597571097.9375
-58.98,1597571097.953125
-43.35,1597571097.96875
-28.24,1597571097.984375
-15.03,1597571098.0
-4.37,1597571098.015625
3.74,1597571098.03125
9.76,1597571098.046875
14.28,1597571098.0625
17.89,1597571098.078125
21.04,1597571098.09375
23.98,1597571098.109375
26.84,1597571098.125
29.64,1597571098.140625
32.34,1597571098.15625
34.87,1597571098.171875
37.22,1597571098.1875
39.34,1597571098.203125
41.22,1597571098.21875
42.88,1597571098.234375
44.31,1597571098.25
45.55,1597571098.265625
46.67,1597571098.28125
47.7,1597571098.296875
48.6,1597571098.3125
49.24,1597571098.328125
49.4,1597571098.34375
48.89,1597571098.359375
47.61,1597571098.375
45.64,1597571098.390625
43.2,1597571098.40625
40.65,1597571098.421875
38.31,1597571098.4375
36.36,1597571098.453125
34.79,1597571098.46875
33.41,1597571098.484375
31.95,1597571098.5
30.19,1597571098.515625
28.06,1597571098.53125
25.7,1597571098.546875
23.33,1597571098.5625
21.17,1597571098.578125
19.28,1597571098.59375
17.52,1597571098.609375
15.64,1597571098.625
13.39,1597571098.640625
10.65,1597571098.65625
7.44,1597571098.671875
3.91,1597571098.6875
0.26,1597571098.703125
-3.31,1597571098.71875
-6.65,1597571098.734375
-9.75,1597571098.75
-12.76,1597571098.765625
-15.92,1597571098.78125
-19.44,1597571098.796875
-23.41,1597571098.8125
-27.66,1597571098.828125
-31.89,1597571098.84375
-35.75,1597571098.859375
-39.16,1597571098.875
-42.29,1597571098.890625
-45.57,1597571098.90625
-49.46,1597571098.921875
-54.33,1597571098.9375
-60.22,1597571098.953125
-66.79,1597571098.96875
-73.3,1597571098.984375
-78.6,1597571099.0
-81.34,1597571099.015625
-80.26,1597571099.03125
-74.61,1597571099.046875
-64.48,1597571099.0625
-50.97,1597571099.078125
-35.88,1597571099.09375
-21.16,1597571099.109375
-8.35,1597571099.125
1.76,1597571099.140625
9.18,1597571099.15625
14.39,1597571099.171875
18.04,1597571099.1875
20.64,1597571099.203125
22.56,1597571099.21875
24.02,1597571099.234375
25.25,1597571099.25
26.43,1597571099.265625
27.67,1597571099.28125
29.02,1597571099.296875
30.44,1597571099.3125
31.9,1597571099.328125
33.41,1597571099.34375
35.04,1597571099.359375
36.81,1597571099.375
38.69,1597571099.390625
40.53,1597571099.40625
42.13,1597571099.421875
43.29,1597571099.4375
43.86,1597571099.453125
43.78,1597571099.46875
43.01,1597571099.484375
41.55,1597571099.5
39.47,1597571099.515625
36.92,1597571099.53125
34.13,1597571099.546875
31.31,1597571099.5625
28.62,1597571099.578125
26.03,1597571099.59375
23.41,1597571099.609375
20.56,1597571099.625
17.36,1597571099.640625
13.83,1597571099.65625
10.09,1597571099.671875
6.37,1597571099.6875
2.91,1597571099.703125
-0.05,1597571099.71875
-2.36,1597571099.734375
-4.01,1597571099.75
-5.19,1597571099.765625
-6.31,1597571099.78125
-7.9,1597571099.796875
-10.38,1597571099.8125
-13.89,1597571099.828125
-18.13,1597571099.84375
-22.54,1597571099.859375
-26.46,1597571099.875
-29.51,1597571099.890625
-31.68,1597571099.90625
-33.42,1597571099.921875
-35.4,1597571099.9375
-38.28,1597571099.953125
-42.6,1597571099.96875
-48.62,1597571099.984375
-56.2,1597571100.0
-64.69,1597571100.015625
-72.82,1597571100.03125
-78.83,1597571100.046875
-80.87,1597571100.0625
-77.61,1597571100.078125
-68.74,1597571100.09375
-55.25,1597571100.109375
-39.11,1597571100.125
-22.71,1597571100.140625
-8.07,1597571100.15625
3.62,1597571100.171875
12.17,1597571100.1875
18.08,1597571100.203125
22.14,1597571100.21875
25.1,1597571100.234375
27.48,1597571100.25
29.58,1597571100.265625
31.54,1597571100.28125
33.42,1597571100.296875
35.26,1597571100.3125
37.02,1597571100.328125
38.59,1597571100.34375
39.89,1597571100.359375
40.8,1597571100.375
41.32,1597571100.390625
41.6,1597571100.40625
41.82,1597571100.421875
42.21,1597571100.4375
42.94,1597571100.453125
44.0,1597571100.46875
45.21,1597571100.484375
46.28,1597571100.5
46.86,1597571100.515625
46.67,1597571100.53125
45.54,1597571100.546875
43.48,1597571100.5625
40.64,1597571100.578125
37.3,1597571100.59375
33.78,1597571100.609375
30.38,1597571100.625
27.29,1597571100.640625
24.51,1597571100.65625
21.95,1597571100.671875
19.4,1597571100.6875
16.66,1597571100.703125
13.58,1597571100.71875
10.13,1597571100.734375
6.42,1597571100.75
2.62,1597571100.765625
-0.99,1597571100.78125
-4.21,1597571100.796875
-6.91,1597571100.8125
-9.14,1597571100.828125
-11.17,1597571100.84375
-13.39,1597571100.859375
-16.14,1597571100.875
-19.64,1597571100.890625
-23.79,1597571100.90625
-28.31,1597571100.921875
-32.79,1597571100.9375
-36.92,1597571100.953125
-40.56,1597571100.96875
-43.85,1597571100.984375
-47.13,1597571101.0
-50.9,1597571101.015625
-55.65,1597571101.03125
-61.62,1597571101.046875
-68.63,1597571101.0625
-75.85,1597571101.078125
-81.84,1597571101.09375
-84.92,1597571101.109375
-83.68,1597571101.125
-77.51,1597571101.140625
-66.86,1597571101.15625
-53.1,1597571101.171875
-38.04,1597571101.1875
-23.38,1597571101.203125
-10.31,1597571101.21875
0.55,1597571101.234375
9.06,1597571101.25
15.34,1597571101.265625
19.65,1597571101.28125
22.33,1597571101.296875
23.81,1597571101.3125
24.5,1597571101.328125
24.73,1597571101.34375
24.7,1597571101.359375
24.51,1597571101.375
24.21,1597571101.390625
23.9,1597571101.40625
23.74,1597571101.421875
23.91,1597571101.4375
24.44,1597571101.453125
25.28,1597571101.46875
26.23,1597571101.484375
27.05,1597571101.5
27.6,1597571101.515625
27.77,1597571101.53125
27.58,1597571101.546875
27.05,1597571101.5625
26.26,1597571101.578125
25.3,1597571101.59375
24.29,1597571101.609375
23.35,1597571101.625
22.52,1597571101.640625
21.71,1597571101.65625
20.72,1597571101.671875
19.28,1597571101.6875
17.19,1597571101.703125
14.46,1597571101.71875
11.32,1597571101.734375
8.14,1597571101.75
5.22,1597571101.765625
2.68,1597571101.78125
0.29,1597571101.796875
-2.3,1597571101.8125
-5.48,1597571101.828125
-9.42,1597571101.84375
-14.05,1597571101.859375
-19.11,1597571101.875
-24.25,1597571101.890625
-29.17,1597571101.90625
-33.71,1597571101.921875
-37.8,1597571101.9375
-41.61,1597571101.953125
-45.45,1597571101.96875
-49.81,1597571101.984375
-55.19,1597571102.0
-61.79,1597571102.015625
-69.19,1597571102.03125
-76.29,1597571102.046875
-81.47,1597571102.0625
-83.07,1597571102.078125
-79.98,1597571102.09375
-72.07,1597571102.109375
-60.25,1597571102.125
-46.18,1597571102.140625
-31.71,1597571102.15625
-18.43,1597571102.171875
-7.3,1597571102.1875
1.41,1597571102.203125
7.96,1597571102.21875
12.91,1597571102.234375
16.9,1597571102.25
20.41,1597571102.265625
23.75,1597571102.28125
26.98,1597571102.296875
30.08,1597571102.3125
33.01,1597571102.328125
35.78,1597571102.34375
38.48,1597571102.359375
41.23,1597571102.375
44.1,1597571102.390625
47.03,1597571102.40625
49.96,1597571102.421875
52.83,1597571102.4375
55.63,1597571102.453125
58.39,1597571102.46875
61.04,1597571102.484375
63.32,1597571102.5
64.76,1597571102.515625
64.88,1597571102.53125
63.34,1597571102.546875
60.22,1597571102.5625
55.92,1597571102.578125
51.12,1597571102.59375
46.44,1597571102.609375
42.22,1597571102.625
38.48,1597571102.640625
35.02,1597571102.65625
31.56,1597571102.671875
27.9,1597571102.6875
23.95,1597571102.703125
19.71,1597571102.71875
15.31,1597571102.734375
10.89,1597571102.75
6.58,1597571102.765625
2.46,1597571102.78125
-1.51,1597571102.796875
-5.49,1597571102.8125
-9.66,1597571102.828125
-14.18,1597571102.84375
-19.0,1597571102.859375
-23.91,1597571102.875
-28.65,1597571102.890625
-33.0,1597571102.90625
-36.95,1597571102.921875
-40.64,1597571102.9375
-44.35,1597571102.953125
-48.41,1597571102.96875
-53.19,1597571102.984375
-58.97,1597571103.0
-65.8,1597571103.015625
-73.25,1597571103.03125
-80.22,1597571103.046875
-85.11,1597571103.0625
-86.14,1597571103.078125
-82.1,1597571103.09375
-72.8,1597571103.109375
-59.29,1597571103.125
-43.51,1597571103.140625
-27.62,1597571103.15625
-13.4,1597571103.171875
-1.77,1597571103.1875
7.11,1597571103.203125
13.62,1597571103.21875
18.26,1597571103.234375
21.45,1597571103.25
23.5,1597571103.265625
24.66,1597571103.28125
25.27,1597571103.296875
25.74,1597571103.3125
26.42,1597571103.328125
27.49,1597571103.34375
28.95,1597571103.359375
30.59,1597571103.375
32.1,1597571103.390625
33.32,1597571103.40625
34.17,1597571103.421875
34.81,1597571103.4375
35.46,1597571103.453125
36.3,1597571103.46875
37.3,1597571103.484375
38.22,1597571103.5
38.7,1597571103.515625
38.38,1597571103.53125
37.13,1597571103.546875
35.05,1597571103.5625
32.46,1597571103.578125
29.77,1597571103.59375
27.27,1597571103.609375
25.03,1597571103.625
22.92,1597571103.640625
20.66,1597571103.65625
17.99,1597571103.671875
14.78,1597571103.6875
11.12,1597571103.703125
7.27,1597571103.71875
3.57,1597571103.734375
0.22,1597571103.75
-2.73,1597571103.765625
-5.49,1597571103.78125
-8.36,1597571103.796875
-11.6,1597571103.8125
-15.24,1597571103.828125
-19.11,1597571103.84375
-22.95,1597571103.859375
-26.57,1597571103.875
-30.02,1597571103.890625
-33.51,1597571103.90625
-37.32,1597571103.921875
-41.7,1597571103.9375
-46.8,1597571103.953125
-52.71,1597571103.96875
-59.47,1597571103.984375
-66.86,1597571104.0
-74.23,1597571104.015625
-80.36,1597571104.03125
-83.64,1597571104.046875
-82.61,1597571104.0625
-76.49,1597571104.078125
-65.59,1597571104.09375
-51.33,1597571104.109375
-35.77,1597571104.125
-20.96,1597571104.140625
-8.39,1597571104.15625
1.34,1597571104.171875
8.42,1597571104.1875
13.48,1597571104.203125
17.29,1597571104.21875
20.4,1597571104.234375
23.04,1597571104.25
25.16,1597571104.265625
26.61,1597571104.28125
27.31,1597571104.296875
27.35,1597571104.3125
27.04,1597571104.328125
26.69,1597571104.34375
26.59,1597571104.359375
26.84,1597571104.375
27.51,1597571104.390625
28.59,1597571104.40625
30.09,1597571104.421875
31.99,1597571104.4375
34.12,1597571104.453125
36.16,1597571104.46875
37.68,1597571104.484375
38.27,1597571104.5
37.73,1597571104.515625
36.08,1597571104.53125
33.63,1597571104.546875
30.72,1597571104.5625
27.63,1597571104.578125
24.48,1597571104.59375
21.24,1597571104.609375
17.86,1597571104.625
14.36,1597571104.640625
10.82,1597571104.65625
7.35,1597571104.671875
3.96,1597571104.6875
0.47,1597571104.703125
-3.4,1597571104.71875
-7.84,1597571104.734375
-12.84,1597571104.75
-18.06,1597571104.765625
-23.08,1597571104.78125
-27.45,1597571104.796875
-31.06,1597571104.8125
-34.08,1597571104.828125
-37.07,1597571104.84375
-40.72,1597571104.859375
-45.76,1597571104.875
-52.65,1597571104.890625
-61.31,1597571104.90625
-70.96,1597571104.921875
-80.05,1597571104.9375
-86.63,1597571104.953125
-88.85,1597571104.96875
-85.64,1597571104.984375
-77.15,1597571105.0
-64.64,1597571105.015625
-50.07,1597571105.03125
-35.32,1597571105.046875
-21.67,1597571105.0625
-9.65,1597571105.078125
0.77,1597571105.09375
9.78,1597571105.109375
17.38,1597571105.125
23.39,1597571105.140625
27.62,1597571105.15625
30.15,1597571105.171875
31.52,1597571105.1875
32.55,1597571105.203125
34.15,1597571105.21875
36.91,1597571105.234375
40.91,1597571105.25
45.74,1597571105.265625
50.63,1597571105.28125
54.72,1597571105.296875
57.33,1597571105.3125
58.06,1597571105.328125
57.08,1597571105.34375
55.27,1597571105.359375
54.37,1597571105.375
56.67,1597571105.390625
64.3,1597571105.40625
78.18,1597571105.421875
97.16,1597571105.4375
117.86,1597571105.453125
135.51,1597571105.46875
145.49,1597571105.484375
145.01,1597571105.5
133.95,1597571105.515625
114.74,1597571105.53125
91.13,1597571105.546875
66.76,1597571105.5625
44.08,1597571105.578125
24.14,1597571105.59375
7.03,1597571105.609375
-7.47,1597571105.625
-19.35,1597571105.640625
-28.45,1597571105.65625
-34.69,1597571105.671875
-38.48,1597571105.6875
-40.78,1597571105.703125
-42.87,1597571105.71875
-45.84,1597571105.734375
-50.21,1597571105.75
-55.68,1597571105.765625
-61.38,1597571105.78125
-66.25,1597571105.796875
-69.63,1597571105.8125
-71.5,1597571105.828125
-72.53,1597571105.84375
-73.73,1597571105.859375
-76.12,1597571105.875
-80.35,1597571105.890625
-86.54,1597571105.90625
-94.26,1597571105.921875
-102.52,1597571105.9375
-109.88,1597571105.953125
-114.7,1597571105.96875
-115.42,1597571105.984375
-111.01,1597571106.0
-101.27,1597571106.015625
-86.98,1597571106.03125
-69.66,1597571106.046875
-51.19,1597571106.0625
-33.35,1597571106.078125
-17.48,1597571106.09375
-4.34,1597571106.109375
5.88,1597571106.125
13.42,1597571106.140625
18.8,1597571106.15625
22.71,1597571106.171875
25.85,1597571106.1875
28.69,1597571106.203125
31.55,1597571106.21875
34.42,1597571106.234375
37.23,1597571106.25
39.86,1597571106.265625
42.22,1597571106.28125
44.3,1597571106.296875
46.09,1597571106.3125
47.59,1597571106.328125
48.81,1597571106.34375
49.84,1597571106.359375
50.77,1597571106.375
51.68,1597571106.390625
52.56,1597571106.40625
53.17,1597571106.421875
53.22,1597571106.4375
52.43,1597571106.453125
50.71,1597571106.46875
48.18,1597571106.484375
45.18,1597571106.5
42.1,1597571106.515625
39.22,1597571106.53125
36.67,1597571106.546875
34.37,1597571106.5625
32.14,1597571106.578125
29.79,1597571106.59375
27.13,1597571106.609375
24.06,1597571106.625
20.57,1597571106.640625
16.76,1597571106.65625
12.8,1597571106.671875
8.97,1597571106.6875
5.52,1597571106.703125
2.6,1597571106.71875
0.09,1597571106.734375
-2.34,1597571106.75
-5.19,1597571106.765625
-8.9,1597571106.78125
-13.6,1597571106.796875
-19.11,1597571106.8125
-24.93,1597571106.828125
-30.5,1597571106.84375
-35.51,1597571106.859375
-40.03,1597571106.875
-44.44,1597571106.890625
-49.3,1597571106.90625
-55.08,1597571106.921875
-62.06,1597571106.9375
-70.23,1597571106.953125
-79.18,1597571106.96875
-88.06,1597571106.984375
-95.53,1597571107.0
-99.88,1597571107.015625
-99.53,1597571107.03125
-93.47,1597571107.046875
-81.8,1597571107.0625
-65.8,1597571107.078125
-47.68,1597571107.09375
-29.82,1597571107.109375
-14.19,1597571107.125
-1.85,1597571107.140625
7.12,1597571107.15625
13.3,1597571107.171875
17.54,1597571107.1875
20.67,1597571107.203125
23.27,1597571107.21875
25.63,1597571107.234375
27.83,1597571107.25
29.81,1597571107.265625
31.47,1597571107.28125
32.72,1597571107.296875
33.61,1597571107.3125
34.28,1597571107.328125
35.03,1597571107.34375
36.14,1597571107.359375
37.81,1597571107.375
40.09,1597571107.390625
42.77,1597571107.40625
45.45,1597571107.421875
47.66,1597571107.4375
48.99,1597571107.453125
49.2,1597571107.46875
48.3,1597571107.484375
46.44,1597571107.5
43.87,1597571107.515625
40.81,1597571107.53125
37.42,1597571107.546875
33.78,1597571107.5625
29.95,1597571107.578125
25.97,1597571107.59375
21.9,1597571107.609375
17.85,1597571107.625
13.91,1597571107.640625
10.16,1597571107.65625
6.63,1597571107.671875
3.26,1597571107.6875
-0.09,1597571107.703125
-3.58,1597571107.71875
-7.38,1597571107.734375
-11.57,1597571107.75
-16.2,1597571107.765625
-21.26,1597571107.78125
-26.64,1597571107.796875
-32.26,1597571107.8125
-37.96,1597571107.828125
-43.56,1597571107.84375
-48.99,1597571107.859375
-54.35,1597571107.875
-60.01,1597571107.890625
-66.51,1597571107.90625
-74.26,1597571107.921875
-83.18,1597571107.9375
-92.34,1597571107.953125
-100.02,1597571107.96875
-104.11,1597571107.984375
-102.85,1597571108.0
-95.45,1597571108.015625
-82.49,1597571108.03125
-65.69,1597571108.046875
-47.3,1597571108.0625
-29.44,1597571108.078125
-13.53,1597571108.09375
-0.13,1597571108.109375
10.86,1597571108.125
19.87,1597571108.140625
27.31,1597571108.15625
33.5,1597571108.171875
38.56,1597571108.1875
42.54,1597571108.203125
45.47,1597571108.21875
47.36,1597571108.234375
48.31,1597571108.25
48.46,1597571108.265625
48.02,1597571108.28125
47.23,1597571108.296875
46.4,1597571108.3125
45.81,1597571108.328125
45.72,1597571108.34375
46.33,1597571108.359375
47.7,1597571108.375
49.69,1597571108.390625
51.95,1597571108.40625
53.95,1597571108.421875
55.18,1597571108.4375
55.29,1597571108.453125
54.18,1597571108.46875
52.08,1597571108.484375
49.39,1597571108.5
46.49,1597571108.515625
43.64,1597571108.53125
40.91,1597571108.546875
38.21,1597571108.5625
35.48,1597571108.578125
32.8,1597571108.59375
30.36,1597571108.609375
28.39,1597571108.625
26.96,1597571108.640625
25.89,1597571108.65625
24.76,1597571108.671875
23.02,1597571108.6875
20.17,1597571108.703125
15.94,1597571108.71875
10.32,1597571108.734375
3.58,1597571108.75
-3.88,1597571108.765625
-11.53,1597571108.78125
-18.94,1597571108.796875
-25.81,1597571108.8125
-32.14,1597571108.828125
-38.15,1597571108.84375
-44.36,1597571108.859375
-51.32,1597571108.875
-59.45,1597571108.890625
-68.65,1597571108.90625
-78.17,1597571108.921875
-86.51,1597571108.9375
-91.78,1597571108.953125
-92.23,1597571108.96875
-86.85,1597571108.984375
-75.78,1597571109.0
-60.43,1597571109.015625
-43.02,1597571109.03125
-25.91,1597571109.046875
-10.92,1597571109.0625
1.01,1597571109.078125
9.85,1597571109.09375
16.09,1597571109.109375
20.38,1597571109.125
23.26,1597571109.140625
25.05,1597571109.15625
26.04,1597571109.171875
26.55,1597571109.1875
26.94,1597571109.203125
27.59,1597571109.21875
28.7,1597571109.234375
30.25,1597571109.25
32.02,1597571109.265625
33.79,1597571109.28125
35.43,1597571109.296875
37.0,1597571109.3125
38.65,1597571109.328125
40.44,1597571109.34375
42.25,1597571109.359375
43.69,1597571109.375
44.33,1597571109.390625
43.85,1597571109.40625
42.2,1597571109.421875
39.66,1597571109.4375
36.64,1597571109.453125
33.46,1597571109.46875
30.26,1597571109.484375
26.99,1597571109.5
23.52,1597571109.515625
19.83,1597571109.53125
16.04,1597571109.546875
12.36,1597571109.5625
8.97,1597571109.578125
5.9,1597571109.59375
3.01,1597571109.609375
0.06,1597571109.625
-3.18,1597571109.640625
-6.81,1597571109.65625
-10.78,1597571109.671875
-14.94,1597571109.6875
-19.14,1597571109.703125
-23.26,1597571109.71875
-27.21,1597571109.734375
-31.03,1597571109.75
-34.8,1597571109.765625
-38.82,1597571109.78125
-43.52,1597571109.796875
-49.42,1597571109.8125
-56.8,1597571109.828125
-65.41,1597571109.84375
-74.3,1597571109.859375
-81.83,1597571109.875
-86.1,1597571109.890625
-85.56,1597571109.90625
-79.48,1597571109.921875
-68.35,1597571109.9375
-53.68,1597571109.953125
-37.54,1597571109.96875
-21.92,1597571109.984375
-8.27,1597571110.0
2.76,1597571110.015625
11.2,1597571110.03125
17.47,1597571110.046875
22.09,1597571110.0625
25.5,1597571110.078125
27.96,1597571110.09375
29.7,1597571110.109375
30.92,1597571110.125
31.87,1597571110.140625
32.75,1597571110.15625
33.73,1597571110.171875
34.88,1597571110.1875
36.26,1597571110.203125
37.94,1597571110.21875
40.01,1597571110.234375
42.45,1597571110.25
45.08,1597571110.265625
47.54,1597571110.28125
49.38,1597571110.296875
50.24,1597571110.3125
50.02,1597571110.328125
