bvp,time
64.0,1651397537.0
-0.0,1651397537.015625
-0.0,1651397537.03125
-0.0,1651397537.046875
-0.0,1651397537.0625
-0.0,1651397537.078125
-0.0,1651397537.09375
-0.0,1651397537.109375
-0.0,1651397537.125
-0.0,1651397537.140625
-0.0,1651397537.15625
0.0,1651397537.171875
0.01,1651397537.1875
0.01,1651397537.203125
-0.0,1651397537.21875
-0.03,1651397537.234375
-0.05,1651397537.25
-0.05,1651397537.265625
0.0,1651397537.28125
0.13,1651397537.296875
0.36,1651397537.3125
0.66,1651397537.328125
1.01,1651397537.34375
1.37,1651397537.359375
1.72,1651397537.375
2.06,1651397537.390625
2.4,1651397537.40625
2.79,1651397537.421875
3.24,1651397537.4375
3.8,1651397537.453125
4.42,1651397537.46875
5.06,1651397537.484375
5.66,1651397537.5
6.2,1651397537.515625
6.68,1651397537.53125
7.15,1651397537.546875
7.68,1651397537.5625
8.31,1651397537.578125
9.14,1651397537.59375
10.09,1651397537.609375
11.04,1651397537.625
11.88,1651397537.640625
12.56,1651397537.65625
13.14,1651397537.671875
13.76,1651397537.6875
14.65,1651397537.703125
15.96,1651397537.71875
17.91,1651397537.734375
20.32,1651397537.75
22.9,1651397537.765625
25.38,1651397537.78125
27.58,1651397537.796875
29.57,1651397537.8125
31.68,1651397537.828125
34.32,1651397537.84375
37.81,1651397537.859375
42.54,1651397537.875
48.15,1651397537.890625
54.1,1651397537.90625
59.83,1651397537.921875
64.97,1651397537.9375
69.58,1651397537.953125
74.14,1651397537.96875
79.34,1651397537.984375
85.71,1651397538.0
93.76,1651397538.015625
103.0,1651397538.03125
112.62,1651397538.046875
121.73,1651397538.0625
129.77,1651397538.078125
136.75,1651397538.09375
143.3,1651397538.109375
150.75,1651397538.125
157.77,1651397538.140625
166.64,1651397538.15625
177.95,1651397538.171875
191.79,1651397538.1875
206.97,1651397538.203125
220.57,1651397538.21875
228.25,1651397538.234375
225.36,1651397538.25
208.53,1651397538.265625
176.87,1651397538.28125
132.76,1651397538.296875
80.05,1651397538.3125
23.07,1651397538.328125
-34.95,1651397538.34375
-92.44,1651397538.359375
-149.16,1651397538.375
-205.23,1651397538.390625
-260.37,1651397538.40625
-313.73,1651397538.421875
-363.85,1651397538.4375
-409.8,1651397538.453125
-450.85,1651397538.46875
-486.42,1651397538.484375
-515.63,1651397538.5
-537.08,1651397538.515625
-549.03,1651397538.53125
-549.72,1651397538.546875
-538.07,1651397538.5625
-513.85,1651397538.578125
-478.26,1651397538.59375
-433.4,1651397538.609375
-381.9,1651397538.625
-326.4,1651397538.640625
-269.15,1651397538.65625
-211.87,1651397538.671875
-155.82,1651397538.6875
-102.03,1651397538.703125
-51.37,1651397538.71875
-4.81,1651397538.734375
36.78,1651397538.75
72.73,1651397538.765625
102.78,1651397538.78125
127.06,1651397538.796875
146.08,1651397538.8125
160.56,1651397538.828125
171.19,1651397538.84375
178.62,1651397538.859375
183.22,1651397538.875
185.3,1651397538.890625
185.08,1651397538.90625
182.83,1651397538.921875
178.9,1651397538.9375
173.7,1651397538.953125
167.64,1651397538.96875
161.07,1651397538.984375
154.24,1651397539.0
147.29,1651397539.015625
140.29,1651397539.03125
133.28,1651397539.046875
126.3,1651397539.0625
119.43,1651397539.078125
112.72,1651397539.09375
106.25,1651397539.109375
100.08,1651397539.125
94.23,1651397539.140625
88.73,1651397539.15625
83.58,1651397539.171875
78.78,1651397539.1875
74.36,1651397539.203125
70.31,1651397539.21875
66.66,1651397539.234375
63.41,1651397539.25
60.56,1651397539.265625
58.12,1651397539.28125
56.05,1651397539.296875
54.35,1651397539.3125
52.94,1651397539.328125
51.75,1651397539.34375
50.67,1651397539.359375
49.56,1651397539.375
48.26,1651397539.390625
46.59,1651397539.40625
44.39,1651397539.421875
41.52,1651397539.4375
37.88,1651397539.453125
33.46,1651397539.46875
28.28,1651397539.484375
22.43,1651397539.5
16.07,1651397539.515625
9.44,1651397539.53125
2.77,1651397539.546875
-3.65,1651397539.5625
-9.58,1651397539.578125
-14.79,1651397539.59375
-19.12,1651397539.609375
-22.46,1651397539.625
-24.79,1651397539.640625
-26.11,1651397539.65625
-26.51,1651397539.671875
-26.12,1651397539.6875
-25.07,1651397539.703125
-23.52,1651397539.71875
-21.62,1651397539.734375
-19.47,1651397539.75
-17.18,1651397539.765625
-14.82,1651397539.78125
-12.41,1651397539.796875
-9.97,1651397539.8125
-7.53,1651397539.828125
-5.09,1651397539.84375
-2.62,1651397539.859375
-0.13,1651397539.875
2.43,1651397539.890625
5.06,1651397539.90625
7.77,1651397539.921875
10.61,1651397539.9375
13.52,1651397539.953125
16.47,1651397539.96875
19.45,1651397539.984375
22.48,1651397540.0
25.56,1651397540.015625
28.71,1651397540.03125
31.98,1651397540.046875
35.42,1651397540.0625
39.12,1651397540.078125
42.99,1651397540.09375
47.0,1651397540.109375
51.15,1651397540.125
55.43,1651397540.140625
59.86,1651397540.15625
64.45,1651397540.171875
69.24,1651397540.1875
74.28,1651397540.203125
79.65,1651397540.21875
85.21,1651397540.234375
90.86,1651397540.25
96.56,1651397540.265625
102.27,1651397540.28125
107.96,1651397540.296875
113.62,1651397540.3125
119.27,1651397540.328125
124.94,1651397540.34375
130.67,1651397540.359375
136.19,1651397540.375
141.3,1651397540.390625
145.79,1651397540.40625
149.43,1651397540.421875
151.97,1651397540.4375
153.04,1651397540.453125
152.15,1651397540.46875
148.61,1651397540.484375
143.7,1651397540.5
137.87,1651397540.515625
131.41,1651397540.53125
124.51,1651397540.546875
117.32,1651397540.5625
109.97,1651397540.578125
102.58,1651397540.59375
95.28,1651397540.609375
88.24,1651397540.625
81.65,1651397540.640625
75.39,1651397540.65625
69.43,1651397540.671875
63.76,1651397540.6875
58.39,1651397540.703125
53.35,1651397540.71875
48.65,1651397540.734375
44.31,1651397540.75
40.36,1651397540.765625
36.89,1651397540.78125
33.71,1651397540.796875
30.73,1651397540.8125
27.88,1651397540.828125
25.14,1651397540.84375
22.49,1651397540.859375
19.95,1651397540.875
17.53,1651397540.890625
15.3,1651397540.90625
13.3,1651397540.921875
11.45,1651397540.9375
9.71,1651397540.953125
8.05,1651397540.96875
6.44,1651397540.984375
4.89,1651397541.0
3.4,1651397541.015625
2.0,1651397541.03125
0.7,1651397541.046875
-0.43,1651397541.0625
-1.44,1651397541.078125
-2.31,1651397541.09375
-3.03,1651397541.109375
-3.59,1651397541.125
-3.99,1651397541.140625
-4.19,1651397541.15625
-4.2,1651397541.171875
-4.04,1651397541.1875
-3.68,1651397541.203125
-3.18,1651397541.21875
-2.58,1651397541.234375
-1.93,1651397541.25
-1.25,1651397541.265625
-0.62,1651397541.28125
-0.08,1651397541.296875
0.31,1651397541.3125
0.48,1651397541.328125
0.39,1651397541.34375
0.01,1651397541.359375
-0.62,1651397541.375
-1.47,1651397541.390625
-2.44,1651397541.40625
-3.47,1651397541.421875
-4.5,1651397541.4375
-5.5,1651397541.453125
-6.49,1651397541.46875
-7.46,1651397541.484375
-8.44,1651397541.5
-9.42,1651397541.515625
-10.38,1651397541.53125
-11.31,1651397541.546875
-12.17,1651397541.5625
-13.0,1651397541.578125
-13.84,1651397541.59375
-14.79,1651397541.609375
-15.88,1651397541.625
-17.16,1651397541.640625
-18.57,1651397541.65625
-20.0,1651397541.671875
-21.32,1651397541.6875
-22.43,1651397541.703125
-23.34,1651397541.71875
-24.18,1651397541.734375
-25.18,1651397541.75
-26.55,1651397541.765625
-28.41,1651397541.78125
-30.72,1651397541.796875
-33.28,1651397541.8125
-35.82,1651397541.828125
-38.16,1651397541.84375
-40.32,1651397541.859375
-42.56,1651397541.875
-45.35,1651397541.890625
-49.08,1651397541.90625
-54.0,1651397541.921875
-59.96,1651397541.9375
-66.56,1651397541.953125
-73.23,1651397541.96875
-79.55,1651397541.984375
-85.48,1651397542.0
-91.41,1651397542.015625
-98.02,1651397542.03125
-106.0,1651397542.046875
-115.71,1651397542.0625
-126.98,1651397542.078125
-139.22,1651397542.09375
-151.68,1651397542.109375
-163.76,1651397542.125
-175.34,1651397542.140625
-186.73,1651397542.15625
-198.64,1651397542.171875
-211.92,1651397542.1875
-227.52,1651397542.203125
-246.26,1651397542.21875
-268.49,1651397542.234375
-293.52,1651397542.25
-319.24,1651397542.265625
-342.13,1651397542.28125
-358.08,1651397542.296875
-363.68,1651397542.3125
-357.54,1651397542.328125
-340.86,1651397542.34375
-316.88,1651397542.359375
-289.59,1651397542.375
-262.34,1651397542.390625
-236.93,1651397542.40625
-213.77,1651397542.421875
-192.57,1651397542.4375
-173.02,1651397542.453125
-155.19,1651397542.46875
-139.28,1651397542.484375
-125.34,1651397542.5
-112.99,1651397542.515625
-101.61,1651397542.53125
-90.66,1651397542.546875
-79.98,1651397542.5625
-69.84,1651397542.578125
-60.73,1651397542.59375
-53.15,1651397542.609375
-47.27,1651397542.625
-42.93,1651397542.640625
-39.64,1651397542.65625
-36.8,1651397542.671875
-33.97,1651397542.6875
-31.03,1651397542.703125
-28.31,1651397542.71875
-26.47,1651397542.734375
-26.18,1651397542.75
-27.6,1651397542.765625
-30.13,1651397542.78125
-32.34,1651397542.796875
-32.43,1651397542.8125
-28.88,1651397542.828125
-21.14,1651397542.84375
-9.84,1651397542.859375
3.37,1651397542.875
16.45,1651397542.890625
27.77,1651397542.90625
36.49,1651397542.921875
42.69,1651397542.9375
47.04,1651397542.953125
50.35,1651397542.96875
53.19,1651397542.984375
55.68,1651397543.0
57.67,1651397543.015625
58.89,1651397543.03125
59.24,1651397543.046875
58.88,1651397543.0625
58.19,1651397543.078125
57.58,1651397543.09375
57.3,1651397543.109375
57.31,1651397543.125
57.35,1651397543.140625
57.12,1651397543.15625
56.45,1651397543.171875
55.45,1651397543.1875
54.34,1651397543.203125
53.37,1651397543.21875
52.54,1651397543.234375
51.66,1651397543.25
50.43,1651397543.265625
48.63,1651397543.28125
46.24,1651397543.296875
43.46,1651397543.3125
40.53,1651397543.328125
37.65,1651397543.34375
34.91,1651397543.359375
32.29,1651397543.375
29.76,1651397543.390625
27.29,1651397543.40625
24.94,1651397543.421875
22.78,1651397543.4375
20.81,1651397543.453125
18.98,1651397543.46875
17.15,1651397543.484375
15.16,1651397543.5
12.95,1651397543.515625
10.49,1651397543.53125
7.85,1651397543.546875
5.06,1651397543.5625
2.1,1651397543.578125
-1.08,1651397543.59375
-4.57,1651397543.609375
-8.43,1651397543.625
-12.76,1651397543.640625
-17.65,1651397543.65625
-23.21,1651397543.671875
-29.42,1651397543.6875
-35.93,1651397543.703125
-41.92,1651397543.71875
-46.13,1651397543.734375
-47.29,1651397543.75
-44.49,1651397543.765625
-37.69,1651397543.78125
-27.77,1651397543.796875
-16.22,1651397543.8125
-4.65,1651397543.828125
5.68,1651397543.84375
14.08,1651397543.859375
20.48,1651397543.875
25.09,1651397543.890625
28.35,1651397543.90625
30.62,1651397543.921875
32.28,1651397543.9375
33.61,1651397543.953125
34.81,1651397543.96875
35.92,1651397543.984375
36.88,1651397544.0
37.64,1651397544.015625
38.12,1651397544.03125
38.34,1651397544.046875
38.36,1651397544.0625
38.25,1651397544.078125
38.11,1651397544.09375
37.98,1651397544.109375
37.95,1651397544.125
37.98,1651397544.140625
38.04,1651397544.15625
37.95,1651397544.171875
37.54,1651397544.1875
36.67,1651397544.203125
35.31,1651397544.21875
33.56,1651397544.234375
31.53,1651397544.25
29.41,1651397544.265625
27.27,1651397544.28125
25.19,1651397544.296875
23.22,1651397544.3125
21.37,1651397544.328125
19.57,1651397544.34375
17.7,1651397544.359375
15.6,1651397544.375
13.22,1651397544.390625
10.69,1651397544.40625
8.26,1651397544.421875
6.29,1651397544.4375
4.96,1651397544.453125
4.17,1651397544.46875
3.56,1651397544.484375
2.56,1651397544.5
0.71,1651397544.515625
-2.16,1651397544.53125
-5.81,1651397544.546875
-9.76,1651397544.5625
-13.46,1651397544.578125
-16.53,1651397544.59375
-18.98,1651397544.609375
-21.06,1651397544.625
-23.23,1651397544.640625
-25.9,1651397544.65625
-29.39,1651397544.671875
-33.73,1651397544.6875
-38.76,1651397544.703125
-44.06,1651397544.71875
-48.88,1651397544.734375
-52.25,1651397544.75
-53.12,1651397544.765625
-50.69,1651397544.78125
-44.74,1651397544.796875
-35.85,1651397544.8125
-25.23,1651397544.828125
-14.39,1651397544.84375
-4.64,1651397544.859375
3.23,1651397544.875
9.12,1651397544.890625
13.44,1651397544.90625
16.83,1651397544.921875
19.88,1651397544.9375
22.95,1651397544.953125
26.07,1651397544.96875
29.08,1651397544.984375
31.78,1651397545.0
33.99,1651397545.015625
35.6,1651397545.03125
36.63,1651397545.046875
37.09,1651397545.0625
37.05,1651397545.078125
36.62,1651397545.09375
35.94,1651397545.109375
35.25,1651397545.125
34.8,1651397545.140625
34.74,1651397545.15625
35.02,1651397545.171875
35.37,1651397545.1875
35.36,1651397545.203125
34.7,1651397545.21875
33.3,1651397545.234375
31.38,1651397545.25
29.26,1651397545.265625
27.23,1651397545.28125
25.34,1651397545.296875
23.48,1651397545.3125
21.49,1651397545.328125
19.25,1651397545.34375
16.9,1651397545.359375
14.68,1651397545.375
12.77,1651397545.390625
11.28,1651397545.40625
10.05,1651397545.421875
8.82,1651397545.4375
7.36,1651397545.453125
5.58,1651397545.46875
3.54,1651397545.484375
1.35,1651397545.5
-0.85,1651397545.515625
-3.01,1651397545.53125
-5.17,1651397545.546875
-7.4,1651397545.5625
-9.74,1651397545.578125
-12.12,1651397545.59375
-14.43,1651397545.609375
-16.54,1651397545.625
-18.4,1651397545.640625
-20.0,1651397545.65625
-21.43,1651397545.671875
-22.74,1651397545.6875
-23.98,1651397545.703125
-25.19,1651397545.71875
-26.55,1651397545.734375
-28.39,1651397545.75
-31.11,1651397545.765625
-35.08,1651397545.78125
-40.27,1651397545.796875
-46.07,1651397545.8125
-51.25,1651397545.828125
-54.29,1651397545.84375
-53.87,1651397545.859375
-49.41,1651397545.875
-41.34,1651397545.890625
-30.91,1651397545.90625
-19.82,1651397545.921875
-9.58,1651397545.9375
-1.17,1651397545.953125
5.17,1651397545.96875
9.68,1651397545.984375
12.9,1651397546.0
15.3,1651397546.015625
17.25,1651397546.03125
19.0,1651397546.046875
20.76,1651397546.0625
22.69,1651397546.078125
24.87,1651397546.09375
27.25,1651397546.109375
29.58,1651397546.125
31.54,1651397546.140625
32.86,1651397546.15625
33.39,1651397546.171875
33.21,1651397546.1875
32.6,1651397546.203125
31.89,1651397546.21875
31.39,1651397546.234375
31.27,1651397546.25
31.49,1651397546.265625
31.87,1651397546.28125
32.16,1651397546.296875
32.18,1651397546.3125
31.79,1651397546.328125
30.95,1651397546.34375
29.74,1651397546.359375
28.27,1651397546.375
26.7,1651397546.390625
25.24,1651397546.40625
24.09,1651397546.421875
23.31,1651397546.4375
22.82,1651397546.453125
22.32,1651397546.46875
21.42,1651397546.484375
19.77,1651397546.5
17.32,1651397546.515625
14.26,1651397546.53125
11.01,1651397546.546875
8.01,1651397546.5625
5.47,1651397546.578125
3.36,1651397546.59375
1.38,1651397546.609375
-0.84,1651397546.625
-3.56,1651397546.640625
-6.82,1651397546.65625
-10.47,1651397546.671875
-14.19,1651397546.6875
-17.73,1651397546.703125
-20.95,1651397546.71875
-23.85,1651397546.734375
-26.63,1651397546.75
-29.59,1651397546.765625
-33.09,1651397546.78125
-37.45,1651397546.796875
-42.81,1651397546.8125
-48.92,1651397546.828125
-55.05,1651397546.84375
-60.02,1651397546.859375
-62.49,1651397546.875
-61.34,1651397546.890625
-56.17,1651397546.90625
-47.47,1651397546.921875
-36.48,1651397546.9375
-24.82,1651397546.953125
-13.96,1651397546.96875
-4.82,1651397546.984375
2.35,1651397547.0
7.79,1651397547.015625
11.98,1651397547.03125
15.33,1651397547.046875
18.12,1651397547.0625
20.42,1651397547.078125
22.22,1651397547.09375
23.54,1651397547.109375
24.5,1651397547.125
25.27,1651397547.140625
26.02,1651397547.15625
26.79,1651397547.171875
27.56,1651397547.1875
28.21,1651397547.203125
28.69,1651397547.21875
29.03,1651397547.234375
29.29,1651397547.25
29.58,1651397547.265625
29.92,1651397547.28125
30.16,1651397547.296875
30.13,1651397547.3125
29.65,1651397547.328125
28.66,1651397547.34375
27.24,1651397547.359375
25.54,1651397547.375
23.73,1651397547.390625
22.02,1651397547.40625
20.45,1651397547.421875
19.06,1651397547.4375
17.8,1651397547.453125
16.61,1651397547.46875
15.35,1651397547.484375
13.84,1651397547.5
11.96,1651397547.515625
9.65,1651397547.53125
6.97,1651397547.546875
4.08,1651397547.5625
1.28,1651397547.578125
-1.14,1651397547.59375
-3.0,1651397547.609375
-4.3,1651397547.625
-5.28,1651397547.640625
-6.31,1651397547.65625
-7.79,1651397547.671875
-9.94,1651397547.6875
-12.74,1651397547.703125
-15.93,1651397547.71875
-19.18,1651397547.734375
-22.12,1651397547.75
-24.58,1651397547.765625
-26.54,1651397547.78125
-28.26,1651397547.796875
-30.13,1651397547.8125
-32.61,1651397547.828125
-36.15,1651397547.84375
-40.89,1651397547.859375
-46.61,1651397547.875
-52.59,1651397547.890625
-57.68,1651397547.90625
-60.59,1651397547.921875
-60.24,1651397547.9375
-56.08,1651397547.953125
-48.37,1651397547.96875
-38.04,1651397547.984375
-26.52,1651397548.0
-15.28,1651397548.015625
-5.44,1651397548.03125
2.39,1651397548.046875
8.15,1651397548.0625
12.25,1651397548.078125
15.18,1651397548.09375
17.45,1651397548.109375
19.4,1651397548.125
21.16,1651397548.140625
22.77,1651397548.15625
24.19,1651397548.171875
25.39,1651397548.1875
26.45,1651397548.203125
27.46,1651397548.21875
28.48,1651397548.234375
29.54,1651397548.25
30.58,1651397548.265625
31.53,1651397548.28125
32.34,1651397548.296875
33.06,1651397548.3125
33.71,1651397548.328125
34.36,1651397548.34375
34.91,1651397548.359375
35.22,1651397548.375
35.06,1651397548.390625
34.28,1651397548.40625
32.85,1651397548.421875
30.88,1651397548.4375
28.63,1651397548.453125
26.4,1651397548.46875
24.41,1651397548.484375
22.75,1651397548.5
21.28,1651397548.515625
19.69,1651397548.53125
17.7,1651397548.546875
15.14,1651397548.5625
12.19,1651397548.578125
9.17,1651397548.59375
6.5,1651397548.609375
4.39,1651397548.625
2.81,1651397548.640625
1.43,1651397548.65625
-0.25,1651397548.671875
-2.55,1651397548.6875
-5.62,1651397548.703125
-9.26,1651397548.71875
-13.15,1651397548.734375
-16.92,1651397548.75
-20.4,1651397548.765625
-23.52,1651397548.78125
-26.39,1651397548.796875
-29.19,1651397548.8125
-32.11,1651397548.828125
-35.39,1651397548.84375
-39.27,1651397548.859375
-43.92,1651397548.875
-49.27,1651397548.890625
-54.81,1651397548.90625
-59.56,1651397548.921875
-62.18,1651397548.9375
-61.42,1651397548.953125
-56.63,1651397548.96875
-48.09,1651397548.984375
-36.97,1651397549.0
-25.01,1651397549.015625
-13.88,1651397549.03125
-4.69,1651397549.046875
2.2,1651397549.0625
7.14,1651397549.078125
10.71,1651397549.09375
13.52,1651397549.109375
15.87,1651397549.125
17.9,1651397549.140625
19.6,1651397549.15625
20.98,1651397549.171875
22.09,1651397549.1875
22.93,1651397549.203125
23.46,1651397549.21875
23.62,1651397549.234375
23.41,1651397549.25
22.96,1651397549.265625
22.54,1651397549.28125
22.46,1651397549.296875
22.88,1651397549.3125
23.81,1651397549.328125
24.98,1651397549.34375
26.06,1651397549.359375
26.66,1651397549.375
26.57,1651397549.390625
25.75,1651397549.40625
24.36,1651397549.421875
22.7,1651397549.4375
21.05,1651397549.453125
19.6,1651397549.46875
18.35,1651397549.484375
17.2,1651397549.5
15.89,1651397549.515625
14.21,1651397549.53125
11.99,1651397549.546875
9.21,1651397549.5625
5.95,1651397549.578125
2.34,1651397549.59375
-1.39,1651397549.609375
-5.05,1651397549.625
-8.42,1651397549.640625
-11.39,1651397549.65625
-13.93,1651397549.671875
-16.11,1651397549.6875
-18.09,1651397549.703125
-20.09,1651397549.71875
-22.35,1651397549.734375
-25.16,1651397549.75
-28.78,1651397549.765625
-33.38,1651397549.78125
-38.74,1651397549.796875
-44.21,1651397549.8125
-48.66,1651397549.828125
-50.81,1651397549.84375
-49.67,1651397549.859375
-44.9,1651397549.875
-37.04,1651397549.890625
-27.26,1651397549.90625
-17.05,1651397549.921875
-7.68,1651397549.9375
0.14,1651397549.953125
6.3,1651397549.96875
11.1,1651397549.984375
14.97,1651397550.0
18.22,1651397550.015625
20.96,1651397550.03125
23.14,1651397550.046875
24.7,1651397550.0625
25.66,1651397550.078125
26.19,1651397550.09375
26.51,1651397550.109375
26.87,1651397550.125
27.4,1651397550.140625
28.09,1651397550.15625
28.78,1651397550.171875
29.33,1651397550.1875
29.63,1651397550.203125
29.74,1651397550.21875
29.73,1651397550.234375
29.67,1651397550.25
29.54,1651397550.265625
29.22,1651397550.28125
28.57,1651397550.296875
27.52,1651397550.3125
26.11,1651397550.328125
24.44,1651397550.34375
22.63,1651397550.359375
20.74,1651397550.375
18.77,1651397550.390625
16.65,1651397550.40625
14.36,1651397550.421875
11.91,1651397550.4375
9.41,1651397550.453125
6.97,1651397550.46875
4.72,1651397550.484375
2.73,1651397550.5
0.91,1651397550.515625
-0.87,1651397550.53125
-2.82,1651397550.546875
-5.08,1651397550.5625
-7.69,1651397550.578125
-10.58,1651397550.59375
-13.62,1651397550.609375
-16.66,1651397550.625
-19.63,1651397550.640625
-22.56,1651397550.65625
-25.6,1651397550.671875
-29.04,1651397550.6875
-33.15,1651397550.703125
-38.18,1651397550.71875
-44.07,1651397550.734375
-50.33,1651397550.75
-56.05,1651397550.765625
-60.0,1651397550.78125
-61.0,1651397550.796875
-58.29,1651397550.8125
-51.77,1651397550.828125
-42.08,1651397550.84375
-30.41,1651397550.859375
-18.2,1651397550.875
-6.78,1651397550.890625
2.87,1651397550.90625
10.31,1651397550.921875
15.61,1651397550.9375
19.21,1651397550.953125
21.66,1651397550.96875
23.48,1651397550.984375
25.05,1651397551.0
26.51,1651397551.015625
27.82,1651397551.03125
28.88,1651397551.046875
29.58,1651397551.0625
29.84,1651397551.078125
29.69,1651397551.09375
29.22,1651397551.109375
28.66,1651397551.125
28.22,1651397551.140625
28.19,1651397551.15625
28.69,1651397551.171875
29.74,1651397551.1875
31.16,1651397551.203125
32.64,1651397551.21875
33.78,1651397551.234375
34.21,1651397551.25
33.77,1651397551.265625
32.43,1651397551.28125
30.44,1651397551.296875
28.25,1651397551.3125
26.31,1651397551.328125
24.99,1651397551.34375
24.33,1651397551.359375
24.11,1651397551.375
23.84,1651397551.390625
23.1,1651397551.40625
21.61,1651397551.421875
19.38,1651397551.4375
16.68,1651397551.453125
13.77,1651397551.46875
10.91,1651397551.484375
8.22,1651397551.5
5.7,1651397551.515625
3.32,1651397551.53125
1.01,1651397551.546875
-1.32,1651397551.5625
-3.76,1651397551.578125
-6.41,1651397551.59375
-9.35,1651397551.609375
-12.51,1651397551.625
-15.73,1651397551.640625
-18.75,1651397551.65625
-21.34,1651397551.671875
-23.42,1651397551.6875
-25.14,1651397551.703125
-26.91,1651397551.71875
-29.23,1651397551.734375
-32.59,1651397551.75
-37.12,1651397551.765625
-42.37,1651397551.78125
-47.31,1651397551.796875
-50.46,1651397551.8125
-50.37,1651397551.828125
-46.18,1651397551.84375
-37.92,1651397551.859375
-26.57,1651397551.875
-13.69,1651397551.890625
-0.89,1651397551.90625
10.69,1651397551.921875
20.58,1651397551.9375
28.97,1651397551.953125
36.29,1651397551.96875
42.99,1651397551.984375
49.34,1651397552.0
55.39,1651397552.015625
61.06,1651397552.03125
66.24,1651397552.046875
70.81,1651397552.0625
74.58,1651397552.078125
77.29,1651397552.09375
78.65,1651397552.109375
78.45,1651397552.125
76.64,1651397552.140625
73.44,1651397552.15625
69.35,1651397552.171875
65.0,1651397552.1875
61.19,1651397552.203125
58.58,1651397552.21875
57.66,1651397552.234375
58.61,1651397552.25
61.23,1651397552.265625
64.98,1651397552.28125
68.95,1651397552.296875
72.11,1651397552.3125
73.3,1651397552.328125
71.64,1651397552.34375
66.72,1651397552.359375
58.67,1651397552.375
48.19,1651397552.390625
36.31,1651397552.40625
24.12,1651397552.421875
12.5,1651397552.4375
2.04,1651397552.453125
-7.0,1651397552.46875
-14.54,1651397552.484375
-20.58,1651397552.5
-25.11,1651397552.515625
-28.09,1651397552.53125
-29.44,1651397552.546875
-29.18,1651397552.5625
-27.4,1651397552.578125
-24.28,1651397552.59375
-20.11,1651397552.609375
-15.15,1651397552.625
-9.68,1651397552.640625
-3.89,1651397552.65625
2.16,1651397552.671875
8.49,1651397552.6875
15.09,1651397552.703125
21.78,1651397552.71875
28.14,1651397552.734375
33.39,1651397552.75
36.58,1651397552.765625
36.86,1651397552.78125
33.73,1651397552.796875
27.34,1651397552.8125
18.52,1651397552.828125
8.47,1651397552.84375
-1.53,1651397552.859375
-10.52,1651397552.875
-18.05,1651397552.890625
-24.13,1651397552.90625
-29.06,1651397552.921875
-33.14,1651397552.9375
-36.59,1651397552.953125
-39.43,1651397552.96875
-41.63,1651397552.984375
-43.24,1651397553.0
-44.36,1651397553.015625
-45.26,1651397553.03125
-46.15,1651397553.046875
-47.15,1651397553.0625
-48.2,1651397553.078125
-49.13,1651397553.09375
-49.69,1651397553.109375
-49.73,1651397553.125
-49.23,1651397553.140625
-48.33,1651397553.15625
-47.31,1651397553.171875
-46.38,1651397553.1875
-45.63,1651397553.203125
-45.03,1651397553.21875
-44.4,1651397553.234375
-43.6,1651397553.25
-42.62,1651397553.265625
-41.5,1651397553.28125
-40.41,1651397553.296875
-39.52,1651397553.3125
-38.85,1651397553.328125
-38.35,1651397553.34375
-37.84,1651397553.359375
-37.11,1651397553.375
-36.01,1651397553.390625
-34.46,1651397553.40625
-32.44,1651397553.421875
-30.07,1651397553.4375
-27.53,1651397553.453125
-25.02,1651397553.46875
-22.81,1651397553.484375
-21.07,1651397553.5
-19.82,1651397553.515625
-18.98,1651397553.53125
-18.39,1651397553.546875
-17.88,1651397553.5625
-17.36,1651397553.578125
-16.89,1651397553.59375
-16.59,1651397553.609375
-16.65,1651397553.625
-17.18,1651397553.640625
-18.18,1651397553.65625
-19.43,1651397553.671875
-20.66,1651397553.6875
-21.63,1651397553.703125
-22.22,1651397553.71875
-22.59,1651397553.734375
-23.05,1651397553.75
-24.04,1651397553.765625
-25.78,1651397553.78125
-28.12,1651397553.796875
-30.52,1651397553.8125
-32.18,1651397553.828125
-32.37,1651397553.84375
-30.67,1651397553.859375
-27.14,1651397553.875
-22.25,1651397553.890625
-16.66,1651397553.90625
-11.02,1651397553.921875
-5.77,1651397553.9375
-1.14,1651397553.953125
2.86,1651397553.96875
6.25,1651397553.984375
9.1,1651397554.0
11.41,1651397554.015625
13.23,1651397554.03125
14.57,1651397554.046875
15.53,1651397554.0625
16.26,1651397554.078125
16.91,1651397554.09375
17.56,1651397554.109375
18.26,1651397554.125
18.94,1651397554.140625
19.48,1651397554.15625
19.82,1651397554.171875
19.95,1651397554.1875
19.99,1651397554.203125
20.15,1651397554.21875
20.62,1651397554.234375
21.42,1651397554.25
22.43,1651397554.265625
23.34,1651397554.28125
23.84,1651397554.296875
23.72,1651397554.3125
23.03,1651397554.328125
22.06,1651397554.34375
21.22,1651397554.359375
20.81,1651397554.375
20.89,1651397554.390625
21.25,1651397554.40625
21.58,1651397554.421875
21.61,1651397554.4375
21.24,1651397554.453125
20.58,1651397554.46875
19.77,1651397554.484375
18.93,1651397554.5
18.08,1651397554.515625
17.21,1651397554.53125
16.38,1651397554.546875
15.63,1651397554.5625
14.99,1651397554.578125
14.4,1651397554.59375
13.68,1651397554.609375
12.56,1651397554.625
10.85,1651397554.640625
8.54,1651397554.65625
5.84,1651397554.671875
3.1,1651397554.6875
0.72,1651397554.703125
-1.11,1651397554.71875
-2.39,1651397554.734375
-3.35,1651397554.75
-4.37,1651397554.765625
-5.77,1651397554.78125
-7.59,1651397554.796875
-9.59,1651397554.8125
-11.24,1651397554.828125
-11.86,1651397554.84375
-10.79,1651397554.859375
-7.6,1651397554.875
-2.15,1651397554.890625
5.24,1651397554.90625
13.9,1651397554.921875
22.92,1651397554.9375
31.2,1651397554.953125
37.75,1651397554.96875
41.85,1651397554.984375
43.21,1651397555.0
42.02,1651397555.015625
38.82,1651397555.03125
34.31,1651397555.046875
29.17,1651397555.0625
23.96,1651397555.078125
19.07,1651397555.09375
14.79,1651397555.109375
11.37,1651397555.125
8.9,1651397555.140625
7.29,1651397555.15625
6.32,1651397555.171875
5.63,1651397555.1875
4.9,1651397555.203125
3.97,1651397555.21875
2.84,1651397555.234375
1.57,1651397555.25
0.28,1651397555.265625
-1.04,1651397555.28125
-2.45,1651397555.296875
-4.02,1651397555.3125
-5.74,1651397555.328125
-7.59,1651397555.34375
-9.5,1651397555.359375
-11.43,1651397555.375
-13.37,1651397555.390625
-15.35,1651397555.40625
-17.33,1651397555.421875
-19.19,1651397555.4375
-20.77,1651397555.453125
-21.94,1651397555.46875
-22.64,1651397555.484375
-22.96,1651397555.5
-23.13,1651397555.515625
-23.43,1651397555.53125
-24.04,1651397555.546875
-25.13,1651397555.5625
-26.71,1651397555.578125
-28.74,1651397555.59375
-31.08,1651397555.609375
-33.55,1651397555.625
-35.86,1651397555.640625
-37.75,1651397555.65625
-38.99,1651397555.671875
-39.42,1651397555.6875
-39.05,1651397555.703125
-38.03,1651397555.71875
-36.58,1651397555.734375
-34.92,1651397555.75
-33.25,1651397555.765625
-31.8,1651397555.78125
-30.87,1651397555.796875
-30.78,1651397555.8125
-31.81,1651397555.828125
-33.95,1651397555.84375
-36.82,1651397555.859375
-39.65,1651397555.875
-41.47,1651397555.890625
-41.45,1651397555.90625
-39.18,1651397555.921875
-34.78,1651397555.9375
-28.89,1651397555.953125
-22.34,1651397555.96875
-15.93,1651397555.984375
-10.17,1651397556.0
-5.3,1651397556.015625
-1.35,1651397556.03125
1.79,1651397556.046875
4.25,1651397556.0625
6.14,1651397556.078125
7.56,1651397556.09375
8.6,1651397556.109375
9.36,1651397556.125
9.93,1651397556.140625
10.37,1651397556.15625
10.74,1651397556.171875
11.12,1651397556.1875
11.49,1651397556.203125
11.91,1651397556.21875
12.32,1651397556.234375
12.68,1651397556.25
12.92,1651397556.265625
13.03,1651397556.28125
13.09,1651397556.296875
13.26,1651397556.3125
13.68,1651397556.328125
14.37,1651397556.34375
15.2,1651397556.359375
15.88,1651397556.375
16.13,1651397556.390625
15.75,1651397556.40625
14.69,1651397556.421875
13.04,1651397556.4375
11.02,1651397556.453125
8.77,1651397556.46875
6.41,1651397556.484375
3.97,1651397556.5
1.44,1651397556.515625
-1.2,1651397556.53125
-3.97,1651397556.546875
-6.85,1651397556.5625
-9.75,1651397556.578125
-12.54,1651397556.59375
-14.95,1651397556.609375
-16.71,1651397556.625
-17.66,1651397556.640625
-17.81,1651397556.65625
-17.46,1651397556.671875
-17.0,1651397556.6875
-16.98,1651397556.703125
-17.84,1651397556.71875
-19.84,1651397556.734375
-22.98,1651397556.75
-26.88,1651397556.765625
-30.85,1651397556.78125
-34.0,1651397556.796875
-35.46,1651397556.8125
-34.66,1651397556.828125
-31.44,1651397556.84375
-26.1,1651397556.859375
-19.3,1651397556.875
-11.79,1651397556.890625
-4.23,1651397556.90625
2.84,1651397556.921875
9.09,1651397556.9375
14.41,1651397556.953125
18.74,1651397556.96875
22.16,1651397556.984375
24.71,1651397557.0
26.51,1651397557.015625
27.65,1651397557.03125
28.23,1651397557.046875
28.37,1651397557.0625
28.31,1651397557.078125
28.21,1651397557.09375
28.23,1651397557.109375
28.39,1651397557.125
28.58,1651397557.140625
28.71,1651397557.15625
28.75,1651397557.171875
28.81,1651397557.1875
29.05,1651397557.203125
29.58,1651397557.21875
30.36,1651397557.234375
31.16,1651397557.25
31.67,1651397557.265625
31.61,1651397557.28125
30.91,1651397557.296875
29.71,1651397557.3125
28.24,1651397557.328125
26.74,1651397557.34375
25.34,1651397557.359375
23.96,1651397557.375
22.43,1651397557.390625
20.59,1651397557.40625
18.36,1651397557.421875
15.8,1651397557.4375
13.02,1651397557.453125
10.21,1651397557.46875
7.48,1651397557.484375
4.91,1651397557.5
2.52,1651397557.515625
0.27,1651397557.53125
-1.86,1651397557.546875
-3.99,1651397557.5625
-6.21,1651397557.578125
-8.61,1651397557.59375
-11.21,1651397557.609375
-13.87,1651397557.625
-16.44,1651397557.640625
-18.8,1651397557.65625
-21.0,1651397557.671875
-23.27,1651397557.6875
-25.95,1651397557.703125
-29.36,1651397557.71875
-33.65,1651397557.734375
-38.73,1651397557.75
-44.32,1651397557.765625
-50.04,1651397557.78125
-55.49,1651397557.796875
-60.25,1651397557.8125
-63.88,1651397557.828125
-65.95,1651397557.84375
-66.07,1651397557.859375
-64.18,1651397557.875
-60.59,1651397557.890625
-55.97,1651397557.90625
-51.28,1651397557.921875
-47.43,1651397557.9375
-45.04,1651397557.953125
-44.21,1651397557.96875
-44.6,1651397557.984375
-45.49,1651397558.0
-46.13,1651397558.015625
-45.78,1651397558.03125
-43.67,1651397558.046875
-39.04,1651397558.0625
-31.07,1651397558.078125
-19.09,1651397558.09375
-2.89,1651397558.109375
17.09,1651397558.125
39.86,1651397558.140625
64.12,1651397558.15625
88.81,1651397558.171875
113.34,1651397558.1875
137.52,1651397558.203125
161.12,1651397558.21875
183.5,1651397558.234375
203.4,1651397558.25
219.15,1651397558.265625
229.24,1651397558.28125
232.84,1651397558.296875
230.1,1651397558.3125
222.07,1651397558.328125
210.27,1651397558.34375
196.16,1651397558.359375
180.73,1651397558.375
164.26,1651397558.390625
146.53,1651397558.40625
127.2,1651397558.421875
106.38,1651397558.4375
84.97,1651397558.453125
64.54,1651397558.46875
46.75,1651397558.484375
32.66,1651397558.5
22.2,1651397558.515625
14.13,1651397558.53125
6.53,1651397558.546875
-2.23,1651397558.5625
-12.91,1651397558.578125
-24.99,1651397558.59375
-37.17,1651397558.609375
-48.12,1651397558.625
-57.35,1651397558.640625
-65.36,1651397558.65625
-73.39,1651397558.671875
-82.68,1651397558.6875
-93.66,1651397558.703125
-105.78,1651397558.71875
-117.59,1651397558.734375
-127.41,1651397558.75
-133.96,1651397558.765625
-136.7,1651397558.78125
-135.99,1651397558.796875
-132.83,1651397558.8125
-128.33,1651397558.828125
-123.34,1651397558.84375
-118.26,1651397558.859375
-112.97,1651397558.875
-107.05,1651397558.890625
-99.77,1651397558.90625
-90.07,1651397558.921875
-76.81,1651397558.9375
-59.18,1651397558.953125
-37.77,1651397558.96875
-15.25,1651397558.984375
3.48,1651397559.0
12.65,1651397559.015625
7.9,1651397559.03125
-11.4,1651397559.046875
-41.17,1651397559.0625
-73.81,1651397559.078125
-101.12,1651397559.09375
-117.47,1651397559.109375
-121.69,1651397559.125
-116.71,1651397559.140625
-107.37,1651397559.15625
-97.73,1651397559.171875
-89.44,1651397559.1875
-81.75,1651397559.203125
-72.81,1651397559.21875
-61.23,1651397559.234375
-46.97,1651397559.25
-31.3,1651397559.265625
-15.97,1651397559.28125
-2.41,1651397559.296875
8.81,1651397559.3125
17.92,1651397559.328125
25.6,1651397559.34375
32.46,1651397559.359375
38.75,1651397559.375
44.26,1651397559.390625
48.58,1651397559.40625
51.41,1651397559.421875
52.81,1651397559.4375
53.34,1651397559.453125
53.83,1651397559.46875
54.91,1651397559.484375
56.69,1651397559.5
58.52,1651397559.515625
59.34,1651397559.53125
58.17,1651397559.546875
54.8,1651397559.5625
49.98,1651397559.578125
45.22,1651397559.59375
42.14,1651397559.609375
41.77,1651397559.625
44.19,1651397559.640625
48.59,1651397559.65625
53.76,1651397559.671875
58.6,1651397559.6875
62.43,1651397559.703125
65.12,1651397559.71875
66.93,1651397559.734375
68.25,1651397559.75
69.39,1651397559.765625
70.53,1651397559.78125
71.58,1651397559.796875
72.3,1651397559.8125
72.48,1651397559.828125
71.98,1651397559.84375
71.01,1651397559.859375
70.09,1651397559.875
69.85,1651397559.890625
70.69,1651397559.90625
72.45,1651397559.921875
74.35,1651397559.9375
75.17,1651397559.953125
73.65,1651397559.96875
69.07,1651397559.984375
61.36,1651397560.0
51.08,1651397560.015625
39.25,1651397560.03125
27.16,1651397560.046875
16.09,1651397560.0625
7.3,1651397560.078125
1.6,1651397560.09375
-0.92,1651397560.109375
-1.15,1651397560.125
-0.85,1651397560.140625
-2.1,1651397560.15625
-6.39,1651397560.171875
-13.96,1651397560.1875
-23.54,1651397560.203125
-32.78,1651397560.21875
-39.32,1651397560.234375
-41.68,1651397560.25
-39.76,1651397560.265625
-34.72,1651397560.28125
-28.35,1651397560.296875
-22.41,1651397560.3125
-18.02,1651397560.328125
-15.58,1651397560.34375
-14.97,1651397560.359375
-15.82,1651397560.375
-17.93,1651397560.390625
-21.29,1651397560.40625
-26.13,1651397560.421875
-32.56,1651397560.4375
-40.44,1651397560.453125
-49.11,1651397560.46875
-57.59,1651397560.484375
-64.85,1651397560.5
-70.14,1651397560.515625
-73.25,1651397560.53125
-74.54,1651397560.546875
-74.65,1651397560.5625
-74.09,1651397560.578125
-73.0,1651397560.59375
-71.04,1651397560.609375
-67.67,1651397560.625
-62.49,1651397560.640625
-55.52,1651397560.65625
-47.25,1651397560.671875
-38.5,1651397560.6875
-30.02,1651397560.703125
-22.34,1651397560.71875
-15.65,1651397560.734375
-9.82,1651397560.75
-4.76,1651397560.765625
-0.44,1651397560.78125
3.05,1651397560.796875
5.57,1651397560.8125
7.14,1651397560.828125
8.02,1651397560.84375
8.54,1651397560.859375
9.07,1651397560.875
9.79,1651397560.890625
10.76,1651397560.90625
11.92,1651397560.921875
13.21,1651397560.9375
14.54,1651397560.953125
15.83,1651397560.96875
16.99,1651397560.984375
18.08,1651397561.0
19.29,1651397561.015625
20.92,1651397561.03125
23.3,1651397561.046875
26.48,1651397561.0625
30.15,1651397561.078125
33.73,1651397561.09375
36.56,1651397561.109375
38.28,1651397561.125
38.91,1651397561.140625
38.85,1651397561.15625
38.59,1651397561.171875
38.45,1651397561.1875
38.52,1651397561.203125
38.67,1651397561.21875
38.82,1651397561.234375
39.02,1651397561.25
39.39,1651397561.265625
40.05,1651397561.28125
40.99,1651397561.296875
41.95,1651397561.3125
42.59,1651397561.328125
42.61,1651397561.34375
41.8,1651397561.359375
40.1,1651397561.375
37.41,1651397561.390625
33.52,1651397561.40625
28.14,1651397561.421875
21.12,1651397561.4375
12.57,1651397561.453125
2.94,1651397561.46875
-7.19,1651397561.484375
-17.47,1651397561.5
-27.94,1651397561.515625
-39.02,1651397561.53125
-51.27,1651397561.546875
-65.05,1651397561.5625
-80.51,1651397561.578125
-97.6,1651397561.59375
-116.19,1651397561.609375
-135.98,1651397561.625
-156.34,1651397561.640625
-176.04,1651397561.65625
-193.38,1651397561.671875
-206.59,1651397561.6875
-214.41,1651397561.703125
-216.54,1651397561.71875
-213.6,1651397561.734375
-206.81,1651397561.75
-197.45,1651397561.765625
-186.56,1651397561.78125
-174.92,1651397561.796875
-163.28,1651397561.8125
-152.31,1651397561.828125
-142.48,1651397561.84375
-133.84,1651397561.859375
-125.97,1651397561.875
-118.2,1651397561.890625
-110.06,1651397561.90625
-101.61,1651397561.921875
-93.44,1651397561.9375
-86.42,1651397561.953125
-81.11,1651397561.96875
-77.37,1651397561.984375
-74.32,1651397562.0
-70.6,1651397562.015625
-65.0,1651397562.03125
-56.81,1651397562.046875
-45.97,1651397562.0625
-32.95,1651397562.078125
-18.42,1651397562.09375
-3.18,1651397562.109375
11.87,1651397562.125
25.58,1651397562.140625
36.61,1651397562.15625
43.76,1651397562.171875
46.47,1651397562.1875
45.19,1651397562.203125
41.38,1651397562.21875
36.92,1651397562.234375
33.39,1651397562.25
31.51,1651397562.265625
31.08,1651397562.28125
31.34,1651397562.296875
31.64,1651397562.3125
31.86,1651397562.328125
32.58,1651397562.34375
34.78,1651397562.359375
39.13,1651397562.375
45.53,1651397562.390625
52.83,1651397562.40625
59.14,1651397562.421875
62.62,1651397562.4375
62.06,1651397562.453125
57.36,1651397562.46875
49.18,1651397562.484375
38.63,1651397562.5
26.82,1651397562.515625
14.89,1651397562.53125
4.28,1651397562.546875
-3.06,1651397562.5625
-4.9,1651397562.578125
0.45,1651397562.59375
13.23,1651397562.609375
31.68,1651397562.625
52.42,1651397562.640625
71.48,1651397562.65625
85.72,1651397562.671875
93.54,1651397562.6875
95.06,1651397562.703125
91.64,1651397562.71875
85.05,1651397562.734375
76.77,1651397562.75
67.82,1651397562.765625
58.91,1651397562.78125
50.79,1651397562.796875
44.44,1651397562.8125
40.87,1651397562.828125
40.7,1651397562.84375
43.69,1651397562.859375
48.61,1651397562.875
53.56,1651397562.890625
56.72,1651397562.90625
57.03,1651397562.921875
54.6,1651397562.9375
50.48,1651397562.953125
46.09,1651397562.96875
42.61,1651397562.984375
40.68,1651397563.0
40.38,1651397563.015625
41.6,1651397563.03125
44.24,1651397563.046875
48.44,1651397563.0625
54.57,1651397563.078125
63.1,1651397563.09375
74.4,1651397563.109375
88.42,1651397563.125
104.34,1651397563.140625
120.51,1651397563.15625
134.7,1651397563.171875
144.68,1651397563.1875
148.83,1651397563.203125
146.68,1651397563.21875
138.81,1651397563.234375
126.56,1651397563.25
111.45,1651397563.265625
94.87,1651397563.28125
77.87,1651397563.296875
61.5,1651397563.3125
46.7,1651397563.328125
34.37,1651397563.34375
25.01,1651397563.359375
18.55,1651397563.375
14.3,1651397563.390625
11.26,1651397563.40625
8.66,1651397563.421875
6.14,1651397563.4375
3.93,1651397563.453125
2.45,1651397563.46875
1.98,1651397563.484375
2.46,1651397563.5
3.45,1651397563.515625
4.37,1651397563.53125
4.8,1651397563.546875
4.54,1651397563.5625
3.6,1651397563.578125
2.12,1651397563.59375
0.26,1651397563.609375
-1.81,1651397563.625
-3.85,1651397563.640625
-5.59,1651397563.65625
-6.83,1651397563.671875
-7.49,1651397563.6875
-7.63,1651397563.703125
-7.36,1651397563.71875
-6.77,1651397563.734375
-5.8,1651397563.75
-4.38,1651397563.765625
-2.42,1651397563.78125
0.0,1651397563.796875
2.63,1651397563.8125
5.1,1651397563.828125
7.13,1651397563.84375
8.55,1651397563.859375
9.46,1651397563.875
10.14,1651397563.890625
10.92,1651397563.90625
11.99,1651397563.921875
13.42,1651397563.9375
15.11,1651397563.953125
16.94,1651397563.96875
18.84,1651397563.984375
20.86,1651397564.0
23.13,1651397564.015625
25.74,1651397564.03125
28.65,1651397564.046875
31.63,1651397564.0625
34.18,1651397564.078125
35.72,1651397564.09375
35.68,1651397564.109375
33.66,1651397564.125
29.53,1651397564.140625
23.62,1651397564.15625
16.57,1651397564.171875
9.26,1651397564.1875
2.57,1651397564.203125
-2.72,1651397564.21875
-6.15,1651397564.234375
-7.52,1651397564.25
-6.84,1651397564.265625
-4.37,1651397564.28125
-0.54,1651397564.296875
4.06,1651397564.3125
8.77,1651397564.328125
13.08,1651397564.34375
16.65,1651397564.359375
19.55,1651397564.375
22.01,1651397564.390625
24.47,1651397564.40625
27.31,1651397564.421875
30.74,1651397564.4375
34.68,1651397564.453125
38.81,1651397564.46875
42.66,1651397564.484375
45.72,1651397564.5
47.68,1651397564.515625
48.49,1651397564.53125
48.43,1651397564.546875
48.01,1651397564.5625
47.89,1651397564.578125
48.55,1651397564.59375
50.14,1651397564.609375
52.33,1651397564.625
54.29,1651397564.640625
54.89,1651397564.65625
52.95,1651397564.671875
47.7,1651397564.6875
39.06,1651397564.703125
27.77,1651397564.71875
15.11,1651397564.734375
2.52,1651397564.75
-8.89,1651397564.765625
-18.55,1651397564.78125
-26.47,1651397564.796875
-33.01,1651397564.8125
-38.63,1651397564.828125
-43.7,1651397564.84375
-48.47,1651397564.859375
-52.99,1651397564.875
-57.22,1651397564.890625
-60.95,1651397564.90625
-63.9,1651397564.921875
-65.76,1651397564.9375
-66.4,1651397564.953125
-65.97,1651397564.96875
-64.84,1651397564.984375
-63.46,1651397565.0
-62.18,1651397565.015625
-61.07,1651397565.03125
-59.95,1651397565.046875
-58.52,1651397565.0625
-56.48,1651397565.078125
-53.65,1651397565.09375
-49.93,1651397565.109375
-45.31,1651397565.125
-39.87,1651397565.140625
-33.89,1651397565.15625
-27.86,1651397565.171875
-22.43,1651397565.1875
-18.2,1651397565.203125
-15.53,1651397565.21875
-14.4,1651397565.234375
-14.35,1651397565.25
-14.79,1651397565.265625
-15.14,1651397565.28125
-15.04,1651397565.296875
-14.45,1651397565.3125
-13.53,1651397565.328125
-12.5,1651397565.34375
-11.63,1651397565.359375
-11.14,1651397565.375
-11.21,1651397565.390625
-11.93,1651397565.40625
-13.29,1651397565.421875
-15.11,1651397565.4375
-17.19,1651397565.453125
-19.25,1651397565.46875
-21.05,1651397565.484375
-22.34,1651397565.5
-22.95,1651397565.515625
-22.7,1651397565.53125
-21.5,1651397565.546875
-19.43,1651397565.5625
-16.63,1651397565.578125
-13.39,1651397565.59375
-9.99,1651397565.609375
-6.66,1651397565.625
-3.51,1651397565.640625
-0.66,1651397565.65625
1.78,1651397565.671875
3.61,1651397565.6875
4.63,1651397565.703125
4.74,1651397565.71875
3.97,1651397565.734375
2.54,1651397565.75
0.75,1651397565.765625
-1.13,1651397565.78125
-2.99,1651397565.796875
-4.8,1651397565.8125
-6.61,1651397565.828125
-8.34,1651397565.84375
-9.83,1651397565.859375
-10.83,1651397565.875
-11.18,1651397565.890625
-10.89,1651397565.90625
-10.26,1651397565.921875
-9.73,1651397565.9375
-9.7,1651397565.953125
-10.3,1651397565.96875
-11.33,1651397565.984375
-12.35,1651397566.0
-12.9,1651397566.015625
-12.78,1651397566.03125
-12.1,1651397566.046875
-11.22,1651397566.0625
-10.56,1651397566.078125
-10.33,1651397566.09375
-10.53,1651397566.109375
-11.04,1651397566.125
-11.66,1651397566.140625
-12.33,1651397566.15625
-12.98,1651397566.171875
-13.53,1651397566.1875
-13.78,1651397566.203125
-13.44,1651397566.21875
-12.31,1651397566.234375
-10.31,1651397566.25
-7.64,1651397566.265625
-4.62,1651397566.28125
-1.61,1651397566.296875
1.08,1651397566.3125
3.28,1651397566.328125
4.85,1651397566.34375
5.79,1651397566.359375
6.18,1651397566.375
6.17,1651397566.390625
5.95,1651397566.40625
5.68,1651397566.421875
5.43,1651397566.4375
5.17,1651397566.453125
4.84,1651397566.46875
4.39,1651397566.484375
3.87,1651397566.5
3.39,1651397566.515625
3.07,1651397566.53125
2.88,1651397566.546875
2.76,1651397566.5625
2.61,1651397566.578125
2.39,1651397566.59375
2.16,1651397566.609375
1.92,1651397566.625
1.75,1651397566.640625
1.61,1651397566.65625
1.53,1651397566.671875
1.55,1651397566.6875
1.83,1651397566.703125
2.49,1651397566.71875
3.53,1651397566.734375
4.84,1651397566.75
6.15,1651397566.765625
7.24,1651397566.78125
7.98,1651397566.796875
8.45,1651397566.8125
8.73,1651397566.828125
8.89,1651397566.84375
8.85,1651397566.859375
8.38,1651397566.875
7.39,1651397566.890625
5.92,1651397566.90625
4.21,1651397566.921875
2.6,1651397566.9375
1.4,1651397566.953125
0.71,1651397566.96875
0.38,1651397566.984375
0.16,1651397567.0
-0.27,1651397567.015625
-1.05,1651397567.03125
-2.11,1651397567.046875
-3.15,1651397567.0625
-3.77,1651397567.078125
-3.45,1651397567.09375
-1.8,1651397567.109375
1.41,1651397567.125
6.01,1651397567.140625
11.44,1651397567.15625
16.84,1651397567.171875
21.21,1651397567.1875
23.81,1651397567.203125
24.38,1651397567.21875
23.3,1651397567.234375
21.46,1651397567.25
20.03,1651397567.265625
20.03,1651397567.28125
22.11,1651397567.296875
26.44,1651397567.3125
32.75,1651397567.328125
40.53,1651397567.34375
49.16,1651397567.359375
57.98,1651397567.375
66.29,1651397567.390625
73.38,1651397567.40625
78.44,1651397567.421875
80.75,1651397567.4375
79.85,1651397567.453125
75.67,1651397567.46875
68.64,1651397567.484375
59.72,1651397567.5
50.18,1651397567.515625
41.44,1651397567.53125
34.79,1651397567.546875
31.09,1651397567.5625
30.6,1651397567.578125
32.68,1651397567.59375
35.82,1651397567.609375
37.95,1651397567.625
36.94,1651397567.640625
31.3,1651397567.65625
20.73,1651397567.671875
6.23,1651397567.6875
-10.16,1651397567.703125
-25.95,1651397567.71875
-38.78,1651397567.734375
-46.99,1651397567.75
-49.79,1651397567.765625
-47.18,1651397567.78125
-39.89,1651397567.796875
-29.13,1651397567.8125
-16.37,1651397567.828125
-3.09,1651397567.84375
9.4,1651397567.859375
20.22,1651397567.875
28.91,1651397567.890625
35.43,1651397567.90625
40.0,1651397567.921875
42.89,1651397567.9375
44.3,1651397567.953125
44.37,1651397567.96875
43.3,1651397567.984375
41.6,1651397568.0
40.16,1651397568.015625
40.04,1651397568.03125
42.03,1651397568.046875
46.15,1651397568.0625
51.45,1651397568.078125
56.24,1651397568.09375
58.88,1651397568.109375
58.23,1651397568.125
53.89,1651397568.140625
45.76,1651397568.15625
33.62,1651397568.171875
16.94,1651397568.1875
-4.84,1651397568.203125
-31.59,1651397568.21875
-62.02,1651397568.234375
-94.07,1651397568.25
-125.75,1651397568.265625
-156.11,1651397568.28125
-185.73,1651397568.296875
-216.27,1651397568.3125
-249.34,1651397568.328125
-285.87,1651397568.34375
-326.04,1651397568.359375
-369.56,1651397568.375
-415.7,1651397568.390625
-462.75,1651397568.40625
-507.24,1651397568.421875
-543.75,1651397568.4375
-566.13,1651397568.453125
-569.67,1651397568.46875
-553.26,1651397568.484375
-520.26,1651397568.5
-477.24,1651397568.515625
-431.5,1651397568.53125
-388.43,1651397568.546875
-350.32,1651397568.5625
-316.89,1651397568.578125
-286.96,1651397568.59375
-259.8,1651397568.609375
-235.75,1651397568.625
-215.59,1651397568.640625
-199.58,1651397568.65625
-186.99,1651397568.671875
-176.4,1651397568.6875
-166.32,1651397568.703125
-155.94,1651397568.71875
-145.32,1651397568.734375
-135.3,1651397568.75
-126.81,1651397568.765625
-120.35,1651397568.78125
-115.63,1651397568.796875
-111.65,1651397568.8125
-107.05,1651397568.828125
-100.65,1651397568.84375
-91.86,1651397568.859375
-80.94,1651397568.875
-68.73,1651397568.890625
-56.35,1651397568.90625
-44.69,1651397568.921875
-34.14,1651397568.9375
-24.46,1651397568.953125
-15.05,1651397568.96875
-5.16,1651397568.984375
5.64,1651397569.0
17.33,1651397569.015625
29.35,1651397569.03125
40.83,1651397569.046875
50.93,1651397569.0625
59.14,1651397569.078125
65.58,1651397569.09375
70.91,1651397569.109375
76.17,1651397569.125
82.31,1651397569.140625
89.83,1651397569.15625
98.53,1651397569.171875
107.63,1651397569.1875
116.06,1651397569.203125
122.91,1651397569.21875
127.86,1651397569.234375
131.3,1651397569.25
134.28,1651397569.265625
138.1,1651397569.28125
143.98,1651397569.296875
152.72,1651397569.3125
164.29,1651397569.328125
177.66,1651397569.34375
190.68,1651397569.359375
200.43,1651397569.375
204.09,1651397569.390625
200.1,1651397569.40625
189.08,1651397569.421875
173.99,1651397569.4375
159.18,1651397569.453125
148.93,1651397569.46875
145.95,1651397569.484375
150.65,1651397569.5
161.5,1651397569.515625
176.23,1651397569.53125
192.94,1651397569.546875
210.85,1651397569.5625
230.18,1651397569.578125
251.78,1651397569.59375
276.33,1651397569.609375
303.85,1651397569.625
333.17,1651397569.640625
361.86,1651397569.65625
386.35,1651397569.671875
402.79,1651397569.6875
408.24,1651397569.703125
401.65,1651397569.71875
384.26,1651397569.734375
359.11,1651397569.75
329.88,1651397569.765625
299.67,1651397569.78125
270.29,1651397569.796875
242.47,1651397569.8125
216.41,1651397569.828125
192.35,1651397569.84375
170.73,1651397569.859375
151.84,1651397569.875
135.37,1651397569.890625
120.35,1651397569.90625
105.51,1651397569.921875
89.92,1651397569.9375
73.42,1651397569.953125
56.68,1651397569.96875
40.94,1651397569.984375
27.41,1651397570.0
16.77,1651397570.015625
8.99,1651397570.03125
3.37,1651397570.046875
-1.12,1651397570.0625
-5.35,1651397570.078125
-9.8,1651397570.09375
-14.41,1651397570.109375
-18.69,1651397570.125
-21.92,1651397570.140625
-23.5,1651397570.15625
-23.14,1651397570.171875
-20.97,1651397570.1875
-17.52,1651397570.203125
-13.5,1651397570.21875
-9.56,1651397570.234375
-6.11,1651397570.25
-3.21,1651397570.265625
-0.69,1651397570.28125
1.74,1651397570.296875
4.26,1651397570.3125
6.92,1651397570.328125
9.7,1651397570.34375
12.56,1651397570.359375
15.59,1651397570.375
18.86,1651397570.390625
22.42,1651397570.40625
26.07,1651397570.421875
29.48,1651397570.4375
32.27,1651397570.453125
34.24,1651397570.46875
35.49,1651397570.484375
36.4,1651397570.5
37.41,1651397570.515625
38.84,1651397570.53125
40.78,1651397570.546875
43.13,1651397570.5625
45.69,1651397570.578125
48.37,1651397570.59375
51.24,1651397570.609375
54.55,1651397570.625
58.6,1651397570.640625
63.62,1651397570.65625
69.61,1651397570.671875
76.24,1651397570.6875
82.72,1651397570.703125
88.02,1651397570.71875
91.1,1651397570.734375
91.32,1651397570.75
88.71,1651397570.765625
84.13,1651397570.78125
79.07,1651397570.796875
75.15,1651397570.8125
73.65,1651397570.828125
75.05,1651397570.84375
78.98,1651397570.859375
84.49,1651397570.875
90.48,1651397570.890625
96.15,1651397570.90625
101.04,1651397570.921875
104.89,1651397570.9375
107.22,1651397570.953125
107.05,1651397570.96875
103.03,1651397570.984375
93.73,1651397571.0
78.37,1651397571.015625
57.19,1651397571.03125
31.53,1651397571.046875
3.52,1651397571.0625
-24.59,1651397571.078125
-50.9,1651397571.09375
-74.16,1651397571.109375
-93.7,1651397571.125
-109.23,1651397571.140625
-120.65,1651397571.15625
-128.13,1651397571.171875
-132.07,1651397571.1875
-133.18,1651397571.203125
-132.36,1651397571.21875
-130.61,1651397571.234375
-128.76,1651397571.25
-127.41,1651397571.265625
-126.84,1651397571.28125
-127.01,1651397571.296875
-127.56,1651397571.3125
-127.94,1651397571.328125
-127.61,1651397571.34375
-126.29,1651397571.359375
-124.19,1651397571.375
-121.92,1651397571.390625
-120.23,1651397571.40625
-119.51,1651397571.421875
-119.56,1651397571.4375
-119.6,1651397571.453125
-118.66,1651397571.46875
-116.07,1651397571.484375
-111.81,1651397571.5
-106.46,1651397571.515625
-100.93,1651397571.53125
-96.0,1651397571.546875
-92.0,1651397571.5625
-88.78,1651397571.578125
-85.89,1651397571.59375
-82.84,1651397571.609375
-79.33,1651397571.625
-75.36,1651397571.640625
-71.2,1651397571.65625
-67.15,1651397571.671875
-63.48,1651397571.6875
-60.19,1651397571.703125
-57.11,1651397571.71875
-53.89,1651397571.734375
-50.18,1651397571.75
-45.79,1651397571.765625
-40.78,1651397571.78125
-35.41,1651397571.796875
-30.06,1651397571.8125
-25.08,1651397571.828125
-20.75,1651397571.84375
-17.18,1651397571.859375
-14.38,1651397571.875
-12.34,1651397571.890625
-11.0,1651397571.90625
-10.28,1651397571.921875
-10.0,1651397571.9375
-9.88,1651397571.953125
-9.64,1651397571.96875
-9.11,1651397571.984375
-8.33,1651397572.0
-7.54,1651397572.015625
-7.09,1651397572.03125
-7.24,1651397572.046875
-8.07,1651397572.0625
-9.52,1651397572.078125
-11.44,1651397572.09375
-13.76,1651397572.109375
-16.36,1651397572.125
-19.18,1651397572.140625
-22.02,1651397572.15625
-24.63,1651397572.171875
-26.77,1651397572.1875
-28.32,1651397572.203125
-29.31,1651397572.21875
-29.86,1651397572.234375
-30.05,1651397572.25
-29.77,1651397572.265625
-28.92,1651397572.28125
-27.4,1651397572.296875
-25.28,1651397572.3125
-22.79,1651397572.328125
-20.24,1651397572.34375
-17.86,1651397572.359375
-15.75,1651397572.375
-13.91,1651397572.390625
-12.35,1651397572.40625
-11.1,1651397572.421875
-10.21,1651397572.4375
-9.56,1651397572.453125
-8.81,1651397572.46875
-7.47,1651397572.484375
-4.96,1651397572.5
-0.92,1651397572.515625
4.6,1651397572.53125
11.12,1651397572.546875
17.83,1651397572.5625
23.96,1651397572.578125
28.99,1651397572.59375
32.86,1651397572.609375
35.81,1651397572.625
38.2,1651397572.640625
40.3,1651397572.65625
42.08,1651397572.671875
43.38,1651397572.6875
43.95,1651397572.703125
43.74,1651397572.71875
42.88,1651397572.734375
41.62,1651397572.75
40.26,1651397572.765625
39.01,1651397572.78125
37.93,1651397572.796875
36.94,1651397572.8125
36.01,1651397572.828125
35.12,1651397572.84375
34.34,1651397572.859375
33.71,1651397572.875
33.21,1651397572.890625
32.72,1651397572.90625
32.04,1651397572.921875
30.95,1651397572.9375
29.32,1651397572.953125
27.17,1651397572.96875
24.65,1651397572.984375
22.05,1651397573.0
19.65,1651397573.015625
17.67,1651397573.03125
16.25,1651397573.046875
15.4,1651397573.0625
15.0,1651397573.078125
14.73,1651397573.09375
14.18,1651397573.109375
12.93,1651397573.125
10.74,1651397573.140625
7.68,1651397573.15625
4.17,1651397573.171875
0.79,1651397573.1875
-1.94,1651397573.203125
-3.79,1651397573.21875
-5.02,1651397573.234375
-6.18,1651397573.25
-7.89,1651397573.265625
-10.5,1651397573.28125
-13.88,1651397573.296875
-17.53,1651397573.3125
-20.64,1651397573.328125
-22.48,1651397573.34375
-22.54,1651397573.359375
-20.69,1651397573.375
-17.18,1651397573.390625
-12.48,1651397573.40625
-7.21,1651397573.421875
-1.98,1651397573.4375
2.71,1651397573.453125
6.57,1651397573.46875
9.46,1651397573.484375
11.49,1651397573.5
12.9,1651397573.515625
13.98,1651397573.53125
15.0,1651397573.546875
16.03,1651397573.5625
17.0,1651397573.578125
17.73,1651397573.59375
18.02,1651397573.609375
17.82,1651397573.625
17.25,1651397573.640625
16.54,1651397573.65625
15.94,1651397573.671875
15.6,1651397573.6875
15.53,1651397573.703125
15.69,1651397573.71875
16.06,1651397573.734375
16.68,1651397573.75
17.59,1651397573.765625
18.77,1651397573.78125
19.98,1651397573.796875
20.9,1651397573.8125
21.17,1651397573.828125
20.62,1651397573.84375
19.31,1651397573.859375
17.5,1651397573.875
15.51,1651397573.890625
13.58,1651397573.90625
11.81,1651397573.921875
10.13,1651397573.9375
8.42,1651397573.953125
6.63,1651397573.96875
4.78,1651397573.984375
2.98,1651397574.0
1.32,1651397574.015625
-0.24,1651397574.03125
-1.79,1651397574.046875
-3.45,1651397574.0625
-5.23,1651397574.078125
-7.04,1651397574.09375
-8.73,1651397574.109375
-10.23,1651397574.125
-11.54,1651397574.140625
-12.8,1651397574.15625
-14.22,1651397574.171875
-15.9,1651397574.1875
-17.95,1651397574.203125
-20.4,1651397574.21875
-23.27,1651397574.234375
-26.49,1651397574.25
-29.77,1651397574.265625
-32.51,1651397574.28125
-33.88,1651397574.296875
-33.08,1651397574.3125
-29.7,1651397574.328125
-23.97,1651397574.34375
-16.79,1651397574.359375
-9.39,1651397574.375
-2.88,1651397574.390625
2.16,1651397574.40625
5.72,1651397574.421875
8.23,1651397574.4375
10.23,1651397574.453125
12.12,1651397574.46875
13.96,1651397574.484375
15.62,1651397574.5
16.94,1651397574.515625
17.84,1651397574.53125
18.39,1651397574.546875
18.76,1651397574.5625
19.1,1651397574.578125
19.51,1651397574.59375
19.99,1651397574.609375
20.42,1651397574.625
20.65,1651397574.640625
20.63,1651397574.65625
20.37,1651397574.671875
20.03,1651397574.6875
19.75,1651397574.703125
19.66,1651397574.71875
19.7,1651397574.734375
19.61,1651397574.75
19.09,1651397574.765625
17.92,1651397574.78125
16.12,1651397574.796875
13.98,1651397574.8125
11.91,1651397574.828125
10.29,1651397574.84375
9.28,1651397574.859375
8.76,1651397574.875
8.42,1651397574.890625
7.98,1651397574.90625
7.22,1651397574.921875
6.09,1651397574.9375
4.64,1651397574.953125
2.93,1651397574.96875
1.05,1651397574.984375
-0.94,1651397575.0
-2.93,1651397575.015625
-4.78,1651397575.03125
-6.42,1651397575.046875
-7.75,1651397575.0625
-8.84,1651397575.078125
-9.78,1651397575.09375
-10.68,1651397575.109375
-11.58,1651397575.125
-12.46,1651397575.140625
-13.3,1651397575.15625
-14.09,1651397575.171875
-14.91,1651397575.1875
-15.89,1651397575.203125
-17.21,1651397575.21875
-19.07,1651397575.234375
-21.6,1651397575.25
-24.8,1651397575.265625
-28.42,1651397575.28125
-31.98,1651397575.296875
-34.8,1651397575.3125
-36.23,1651397575.328125
-35.86,1651397575.34375
-33.67,1651397575.359375
-30.05,1651397575.375
-25.67,1651397575.390625
-21.37,1651397575.40625
-17.92,1651397575.421875
-15.94,1651397575.4375
-15.76,1651397575.453125
-17.34,1651397575.46875
-20.3,1651397575.484375
-23.9,1651397575.5
-27.34,1651397575.515625
-29.81,1651397575.53125
-30.87,1651397575.546875
-30.61,1651397575.5625
-29.63,1651397575.578125
-28.98,1651397575.59375
-29.85,1651397575.609375
-33.16,1651397575.625
-39.06,1651397575.640625
-46.79,1651397575.65625
-54.64,1651397575.671875
-60.63,1651397575.6875
-63.18,1651397575.703125
-61.88,1651397575.71875
-57.68,1651397575.734375
-52.48,1651397575.75
-48.33,1651397575.765625
-46.62,1651397575.78125
-47.66,1651397575.796875
-50.72,1651397575.8125
-54.63,1651397575.828125
-58.13,1651397575.84375
-60.12,1651397575.859375
-59.6,1651397575.875
-55.54,1651397575.890625
-46.95,1651397575.90625
-33.26,1651397575.921875
-14.73,1651397575.9375
7.51,1651397575.953125
31.65,1651397575.96875
55.76,1651397575.984375
78.32,1651397576.0
98.46,1651397576.015625
115.93,1651397576.03125
130.82,1651397576.046875
143.37,1651397576.0625
153.87,1651397576.078125
162.74,1651397576.09375
170.46,1651397576.109375
177.48,1651397576.125
184.05,1651397576.140625
190.01,1651397576.15625
194.94,1651397576.171875
198.29,1651397576.1875
199.77,1651397576.203125
199.54,1651397576.21875
198.19,1651397576.234375
196.63,1651397576.25
195.74,1651397576.265625
196.12,1651397576.28125
197.69,1651397576.296875
199.49,1651397576.3125
199.7,1651397576.328125
195.9,1651397576.34375
185.75,1651397576.359375
167.79,1651397576.375
142.14,1651397576.390625
110.58,1651397576.40625
76.18,1651397576.421875
42.31,1651397576.4375
11.66,1651397576.453125
-14.37,1651397576.46875
-35.72,1651397576.484375
-53.17,1651397576.5
-67.55,1651397576.515625
-79.36,1651397576.53125
-88.6,1651397576.546875
-95.14,1651397576.5625
-99.07,1651397576.578125
-100.85,1651397576.59375
-101.21,1651397576.609375
-100.82,1651397576.625
-99.96,1651397576.640625
-98.48,1651397576.65625
-95.99,1651397576.671875
-92.26,1651397576.6875
-87.41,1651397576.703125
-81.98,1651397576.71875
-76.67,1651397576.734375
-72.0,1651397576.75
-68.18,1651397576.765625
-65.07,1651397576.78125
-62.29,1651397576.796875
-59.55,1651397576.8125
-56.69,1651397576.828125
-53.72,1651397576.84375
-50.75,1651397576.859375
-47.94,1651397576.875
-45.35,1651397576.890625
-43.09,1651397576.90625
-41.33,1651397576.921875
-40.39,1651397576.9375
-40.71,1651397576.953125
-42.59,1651397576.96875
-46.15,1651397576.984375
-51.05,1651397577.0
-56.57,1651397577.015625
-61.72,1651397577.03125
-65.45,1651397577.046875
-66.95,1651397577.0625
-65.87,1651397577.078125
-62.28,1651397577.09375
-56.67,1651397577.109375
-49.74,1651397577.125
-42.27,1651397577.140625
-35.06,1651397577.15625
-28.79,1651397577.171875
-23.9,1651397577.1875
-20.55,1651397577.203125
-18.57,1651397577.21875
-17.49,1651397577.234375
-16.83,1651397577.25
-16.21,1651397577.265625
-15.52,1651397577.28125
-14.93,1651397577.296875
-14.82,1651397577.3125
-15.67,1651397577.328125
-17.84,1651397577.34375
-21.54,1651397577.359375
-26.71,1651397577.375
-32.95,1651397577.390625
-39.54,1651397577.40625
-45.53,1651397577.421875
-49.95,1651397577.4375
-52.08,1651397577.453125
-51.59,1651397577.46875
-48.75,1651397577.484375
-44.22,1651397577.5
-38.87,1651397577.515625
-33.46,1651397577.53125
-28.36,1651397577.546875
-23.61,1651397577.5625
-18.99,1651397577.578125
-14.25,1651397577.59375
-9.29,1651397577.609375
-4.3,1651397577.625
0.35,1651397577.640625
4.22,1651397577.65625
6.77,1651397577.671875
7.51,1651397577.6875
6.01,1651397577.703125
2.02,1651397577.71875
-4.27,1651397577.734375
-12.13,1651397577.75
-20.38,1651397577.765625
-27.69,1651397577.78125
-33.04,1651397577.796875
-36.12,1651397577.8125
-37.38,1651397577.828125
-37.62,1651397577.84375
-37.58,1651397577.859375
-37.46,1651397577.875
-36.93,1651397577.890625
-35.45,1651397577.90625
-32.79,1651397577.921875
-29.31,1651397577.9375
-25.9,1651397577.953125
-23.48,1651397577.96875
-22.49,1651397577.984375
-22.54,1651397578.0
-22.46,1651397578.015625
-20.85,1651397578.03125
-16.54,1651397578.046875
-8.97,1651397578.0625
1.74,1651397578.078125
15.04,1651397578.09375
30.19,1651397578.109375
46.3,1651397578.125
62.37,1651397578.140625
77.33,1651397578.15625
90.16,1651397578.171875
100.18,1651397578.1875
107.26,1651397578.203125
111.89,1651397578.21875
114.95,1651397578.234375
117.43,1651397578.25
120.04,1651397578.265625
123.02,1651397578.28125
126.13,1651397578.296875
128.66,1651397578.3125
129.72,1651397578.328125
128.55,1651397578.34375
124.81,1651397578.359375
118.8,1651397578.375
111.49,1651397578.390625
104.36,1651397578.40625
98.9,1651397578.421875
96.29,1651397578.4375
97.04,1651397578.453125
100.87,1651397578.46875
106.9,1651397578.484375
113.79,1651397578.5
120.1,1651397578.515625
124.38,1651397578.53125
125.37,1651397578.546875
121.98,1651397578.5625
113.4,1651397578.578125
99.11,1651397578.59375
79.02,1651397578.609375
53.65,1651397578.625
24.04,1651397578.640625
-8.17,1651397578.65625
-41.1,1651397578.671875
-72.98,1651397578.6875
-102.38,1651397578.703125
-128.39,1651397578.71875
-150.6,1651397578.734375
-168.99,1651397578.75
-183.69,1651397578.765625
-194.87,1651397578.78125
-202.48,1651397578.796875
-206.34,1651397578.8125
-206.25,1651397578.828125
-202.28,1651397578.84375
-194.96,1651397578.859375
-185.36,1651397578.875
-174.76,1651397578.890625
-164.24,1651397578.90625
-154.37,1651397578.921875
-145.04,1651397578.9375
-135.78,1651397578.953125
-126.2,1651397578.96875
-116.17,1651397578.984375
-105.92,1651397579.0
-95.73,1651397579.015625
-85.66,1651397579.03125
-75.45,1651397579.046875
-64.72,1651397579.0625
-53.2,1651397579.078125
-41.02,1651397579.09375
-28.73,1651397579.109375
-17.06,1651397579.125
-6.62,1651397579.140625
2.21,1651397579.15625
9.37,1651397579.171875
14.91,1651397579.1875
18.82,1651397579.203125
21.03,1651397579.21875
21.44,1651397579.234375
20.03,1651397579.25
17.05,1651397579.265625
13.02,1651397579.28125
8.7,1651397579.296875
4.97,1651397579.3125
2.66,1651397579.328125
2.33,1651397579.34375
4.26,1651397579.359375
8.25,1651397579.375
13.75,1651397579.390625
19.91,1651397579.40625
25.84,1651397579.421875
30.77,1651397579.4375
34.3,1651397579.453125
36.36,1651397579.46875
37.16,1651397579.484375
37.08,1651397579.5
36.48,1651397579.515625
35.6,1651397579.53125
34.6,1651397579.546875
33.51,1651397579.5625
32.36,1651397579.578125
31.18,1651397579.59375
30.0,1651397579.609375
28.86,1651397579.625
27.72,1651397579.640625
26.54,1651397579.65625
25.24,1651397579.671875
23.8,1651397579.6875
22.29,1651397579.703125
20.88,1651397579.71875
19.79,1651397579.734375
19.17,1651397579.75
19.01,1651397579.765625
19.21,1651397579.78125
19.54,1651397579.796875
19.8,1651397579.8125
19.87,1651397579.828125
19.71,1651397579.84375
19.3,1651397579.859375
18.67,1651397579.875
17.88,1651397579.890625
16.99,1651397579.90625
16.11,1651397579.921875
15.27,1651397579.9375
14.44,1651397579.953125
13.52,1651397579.96875
12.37,1651397579.984375
10.99,1651397580.0
9.45,1651397580.015625
7.91,1651397580.03125
6.56,1651397580.046875
5.49,1651397580.0625
4.68,1651397580.078125
4.07,1651397580.09375
3.57,1651397580.109375
3.2,1651397580.125
2.94,1651397580.140625
2.78,1651397580.15625
2.67,1651397580.171875
2.51,1651397580.1875
2.3,1651397580.203125
2.2,1651397580.21875
2.5,1651397580.234375
3.61,1651397580.25
5.88,1651397580.265625
9.53,1651397580.28125
14.56,1651397580.296875
20.75,1651397580.3125
27.72,1651397580.328125
34.9,1651397580.34375
41.56,1651397580.359375
46.85,1651397580.375
49.88,1651397580.390625
50.01,1651397580.40625
47.21,1651397580.421875
42.2,1651397580.4375
36.43,1651397580.453125
31.67,1651397580.46875
29.38,1651397580.484375
30.23,1651397580.5
33.91,1651397580.515625
39.39,1651397580.53125
45.47,1651397580.546875
51.25,1651397580.5625
56.28,1651397580.578125
60.43,1651397580.59375
63.45,1651397580.609375
64.87,1651397580.625
64.0,1651397580.640625
60.3,1651397580.65625
53.61,1651397580.671875
44.3,1651397580.6875
33.2,1651397580.703125
21.44,1651397580.71875
10.32,1651397580.734375
1.15,1651397580.75
-4.85,1651397580.765625
-6.87,1651397580.78125
-4.84,1651397580.796875
0.35,1651397580.8125
7.03,1651397580.828125
13.16,1651397580.84375
17.03,1651397580.859375
17.66,1651397580.875
14.91,1651397580.890625
9.2,1651397580.90625
0.97,1651397580.921875
-9.37,1651397580.9375
-21.39,1651397580.953125
-34.36,1651397580.96875
-47.04,1651397580.984375
-58.02,1651397581.0
-66.11,1651397581.015625
-70.92,1651397581.03125
-72.96,1651397581.046875
-73.31,1651397581.0625
-73.05,1651397581.078125
-72.7,1651397581.09375
-71.95,1651397581.109375
-69.96,1651397581.125
-65.92,1651397581.140625
-59.46,1651397581.15625
-50.9,1651397581.171875
-41.0,1651397581.1875
-30.63,1651397581.203125
-20.47,1651397581.21875
-10.73,1651397581.234375
-1.37,1651397581.25
7.87,1651397581.265625
17.22,1651397581.28125
26.82,1651397581.296875
36.61,1651397581.3125
46.41,1651397581.328125
55.93,1651397581.34375
64.77,1651397581.359375
72.4,1651397581.375
78.39,1651397581.390625
82.5,1651397581.40625
84.86,1651397581.421875
86.09,1651397581.4375
87.23,1651397581.453125
89.4,1651397581.46875
93.45,1651397581.484375
99.51,1651397581.5
106.79,1651397581.515625
113.61,1651397581.53125
117.94,1651397581.546875
117.87,1651397581.5625
112.17,1651397581.578125
100.35,1651397581.59375
82.65,1651397581.609375
59.92,1651397581.625
33.52,1651397581.640625
5.39,1651397581.65625
-22.18,1651397581.671875
-46.94,1651397581.6875
-67.34,1651397581.703125
-83.13,1651397581.71875
-95.35,1651397581.734375
-105.83,1651397581.75
-116.16,1651397581.765625
-126.98,1651397581.78125
-137.65,1651397581.796875
-146.79,1651397581.8125
-153.14,1651397581.828125
-156.17,1651397581.84375
-156.21,1651397581.859375
-154.03,1651397581.875
-150.23,1651397581.890625
-145.0,1651397581.90625
-138.22,1651397581.921875
-130.0,1651397581.9375
-120.87,1651397581.953125
-111.78,1651397581.96875
-103.72,1651397581.984375
-97.02,1651397582.0
-91.24,1651397582.015625
-85.29,1651397582.03125
-78.1,1651397582.046875
-69.22,1651397582.0625
-59.14,1651397582.078125
-49.03,1651397582.09375
-40.15,1651397582.109375
-33.12,1651397582.125
-27.55,1651397582.140625
-22.17,1651397582.15625
-15.34,1651397582.171875
-5.68,1651397582.1875
7.51,1651397582.203125
24.17,1651397582.21875
43.55,1651397582.234375
64.57,1651397582.25
85.96,1651397582.265625
106.4,1651397582.28125
124.55,1651397582.296875
139.14,1651397582.3125
148.99,1651397582.328125
153.08,1651397582.34375
150.74,1651397582.359375
141.83,1651397582.375
127.06,1651397582.390625
108.13,1651397582.40625
87.53,1651397582.421875
67.93,1651397582.4375
51.44,1651397582.453125
38.96,1651397582.46875
30.05,1651397582.484375
23.35,1651397582.5
17.37,1651397582.515625
11.12,1651397582.53125
4.33,1651397582.546875
-2.73,1651397582.5625
-9.68,1651397582.578125
-16.34,1651397582.59375
-22.74,1651397582.609375
-28.92,1651397582.625
-34.91,1651397582.640625
-40.64,1651397582.65625
-46.19,1651397582.671875
-51.84,1651397582.6875
-57.85,1651397582.703125
-64.4,1651397582.71875
-71.39,1651397582.734375
-78.55,1651397582.75
-85.56,1651397582.765625
-92.18,1651397582.78125
-98.26,1651397582.796875
-103.66,1651397582.8125
-108.1,1651397582.828125
-111.23,1651397582.84375
-112.79,1651397582.859375
-112.8,1651397582.875
-111.49,1651397582.890625
-109.24,1651397582.90625
-106.27,1651397582.921875
-102.59,1651397582.9375
-98.16,1651397582.953125
-93.12,1651397582.96875
-88.0,1651397582.984375
-83.62,1651397583.0
-80.71,1651397583.015625
-79.42,1651397583.03125
-79.08,1651397583.046875
-78.39,1651397583.0625
-75.99,1651397583.078125
-71.05,1651397583.09375
-63.6,1651397583.109375
-54.43,1651397583.125
-44.68,1651397583.140625
-35.3,1651397583.15625
-26.88,1651397583.171875
-19.58,1651397583.1875
-13.35,1651397583.203125
-8.16,1651397583.21875
-4.11,1651397583.234375
-1.29,1651397583.25
0.24,1651397583.265625
0.55,1651397583.28125
-0.15,1651397583.296875
-1.63,1651397583.3125
-3.72,1651397583.328125
-6.39,1651397583.34375
-9.7,1651397583.359375
-13.71,1651397583.375
-18.33,1651397583.390625
-23.3,1651397583.40625
-28.29,1651397583.421875
-32.94,1651397583.4375
-36.93,1651397583.453125
-39.91,1651397583.46875
-41.36,1651397583.484375
-40.57,1651397583.5
-36.85,1651397583.515625
-29.77,1651397583.53125
-19.57,1651397583.546875
-7.22,1651397583.5625
5.86,1651397583.578125
18.24,1651397583.59375
29.03,1651397583.609375
38.05,1651397583.625
45.72,1651397583.640625
52.63,1651397583.65625
59.29,1651397583.671875
65.91,1651397583.6875
72.52,1651397583.703125
79.08,1651397583.71875
85.57,1651397583.734375
91.91,1651397583.75
97.99,1651397583.765625
103.66,1651397583.78125
108.8,1651397583.796875
113.54,1651397583.8125
118.1,1651397583.828125
122.61,1651397583.84375
126.59,1651397583.859375
128.71,1651397583.875
126.87,1651397583.890625
118.89,1651397583.90625
103.53,1651397583.921875
81.26,1651397583.9375
54.61,1651397583.953125
27.49,1651397583.96875
4.09,1651397583.984375
-12.6,1651397584.0
-21.68,1651397584.015625
-24.32,1651397584.03125
-22.93,1651397584.046875
-20.08,1651397584.0625
-17.53,1651397584.078125
-15.91,1651397584.09375
-15.06,1651397584.109375
-14.56,1651397584.125
-14.22,1651397584.140625
-14.14,1651397584.15625
-14.52,1651397584.171875
-15.35,1651397584.1875
-16.32,1651397584.203125
-16.89,1651397584.21875
-16.68,1651397584.234375
-15.68,1651397584.25
-14.33,1651397584.265625
-13.32,1651397584.28125
-13.32,1651397584.296875
-14.55,1651397584.3125
-16.69,1651397584.328125
-18.92,1651397584.34375
-20.21,1651397584.359375
-19.73,1651397584.375
-17.27,1651397584.390625
-13.3,1651397584.40625
-8.78,1651397584.421875
-4.73,1651397584.4375
-1.78,1651397584.453125
0.04,1651397584.46875
1.28,1651397584.484375
2.71,1651397584.5
4.92,1651397584.515625
8.01,1651397584.53125
11.62,1651397584.546875
15.05,1651397584.5625
17.69,1651397584.578125
19.24,1651397584.59375
19.8,1651397584.609375
19.75,1651397584.625
19.58,1651397584.640625
19.55,1651397584.65625
19.7,1651397584.671875
19.8,1651397584.6875
19.49,1651397584.703125
18.48,1651397584.71875
16.67,1651397584.734375
14.19,1651397584.75
11.36,1651397584.765625
8.65,1651397584.78125
6.41,1651397584.796875
4.89,1651397584.8125
4.08,1651397584.828125
3.77,1651397584.84375
3.62,1651397584.859375
3.27,1651397584.875
2.43,1651397584.890625
0.96,1651397584.90625
-1.13,1651397584.921875
-3.63,1651397584.9375
-6.19,1651397584.953125
-8.34,1651397584.96875
-9.51,1651397584.984375
-9.29,1651397585.0
-7.57,1651397585.015625
-4.62,1651397585.03125
-0.99,1651397585.046875
2.54,1651397585.0625
5.4,1651397585.078125
7.25,1651397585.09375
8.1,1651397585.109375
8.19,1651397585.125
7.85,1651397585.140625
7.38,1651397585.15625
6.98,1651397585.171875
6.79,1651397585.1875
6.82,1651397585.203125
6.93,1651397585.21875
6.94,1651397585.234375
6.62,1651397585.25
5.81,1651397585.265625
4.61,1651397585.28125
3.33,1651397585.296875
2.37,1651397585.3125
2.09,1651397585.328125
2.58,1651397585.34375
3.72,1651397585.359375
5.24,1651397585.375
6.84,1651397585.390625
8.32,1651397585.40625
9.6,1651397585.421875
10.64,1651397585.4375
11.33,1651397585.453125
11.59,1651397585.46875
11.32,1651397585.484375
10.56,1651397585.5
9.54,1651397585.515625
8.49,1651397585.53125
7.58,1651397585.546875
6.79,1651397585.5625
5.99,1651397585.578125
5.03,1651397585.59375
3.87,1651397585.609375
2.67,1651397585.625
1.71,1651397585.640625
1.24,1651397585.65625
1.34,1651397585.671875
1.86,1651397585.6875
2.53,1651397585.703125
3.04,1651397585.71875
3.22,1651397585.734375
3.04,1651397585.75
2.59,1651397585.765625
1.93,1651397585.78125
1.16,1651397585.796875
0.32,1651397585.8125
-0.56,1651397585.828125
-1.49,1651397585.84375
-2.56,1651397585.859375
-3.9,1651397585.875
-5.64,1651397585.890625
-7.75,1651397585.90625
-9.94,1651397585.921875
-11.7,1651397585.9375
-12.41,1651397585.953125
-11.61,1651397585.96875
-9.21,1651397585.984375
-5.51,1651397586.0
-1.11,1651397586.015625
3.27,1651397586.03125
7.09,1651397586.046875
10.0,1651397586.0625
11.93,1651397586.078125
12.96,1651397586.09375
13.26,1651397586.109375
12.99,1651397586.125
12.38,1651397586.140625
11.64,1651397586.15625
11.05,1651397586.171875
10.79,1651397586.1875
10.94,1651397586.203125
11.38,1651397586.21875
11.88,1651397586.234375
12.15,1651397586.25
11.96,1651397586.265625
11.27,1651397586.28125
10.2,1651397586.296875
9.01,1651397586.3125
7.97,1651397586.328125
7.28,1651397586.34375
6.96,1651397586.359375
6.92,1651397586.375
6.98,1651397586.390625
6.95,1651397586.40625
6.74,1651397586.421875
6.26,1651397586.4375
5.55,1651397586.453125
4.67,1651397586.46875
3.7,1651397586.484375
2.72,1651397586.5
1.87,1651397586.515625
1.22,1651397586.53125
0.79,1651397586.546875
0.51,1651397586.5625
0.19,1651397586.578125
-0.38,1651397586.59375
-1.36,1651397586.609375
-2.76,1651397586.625
-4.46,1651397586.640625
-6.22,1651397586.65625
-7.83,1651397586.671875
-9.17,1651397586.6875
-10.26,1651397586.703125
-11.23,1651397586.71875
-12.19,1651397586.734375
-13.22,1651397586.75
-14.34,1651397586.765625
-15.53,1651397586.78125
-16.76,1651397586.796875
-18.0,1651397586.8125
-19.26,1651397586.828125
-20.52,1651397586.84375
-21.78,1651397586.859375
-23.1,1651397586.875
-24.6,1651397586.890625
-26.42,1651397586.90625
-28.61,1651397586.921875
-31.02,1651397586.9375
-33.26,1651397586.953125
-34.73,1651397586.96875
-34.86,1651397586.984375
-33.27,1651397587.0
-29.95,1651397587.015625
-25.19,1651397587.03125
-19.62,1651397587.046875
-13.92,1651397587.0625
-8.69,1651397587.078125
-4.34,1651397587.09375
-1.0,1651397587.109375
1.46,1651397587.125
3.36,1651397587.140625
5.04,1651397587.15625
6.81,1651397587.171875
8.75,1651397587.1875
10.8,1651397587.203125
12.8,1651397587.21875
14.59,1651397587.234375
16.15,1651397587.25
17.5,1651397587.265625
18.74,1651397587.28125
19.88,1651397587.296875
20.86,1651397587.3125
21.59,1651397587.328125
21.95,1651397587.34375
21.88,1651397587.359375
21.39,1651397587.375
20.6,1651397587.390625
19.56,1651397587.40625
18.34,1651397587.421875
16.96,1651397587.4375
15.4,1651397587.453125
13.64,1651397587.46875
11.72,1651397587.484375
9.75,1651397587.5
7.81,1651397587.515625
6.05,1651397587.53125
4.55,1651397587.546875
3.38,1651397587.5625
2.55,1651397587.578125
2.05,1651397587.59375
1.83,1651397587.609375
1.74,1651397587.625
1.63,1651397587.640625
1.29,1651397587.65625
0.67,1651397587.671875
-0.24,1651397587.6875
-1.29,1651397587.703125
-2.36,1651397587.71875
-3.45,1651397587.734375
-4.65,1651397587.75
-6.12,1651397587.765625
-7.97,1651397587.78125
-10.17,1651397587.796875
-12.53,1651397587.8125
-14.89,1651397587.828125
-17.11,1651397587.84375
-19.19,1651397587.859375
-21.11,1651397587.875
-22.73,1651397587.890625
-23.71,1651397587.90625
-23.54,1651397587.921875
-21.79,1651397587.9375
-18.26,1651397587.953125
-13.21,1651397587.96875
-7.21,1651397587.984375
-0.99,1651397588.0
4.72,1651397588.015625
9.36,1651397588.03125
12.68,1651397588.046875
14.64,1651397588.0625
15.38,1651397588.078125
15.17,1651397588.09375
14.28,1651397588.109375
12.98,1651397588.125
11.56,1651397588.140625
10.25,1651397588.15625
9.26,1651397588.171875
8.73,1651397588.1875
8.69,1651397588.203125
9.03,1651397588.21875
9.58,1651397588.234375
10.1,1651397588.25
10.39,1651397588.265625
10.44,1651397588.28125
10.33,1651397588.296875
10.32,1651397588.3125
10.59,1651397588.328125
11.19,1651397588.34375
11.97,1651397588.359375
12.67,1651397588.375
12.94,1651397588.390625
12.59,1651397588.40625
11.63,1651397588.421875
10.23,1651397588.4375
8.76,1651397588.453125
7.53,1651397588.46875
6.77,1651397588.484375
6.6,1651397588.5
7.0,1651397588.515625
7.8,1651397588.53125
8.73,1651397588.546875
9.46,1651397588.5625
9.64,1651397588.578125
9.13,1651397588.59375
7.98,1651397588.609375
6.51,1651397588.625
5.09,1651397588.640625
4.01,1651397588.65625
3.31,1651397588.671875
2.73,1651397588.6875
1.91,1651397588.703125
0.54,1651397588.71875
-1.38,1651397588.734375
-3.58,1651397588.75
-5.62,1651397588.765625
-7.17,1651397588.78125
-8.21,1651397588.796875
-9.04,1651397588.8125
-10.13,1651397588.828125
-11.84,1651397588.84375
-14.17,1651397588.859375
-16.67,1651397588.875
-18.61,1651397588.890625
-19.27,1651397588.90625
-18.26,1651397588.921875
-15.75,1651397588.9375
-12.31,1651397588.953125
-8.7,1651397588.96875
-5.53,1651397588.984375
-3.08,1651397589.0
-1.25,1651397589.015625
0.24,1651397589.03125
1.74,1651397589.046875
3.46,1651397589.0625
5.51,1651397589.078125
7.88,1651397589.09375
10.51,1651397589.109375
13.25,1651397589.125
15.82,1651397589.140625
17.81,1651397589.15625
18.77,1651397589.171875
18.4,1651397589.1875
16.58,1651397589.203125
13.59,1651397589.21875
9.86,1651397589.234375
5.98,1651397589.25
2.46,1651397589.265625
-0.29,1651397589.28125
-2.04,1651397589.296875
-2.74,1651397589.3125
-2.52,1651397589.328125
-1.71,1651397589.34375
-0.79,1651397589.359375
-0.2,1651397589.375
-0.34,1651397589.390625
-1.44,1651397589.40625
-3.6,1651397589.421875
-6.73,1651397589.4375
-10.53,1651397589.453125
-14.41,1651397589.46875
-17.5,1651397589.484375
-18.75,1651397589.5
-17.23,1651397589.515625
-12.5,1651397589.53125
-4.83,1651397589.546875
4.72,1651397589.5625
14.56,1651397589.578125
22.98,1651397589.59375
28.59,1651397589.609375
30.63,1651397589.625
29.12,1651397589.640625
24.73,1651397589.65625
18.52,1651397589.671875
11.58,1651397589.6875
4.68,1651397589.703125
-1.8,1651397589.71875
-7.82,1651397589.734375
-13.34,1651397589.75
-17.99,1651397589.765625
-20.97,1651397589.78125
-21.3,1651397589.796875
-18.36,1651397589.8125
-12.24,1651397589.828125
-3.91,1651397589.84375
5.2,1651397589.859375
13.68,1651397589.875
20.68,1651397589.890625
25.97,1651397589.90625
29.84,1651397589.921875
32.79,1651397589.9375
35.46,1651397589.953125
38.85,1651397589.96875
44.18,1651397589.984375
52.63,1651397590.0
64.45,1651397590.015625
78.12,1651397590.03125
90.04,1651397590.046875
95.42,1651397590.0625
90.07,1651397590.078125
72.48,1651397590.09375
44.93,1651397590.109375
12.95,1651397590.125
-16.48,1651397590.140625
-37.48,1651397590.15625
-47.05,1651397590.171875
-45.41,1651397590.1875
-35.02,1651397590.203125
-18.98,1651397590.21875
0.27,1651397590.234375
21.22,1651397590.25
42.84,1651397590.265625
63.86,1651397590.28125
82.33,1651397590.296875
95.88,1651397590.3125
102.47,1651397590.328125
101.15,1651397590.34375
92.41,1651397590.359375
78.1,1651397590.375
60.94,1651397590.390625
43.73,1651397590.40625
28.76,1651397590.421875
17.28,1651397590.4375
9.35,1651397590.453125
4.12,1651397590.46875
0.21,1651397590.484375
-3.7,1651397590.5
-8.42,1651397590.515625
-14.09,1651397590.53125
-20.23,1651397590.546875
-26.04,1651397590.5625
-30.85,1651397590.578125
-34.52,1651397590.59375
-37.64,1651397590.609375
-41.41,1651397590.625
-47.31,1651397590.640625
-56.49,1651397590.65625
-69.33,1651397590.671875
-85.19,1651397590.6875
-102.55,1651397590.703125
-119.43,1651397590.71875
-133.79,1651397590.734375
-143.86,1651397590.75
-148.44,1651397590.765625
-146.91,1651397590.78125
-139.32,1651397590.796875
-126.51,1651397590.8125
-109.99,1651397590.828125
-91.73,1651397590.84375
-73.68,1651397590.859375
-57.43,1651397590.875
-43.92,1651397590.890625
-33.53,1651397590.90625
-26.31,1651397590.921875
-22.09,1651397590.9375
-20.4,1651397590.953125
-20.36,1651397590.96875
-20.5,1651397590.984375
-19.15,1651397591.0
-14.88,1651397591.015625
-6.92,1651397591.03125
4.65,1651397591.046875
19.21,1651397591.0625
35.96,1651397591.078125
54.16,1651397591.09375
72.81,1651397591.109375
90.41,1651397591.125
104.96,1651397591.140625
114.43,1651397591.15625
117.66,1651397591.171875
115.1,1651397591.1875
108.74,1651397591.203125
101.37,1651397591.21875
95.34,1651397591.234375
91.51,1651397591.25
89.05,1651397591.265625
85.87,1651397591.28125
79.83,1651397591.296875
69.74,1651397591.3125
55.9,1651397591.328125
39.97,1651397591.34375
24.35,1651397591.359375
11.21,1651397591.375
1.71,1651397591.390625
-4.37,1651397591.40625
-8.46,1651397591.421875
-12.48,1651397591.4375
-17.86,1651397591.453125
-24.91,1651397591.46875
-32.65,1651397591.484375
-39.63,1651397591.5
-44.91,1651397591.515625
-48.71,1651397591.53125
-52.23,1651397591.546875
-56.84,1651397591.5625
-62.96,1651397591.578125
-69.39,1651397591.59375
-73.73,1651397591.609375
-73.49,1651397591.625
-67.33,1651397591.640625
-55.72,1651397591.65625
-40.69,1651397591.671875
-24.72,1651397591.6875
-9.63,1651397591.703125
3.95,1651397591.71875
16.34,1651397591.734375
28.09,1651397591.75
39.31,1651397591.765625
49.38,1651397591.78125
57.21,1651397591.796875
61.92,1651397591.8125
63.19,1651397591.828125
61.46,1651397591.84375
57.63,1651397591.859375
52.65,1651397591.875
47.14,1651397591.890625
41.1,1651397591.90625
34.04,1651397591.921875
25.18,1651397591.9375
13.88,1651397591.953125
-0.16,1651397591.96875
-16.56,1651397591.984375
-34.37,1651397592.0
-52.15,1651397592.015625
-68.4,1651397592.03125
-81.98,1651397592.046875
-92.54,1651397592.0625
-100.73,1651397592.078125
-107.96,1651397592.09375
-115.86,1651397592.109375
-125.62,1651397592.125
-137.51,1651397592.140625
-150.79,1651397592.15625
-164.19,1651397592.171875
-176.52,1651397592.1875
-187.18,1651397592.203125
-196.42,1651397592.21875
-204.88,1651397592.234375
-213.14,1651397592.25
-221.04,1651397592.265625
-227.44,1651397592.28125
-230.5,1651397592.296875
-228.24,1651397592.3125
-219.32,1651397592.328125
-203.47,1651397592.34375
-181.6,1651397592.359375
-155.5,1651397592.375
-127.37,1651397592.390625
-99.31,1651397592.40625
-73.09,1651397592.421875
-50.07,1651397592.4375
-31.21,1651397592.453125
-17.12,1651397592.46875
-7.85,1651397592.484375
-2.78,1651397592.5
-0.47,1651397592.515625
1.1,1651397592.53125
4.13,1651397592.546875
10.39,1651397592.5625
20.82,1651397592.578125
35.15,1651397592.59375
52.11,1651397592.609375
69.72,1651397592.625
85.83,1651397592.640625
98.66,1651397592.65625
107.2,1651397592.671875
111.45,1651397592.6875
112.35,1651397592.703125
111.37,1651397592.71875
110.03,1651397592.734375
109.34,1651397592.75
109.6,1651397592.765625
110.45,1651397592.78125
111.16,1651397592.796875
111.08,1651397592.8125
109.82,1651397592.828125
107.31,1651397592.84375
103.63,1651397592.859375
98.88,1651397592.875
93.13,1651397592.890625
86.59,1651397592.90625
79.64,1651397592.921875
72.86,1651397592.9375
66.87,1651397592.953125
62.1,1651397592.96875
58.61,1651397592.984375
56.03,1651397593.0
53.79,1651397593.015625
51.31,1651397593.03125
48.24,1651397593.046875
44.47,1651397593.0625
40.14,1651397593.078125
35.47,1651397593.09375
30.69,1651397593.109375
26.04,1651397593.125
21.69,1651397593.140625
17.83,1651397593.15625
14.59,1651397593.171875
12.01,1651397593.1875
10.01,1651397593.203125
8.43,1651397593.21875
7.07,1651397593.234375
5.78,1651397593.25
4.43,1651397593.265625
2.96,1651397593.28125
1.37,1651397593.296875
-0.38,1651397593.3125
-2.27,1651397593.328125
-4.37,1651397593.34375
-6.8,1651397593.359375
-9.7,1651397593.375
-13.12,1651397593.390625
-16.84,1651397593.40625
-20.24,1651397593.421875
-22.37,1651397593.4375
-22.34,1651397593.453125
-19.65,1651397593.46875
-14.46,1651397593.484375
-7.66,1651397593.5
-0.49,1651397593.515625
5.91,1651397593.53125
10.85,1651397593.546875
14.25,1651397593.5625
16.4,1651397593.578125
17.76,1651397593.59375
18.68,1651397593.609375
19.28,1651397593.625
19.54,1651397593.640625
19.41,1651397593.65625
18.88,1651397593.671875
17.98,1651397593.6875
16.72,1651397593.703125
15.08,1651397593.71875
13.05,1651397593.734375
10.78,1651397593.75
8.54,1651397593.765625
6.66,1651397593.78125
5.37,1651397593.796875
4.66,1651397593.8125
4.28,1651397593.828125
3.89,1651397593.84375
3.17,1651397593.859375
2.11,1651397593.875
0.82,1651397593.890625
-0.5,1651397593.90625
-1.78,1651397593.921875
-3.06,1651397593.9375
-4.41,1651397593.953125
-5.85,1651397593.96875
-7.21,1651397593.984375
-8.3,1651397594.0
-8.97,1651397594.015625
-9.22,1651397594.03125
-9.19,1651397594.046875
-9.05,1651397594.0625
-8.95,1651397594.078125
-8.97,1651397594.09375
-9.15,1651397594.109375
-9.46,1651397594.125
-9.93,1651397594.140625
-10.51,1651397594.15625
-11.12,1651397594.171875
-11.63,1651397594.1875
-11.92,1651397594.203125
-11.97,1651397594.21875
-11.87,1651397594.234375
-11.82,1651397594.25
-12.08,1651397594.265625
-12.84,1651397594.28125
-14.22,1651397594.296875
-16.06,1651397594.3125
-18.0,1651397594.328125
-19.44,1651397594.34375
-19.72,1651397594.359375
-18.36,1651397594.375
-15.21,1651397594.390625
-10.56,1651397594.40625
-4.99,1651397594.421875
0.78,1651397594.4375
6.22,1651397594.453125
10.97,1651397594.46875
14.9,1651397594.484375
17.98,1651397594.5
20.15,1651397594.515625
21.32,1651397594.53125
21.44,1651397594.546875
20.71,1651397594.5625
19.45,1651397594.578125
18.13,1651397594.59375
17.18,1651397594.609375
16.79,1651397594.625
16.93,1651397594.640625
17.37,1651397594.65625
17.82,1651397594.671875
18.05,1651397594.6875
17.97,1651397594.703125
17.64,1651397594.71875
17.23,1651397594.734375
16.96,1651397594.75
17.0,1651397594.765625
17.44,1651397594.78125
18.16,1651397594.796875
18.96,1651397594.8125
19.55,1651397594.828125
19.69,1651397594.84375
19.31,1651397594.859375
18.47,1651397594.875
17.39,1651397594.890625
16.31,1651397594.90625
15.43,1651397594.921875
14.88,1651397594.9375
14.65,1651397594.953125
14.69,1651397594.96875
14.84,1651397594.984375
14.92,1651397595.0
14.74,1651397595.015625
14.21,1651397595.03125
13.31,1651397595.046875
12.07,1651397595.0625
10.61,1651397595.078125
8.93,1651397595.09375
7.02,1651397595.109375
4.83,1651397595.125
2.35,1651397595.140625
-0.33,1651397595.15625
-2.98,1651397595.171875
-5.35,1651397595.1875
-7.26,1651397595.203125
-8.7,1651397595.21875
-9.93,1651397595.234375
-11.28,1651397595.25
-13.13,1651397595.265625
-15.69,1651397595.28125
-18.92,1651397595.296875
-22.51,1651397595.3125
-25.94,1651397595.328125
-28.57,1651397595.34375
-29.78,1651397595.359375
-29.14,1651397595.375
-26.51,1651397595.390625
-22.08,1651397595.40625
-16.43,1651397595.421875
-10.25,1651397595.4375
-4.31,1651397595.453125
0.86,1651397595.46875
4.96,1651397595.484375
7.95,1651397595.5
9.91,1651397595.515625
11.03,1651397595.53125
11.56,1651397595.546875
11.73,1651397595.5625
11.8,1651397595.578125
11.92,1651397595.59375
12.14,1651397595.609375
12.38,1651397595.625
12.5,1651397595.640625
12.41,1651397595.65625
12.15,1651397595.671875
11.83,1651397595.6875
11.62,1651397595.703125
11.64,1651397595.71875
11.93,1651397595.734375
12.42,1651397595.75
12.99,1651397595.765625
13.53,1651397595.78125
13.95,1651397595.796875
14.16,1651397595.8125
14.08,1651397595.828125
13.67,1651397595.84375
12.91,1651397595.859375
11.88,1651397595.875
10.74,1651397595.890625
9.61,1651397595.90625
8.61,1651397595.921875
7.75,1651397595.9375
7.02,1651397595.953125
6.44,1651397595.96875
6.04,1651397595.984375
5.81,1651397596.0
5.64,1651397596.015625
5.38,1651397596.03125
4.89,1651397596.046875
4.11,1651397596.0625
3.14,1651397596.078125
2.28,1651397596.09375
1.76,1651397596.109375
1.66,1651397596.125
1.78,1651397596.140625
1.71,1651397596.15625
1.03,1651397596.171875
-0.46,1651397596.1875
-2.62,1651397596.203125
-5.08,1651397596.21875
-7.4,1651397596.234375
-9.22,1651397596.25
-10.4,1651397596.265625
-10.88,1651397596.28125
-10.57,1651397596.296875
-9.36,1651397596.3125
-6.97,1651397596.328125
-3.17,1651397596.34375
2.12,1651397596.359375
8.76,1651397596.375
16.43,1651397596.390625
24.68,1651397596.40625
33.07,1651397596.421875
41.19,1651397596.4375
48.52,1651397596.453125
54.46,1651397596.46875
58.34,1651397596.484375
59.61,1651397596.5
58.19,1651397596.515625
54.57,1651397596.53125
49.8,1651397596.546875
45.06,1651397596.5625
41.28,1651397596.578125
38.79,1651397596.59375
37.31,1651397596.609375
36.2,1651397596.625
34.95,1651397596.640625
33.48,1651397596.65625
32.26,1651397596.671875
32.12,1651397596.6875
33.9,1651397596.703125
38.05,1651397596.71875
44.36,1651397596.734375
51.95,1651397596.75
59.51,1651397596.765625
65.67,1651397596.78125
69.59,1651397596.796875
71.16,1651397596.8125
70.95,1651397596.828125
69.85,1651397596.84375
68.36,1651397596.859375
66.21,1651397596.875
62.3,1651397596.890625
55.2,1651397596.90625
43.97,1651397596.921875
28.77,1651397596.9375
10.84,1651397596.953125
-7.91,1651397596.96875
-25.64,1651397596.984375
-40.97,1651397597.0
-53.17,1651397597.015625
-61.79,1651397597.03125
-66.56,1651397597.046875
-67.43,1651397597.0625
-64.89,1651397597.078125
-60.17,1651397597.09375
-55.05,1651397597.109375
-51.33,1651397597.125
-50.11,1651397597.140625
-51.43,1651397597.15625
-54.3,1651397597.171875
-57.24,1651397597.1875
-58.87,1651397597.203125
-58.31,1651397597.21875
-55.41,1651397597.234375
-50.7,1651397597.25
-45.25,1651397597.265625
-40.41,1651397597.28125
-37.33,1651397597.296875
-36.59,1651397597.3125
-37.91,1651397597.328125
-40.25,1651397597.34375
-42.32,1651397597.359375
-43.26,1651397597.375
-42.96,1651397597.390625
-42.11,1651397597.40625
-41.62,1651397597.421875
-42.05,1651397597.4375
-43.34,1651397597.453125
-44.9,1651397597.46875
-46.04,1651397597.484375
-46.37,1651397597.5
-45.94,1651397597.515625
-45.08,1651397597.53125
-44.09,1651397597.546875
-43.07,1651397597.5625
-41.94,1651397597.578125
-40.53,1651397597.59375
-38.83,1651397597.609375
-37.02,1651397597.625
-35.38,1651397597.640625
-34.12,1651397597.65625
-33.38,1651397597.671875
-33.05,1651397597.6875
-32.86,1651397597.703125
-32.53,1651397597.71875
-31.84,1651397597.734375
-30.73,1651397597.75
-29.32,1651397597.765625
-27.86,1651397597.78125
-26.58,1651397597.796875
-25.54,1651397597.8125
-24.57,1651397597.828125
-23.28,1651397597.84375
-21.33,1651397597.859375
-18.51,1651397597.875
-14.93,1651397597.890625
-10.93,1651397597.90625
-6.86,1651397597.921875
-2.92,1651397597.9375
0.89,1651397597.953125
4.69,1651397597.96875
8.49,1651397597.984375
11.97,1651397598.0
14.45,1651397598.015625
15.14,1651397598.03125
13.5,1651397598.046875
9.59,1651397598.0625
4.17,1651397598.078125
-1.52,1651397598.09375
-6.22,1651397598.109375
-8.96,1651397598.125
-9.41,1651397598.140625
-7.67,1651397598.15625
-4.11,1651397598.171875
0.78,1651397598.1875
6.59,1651397598.203125
12.9,1651397598.21875
19.18,1651397598.234375
24.84,1651397598.25
29.45,1651397598.265625
32.85,1651397598.28125
35.28,1651397598.296875
37.21,1651397598.3125
38.96,1651397598.328125
40.41,1651397598.34375
40.91,1651397598.359375
39.52,1651397598.375
35.48,1651397598.390625
28.51,1651397598.40625
19.02,1651397598.421875
8.01,1651397598.4375
-3.38,1651397598.453125
-13.95,1651397598.46875
-22.71,1651397598.484375
-28.97,1651397598.5
-32.42,1651397598.515625
-33.15,1651397598.53125
-31.62,1651397598.546875
-28.6,1651397598.5625
-24.97,1651397598.578125
-21.4,1651397598.59375
-18.3,1651397598.609375
-15.73,1651397598.625
-13.49,1651397598.640625
-11.29,1651397598.65625
-8.83,1651397598.671875
-5.88,1651397598.6875
-2.34,1651397598.703125
1.78,1651397598.71875
6.28,1651397598.734375
10.82,1651397598.75
14.99,1651397598.765625
18.46,1651397598.78125
20.94,1651397598.796875
22.29,1651397598.8125
22.5,1651397598.828125
21.71,1651397598.84375
20.28,1651397598.859375
18.77,1651397598.875
17.81,1651397598.890625
17.85,1651397598.90625
18.97,1651397598.921875
20.77,1651397598.9375
22.44,1651397598.953125
23.18,1651397598.96875
22.5,1651397598.984375
20.48,1651397599.0
17.68,1651397599.015625
14.84,1651397599.03125
12.48,1651397599.046875
10.7,1651397599.0625
9.22,1651397599.078125
7.66,1651397599.09375
5.78,1651397599.109375
3.69,1651397599.125
1.82,1651397599.140625
0.75,1651397599.15625
1.0,1651397599.171875
2.81,1651397599.1875
6.11,1651397599.203125
10.57,1651397599.21875
15.64,1651397599.234375
20.82,1651397599.25
25.77,1651397599.265625
30.37,1651397599.28125
34.73,1651397599.296875
39.13,1651397599.3125
43.9,1651397599.328125
49.27,1651397599.34375
55.17,1651397599.359375
61.11,1651397599.375
65.97,1651397599.390625
68.1,1651397599.40625
65.84,1651397599.421875
58.29,1651397599.4375
45.93,1651397599.453125
30.76,1651397599.46875
15.63,1651397599.484375
3.09,1651397599.5
-5.71,1651397599.515625
-11.29,1651397599.53125
-15.3,1651397599.546875
-19.36,1651397599.5625
-24.19,1651397599.578125
-29.23,1651397599.59375
-33.18,1651397599.609375
-34.76,1651397599.625
-33.28,1651397599.640625
-28.86,1651397599.65625
-22.13,1651397599.671875
-13.96,1651397599.6875
-5.22,1651397599.703125
3.2,1651397599.71875
10.43,1651397599.734375
15.78,1651397599.75
19.04,1651397599.765625
20.7,1651397599.78125
21.91,1651397599.796875
24.24,1651397599.8125
29.17,1651397599.828125
37.39,1651397599.84375
48.34,1651397599.859375
60.02,1651397599.875
69.34,1651397599.890625
73.08,1651397599.90625
69.11,1651397599.921875
57.3,1651397599.9375
39.71,1651397599.953125
19.74,1651397599.96875
0.66,1651397599.984375
-15.63,1651397600.0
-29.23,1651397600.015625
-41.71,1651397600.03125
-55.05,1651397600.046875
-70.36,1651397600.0625
-87.32,1651397600.078125
-104.22,1651397600.09375
-118.7,1651397600.109375
-128.66,1651397600.125
-132.94,1651397600.140625
-131.59,1651397600.15625
-125.76,1651397600.171875
-117.25,1651397600.1875
-107.89,1651397600.203125
-98.96,1651397600.21875
-90.8,1651397600.234375
-82.73,1651397600.25
-73.58,1651397600.265625
-62.15,1651397600.28125
-47.83,1651397600.296875
-30.79,1651397600.3125
-11.97,1651397600.328125
7.14,1651397600.34375
24.8,1651397600.359375
39.27,1651397600.375
49.15,1651397600.390625
53.63,1651397600.40625
52.91,1651397600.421875
48.25,1651397600.4375
41.82,1651397600.453125
36.23,1651397600.46875
33.84,1651397600.484375
36.19,1651397600.5
43.66,1651397600.515625
55.43,1651397600.53125
69.78,1651397600.546875
84.67,1651397600.5625
98.27,1651397600.578125
109.5,1651397600.59375
118.31,1651397600.609375
125.61,1651397600.625
132.82,1651397600.640625
141.12,1651397600.65625
150.85,1651397600.671875
161.24,1651397600.6875
170.76,1651397600.703125
177.58,1651397600.71875
180.14,1651397600.734375
177.21,1651397600.75
168.01,1651397600.765625
152.17,1651397600.78125
130.13,1651397600.796875
103.49,1651397600.8125
75.04,1651397600.828125
48.12,1651397600.84375
25.39,1651397600.859375
7.78,1651397600.875
-5.87,1651397600.890625
-17.91,1651397600.90625
-30.57,1651397600.921875
-44.65,1651397600.9375
-59.37,1651397600.953125
-73.16,1651397600.96875
-84.87,1651397600.984375
-94.46,1651397601.0
-102.91,1651397601.015625
-111.18,1651397601.03125
-119.47,1651397601.046875
-127.03,1651397601.0625
-132.78,1651397601.078125
-136.15,1651397601.09375
-137.67,1651397601.109375
-138.65,1651397601.125
-140.38,1651397601.140625
-143.32,1651397601.15625
-146.69,1651397601.171875
-148.77,1651397601.1875
-147.61,1651397601.203125
-141.75,1651397601.21875
-130.65,1651397601.234375
-114.73,1651397601.25
-95.23,1651397601.265625
-73.89,1651397601.28125
-52.66,1651397601.296875
-33.37,1651397601.3125
-17.25,1651397601.328125
-4.68,1651397601.34375
5.19,1651397601.359375
14.03,1651397601.375
23.77,1651397601.390625
35.83,1651397601.40625
50.42,1651397601.421875
66.58,1651397601.4375
82.58,1651397601.453125
96.58,1651397601.46875
107.26,1651397601.484375
114.11,1651397601.5
117.24,1651397601.515625
117.17,1651397601.53125
114.54,1651397601.546875
109.96,1651397601.5625
103.93,1651397601.578125
96.76,1651397601.59375
88.5,1651397601.609375
78.91,1651397601.625
67.48,1651397601.640625
53.57,1651397601.65625
36.88,1651397601.671875
17.58,1651397601.6875
-3.47,1651397601.703125
-24.89,1651397601.71875
-45.27,1651397601.734375
-63.46,1651397601.75
-78.96,1651397601.765625
-91.82,1651397601.78125
-102.39,1651397601.796875
-110.93,1651397601.8125
-117.46,1651397601.828125
-121.84,1651397601.84375
-124.03,1651397601.859375
-124.46,1651397601.875
-124.02,1651397601.890625
-123.83,1651397601.90625
-124.69,1651397601.921875
-126.78,1651397601.9375
-129.6,1651397601.953125
-132.34,1651397601.96875
-134.21,1651397601.984375
-134.76,1651397602.0
-133.88,1651397602.015625
-131.62,1651397602.03125
-128.17,1651397602.046875
-123.64,1651397602.0625
-118.13,1651397602.078125
-111.64,1651397602.09375
-104.02,1651397602.109375
-94.77,1651397602.125
-83.41,1651397602.140625
-69.75,1651397602.15625
-54.31,1651397602.171875
-38.47,1651397602.1875
-24.09,1651397602.203125
-12.71,1651397602.21875
-5.02,1651397602.234375
-0.44,1651397602.25
2.46,1651397602.265625
5.24,1651397602.28125
8.82,1651397602.296875
13.32,1651397602.3125
18.22,1651397602.328125
22.96,1651397602.34375
27.34,1651397602.359375
31.54,1651397602.375
35.87,1651397602.390625
40.4,1651397602.40625
44.88,1651397602.421875
48.92,1651397602.4375
52.31,1651397602.453125
55.14,1651397602.46875
57.79,1651397602.484375
60.61,1651397602.5
63.68,1651397602.515625
66.78,1651397602.53125
69.53,1651397602.546875
71.64,1651397602.5625
73.03,1651397602.578125
73.75,1651397602.59375
73.84,1651397602.609375
73.13,1651397602.625
71.46,1651397602.640625
68.84,1651397602.65625
65.64,1651397602.671875
62.65,1651397602.6875
60.83,1651397602.703125
61.11,1651397602.71875
63.92,1651397602.734375
69.24,1651397602.75
76.38,1651397602.765625
84.16,1651397602.78125
90.94,1651397602.796875
94.87,1651397602.8125
94.42,1651397602.828125
88.8,1651397602.84375
78.34,1651397602.859375
64.45,1651397602.875
49.19,1651397602.890625
34.57,1651397602.90625
22.15,1651397602.921875
12.78,1651397602.9375
6.8,1651397602.953125
4.36,1651397602.96875
5.48,1651397602.984375
10.09,1651397603.0
17.72,1651397603.015625
27.37,1651397603.03125
37.52,1651397603.046875
46.55,1651397603.0625
53.06,1651397603.078125
56.2,1651397603.09375
55.81,1651397603.109375
52.27,1651397603.125
46.27,1651397603.140625
38.66,1651397603.15625
30.25,1651397603.171875
21.75,1651397603.1875
13.69,1651397603.203125
6.45,1651397603.21875
0.21,1651397603.234375
-4.99,1651397603.25
-9.28,1651397603.265625
-12.84,1651397603.28125
-15.9,1651397603.296875
-18.81,1651397603.3125
-21.94,1651397603.328125
-25.6,1651397603.34375
-29.97,1651397603.359375
-34.94,1651397603.375
-40.07,1651397603.390625
-44.71,1651397603.40625
-48.06,1651397603.421875
-49.4,1651397603.4375
-48.34,1651397603.453125
-45.01,1651397603.46875
-40.2,1651397603.484375
-35.4,1651397603.5
-32.45,1651397603.515625
-33.19,1651397603.53125
-38.88,1651397603.546875
-49.83,1651397603.5625
-65.23,1651397603.578125
-83.3,1651397603.59375
-101.71,1651397603.609375
-118.07,1651397603.625
-130.46,1651397603.640625
-137.66,1651397603.65625
-139.29,1651397603.671875
-135.72,1651397603.6875
-127.91,1651397603.703125
-117.29,1651397603.71875
-105.48,1651397603.734375
-94.06,1651397603.75
-84.2,1651397603.765625
-76.35,1651397603.78125
-69.98,1651397603.796875
-63.72,1651397603.8125
-55.84,1651397603.828125
-44.85,1651397603.84375
-30.2,1651397603.859375
-12.45,1651397603.875
6.96,1651397603.890625
26.42,1651397603.90625
44.77,1651397603.921875
61.69,1651397603.9375
77.55,1651397603.953125
92.93,1651397603.96875
108.33,1651397603.984375
123.75,1651397604.0
138.68,1651397604.015625
152.14,1651397604.03125
162.84,1651397604.046875
169.37,1651397604.0625
170.43,1651397604.078125
165.25,1651397604.09375
153.96,1651397604.109375
137.68,1651397604.125
118.31,1651397604.140625
98.01,1651397604.15625
78.51,1651397604.171875
60.56,1651397604.1875
43.95,1651397604.203125
27.84,1651397604.21875
11.4,1651397604.234375
-5.65,1651397604.25
-22.86,1651397604.265625
-39.31,1651397604.28125
-54.12,1651397604.296875
-66.95,1651397604.3125
-78.15,1651397604.328125
-88.55,1651397604.34375
-98.92,1651397604.359375
-109.39,1651397604.375
-119.25,1651397604.390625
-127.1,1651397604.40625
-131.4,1651397604.421875
-131.16,1651397604.4375
-126.38,1651397604.453125
-118.12,1651397604.46875
-108.1,1651397604.484375
-98.11,1651397604.5
-89.42,1651397604.515625
-82.43,1651397604.53125
-76.75,1651397604.546875
-71.49,1651397604.5625
-65.65,1651397604.578125
-58.44,1651397604.59375
-49.44,1651397604.609375
-38.65,1651397604.625
-26.43,1651397604.640625
-13.58,1651397604.65625
-1.16,1651397604.671875
9.63,1651397604.6875
17.76,1651397604.703125
22.66,1651397604.71875
24.55,1651397604.734375
24.36,1651397604.75
23.49,1651397604.765625
23.38,1651397604.78125
24.9,1651397604.796875
28.1,1651397604.8125
32.24,1651397604.828125
36.04,1651397604.84375
38.31,1651397604.859375
38.44,1651397604.875
36.72,1651397604.890625
34.23,1651397604.90625
32.3,1651397604.921875
31.88,1651397604.9375
33.04,1651397604.953125
34.92,1651397604.96875
36.18,1651397604.984375
35.64,1651397605.0
32.85,1651397605.015625
28.18,1651397605.03125
22.51,1651397605.046875
16.63,1651397605.0625
10.87,1651397605.078125
5.09,1651397605.09375
-0.97,1651397605.109375
-7.21,1651397605.125
-13.06,1651397605.140625
-17.66,1651397605.15625
-20.36,1651397605.171875
-21.28,1651397605.1875
-21.32,1651397605.203125
-21.82,1651397605.21875
-23.85,1651397605.234375
-27.65,1651397605.25
-32.42,1651397605.265625
-36.71,1651397605.28125
-39.1,1651397605.296875
-38.87,1651397605.3125
-36.26,1651397605.328125
-32.29,1651397605.34375
-28.2,1651397605.359375
-24.94,1651397605.375
-22.9,1651397605.390625
-21.92,1651397605.40625
-21.59,1651397605.421875
-21.52,1651397605.4375
-21.39,1651397605.453125
-21.03,1651397605.46875
-20.26,1651397605.484375
-18.9,1651397605.5
-16.8,1651397605.515625
-14.06,1651397605.53125
-10.92,1651397605.546875
-7.91,1651397605.5625
-5.55,1651397605.578125
-4.22,1651397605.59375
-3.88,1651397605.609375
-4.07,1651397605.625
-4.0,1651397605.640625
-2.77,1651397605.65625
0.24,1651397605.671875
5.19,1651397605.6875
11.57,1651397605.703125
18.44,1651397605.71875
24.75,1651397605.734375
29.7,1651397605.75
32.99,1651397605.765625
34.77,1651397605.78125
35.47,1651397605.796875
35.51,1651397605.8125
35.15,1651397605.828125
34.45,1651397605.84375
33.38,1651397605.859375
31.98,1651397605.875
30.29,1651397605.890625
28.39,1651397605.90625
26.24,1651397605.921875
23.8,1651397605.9375
20.99,1651397605.953125
17.94,1651397605.96875
14.82,1651397605.984375
11.94,1651397606.0
9.55,1651397606.015625
7.75,1651397606.03125
6.56,1651397606.046875
5.88,1651397606.0625
5.58,1651397606.078125
5.45,1651397606.09375
5.32,1651397606.109375
4.95,1651397606.125
4.15,1651397606.140625
2.91,1651397606.15625
1.35,1651397606.171875
-0.19,1651397606.1875
-1.4,1651397606.203125
-2.1,1651397606.21875
-2.36,1651397606.234375
-2.49,1651397606.25
-2.84,1651397606.265625
-3.61,1651397606.28125
-4.81,1651397606.296875
-6.24,1651397606.3125
-7.64,1651397606.328125
-8.87,1651397606.34375
-9.94,1651397606.359375
-10.95,1651397606.375
-12.03,1651397606.390625
-13.26,1651397606.40625
-14.69,1651397606.421875
-16.35,1651397606.4375
-18.36,1651397606.453125
-20.73,1651397606.46875
-23.29,1651397606.484375
-25.56,1651397606.5
-26.88,1651397606.515625
-26.54,1651397606.53125
-24.2,1651397606.546875
-19.99,1651397606.5625
-14.56,1651397606.578125
-8.8,1651397606.59375
-3.46,1651397606.609375
1.07,1651397606.625
4.8,1651397606.640625
7.91,1651397606.65625
10.6,1651397606.671875
12.87,1651397606.6875
14.58,1651397606.703125
15.57,1651397606.71875
15.87,1651397606.734375
15.7,1651397606.75
15.42,1651397606.765625
15.38,1651397606.78125
15.74,1651397606.796875
16.48,1651397606.8125
17.37,1651397606.828125
18.23,1651397606.84375
18.87,1651397606.859375
19.24,1651397606.875
19.41,1651397606.890625
19.44,1651397606.90625
19.47,1651397606.921875
19.56,1651397606.9375
19.87,1651397606.953125
20.42,1651397606.96875
21.21,1651397606.984375
22.08,1651397607.0
22.76,1651397607.015625
22.95,1651397607.03125
22.41,1651397607.046875
21.14,1651397607.0625
19.35,1651397607.078125
17.43,1651397607.09375
15.76,1651397607.109375
14.57,1651397607.125
13.84,1651397607.140625
13.28,1651397607.15625
12.55,1651397607.171875
11.39,1651397607.1875
9.79,1651397607.203125
8.02,1651397607.21875
6.43,1651397607.234375
5.25,1651397607.25
4.44,1651397607.265625
3.71,1651397607.28125
2.66,1651397607.296875
1.04,1651397607.3125
-1.21,1651397607.328125
-3.91,1651397607.34375
-6.82,1651397607.359375
-9.79,1651397607.375
-12.72,1651397607.390625
-15.47,1651397607.40625
-17.7,1651397607.421875
-18.93,1651397607.4375
-18.64,1651397607.453125
-16.59,1651397607.46875
-12.95,1651397607.484375
-8.28,1651397607.5
-3.34,1651397607.515625
1.21,1651397607.53125
4.96,1651397607.546875
7.84,1651397607.5625
9.97,1651397607.578125
11.5,1651397607.59375
12.46,1651397607.609375
12.84,1651397607.625
12.65,1651397607.640625
11.95,1651397607.65625
10.97,1651397607.671875
9.98,1651397607.6875
9.2,1651397607.703125
8.78,1651397607.71875
8.69,1651397607.734375
8.89,1651397607.75
9.3,1651397607.765625
9.91,1651397607.78125
10.66,1651397607.796875
11.52,1651397607.8125
12.35,1651397607.828125
12.94,1651397607.84375
13.13,1651397607.859375
12.81,1651397607.875
11.99,1651397607.890625
10.78,1651397607.90625
9.41,1651397607.921875
8.02,1651397607.9375
6.79,1651397607.953125
5.78,1651397607.96875
4.97,1651397607.984375
4.28,1651397608.0
3.61,1651397608.015625
2.87,1651397608.03125
1.95,1651397608.046875
0.69,1651397608.0625
-1.05,1651397608.078125
-3.34,1651397608.09375
-6.09,1651397608.109375
-9.1,1651397608.125
-11.98,1651397608.140625
-14.41,1651397608.15625
-16.23,1651397608.171875
-17.52,1651397608.1875
-18.6,1651397608.203125
-19.87,1651397608.21875
-21.62,1651397608.234375
-23.85,1651397608.25
-26.2,1651397608.265625
-28.11,1651397608.28125
-29.0,1651397608.296875
-28.41,1651397608.3125
-26.22,1651397608.328125
-22.57,1651397608.34375
-17.85,1651397608.359375
-12.56,1651397608.375
-7.2,1651397608.390625
-2.23,1651397608.40625
2.03,1651397608.421875
5.42,1651397608.4375
7.94,1651397608.453125
9.73,1651397608.46875
10.97,1651397608.484375
11.88,1651397608.5
12.61,1651397608.515625
13.26,1651397608.53125
13.89,1651397608.546875
14.5,1651397608.5625
15.06,1651397608.578125
15.55,1651397608.59375
15.91,1651397608.609375
16.08,1651397608.625
16.03,1651397608.640625
15.83,1651397608.65625
15.56,1651397608.671875
15.37,1651397608.6875
15.32,1651397608.703125
15.43,1651397608.71875
15.65,1651397608.734375
15.91,1651397608.75
16.13,1651397608.765625
16.24,1651397608.78125
16.15,1651397608.796875
15.76,1651397608.8125
14.96,1651397608.828125
13.73,1651397608.84375
12.14,1651397608.859375
10.39,1651397608.875
8.78,1651397608.890625
7.53,1651397608.90625
6.78,1651397608.921875
6.44,1651397608.9375
6.26,1651397608.953125
5.95,1651397608.96875
5.29,1651397608.984375
4.19,1651397609.0
2.68,1651397609.015625
0.92,1651397609.03125
-0.98,1651397609.046875
-2.9,1651397609.0625
-4.76,1651397609.078125
-6.54,1651397609.09375
-8.32,1651397609.109375
-10.25,1651397609.125
-12.59,1651397609.140625
-15.54,1651397609.15625
-19.14,1651397609.171875
-23.1,1651397609.1875
-26.82,1651397609.203125
-29.48,1651397609.21875
-30.33,1651397609.234375
-28.91,1651397609.25
-25.33,1651397609.265625
-20.07,1651397609.28125
-13.99,1651397609.296875
-7.9,1651397609.3125
-2.49,1651397609.328125
1.91,1651397609.34375
5.21,1651397609.359375
7.61,1651397609.375
9.42,1651397609.390625
11.03,1651397609.40625
12.71,1651397609.421875
14.58,1651397609.4375
16.53,1651397609.453125
18.32,1651397609.46875
19.64,1651397609.484375
20.26,1651397609.5
20.15,1651397609.515625
19.44,1651397609.53125
18.37,1651397609.546875
17.21,1651397609.5625
16.12,1651397609.578125
15.19,1651397609.59375
14.47,1651397609.609375
13.99,1651397609.625
13.75,1651397609.640625
13.71,1651397609.65625
13.79,1651397609.671875
13.9,1651397609.6875
13.97,1651397609.703125
14.01,1651397609.71875
14.06,1651397609.734375
14.17,1651397609.75
14.35,1651397609.765625
14.52,1651397609.78125
14.54,1651397609.796875
14.26,1651397609.8125
13.53,1651397609.828125
12.36,1651397609.84375
10.79,1651397609.859375
9.02,1651397609.875
7.21,1651397609.890625
5.48,1651397609.90625
3.85,1651397609.921875
2.24,1651397609.9375
0.54,1651397609.953125
-1.37,1651397609.96875
-3.48,1651397609.984375
-5.71,1651397610.0
-7.93,1651397610.015625
-9.99,1651397610.03125
-11.84,1651397610.046875
-13.48,1651397610.0625
-14.98,1651397610.078125
-16.42,1651397610.09375
-17.95,1651397610.109375
-19.66,1651397610.125
-21.6,1651397610.140625
-23.69,1651397610.15625
-25.6,1651397610.171875
-26.85,1651397610.1875
-26.91,1651397610.203125
-25.35,1651397610.21875
-22.1,1651397610.234375
-17.44,1651397610.25
-11.98,1651397610.265625
-6.44,1651397610.28125
-1.49,1651397610.296875
2.52,1651397610.3125
5.44,1651397610.328125
7.42,1651397610.34375
8.71,1651397610.359375
9.57,1651397610.375
10.27,1651397610.390625
10.95,1651397610.40625
11.7,1651397610.421875
12.49,1651397610.4375
13.29,1651397610.453125
14.02,1651397610.46875
14.58,1651397610.484375
14.94,1651397610.5
15.07,1651397610.515625
14.95,1651397610.53125
14.62,1651397610.546875
14.19,1651397610.5625
13.74,1651397610.578125
13.38,1651397610.59375
13.09,1651397610.609375
12.76,1651397610.625
12.23,1651397610.640625
11.34,1651397610.65625
10.06,1651397610.671875
8.48,1651397610.6875
6.81,1651397610.703125
5.25,1651397610.71875
3.94,1651397610.734375
2.87,1651397610.75
1.92,1651397610.765625
0.95,1651397610.78125
-0.2,1651397610.796875
-1.54,1651397610.8125
-3.01,1651397610.828125
-4.52,1651397610.84375
-5.95,1651397610.859375
-7.32,1651397610.875
-8.62,1651397610.890625
-9.92,1651397610.90625
-11.27,1651397610.921875
-12.7,1651397610.9375
-14.21,1651397610.953125
-15.82,1651397610.96875
-17.59,1651397610.984375
-19.55,1651397611.0
-21.57,1651397611.015625
-23.31,1651397611.03125
-24.26,1651397611.046875
-23.85,1651397611.0625
-21.76,1651397611.078125
-18.02,1651397611.09375
-13.09,1651397611.109375
-7.62,1651397611.125
-2.27,1651397611.140625
2.46,1651397611.15625
6.32,1651397611.171875
9.29,1651397611.1875
11.46,1651397611.203125
12.98,1651397611.21875
13.96,1651397611.234375
14.51,1651397611.25
14.67,1651397611.265625
14.45,1651397611.28125
13.88,1651397611.296875
13.03,1651397611.3125
12.1,1651397611.328125
11.37,1651397611.34375
11.11,1651397611.359375
11.37,1651397611.375
12.05,1651397611.390625
12.91,1651397611.40625
13.69,1651397611.421875
14.32,1651397611.4375
14.86,1651397611.453125
15.48,1651397611.46875
16.27,1651397611.484375
17.15,1651397611.5
17.82,1651397611.515625
17.93,1651397611.53125
17.21,1651397611.546875
15.63,1651397611.5625
13.42,1651397611.578125
11.02,1651397611.59375
8.85,1651397611.609375
7.12,1651397611.625
5.79,1651397611.640625
4.61,1651397611.65625
3.26,1651397611.671875
1.58,1651397611.6875
-0.41,1651397611.703125
-2.51,1651397611.71875
-4.48,1651397611.734375
-6.18,1651397611.75
-7.61,1651397611.765625
-8.94,1651397611.78125
-10.33,1651397611.796875
-11.96,1651397611.8125
-13.9,1651397611.828125
-16.17,1651397611.84375
-18.75,1651397611.859375
-21.6,1651397611.875
-24.6,1651397611.890625
-27.47,1651397611.90625
-29.77,1651397611.921875
-30.96,1651397611.9375
-30.52,1651397611.953125
-28.18,1651397611.96875
-24.02,1651397611.984375
-18.55,1651397612.0
-12.51,1651397612.015625
-6.7,1651397612.03125
-1.62,1651397612.046875
2.48,1651397612.0625
5.68,1651397612.078125
8.23,1651397612.09375
10.3,1651397612.109375
11.99,1651397612.125
13.31,1651397612.140625
14.31,1651397612.15625
15.04,1651397612.171875
15.67,1651397612.1875
16.27,1651397612.203125
16.87,1651397612.21875
17.36,1651397612.234375
17.6,1651397612.25
17.48,1651397612.265625
17.01,1651397612.28125
16.35,1651397612.296875
15.66,1651397612.3125
15.15,1651397612.328125
14.9,1651397612.34375
14.91,1651397612.359375
15.1,1651397612.375
15.35,1651397612.390625
15.52,1651397612.40625
15.5,1651397612.421875
15.18,1651397612.4375
14.49,1651397612.453125
13.42,1651397612.46875
12.02,1651397612.484375
10.41,1651397612.5
8.76,1651397612.515625
7.23,1651397612.53125
5.89,1651397612.546875
4.73,1651397612.5625
3.64,1651397612.578125
2.51,1651397612.59375
1.26,1651397612.609375
-0.13,1651397612.625
-1.66,1651397612.640625
-3.25,1651397612.65625
-4.85,1651397612.671875
-6.34,1651397612.6875
-7.53,1651397612.703125
-8.26,1651397612.71875
-8.41,1651397612.734375
-8.05,1651397612.75
-7.56,1651397612.765625
-7.5,1651397612.78125
-8.34,1651397612.796875
-10.34,1651397612.8125
-13.22,1651397612.828125
-16.26,1651397612.84375
-18.55,1651397612.859375
-19.3,1651397612.875
-18.16,1651397612.890625
-15.26,1651397612.90625
-11.12,1651397612.921875
-6.41,1651397612.9375
-1.73,1651397612.953125
2.56,1651397612.96875
6.22,1651397612.984375
9.18,1651397613.0
11.45,1651397613.015625
13.14,1651397613.03125
14.45,1651397613.046875
15.68,1651397613.0625
17.05,1651397613.078125
18.66,1651397613.09375
20.44,1651397613.109375
22.27,1651397613.125
23.98,1651397613.140625
25.54,1651397613.15625
27.02,1651397613.171875
28.53,1651397613.1875
30.17,1651397613.203125
31.97,1651397613.21875
33.95,1651397613.234375
36.24,1651397613.25
38.95,1651397613.265625
42.25,1651397613.28125
46.19,1651397613.296875
50.72,1651397613.3125
55.59,1651397613.328125
60.54,1651397613.34375
65.37,1651397613.359375
70.07,1651397613.375
74.79,1651397613.390625
79.71,1651397613.40625
85.0,1651397613.421875
90.6,1651397613.4375
96.34,1651397613.453125
102.01,1651397613.46875
107.53,1651397613.484375
113.03,1651397613.5
118.85,1651397613.515625
125.37,1651397613.53125
132.94,1651397613.546875
141.72,1651397613.5625
151.7,1651397613.578125
162.51,1651397613.59375
173.25,1651397613.609375
182.41,1651397613.625
187.88,1651397613.640625
187.37,1651397613.65625
178.95,1651397613.671875
161.74,1651397613.6875
136.13,1651397613.703125
103.66,1651397613.71875
66.34,1651397613.734375
26.08,1651397613.75
-15.66,1651397613.765625
-57.72,1651397613.78125
-98.95,1651397613.796875
-137.95,1651397613.8125
-173.17,1651397613.828125
-203.33,1651397613.84375
-227.82,1651397613.859375
-246.82,1651397613.875
-261.07,1651397613.890625
-271.31,1651397613.90625
-277.95,1651397613.921875
-280.94,1651397613.9375
-279.97,1651397613.953125
-274.68,1651397613.96875
-264.64,1651397613.984375
-249.21,1651397614.0
-227.53,1651397614.015625
-198.89,1651397614.03125
-163.6,1651397614.046875
-123.73,1651397614.0625
-83.22,1651397614.078125
-46.91,1651397614.09375
-18.88,1651397614.109375
-0.77,1651397614.125
8.92,1651397614.140625
14.27,1651397614.15625
20.15,1651397614.171875
30.35,1651397614.1875
46.24,1651397614.203125
