bvp,time
3.48,1588332962.59375
-4.66,1588332962.609375
-15.59,1588332962.625
-29.03,1588332962.640625
-43.52,1588332962.65625
-56.09,1588332962.671875
-62.6,1588332962.6875
-58.91,1588332962.703125
-42.65,1588332962.71875
-14.66,1588332962.734375
20.69,1588332962.75
56.79,1588332962.765625
87.22,1588332962.78125
108.04,1588332962.796875
118.85,1588332962.8125
122.13,1588332962.828125
121.41,1588332962.84375
119.41,1588332962.859375
117.21,1588332962.875
114.59,1588332962.890625
111.06,1588332962.90625
106.7,1588332962.921875
102.26,1588332962.9375
98.63,1588332962.953125
96.2,1588332962.96875
94.54,1588332962.984375
92.67,1588332963.0
89.59,1588332963.015625
84.84,1588332963.03125
78.69,1588332963.046875
72.09,1588332963.0625
66.11,1588332963.078125
61.49,1588332963.09375
58.32,1588332963.109375
55.93,1588332963.125
53.24,1588332963.140625
49.12,1588332963.15625
43.0,1588332963.171875
35.06,1588332963.1875
26.14,1588332963.203125
17.42,1588332963.21875
9.91,1588332963.234375
3.96,1588332963.25
-0.73,1588332963.265625
-4.97,1588332963.28125
-9.6,1588332963.296875
-15.08,1588332963.3125
-21.33,1588332963.328125
-27.85,1588332963.34375
-34.0,1588332963.359375
-39.32,1588332963.375
-43.71,1588332963.390625
-47.35,1588332963.40625
-50.53,1588332963.421875
-53.51,1588332963.4375
-56.35,1588332963.453125
-58.88,1588332963.46875
-60.83,1588332963.484375
-61.83,1588332963.5
-61.49,1588332963.515625
-59.42,1588332963.53125
-55.36,1588332963.546875
-49.24,1588332963.5625
-41.31,1588332963.578125
-32.09,1588332963.59375
-22.22,1588332963.609375
-12.22,1588332963.625
-2.21,1588332963.640625
8.16,1588332963.65625
19.55,1588332963.671875
32.6,1588332963.6875
47.52,1588332963.703125
63.86,1588332963.71875
80.61,1588332963.734375
96.6,1588332963.75
110.93,1588332963.765625
123.31,1588332963.78125
134.05,1588332963.796875
143.8,1588332963.8125
153.13,1588332963.828125
162.22,1588332963.84375
170.75,1588332963.859375
178.04,1588332963.875
183.11,1588332963.890625
184.91,1588332963.90625
182.29,1588332963.921875
174.17,1588332963.9375
159.71,1588332963.953125
138.59,1588332963.96875
111.28,1588332963.984375
78.98,1588332964.0
43.45,1588332964.015625
6.56,1588332964.03125
-30.03,1588332964.046875
-64.99,1588332964.0625
-97.16,1588332964.078125
-125.15,1588332964.09375
-147.18,1588332964.109375
-161.25,1588332964.125
-165.92,1588332964.140625
-161.07,1588332964.15625
-148.46,1588332964.171875
-131.51,1588332964.1875
-114.26,1588332964.203125
-100.07,1588332964.21875
-90.63,1588332964.234375
-85.82,1588332964.25
-84.3,1588332964.265625
-84.59,1588332964.28125
-85.79,1588332964.296875
-87.84,1588332964.3125
-91.16,1588332964.328125
-96.08,1588332964.34375
-102.3,1588332964.359375
-108.79,1588332964.375
-113.87,1588332964.390625
-115.57,1588332964.40625
-112.16,1588332964.421875
-102.65,1588332964.4375
-87.17,1588332964.453125
-67.04,1588332964.46875
-44.46,1588332964.484375
-21.82,1588332964.5
-0.96,1588332964.515625
17.18,1588332964.53125
32.57,1588332964.546875
45.54,1588332964.5625
56.34,1588332964.578125
64.99,1588332964.59375
71.41,1588332964.609375
75.73,1588332964.625
78.38,1588332964.640625
80.04,1588332964.65625
81.29,1588332964.671875
82.38,1588332964.6875
83.22,1588332964.703125
83.6,1588332964.71875
83.36,1588332964.734375
82.61,1588332964.75
81.69,1588332964.765625
81.07,1588332964.78125
81.17,1588332964.796875
82.19,1588332964.8125
84.1,1588332964.828125
86.54,1588332964.84375
89.06,1588332964.859375
91.14,1588332964.875
92.53,1588332964.890625
93.3,1588332964.90625
93.92,1588332964.921875
95.04,1588332964.9375
97.2,1588332964.953125
100.62,1588332964.96875
105.04,1588332964.984375
109.97,1588332965.0
114.92,1588332965.015625
119.75,1588332965.03125
124.74,1588332965.046875
130.41,1588332965.0625
137.25,1588332965.078125
145.48,1588332965.09375
154.92,1588332965.109375
165.18,1588332965.125
175.86,1588332965.140625
186.57,1588332965.15625
197.09,1588332965.171875
207.17,1588332965.1875
216.46,1588332965.203125
224.39,1588332965.21875
230.06,1588332965.234375
232.23,1588332965.25
229.55,1588332965.265625
220.96,1588332965.28125
206.18,1588332965.296875
186.03,1588332965.3125
162.45,1588332965.328125
137.83,1588332965.34375
114.11,1588332965.359375
91.92,1588332965.375
70.16,1588332965.390625
46.38,1588332965.40625
17.77,1588332965.421875
-17.61,1588332965.4375
-59.78,1588332965.453125
-106.58,1588332965.46875
-154.0,1588332965.484375
-197.14,1588332965.5
-231.21,1588332965.515625
-252.62,1588332965.53125
-259.78,1588332965.546875
-253.65,1588332965.5625
-237.89,1588332965.578125
-218.05,1588332965.59375
-200.29,1588332965.609375
-189.48,1588332965.625
-187.65,1588332965.640625
-193.58,1588332965.65625
-203.97,1588332965.671875
-215.51,1588332965.6875
-226.94,1588332965.703125
-239.48,1588332965.71875
-255.7,1588332965.734375
-277.18,1588332965.75
-302.88,1588332965.765625
-329.01,1588332965.78125
-350.78,1588332965.796875
-364.83,1588332965.8125
-370.74,1588332965.828125
-370.89,1588332965.84375
-368.88,1588332965.859375
-367.41,1588332965.875
-366.94,1588332965.890625
-365.67,1588332965.90625
-360.56,1588332965.921875
-348.88,1588332965.9375
-329.34,1588332965.953125
-302.49,1588332965.96875
-270.49,1588332965.984375
-236.29,1588332966.0
-202.82,1588332966.015625
-172.22,1588332966.03125
-145.63,1588332966.046875
-123.34,1588332966.0625
-105.21,1588332966.078125
-90.84,1588332966.09375
-79.41,1588332966.109375
-69.35,1588332966.125
-58.18,1588332966.140625
-42.9,1588332966.15625
-21.0,1588332966.171875
8.46,1588332966.1875
44.08,1588332966.203125
82.4,1588332966.21875
118.99,1588332966.234375
149.89,1588332966.25
172.82,1588332966.265625
187.65,1588332966.28125
196.04,1588332966.296875
200.47,1588332966.3125
203.21,1588332966.328125
205.66,1588332966.34375
208.05,1588332966.359375
209.81,1588332966.375
210.06,1588332966.390625
208.19,1588332966.40625
204.09,1588332966.421875
198.18,1588332966.4375
191.15,1588332966.453125
183.7,1588332966.46875
176.34,1588332966.484375
169.3,1588332966.5
162.57,1588332966.515625
156.03,1588332966.53125
149.49,1588332966.546875
142.74,1588332966.5625
135.65,1588332966.578125
128.2,1588332966.59375
120.46,1588332966.609375
112.55,1588332966.625
104.52,1588332966.640625
96.26,1588332966.65625
87.47,1588332966.671875
77.91,1588332966.6875
67.49,1588332966.703125
56.42,1588332966.71875
45.23,1588332966.734375
34.5,1588332966.75
24.59,1588332966.765625
15.44,1588332966.78125
6.64,1588332966.796875
-2.39,1588332966.8125
-12.07,1588332966.828125
-22.41,1588332966.84375
-33.05,1588332966.859375
-43.43,1588332966.875
-53.08,1588332966.890625
-61.77,1588332966.90625
-69.54,1588332966.921875
-76.66,1588332966.9375
-83.48,1588332966.953125
-90.49,1588332966.96875
-98.16,1588332966.984375
-106.83,1588332967.0
-116.23,1588332967.015625
-125.14,1588332967.03125
-131.35,1588332967.046875
-132.05,1588332967.0625
-124.89,1588332967.078125
-108.94,1588332967.09375
-85.34,1588332967.109375
-57.07,1588332967.125
-28.01,1588332967.140625
-1.68,1588332967.15625
19.74,1588332967.171875
35.76,1588332967.1875
47.23,1588332967.203125
55.53,1588332967.21875
61.79,1588332967.234375
66.5,1588332967.25
69.52,1588332967.265625
70.53,1588332967.28125
69.42,1588332967.296875
66.65,1588332967.3125
63.21,1588332967.328125
60.29,1588332967.34375
58.87,1588332967.359375
59.29,1588332967.375
61.21,1588332967.390625
63.89,1588332967.40625
66.54,1588332967.421875
68.82,1588332967.4375
70.82,1588332967.453125
72.94,1588332967.46875
75.41,1588332967.484375
77.98,1588332967.5
79.84,1588332967.515625
80.02,1588332967.53125
77.81,1588332967.546875
73.21,1588332967.5625
67.0,1588332967.578125
60.44,1588332967.59375
54.69,1588332967.609375
50.23,1588332967.625
46.67,1588332967.640625
42.86,1588332967.65625
37.48,1588332967.671875
29.59,1588332967.6875
19.11,1588332967.703125
6.8,1588332967.71875
-6.04,1588332967.734375
-18.07,1588332967.75
-28.36,1588332967.765625
-36.6,1588332967.78125
-43.04,1588332967.796875
-48.35,1588332967.8125
-53.51,1588332967.828125
-59.69,1588332967.84375
-68.14,1588332967.859375
-79.76,1588332967.875
-94.52,1588332967.890625
-110.95,1588332967.90625
-126.17,1588332967.921875
-136.73,1588332967.9375
-139.88,1588332967.953125
-134.82,1588332967.96875
-123.09,1588332967.984375
-107.85,1588332968.0
-92.4,1588332968.015625
-78.74,1588332968.03125
-66.81,1588332968.046875
-54.98,1588332968.0625
-41.22,1588332968.078125
-24.4,1588332968.09375
-4.9,1588332968.109375
15.59,1588332968.125
34.91,1588332968.140625
51.26,1588332968.15625
63.79,1588332968.171875
72.56,1588332968.1875
78.23,1588332968.203125
81.7,1588332968.21875
83.76,1588332968.234375
85.07,1588332968.25
86.15,1588332968.265625
87.41,1588332968.28125
89.19,1588332968.296875
91.67,1588332968.3125
94.74,1588332968.328125
98.01,1588332968.34375
100.74,1588332968.359375
101.95,1588332968.375
100.7,1588332968.390625
96.43,1588332968.40625
89.29,1588332968.421875
80.26,1588332968.4375
70.89,1588332968.453125
62.79,1588332968.46875
56.96,1588332968.484375
53.35,1588332968.5
50.81,1588332968.515625
47.61,1588332968.53125
42.11,1588332968.546875
33.57,1588332968.5625
22.4,1588332968.578125
10.07,1588332968.59375
-1.47,1588332968.609375
-10.58,1588332968.625
-16.48,1588332968.640625
-19.54,1588332968.65625
-21.05,1588332968.671875
-22.73,1588332968.6875
-26.19,1588332968.703125
-32.43,1588332968.71875
-41.52,1588332968.734375
-52.53,1588332968.75
-63.62,1588332968.765625
-72.38,1588332968.78125
-76.38,1588332968.796875
-73.87,1588332968.8125
-64.34,1588332968.828125
-48.81,1588332968.84375
-29.53,1588332968.859375
-9.33,1588332968.875
9.24,1588332968.890625
24.52,1588332968.90625
35.91,1588332968.921875
43.62,1588332968.9375
48.31,1588332968.953125
50.64,1588332968.96875
51.12,1588332968.984375
50.16,1588332969.0
48.02,1588332969.015625
44.87,1588332969.03125
40.73,1588332969.046875
35.51,1588332969.0625
29.01,1588332969.078125
21.18,1588332969.09375
12.27,1588332969.109375
2.89,1588332969.125
-6.03,1588332969.140625
-13.47,1588332969.15625
-18.65,1588332969.171875
-21.25,1588332969.1875
-21.57,1588332969.203125
-20.37,1588332969.21875
-18.61,1588332969.234375
-17.09,1588332969.25
-16.17,1588332969.265625
-15.76,1588332969.28125
-15.45,1588332969.296875
-14.76,1588332969.3125
-13.44,1588332969.328125
-11.56,1588332969.34375
-9.55,1588332969.359375
-7.97,1588332969.375
-7.33,1588332969.390625
-7.8,1588332969.40625
-9.26,1588332969.421875
-11.32,1588332969.4375
-13.52,1588332969.453125
-15.58,1588332969.46875
-17.54,1588332969.484375
-19.67,1588332969.5
-22.45,1588332969.515625
-26.46,1588332969.53125
-32.17,1588332969.546875
-39.69,1588332969.5625
-48.5,1588332969.578125
-57.28,1588332969.59375
-63.97,1588332969.609375
-66.27,1588332969.625
-62.41,1588332969.640625
-51.94,1588332969.65625
-36.0,1588332969.671875
-17.0,1588332969.6875
2.19,1588332969.703125
19.23,1588332969.71875
32.87,1588332969.734375
42.96,1588332969.75
50.07,1588332969.765625
54.93,1588332969.78125
58.13,1588332969.796875
59.97,1588332969.8125
60.66,1588332969.828125
60.37,1588332969.84375
59.32,1588332969.859375
57.68,1588332969.875
55.6,1588332969.890625
53.2,1588332969.90625
50.65,1588332969.921875
48.18,1588332969.9375
46.01,1588332969.953125
44.28,1588332969.96875
43.01,1588332969.984375
42.1,1588332970.0
41.34,1588332970.015625
40.51,1588332970.03125
39.38,1588332970.046875
37.71,1588332970.0625
35.32,1588332970.078125
32.13,1588332970.09375
28.11,1588332970.109375
23.38,1588332970.125
18.12,1588332970.140625
12.53,1588332970.15625
6.85,1588332970.171875
1.31,1588332970.1875
-3.89,1588332970.203125
-8.56,1588332970.21875
-12.7,1588332970.234375
-16.45,1588332970.25
-20.19,1588332970.265625
-24.4,1588332970.28125
-29.59,1588332970.296875
-36.11,1588332970.3125
-43.83,1588332970.328125
-52.11,1588332970.34375
-59.64,1588332970.359375
-64.73,1588332970.375
-65.74,1588332970.390625
-61.61,1588332970.40625
-52.3,1588332970.421875
-38.89,1588332970.4375
-23.28,1588332970.453125
-7.63,1588332970.46875
6.27,1588332970.484375
17.42,1588332970.5
25.58,1588332970.515625
31.04,1588332970.53125
34.28,1588332970.546875
35.77,1588332970.5625
35.87,1588332970.578125
35.0,1588332970.59375
33.64,1588332970.609375
32.25,1588332970.625
31.17,1588332970.640625
30.43,1588332970.65625
29.78,1588332970.671875
28.76,1588332970.6875
26.96,1588332970.703125
24.3,1588332970.71875
21.04,1588332970.734375
17.8,1588332970.75
15.22,1588332970.765625
13.7,1588332970.78125
13.16,1588332970.796875
13.02,1588332970.8125
12.45,1588332970.828125
10.65,1588332970.84375
7.26,1588332970.859375
2.4,1588332970.875
-3.3,1588332970.890625
-9.05,1588332970.90625
-14.13,1588332970.921875
-18.22,1588332970.9375
-21.42,1588332970.953125
-24.17,1588332970.96875
-27.1,1588332970.984375
-30.91,1588332971.0
-36.09,1588332971.015625
-42.81,1588332971.03125
-50.61,1588332971.046875
-58.27,1588332971.0625
-64.01,1588332971.078125
-65.87,1588332971.09375
-62.47,1588332971.109375
-53.52,1588332971.125
-40.11,1588332971.140625
-24.28,1588332971.15625
-8.41,1588332971.171875
5.6,1588332971.1875
16.8,1588332971.203125
25.17,1588332971.21875
31.24,1588332971.234375
35.61,1588332971.25
38.67,1588332971.265625
40.51,1588332971.28125
41.16,1588332971.296875
40.72,1588332971.3125
39.52,1588332971.328125
37.96,1588332971.34375
36.41,1588332971.359375
34.99,1588332971.375
33.58,1588332971.390625
31.94,1588332971.40625
29.82,1588332971.421875
27.14,1588332971.4375
24.1,1588332971.453125
21.05,1588332971.46875
18.35,1588332971.484375
16.25,1588332971.5
14.74,1588332971.515625
13.53,1588332971.53125
12.14,1588332971.546875
10.02,1588332971.5625
6.79,1588332971.578125
2.32,1588332971.59375
-3.1,1588332971.609375
-8.91,1588332971.625
-14.42,1588332971.640625
-19.12,1588332971.65625
-22.79,1588332971.671875
-25.64,1588332971.6875
-28.15,1588332971.703125
-30.88,1588332971.71875
-34.41,1588332971.734375
-39.15,1588332971.75
-45.29,1588332971.765625
-52.63,1588332971.78125
-60.37,1588332971.796875
-67.03,1588332971.8125
-70.77,1588332971.828125
-69.89,1588332971.84375
-63.53,1588332971.859375
-52.1,1588332971.875
-37.28,1588332971.890625
-21.35,1588332971.90625
-6.47,1588332971.921875
6.01,1588332971.9375
15.7,1588332971.953125
22.93,1588332971.96875
28.29,1588332971.984375
32.29,1588332972.0
35.24,1588332972.015625
37.37,1588332972.03125
38.91,1588332972.046875
40.14,1588332972.0625
41.24,1588332972.078125
42.19,1588332972.09375
42.76,1588332972.109375
42.61,1588332972.125
41.49,1588332972.140625
39.36,1588332972.15625
36.44,1588332972.171875
33.21,1588332972.1875
30.26,1588332972.203125
28.08,1588332972.21875
26.92,1588332972.234375
26.63,1588332972.25
26.67,1588332972.265625
26.29,1588332972.28125
24.82,1588332972.296875
21.95,1588332972.3125
17.85,1588332972.328125
13.12,1588332972.34375
8.5,1588332972.359375
4.62,1588332972.375
1.69,1588332972.390625
-0.53,1588332972.40625
-2.58,1588332972.421875
-5.06,1588332972.4375
-8.39,1588332972.453125
-12.57,1588332972.46875
-17.29,1588332972.484375
-22.04,1588332972.5
-26.35,1588332972.515625
-29.94,1588332972.53125
-32.86,1588332972.546875
-35.38,1588332972.5625
-37.92,1588332972.578125
-40.96,1588332972.59375
-44.97,1588332972.609375
-50.24,1588332972.625
-56.62,1588332972.640625
-63.27,1588332972.65625
-68.67,1588332972.671875
-70.97,1588332972.6875
-68.51,1588332972.703125
-60.66,1588332972.71875
-48.07,1588332972.734375
-32.66,1588332972.75
-16.88,1588332972.765625
-2.86,1588332972.78125
8.17,1588332972.796875
16.08,1588332972.8125
21.51,1588332972.828125
25.33,1588332972.84375
28.21,1588332972.859375
30.47,1588332972.875
32.2,1588332972.890625
33.38,1588332972.90625
34.1,1588332972.921875
34.48,1588332972.9375
34.62,1588332972.953125
34.54,1588332972.96875
34.12,1588332972.984375
33.21,1588332973.0
31.7,1588332973.015625
29.62,1588332973.03125
27.18,1588332973.046875
24.77,1588332973.0625
22.76,1588332973.078125
21.45,1588332973.09375
20.84,1588332973.109375
20.62,1588332973.125
20.25,1588332973.140625
19.17,1588332973.15625
17.08,1588332973.171875
14.04,1588332973.1875
10.48,1588332973.203125
7.03,1588332973.21875
4.19,1588332973.234375
2.17,1588332973.25
0.8,1588332973.265625
-0.36,1588332973.28125
-1.85,1588332973.296875
-4.07,1588332973.3125
-7.16,1588332973.328125
-10.94,1588332973.34375
-14.99,1588332973.359375
-18.77,1588332973.375
-21.82,1588332973.390625
-23.98,1588332973.40625
-25.46,1588332973.421875
-26.81,1588332973.4375
-28.79,1588332973.453125
-32.04,1588332973.46875
-36.9,1588332973.484375
-43.15,1588332973.5
-50.0,1588332973.515625
-56.12,1588332973.53125
-59.95,1588332973.546875
-60.05,1588332973.5625
-55.55,1588332973.578125
-46.52,1588332973.59375
-33.98,1588332973.609375
-19.66,1588332973.625
-5.44,1588332973.640625
7.09,1588332973.65625
17.04,1588332973.671875
24.22,1588332973.6875
28.94,1588332973.703125
31.7,1588332973.71875
33.03,1588332973.734375
33.33,1588332973.75
32.92,1588332973.765625
32.03,1588332973.78125
30.86,1588332973.796875
29.49,1588332973.8125
27.99,1588332973.828125
26.33,1588332973.84375
24.52,1588332973.859375
22.56,1588332973.875
20.57,1588332973.890625
18.69,1588332973.90625
17.12,1588332973.921875
15.99,1588332973.9375
15.3,1588332973.953125
14.86,1588332973.96875
14.35,1588332973.984375
13.4,1588332974.0
11.74,1588332974.015625
9.34,1588332974.03125
6.35,1588332974.046875
3.14,1588332974.0625
0.03,1588332974.078125
-2.69,1588332974.09375
-4.97,1588332974.109375
-6.94,1588332974.125
-8.85,1588332974.140625
-11.01,1588332974.15625
-13.57,1588332974.171875
-16.53,1588332974.1875
-19.66,1588332974.203125
-22.61,1588332974.21875
-25.1,1588332974.234375
-27.05,1588332974.25
-28.73,1588332974.265625
-30.72,1588332974.28125
-33.72,1588332974.296875
-38.28,1588332974.3125
-44.36,1588332974.328125
-51.19,1588332974.34375
-57.31,1588332974.359375
-60.88,1588332974.375
-60.34,1588332974.390625
-54.95,1588332974.40625
-45.11,1588332974.421875
-32.18,1588332974.4375
-18.06,1588332974.453125
-4.53,1588332974.46875
7.19,1588332974.484375
16.55,1588332974.5
23.53,1588332974.515625
28.32,1588332974.53125
31.18,1588332974.546875
32.39,1588332974.5625
32.29,1588332974.578125
31.37,1588332974.59375
30.17,1588332974.609375
29.14,1588332974.625
28.47,1588332974.640625
28.08,1588332974.65625
27.71,1588332974.671875
27.06,1588332974.6875
25.92,1588332974.703125
24.28,1588332974.71875
22.34,1588332974.734375
20.38,1588332974.75
18.74,1588332974.765625
17.67,1588332974.78125
17.21,1588332974.796875
17.12,1588332974.8125
16.94,1588332974.828125
16.13,1588332974.84375
14.34,1588332974.859375
11.58,1588332974.875
8.23,1588332974.890625
4.89,1588332974.90625
2.04,1588332974.921875
-0.23,1588332974.9375
-2.23,1588332974.953125
-4.51,1588332974.96875
-7.5,1588332974.984375
-11.31,1588332975.0
-15.61,1588332975.015625
-19.9,1588332975.03125
-23.75,1588332975.046875
-27.03,1588332975.0625
-29.88,1588332975.078125
-32.61,1588332975.09375
-35.56,1588332975.109375
-38.99,1588332975.125
-43.17,1588332975.140625
-48.32,1588332975.15625
-54.38,1588332975.171875
-60.82,1588332975.1875
-66.43,1588332975.203125
-69.53,1588332975.21875
-68.5,1588332975.234375
-62.43,1588332975.25
-51.56,1588332975.265625
-37.33,1588332975.28125
-21.86,1588332975.296875
-7.27,1588332975.3125
4.97,1588332975.328125
14.33,1588332975.34375
21.03,1588332975.359375
25.69,1588332975.375
28.98,1588332975.390625
31.38,1588332975.40625
33.14,1588332975.421875
34.39,1588332975.4375
35.19,1588332975.453125
35.55,1588332975.46875
35.48,1588332975.484375
34.96,1588332975.5
34.04,1588332975.515625
32.76,1588332975.53125
31.25,1588332975.546875
29.63,1588332975.5625
28.08,1588332975.578125
26.75,1588332975.59375
25.72,1588332975.609375
25.0,1588332975.625
24.51,1588332975.640625
24.08,1588332975.65625
23.5,1588332975.671875
22.55,1588332975.6875
21.1,1588332975.703125
19.06,1588332975.71875
16.48,1588332975.734375
13.47,1588332975.75
10.27,1588332975.765625
7.17,1588332975.78125
4.42,1588332975.796875
2.13,1588332975.8125
0.22,1588332975.828125
-1.63,1588332975.84375
-3.86,1588332975.859375
-6.88,1588332975.875
-10.83,1588332975.890625
-15.5,1588332975.90625
-20.4,1588332975.921875
-24.89,1588332975.9375
-28.49,1588332975.953125
-31.09,1588332975.96875
-32.94,1588332975.984375
-34.68,1588332976.0
-37.05,1588332976.015625
-40.71,1588332976.03125
-46.07,1588332976.046875
-53.01,1588332976.0625
-60.8,1588332976.078125
-68.0,1588332976.09375
-72.74,1588332976.109375
-73.17,1588332976.125
-68.1,1588332976.140625
-57.58,1588332976.15625
-42.95,1588332976.171875
-26.49,1588332976.1875
-10.61,1588332976.203125
2.89,1588332976.21875
13.27,1588332976.234375
20.76,1588332976.25
26.07,1588332976.265625
29.93,1588332976.28125
32.78,1588332976.296875
34.78,1588332976.3125
36.06,1588332976.328125
36.78,1588332976.34375
37.19,1588332976.359375
37.45,1588332976.375
37.48,1588332976.390625
37.08,1588332976.40625
35.99,1588332976.421875
34.18,1588332976.4375
31.96,1588332976.453125
29.82,1588332976.46875
28.28,1588332976.484375
27.6,1588332976.5
27.7,1588332976.515625
28.18,1588332976.53125
28.56,1588332976.546875
28.43,1588332976.5625
27.6,1588332976.578125
26.1,1588332976.59375
24.1,1588332976.609375
21.8,1588332976.625
19.37,1588332976.640625
16.93,1588332976.65625
14.44,1588332976.671875
11.81,1588332976.6875
8.92,1588332976.703125
5.71,1588332976.71875
2.27,1588332976.734375
-1.14,1588332976.75
-4.21,1588332976.765625
-6.8,1588332976.78125
-9.0,1588332976.796875
-11.22,1588332976.8125
-13.93,1588332976.828125
-17.42,1588332976.84375
-21.6,1588332976.859375
-26.07,1588332976.875
-30.22,1588332976.890625
-33.63,1588332976.90625
-36.26,1588332976.921875
-38.46,1588332976.9375
-40.84,1588332976.953125
-44.05,1588332976.96875
-48.56,1588332976.984375
-54.41,1588332977.0
-61.15,1588332977.015625
-67.7,1588332977.03125
-72.52,1588332977.046875
-73.95,1588332977.0625
-70.69,1588332977.078125
-62.35,1588332977.09375
-49.68,1588332977.109375
-34.4,1588332977.125
-18.68,1588332977.140625
-4.41,1588332977.15625
7.25,1588332977.171875
16.09,1588332977.1875
22.51,1588332977.203125
27.17,1588332977.21875
30.56,1588332977.234375
32.91,1588332977.25
34.29,1588332977.265625
34.78,1588332977.28125
34.59,1588332977.296875
34.04,1588332977.3125
33.43,1588332977.328125
32.94,1588332977.34375
32.61,1588332977.359375
32.37,1588332977.375
32.16,1588332977.390625
32.01,1588332977.40625
32.0,1588332977.421875
32.23,1588332977.4375
32.68,1588332977.453125
33.22,1588332977.46875
33.58,1588332977.484375
33.49,1588332977.5
32.8,1588332977.515625
31.55,1588332977.53125
29.88,1588332977.546875
27.94,1588332977.5625
25.81,1588332977.578125
23.44,1588332977.59375
20.76,1588332977.609375
17.72,1588332977.625
14.42,1588332977.640625
10.98,1588332977.65625
7.62,1588332977.671875
4.43,1588332977.6875
1.42,1588332977.703125
-1.48,1588332977.71875
-4.41,1588332977.734375
-7.45,1588332977.75
-10.66,1588332977.765625
-13.98,1588332977.78125
-17.34,1588332977.796875
-20.63,1588332977.8125
-23.78,1588332977.828125
-26.78,1588332977.84375
-29.64,1588332977.859375
-32.51,1588332977.875
-35.56,1588332977.890625
-39.14,1588332977.90625
-43.6,1588332977.921875
-49.13,1588332977.9375
-55.44,1588332977.953125
-61.51,1588332977.96875
-65.67,1588332977.984375
-66.07,1588332978.0
-61.31,1588332978.015625
-51.14,1588332978.03125
-36.66,1588332978.046875
-20.0,1588332978.0625
-3.6,1588332978.078125
10.49,1588332978.09375
21.22,1588332978.109375
28.53,1588332978.125
33.04,1588332978.140625
35.55,1588332978.15625
36.69,1588332978.171875
36.75,1588332978.1875
35.9,1588332978.203125
34.31,1588332978.21875
32.31,1588332978.234375
30.37,1588332978.25
28.95,1588332978.265625
28.25,1588332978.28125
28.16,1588332978.296875
28.31,1588332978.3125
28.32,1588332978.328125
28.05,1588332978.34375
27.63,1588332978.359375
27.32,1588332978.375
27.34,1588332978.390625
27.6,1588332978.40625
27.75,1588332978.421875
27.37,1588332978.4375
26.19,1588332978.453125
24.24,1588332978.46875
21.76,1588332978.484375
19.05,1588332978.5
16.22,1588332978.515625
13.25,1588332978.53125
10.0,1588332978.546875
6.49,1588332978.5625
2.94,1588332978.578125
-0.32,1588332978.59375
-3.07,1588332978.609375
-5.4,1588332978.625
-7.7,1588332978.640625
-10.47,1588332978.65625
-13.97,1588332978.671875
-18.09,1588332978.6875
-22.36,1588332978.703125
-26.29,1588332978.71875
-29.58,1588332978.734375
-32.33,1588332978.75
-34.94,1588332978.765625
-37.93,1588332978.78125
-41.75,1588332978.796875
-46.75,1588332978.8125
-53.08,1588332978.828125
-60.63,1588332978.84375
-68.76,1588332978.859375
-76.2,1588332978.875
-81.16,1588332978.890625
-81.78,1588332978.90625
-76.8,1588332978.921875
-66.17,1588332978.9375
-51.17,1588332978.953125
-33.98,1588332978.96875
-16.97,1588332978.984375
-1.98,1588332979.0
10.1,1588332979.015625
19.24,1588332979.03125
25.91,1588332979.046875
30.67,1588332979.0625
33.95,1588332979.078125
36.05,1588332979.09375
37.25,1588332979.109375
37.82,1588332979.125
38.07,1588332979.140625
38.19,1588332979.15625
38.2,1588332979.171875
38.02,1588332979.1875
37.5,1588332979.203125
36.65,1588332979.21875
35.65,1588332979.234375
34.84,1588332979.25
34.53,1588332979.265625
34.85,1588332979.28125
35.69,1588332979.296875
36.7,1588332979.3125
37.42,1588332979.328125
37.44,1588332979.34375
36.58,1588332979.359375
34.85,1588332979.375
32.43,1588332979.390625
29.53,1588332979.40625
26.33,1588332979.421875
22.93,1588332979.4375
19.38,1588332979.453125
15.66,1588332979.46875
11.79,1588332979.484375
7.86,1588332979.5
4.06,1588332979.515625
0.61,1588332979.53125
-2.3,1588332979.546875
-4.73,1588332979.5625
-6.95,1588332979.578125
-9.42,1588332979.59375
-12.62,1588332979.609375
-16.74,1588332979.625
-21.61,1588332979.640625
-26.69,1588332979.65625
-31.34,1588332979.671875
-35.13,1588332979.6875
-38.07,1588332979.703125
-40.55,1588332979.71875
-43.24,1588332979.734375
-46.8,1588332979.75
-51.76,1588332979.765625
-58.36,1588332979.78125
-66.38,1588332979.796875
-75.04,1588332979.8125
-82.87,1588332979.828125
-87.94,1588332979.84375
-88.31,1588332979.859375
-82.74,1588332979.875
-71.28,1588332979.890625
-55.36,1588332979.90625
-37.36,1588332979.921875
-19.83,1588332979.9375
-4.66,1588332979.953125
7.33,1588332979.96875
16.3,1588332979.984375
22.95,1588332980.0
28.02,1588332980.015625
32.06,1588332980.03125
35.29,1588332980.046875
37.78,1588332980.0625
39.6,1588332980.078125
40.84,1588332980.09375
41.59,1588332980.109375
41.93,1588332980.125
41.91,1588332980.140625
41.6,1588332980.15625
41.1,1588332980.171875
40.54,1588332980.1875
40.06,1588332980.203125
39.81,1588332980.21875
39.84,1588332980.234375
40.12,1588332980.25
40.54,1588332980.265625
40.86,1588332980.28125
40.74,1588332980.296875
39.85,1588332980.3125
37.99,1588332980.328125
35.21,1588332980.34375
31.86,1588332980.359375
28.47,1588332980.375
25.56,1588332980.390625
23.36,1588332980.40625
21.71,1588332980.421875
20.09,1588332980.4375
17.89,1588332980.453125
14.85,1588332980.46875
11.11,1588332980.484375
7.24,1588332980.5
3.85,1588332980.515625
1.25,1588332980.53125
-0.77,1588332980.546875
-2.8,1588332980.5625
-5.52,1588332980.578125
-9.35,1588332980.59375
-14.19,1588332980.609375
-19.56,1588332980.625
-24.77,1588332980.640625
-29.29,1588332980.65625
-32.86,1588332980.671875
-35.59,1588332980.6875
-37.87,1588332980.703125
-40.27,1588332980.71875
-43.42,1588332980.734375
-47.96,1588332980.75
-54.28,1588332980.765625
-62.23,1588332980.78125
-70.89,1588332980.796875
-78.49,1588332980.8125
-82.74,1588332980.828125
-81.61,1588332980.84375
-74.04,1588332980.859375
-60.53,1588332980.875
-43.04,1588332980.890625
-24.36,1588332980.90625
-7.14,1588332980.921875
6.91,1588332980.9375
17.35,1588332980.953125
24.7,1588332980.96875
29.94,1588332980.984375
33.84,1588332981.0
36.82,1588332981.015625
38.95,1588332981.03125
40.23,1588332981.046875
40.75,1588332981.0625
40.71,1588332981.078125
40.34,1588332981.09375
39.82,1588332981.109375
39.24,1588332981.125
38.62,1588332981.140625
37.99,1588332981.15625
37.4,1588332981.171875
36.93,1588332981.1875
36.66,1588332981.203125
36.66,1588332981.21875
36.93,1588332981.234375
37.37,1588332981.25
37.75,1588332981.265625
37.74,1588332981.28125
36.94,1588332981.296875
35.08,1588332981.3125
32.08,1588332981.328125
28.16,1588332981.34375
23.77,1588332981.359375
19.42,1588332981.375
15.53,1588332981.390625
12.29,1588332981.40625
9.67,1588332981.421875
7.49,1588332981.4375
5.47,1588332981.453125
3.34,1588332981.46875
0.82,1588332981.484375
-2.33,1588332981.5
-6.22,1588332981.515625
-10.81,1588332981.53125
-15.79,1588332981.546875
-20.73,1588332981.5625
-25.2,1588332981.578125
-28.95,1588332981.59375
-32.03,1588332981.609375
-34.77,1588332981.625
-37.72,1588332981.640625
-41.5,1588332981.65625
-46.62,1588332981.671875
-53.23,1588332981.6875
-60.92,1588332981.703125
-68.49,1588332981.71875
-74.09,1588332981.734375
-75.66,1588332981.75
-71.61,1588332981.765625
-61.56,1588332981.78125
-46.63,1588332981.796875
-29.11,1588332981.8125
-11.71,1588332981.828125
3.36,1588332981.84375
15.0,1588332981.859375
23.21,1588332981.875
28.74,1588332981.890625
32.43,1588332981.90625
34.9,1588332981.921875
36.45,1588332981.9375
37.25,1588332981.953125
37.5,1588332981.96875
37.53,1588332981.984375
37.65,1588332982.0
38.01,1588332982.015625
38.53,1588332982.03125
38.98,1588332982.046875
39.12,1588332982.0625
38.86,1588332982.078125
38.34,1588332982.09375
37.74,1588332982.109375
37.31,1588332982.125
37.14,1588332982.140625
37.14,1588332982.15625
37.11,1588332982.171875
36.78,1588332982.1875
35.92,1588332982.203125
34.42,1588332982.21875
32.24,1588332982.234375
29.47,1588332982.25
26.23,1588332982.265625
22.63,1588332982.28125
18.77,1588332982.296875
14.73,1588332982.3125
10.63,1588332982.328125
6.63,1588332982.34375
2.92,1588332982.359375
-0.32,1588332982.375
-3.06,1588332982.390625
-5.45,1588332982.40625
-7.88,1588332982.421875
-10.79,1588332982.4375
-14.52,1588332982.453125
-19.11,1588332982.46875
-24.24,1588332982.484375
-29.35,1588332982.5
-33.91,1588332982.515625
-37.7,1588332982.53125
-40.93,1588332982.546875
-44.19,1588332982.5625
-48.28,1588332982.578125
-53.89,1588332982.59375
-61.32,1588332982.609375
-70.23,1588332982.625
-79.53,1588332982.640625
-87.52,1588332982.65625
-92.19,1588332982.671875
-91.82,1588332982.6875
-85.5,1588332982.703125
-73.53,1588332982.71875
-57.41,1588332982.734375
-39.48,1588332982.75
-22.11,1588332982.765625
-7.08,1588332982.78125
4.84,1588332982.796875
13.85,1588332982.8125
20.74,1588332982.828125
26.33,1588332982.84375
31.17,1588332982.859375
35.44,1588332982.875
39.08,1588332982.890625
42.01,1588332982.90625
44.28,1588332982.921875
45.97,1588332982.9375
47.2,1588332982.953125
47.93,1588332982.96875
48.08,1588332982.984375
47.61,1588332983.0
46.62,1588332983.015625
45.36,1588332983.03125
44.25,1588332983.046875
43.54,1588332983.0625
43.34,1588332983.078125
43.43,1588332983.09375
43.45,1588332983.109375
42.95,1588332983.125
41.63,1588332983.140625
39.38,1588332983.15625
36.35,1588332983.171875
32.9,1588332983.1875
29.47,1588332983.203125
26.46,1588332983.21875
24.04,1588332983.234375
22.09,1588332983.25
20.23,1588332983.265625
18.03,1588332983.28125
15.17,1588332983.296875
11.64,1588332983.3125
7.74,1588332983.328125
3.98,1588332983.34375
0.82,1588332983.359375
-1.59,1588332983.375
-3.47,1588332983.390625
-5.37,1588332983.40625
-7.91,1588332983.421875
-11.49,1588332983.4375
-16.12,1588332983.453125
-21.4,1588332983.46875
-26.72,1588332983.484375
-31.53,1588332983.5
-35.51,1588332983.515625
-38.74,1588332983.53125
-41.58,1588332983.546875
-44.63,1588332983.5625
-48.56,1588332983.578125
-53.99,1588332983.59375
-61.22,1588332983.609375
-69.93,1588332983.625
-78.93,1588332983.640625
-86.29,1588332983.65625
-89.74,1588332983.671875
-87.48,1588332983.6875
-78.89,1588332983.703125
-64.88,1588332983.71875
-47.63,1588332983.734375
-29.81,1588332983.75
-13.74,1588332983.765625
-0.72,1588332983.78125
9.04,1588332983.796875
16.13,1588332983.8125
21.38,1588332983.828125
25.52,1588332983.84375
29.01,1588332983.859375
32.13,1588332983.875
35.08,1588332983.890625
37.95,1588332983.90625
40.72,1588332983.921875
43.19,1588332983.9375
45.02,1588332983.953125
45.92,1588332983.96875
45.8,1588332983.984375
44.87,1588332984.0
43.64,1588332984.015625
42.64,1588332984.03125
42.3,1588332984.046875
42.72,1588332984.0625
43.67,1588332984.078125
44.68,1588332984.09375
45.21,1588332984.109375
44.8,1588332984.125
43.22,1588332984.140625
40.48,1588332984.15625
36.9,1588332984.171875
32.94,1588332984.1875
29.15,1588332984.203125
25.95,1588332984.21875
23.5,1588332984.234375
21.63,1588332984.25
19.94,1588332984.265625
17.95,1588332984.28125
15.37,1588332984.296875
12.21,1588332984.3125
8.73,1588332984.328125
5.38,1588332984.34375
2.46,1588332984.359375
0.04,1588332984.375
-2.16,1588332984.390625
-4.58,1588332984.40625
-7.66,1588332984.421875
-11.56,1588332984.4375
-16.14,1588332984.453125
-20.96,1588332984.46875
-25.51,1588332984.484375
-29.38,1588332984.5
-32.46,1588332984.515625
-35.03,1588332984.53125
-37.71,1588332984.546875
-41.34,1588332984.5625
-46.64,1588332984.578125
-53.83,1588332984.59375
-62.22,1588332984.609375
-70.17,1588332984.625
-75.41,1588332984.640625
-75.85,1588332984.65625
-70.28,1588332984.671875
-59.02,1588332984.6875
-43.75,1588332984.703125
-27.01,1588332984.71875
-11.23,1588332984.734375
1.93,1588332984.75
11.88,1588332984.765625
18.94,1588332984.78125
23.88,1588332984.796875
27.51,1588332984.8125
30.38,1588332984.828125
32.77,1588332984.84375
34.76,1588332984.859375
36.31,1588332984.875
37.36,1588332984.890625
37.89,1588332984.90625
37.91,1588332984.921875
37.49,1588332984.9375
36.77,1588332984.953125
35.93,1588332984.96875
35.16,1588332984.984375
34.7,1588332985.0
34.77,1588332985.015625
35.51,1588332985.03125
36.88,1588332985.046875
38.56,1588332985.0625
40.0,1588332985.078125
40.61,1588332985.09375
39.88,1588332985.109375
37.71,1588332985.125
34.38,1588332985.140625
30.49,1588332985.15625
26.7,1588332985.171875
23.56,1588332985.1875
21.24,1588332985.203125
19.59,1588332985.21875
18.21,1588332985.234375
16.61,1588332985.25
14.37,1588332985.265625
11.3,1588332985.28125
7.51,1588332985.296875
3.35,1588332985.3125
-0.66,1588332985.328125
-4.04,1588332985.34375
-6.58,1588332985.359375
-8.4,1588332985.375
-10.03,1588332985.390625
-12.08,1588332985.40625
-15.01,1588332985.421875
-18.88,1588332985.4375
-23.31,1588332985.453125
-27.69,1588332985.46875
-31.51,1588332985.484375
-34.66,1588332985.5
-37.38,1588332985.515625
-40.24,1588332985.53125
-43.8,1588332985.546875
-48.5,1588332985.5625
-54.56,1588332985.578125
-61.88,1588332985.59375
-69.96,1588332985.609375
-77.7,1588332985.625
-83.49,1588332985.640625
-85.48,1588332985.65625
-82.25,1588332985.671875
-73.41,1588332985.6875
-59.91,1588332985.703125
-43.82,1588332985.71875
-27.63,1588332985.734375
-13.37,1588332985.75
-2.05,1588332985.765625
6.36,1588332985.78125
12.58,1588332985.796875
17.45,1588332985.8125
21.53,1588332985.828125
25.07,1588332985.84375
28.18,1588332985.859375
30.92,1588332985.875
33.43,1588332985.890625
35.78,1588332985.90625
37.88,1588332985.921875
39.5,1588332985.9375
40.33,1588332985.953125
40.22,1588332985.96875
39.23,1588332985.984375
37.72,1588332986.0
36.15,1588332986.015625
35.0,1588332986.03125
34.52,1588332986.046875
34.72,1588332986.0625
35.35,1588332986.078125
36.02,1588332986.09375
36.28,1588332986.109375
35.79,1588332986.125
34.42,1588332986.140625
32.24,1588332986.15625
29.5,1588332986.171875
26.55,1588332986.1875
23.71,1588332986.203125
21.19,1588332986.21875
19.05,1588332986.234375
17.19,1588332986.25
15.42,1588332986.265625
13.5,1588332986.28125
11.27,1588332986.296875
8.7,1588332986.3125
5.94,1588332986.328125
3.23,1588332986.34375
0.88,1588332986.359375
-0.97,1588332986.375
-2.32,1588332986.390625
-3.46,1588332986.40625
-4.82,1588332986.421875
-6.85,1588332986.4375
-9.91,1588332986.453125
-13.98,1588332986.46875
-18.75,1588332986.484375
-23.6,1588332986.5
-27.86,1588332986.515625
-31.14,1588332986.53125
-33.39,1588332986.546875
-35.05,1588332986.5625
-36.78,1588332986.578125
-39.3,1588332986.59375
-43.14,1588332986.609375
-48.5,1588332986.625
-55.19,1588332986.640625
-62.44,1588332986.65625
-68.95,1588332986.671875
-72.98,1588332986.6875
-72.83,1588332986.703125
-67.38,1588332986.71875
-56.7,1588332986.734375
-42.14,1588332986.75
-26.02,1588332986.765625
-10.82,1588332986.78125
1.61,1588332986.796875
10.56,1588332986.8125
16.34,1588332986.828125
19.93,1588332986.84375
22.34,1588332986.859375
24.27,1588332986.875
26.04,1588332986.890625
27.72,1588332986.90625
29.28,1588332986.921875
30.75,1588332986.9375
32.09,1588332986.953125
33.22,1588332986.96875
34.02,1588332986.984375
34.32,1588332987.0
34.1,1588332987.015625
33.45,1588332987.03125
32.63,1588332987.046875
31.94,1588332987.0625
31.58,1588332987.078125
31.56,1588332987.09375
31.7,1588332987.109375
31.68,1588332987.125
31.15,1588332987.140625
29.9,1588332987.15625
27.94,1588332987.171875
25.43,1588332987.1875
22.7,1588332987.203125
20.1,1588332987.21875
17.85,1588332987.234375
15.97,1588332987.25
14.3,1588332987.265625
12.54,1588332987.28125
10.43,1588332987.296875
7.87,1588332987.3125
5.02,1588332987.328125
2.22,1588332987.34375
-0.22,1588332987.359375
-2.19,1588332987.375
-3.89,1588332987.390625
-5.74,1588332987.40625
-8.18,1588332987.421875
-11.35,1588332987.4375
-15.02,1588332987.453125
-18.75,1588332987.46875
-22.04,1588332987.484375
-24.67,1588332987.5
-26.8,1588332987.515625
-28.87,1588332987.53125
-31.46,1588332987.546875
-35.06,1588332987.5625
-40.0,1588332987.578125
-46.29,1588332987.59375
-53.53,1588332987.609375
-60.73,1588332987.625
-66.38,1588332987.640625
-68.67,1588332987.65625
-66.15,1588332987.671875
-58.28,1588332987.6875
-45.85,1588332987.703125
-30.79,1588332987.71875
-15.54,1588332987.734375
-2.16,1588332987.75
8.22,1588332987.765625
15.59,1588332987.78125
20.65,1588332987.796875
24.3,1588332987.8125
27.14,1588332987.828125
29.35,1588332987.84375
30.89,1588332987.859375
31.72,1588332987.875
31.94,1588332987.890625
31.79,1588332987.90625
31.53,1588332987.921875
31.32,1588332987.9375
31.18,1588332987.953125
31.0,1588332987.96875
30.73,1588332987.984375
30.4,1588332988.0
30.12,1588332988.015625
30.08,1588332988.03125
30.41,1588332988.046875
31.1,1588332988.0625
31.9,1588332988.078125
32.42,1588332988.09375
32.23,1588332988.109375
30.97,1588332988.125
28.55,1588332988.140625
25.19,1588332988.15625
21.37,1588332988.171875
17.66,1588332988.1875
14.55,1588332988.203125
12.21,1588332988.21875
10.4,1588332988.234375
8.62,1588332988.25
6.31,1588332988.265625
3.19,1588332988.28125
-0.6,1588332988.296875
-4.59,1588332988.3125
-8.17,1588332988.328125
-10.92,1588332988.34375
-12.79,1588332988.359375
-14.13,1588332988.375
-15.45,1588332988.390625
-17.25,1588332988.40625
-19.8,1588332988.421875
-23.1,1588332988.4375
-26.92,1588332988.453125
-30.92,1588332988.46875
-34.73,1588332988.484375
-38.05,1588332988.5
-40.76,1588332988.515625
-42.98,1588332988.53125
-45.12,1588332988.546875
-47.84,1588332988.5625
-51.82,1588332988.578125
-57.46,1588332988.59375
-64.51,1588332988.609375
-71.9,1588332988.625
-77.85,1588332988.640625
-80.35,1588332988.65625
-77.87,1588332988.671875
-69.93,1588332988.6875
-57.4,1588332988.703125
-42.15,1588332988.71875
-26.49,1588332988.734375
-12.37,1588332988.75
-0.88,1588332988.765625
7.76,1588332988.78125
14.0,1588332988.796875
18.6,1588332988.8125
22.2,1588332988.828125
25.31,1588332988.84375
28.22,1588332988.859375
31.03,1588332988.875
33.72,1588332988.890625
36.14,1588332988.90625
38.03,1588332988.921875
39.17,1588332988.9375
39.44,1588332988.953125
38.96,1588332988.96875
38.01,1588332988.984375
36.99,1588332989.0
36.28,1588332989.015625
36.14,1588332989.03125
36.58,1588332989.046875
37.38,1588332989.0625
38.16,1588332989.078125
38.44,1588332989.09375
37.84,1588332989.109375
36.22,1588332989.125
33.72,1588332989.140625
30.66,1588332989.15625
27.43,1588332989.171875
24.35,1588332989.1875
21.57,1588332989.203125
19.12,1588332989.21875
16.96,1588332989.234375
15.01,1588332989.25
13.18,1588332989.265625
11.31,1588332989.28125
9.18,1588332989.296875
6.63,1588332989.3125
3.56,1588332989.328125
0.15,1588332989.34375
-3.25,1588332989.359375
-6.25,1588332989.375
-8.6,1588332989.390625
-10.37,1588332989.40625
-11.93,1588332989.421875
-13.81,1588332989.4375
-16.39,1588332989.453125
-19.8,1588332989.46875
-23.82,1588332989.484375
-27.99,1588332989.5
-31.84,1588332989.515625
-35.05,1588332989.53125
-37.58,1588332989.546875
-39.65,1588332989.5625
-41.66,1588332989.578125
-44.12,1588332989.59375
-47.6,1588332989.609375
-52.49,1588332989.625
-58.82,1588332989.640625
-66.06,1588332989.65625
-72.93,1588332989.671875
-77.63,1588332989.6875
-78.28,1588332989.703125
-73.64,1588332989.71875
-63.64,1588332989.734375
-49.59,1588332989.75
-33.72,1588332989.765625
-18.38,1588332989.78125
-5.33,1588332989.796875
4.71,1588332989.8125
11.93,1588332989.828125
17.06,1588332989.84375
20.85,1588332989.859375
23.83,1588332989.875
26.32,1588332989.890625
28.5,1588332989.90625
30.5,1588332989.921875
32.37,1588332989.9375
34.05,1588332989.953125
35.36,1588332989.96875
36.12,1588332989.984375
36.3,1588332990.0
36.0,1588332990.015625
35.52,1588332990.03125
35.12,1588332990.046875
34.96,1588332990.0625
35.11,1588332990.078125
35.5,1588332990.09375
36.01,1588332990.109375
36.44,1588332990.125
36.5,1588332990.140625
35.86,1588332990.15625
34.24,1588332990.171875
31.62,1588332990.1875
28.28,1588332990.203125
24.76,1588332990.21875
21.68,1588332990.234375
19.39,1588332990.25
17.86,1588332990.265625
16.65,1588332990.28125
15.21,1588332990.296875
13.15,1588332990.3125
10.45,1588332990.328125
7.42,1588332990.34375
4.53,1588332990.359375
2.1,1588332990.375
0.08,1588332990.390625
-1.81,1588332990.40625
-3.97,1588332990.421875
-6.69,1588332990.4375
-9.99,1588332990.453125
-13.69,1588332990.46875
-17.46,1588332990.484375
-21.0,1588332990.5
-24.14,1588332990.515625
-26.89,1588332990.53125
-29.41,1588332990.546875
-32.06,1588332990.5625
-35.31,1588332990.578125
-39.67,1588332990.59375
-45.47,1588332990.609375
-52.62,1588332990.625
-60.27,1588332990.640625
-66.93,1588332990.65625
-70.7,1588332990.671875
-69.89,1588332990.6875
-63.71,1588332990.703125
-52.59,1588332990.71875
-38.16,1588332990.734375
-22.67,1588332990.75
-8.28,1588332990.765625
3.55,1588332990.78125
12.37,1588332990.796875
18.46,1588332990.8125
22.55,1588332990.828125
25.33,1588332990.84375
27.28,1588332990.859375
28.62,1588332990.875
29.44,1588332990.890625
29.78,1588332990.90625
29.74,1588332990.921875
29.42,1588332990.9375
28.95,1588332990.953125
28.51,1588332990.96875
28.21,1588332990.984375
28.15,1588332991.0
28.4,1588332991.015625
28.96,1588332991.03125
29.83,1588332991.046875
30.98,1588332991.0625
32.28,1588332991.078125
33.46,1588332991.09375
34.17,1588332991.109375
33.99,1588332991.125
32.71,1588332991.140625
30.4,1588332991.15625
27.46,1588332991.171875
24.43,1588332991.1875
21.79,1588332991.203125
19.69,1588332991.21875
17.87,1588332991.234375
15.89,1588332991.25
13.29,1588332991.265625
9.93,1588332991.28125
5.97,1588332991.296875
1.89,1588332991.3125
-1.86,1588332991.328125
-5.01,1588332991.34375
-7.57,1588332991.359375
-9.82,1588332991.375
-12.13,1588332991.390625
-14.88,1588332991.40625
-18.27,1588332991.421875
-22.35,1588332991.4375
-26.97,1588332991.453125
-31.85,1588332991.46875
-36.64,1588332991.484375
-41.05,1588332991.5
-44.97,1588332991.515625
-48.58,1588332991.53125
-52.33,1588332991.546875
-56.87,1588332991.5625
-62.74,1588332991.578125
-70.02,1588332991.59375
-78.05,1588332991.609375
-85.33,1588332991.625
-89.84,1588332991.640625
-89.65,1588332991.65625
-83.65,1588332991.671875
-72.02,1588332991.6875
-56.31,1588332991.703125
-38.95,1588332991.71875
-22.4,1588332991.734375
-8.4,1588332991.75
2.42,1588332991.765625
10.47,1588332991.78125
16.66,1588332991.796875
21.87,1588332991.8125
26.61,1588332991.828125
30.91,1588332991.84375
34.61,1588332991.859375
37.53,1588332991.875
39.71,1588332991.890625
41.3,1588332991.90625
42.51,1588332991.921875
43.44,1588332991.9375
44.03,1588332991.953125
44.12,1588332991.96875
43.69,1588332991.984375
42.91,1588332992.0
42.15,1588332992.015625
41.83,1588332992.03125
42.17,1588332992.046875
43.07,1588332992.0625
44.03,1588332992.078125
44.42,1588332992.09375
43.69,1588332992.109375
41.6,1588332992.125
38.36,1588332992.140625
34.43,1588332992.15625
30.43,1588332992.171875
26.85,1588332992.1875
23.96,1588332992.203125
21.77,1588332992.21875
20.04,1588332992.234375
18.37,1588332992.25
16.28,1588332992.265625
13.4,1588332992.28125
9.58,1588332992.296875
5.04,1588332992.3125
0.24,1588332992.328125
-4.2,1588332992.34375
-7.87,1588332992.359375
-10.71,1588332992.375
-13.04,1588332992.390625
-15.42,1588332992.40625
-18.38,1588332992.421875
-22.22,1588332992.4375
-26.86,1588332992.453125
-31.98,1588332992.46875
-37.13,1588332992.484375
-41.83,1588332992.5
-45.8,1588332992.515625
-48.99,1588332992.53125
-51.67,1588332992.546875
-54.4,1588332992.5625
-58.02,1588332992.578125
-63.28,1588332992.59375
-70.56,1588332992.609375
-79.4,1588332992.625
-88.37,1588332992.640625
-95.3,1588332992.65625
-97.87,1588332992.671875
-94.43,1588332992.6875
-84.66,1588332992.703125
-69.75,1588332992.71875
-52.03,1588332992.734375
-34.14,1588332992.75
-18.24,1588332992.765625
-5.49,1588332992.78125
4.1,1588332992.796875
11.18,1588332992.8125
16.65,1588332992.828125
21.27,1588332992.84375
25.49,1588332992.859375
29.53,1588332992.875
33.48,1588332992.890625
37.36,1588332992.90625
41.02,1588332992.921875
44.16,1588332992.9375
46.42,1588332992.953125
47.52,1588332992.96875
47.47,1588332992.984375
46.61,1588332993.0
45.55,1588332993.015625
44.92,1588332993.03125
45.16,1588332993.046875
46.28,1588332993.0625
47.91,1588332993.078125
49.41,1588332993.09375
50.09,1588332993.109375
49.45,1588332993.125
47.35,1588332993.140625
44.03,1588332993.15625
40.03,1588332993.171875
35.99,1588332993.1875
32.42,1588332993.203125
29.57,1588332993.21875
27.34,1588332993.234375
25.4,1588332993.25
23.35,1588332993.265625
20.89,1588332993.28125
17.99,1588332993.296875
14.84,1588332993.3125
11.78,1588332993.328125
9.09,1588332993.34375
6.91,1588332993.359375
5.01,1588332993.375
2.96,1588332993.390625
0.24,1588332993.40625
-3.56,1588332993.421875
-8.48,1588332993.4375
-14.21,1588332993.453125
-20.17,1588332993.46875
-25.73,1588332993.484375
-30.5,1588332993.5
-34.5,1588332993.515625
-38.15,1588332993.53125
-42.19,1588332993.546875
-47.42,1588332993.5625
-54.45,1588332993.578125
-63.31,1588332993.59375
-73.22,1588332993.609375
-82.55,1588332993.625
-89.04,1588332993.640625
-90.46,1588332993.65625
-85.34,1588332993.671875
-73.63,1588332993.6875
-56.77,1588332993.703125
-37.35,1588332993.71875
-18.23,1588332993.734375
-1.67,1588332993.75
11.2,1588332993.765625
20.47,1588332993.78125
27.0,1588332993.796875
31.81,1588332993.8125
35.67,1588332993.828125
38.87,1588332993.84375
41.35,1588332993.859375
42.92,1588332993.875
43.52,1588332993.890625
43.31,1588332993.90625
42.62,1588332993.921875
41.8,1588332993.9375
41.12,1588332993.953125
40.71,1588332993.96875
40.6,1588332993.984375
40.76,1588332994.0
41.18,1588332994.015625
41.83,1588332994.03125
42.63,1588332994.046875
43.4,1588332994.0625
43.83,1588332994.078125
43.62,1588332994.09375
42.55,1588332994.109375
40.6,1588332994.125
37.96,1588332994.140625
34.84,1588332994.15625
31.44,1588332994.171875
27.8,1588332994.1875
23.87,1588332994.203125
19.63,1588332994.21875
15.12,1588332994.234375
10.54,1588332994.25
6.16,1588332994.265625
2.17,1588332994.28125
-1.43,1588332994.296875
-4.84,1588332994.3125
-8.4,1588332994.328125
-12.39,1588332994.34375
-16.96,1588332994.359375
-21.96,1588332994.375
-27.1,1588332994.390625
-32.0,1588332994.40625
-36.4,1588332994.421875
-40.27,1588332994.4375
-43.8,1588332994.453125
-47.49,1588332994.46875
-52.0,1588332994.484375
-57.99,1588332994.5
-65.87,1588332994.515625
-75.48,1588332994.53125
-85.77,1588332994.546875
-94.89,1588332994.5625
-100.54,1588332994.578125
-100.66,1588332994.59375
-94.15,1588332994.609375
-81.42,1588332994.625
-64.31,1588332994.640625
-45.53,1588332994.65625
-27.78,1588332994.671875
-12.99,1588332994.6875
-1.84,1588332994.703125
6.2,1588332994.71875
12.39,1588332994.734375
18.15,1588332994.75
24.43,1588332994.765625
31.51,1588332994.78125
38.89,1588332994.796875
45.73,1588332994.8125
51.21,1588332994.828125
54.86,1588332994.84375
56.75,1588332994.859375
57.35,1588332994.875
57.18,1588332994.890625
56.65,1588332994.90625
55.97,1588332994.921875
55.2,1588332994.9375
54.48,1588332994.953125
54.09,1588332994.96875
54.29,1588332994.984375
55.09,1588332995.0
56.13,1588332995.015625
56.67,1588332995.03125
55.95,1588332995.046875
53.54,1588332995.0625
49.63,1588332995.078125
44.91,1588332995.09375
40.36,1588332995.109375
36.7,1588332995.125
34.14,1588332995.140625
32.31,1588332995.15625
30.51,1588332995.171875
28.1,1588332995.1875
24.77,1588332995.203125
20.64,1588332995.21875
16.18,1588332995.234375
11.9,1588332995.25
8.16,1588332995.265625
4.99,1588332995.28125
2.11,1588332995.296875
-0.96,1588332995.3125
-4.74,1588332995.328125
-9.6,1588332995.34375
-15.55,1588332995.359375
-22.31,1588332995.375
-29.28,1588332995.390625
-35.83,1588332995.40625
-41.46,1588332995.421875
-46.1,1588332995.4375
-50.07,1588332995.453125
-54.06,1588332995.46875
-58.95,1588332995.484375
-65.49,1588332995.5
-73.97,1588332995.515625
-83.87,1588332995.53125
-93.78,1588332995.546875
-101.44,1588332995.5625
-104.47,1588332995.578125
-101.07,1588332995.59375
-90.78,1588332995.609375
-74.79,1588332995.625
-55.53,1588332995.640625
-35.91,1588332995.65625
-18.29,1588332995.671875
-3.89,1588332995.6875
7.34,1588332995.703125
16.19,1588332995.71875
23.65,1588332995.734375
30.35,1588332995.75
36.47,1588332995.765625
41.89,1588332995.78125
46.46,1588332995.796875
50.13,1588332995.8125
52.97,1588332995.828125
55.07,1588332995.84375
56.43,1588332995.859375
56.99,1588332995.875
56.75,1588332995.890625
55.87,1588332995.90625
54.69,1588332995.921875
53.69,1588332995.9375
53.23,1588332995.953125
53.42,1588332995.96875
54.06,1588332995.984375
54.68,1588332996.0
54.78,1588332996.015625
53.93,1588332996.03125
51.95,1588332996.046875
48.93,1588332996.0625
45.18,1588332996.078125
41.2,1588332996.09375
37.46,1588332996.109375
34.31,1588332996.125
31.84,1588332996.140625
29.85,1588332996.15625
27.89,1588332996.171875
25.49,1588332996.1875
22.38,1588332996.203125
18.57,1588332996.21875
14.41,1588332996.234375
10.42,1588332996.25
7.0,1588332996.265625
4.26,1588332996.28125
1.96,1588332996.296875
-0.4,1588332996.3125
-3.3,1588332996.328125
-7.05,1588332996.34375
-11.59,1588332996.359375
-16.57,1588332996.375
-21.5,1588332996.390625
-25.97,1588332996.40625
-29.76,1588332996.421875
-33.0,1588332996.4375
-36.08,1588332996.453125
-39.56,1588332996.46875
-44.06,1588332996.484375
-50.05,1588332996.5
-57.55,1588332996.515625
-65.81,1588332996.53125
-73.3,1588332996.546875
-77.95,1588332996.5625
-77.85,1588332996.578125
-71.96,1588332996.59375
-60.6,1588332996.609375
-45.39,1588332996.625
-28.68,1588332996.640625
-12.64,1588332996.65625
1.26,1588332996.671875
12.53,1588332996.6875
21.39,1588332996.703125
28.32,1588332996.71875
33.71,1588332996.734375
37.77,1588332996.75
40.65,1588332996.765625
42.48,1588332996.78125
43.49,1588332996.796875
43.94,1588332996.8125
44.03,1588332996.828125
43.92,1588332996.84375
43.71,1588332996.859375
43.45,1588332996.875
43.16,1588332996.890625
42.78,1588332996.90625
42.3,1588332996.921875
41.75,1588332996.9375
41.26,1588332996.953125
40.93,1588332996.96875
40.76,1588332996.984375
40.51,1588332997.0
39.75,1588332997.015625
38.06,1588332997.03125
35.28,1588332997.046875
31.63,1588332997.0625
27.63,1588332997.078125
23.86,1588332997.09375
20.65,1588332997.109375
17.96,1588332997.125
15.46,1588332997.140625
12.77,1588332997.15625
9.7,1588332997.171875
6.38,1588332997.1875
3.15,1588332997.203125
0.27,1588332997.21875
-2.2,1588332997.234375
-4.53,1588332997.25
-7.15,1588332997.265625
-10.4,1588332997.28125
-14.36,1588332997.296875
-18.81,1588332997.3125
-23.34,1588332997.328125
-27.5,1588332997.34375
-31.02,1588332997.359375
-33.91,1588332997.375
-36.47,1588332997.390625
-39.22,1588332997.40625
-42.77,1588332997.421875
-47.63,1588332997.4375
-53.94,1588332997.453125
-61.24,1588332997.46875
-68.35,1588332997.484375
-73.58,1588332997.5
-75.11,1588332997.515625
-71.69,1588332997.53125
-63.1,1588332997.546875
-50.36,1588332997.5625
-35.42,1588332997.578125
-20.48,1588332997.59375
-7.36,1588332997.609375
3.01,1588332997.625
10.67,1588332997.640625
16.26,1588332997.65625
20.63,1588332997.671875
24.43,1588332997.6875
28.0,1588332997.703125
31.31,1588332997.71875
34.18,1588332997.734375
36.39,1588332997.75
37.86,1588332997.765625
38.66,1588332997.78125
39.01,1588332997.796875
39.16,1588332997.8125
39.25,1588332997.828125
39.27,1588332997.84375
39.09,1588332997.859375
38.64,1588332997.875
37.95,1588332997.890625
37.23,1588332997.90625
36.71,1588332997.921875
36.42,1588332997.9375
36.1,1588332997.953125
35.27,1588332997.96875
33.49,1588332997.984375
30.59,1588332998.0
26.86,1588332998.015625
22.94,1588332998.03125
19.48,1588332998.046875
16.87,1588332998.0625
15.04,1588332998.078125
13.57,1588332998.09375
11.94,1588332998.109375
9.8,1588332998.125
7.1,1588332998.140625
4.12,1588332998.15625
1.28,1588332998.171875
-1.17,1588332998.1875
-3.1,1588332998.203125
-4.67,1588332998.21875
-6.16,1588332998.234375
-7.89,1588332998.25
-10.12,1588332998.265625
-12.98,1588332998.28125
-16.47,1588332998.296875
-20.38,1588332998.3125
-24.37,1588332998.328125
-28.03,1588332998.34375
-31.05,1588332998.359375
-33.38,1588332998.375
-35.23,1588332998.390625
-37.08,1588332998.40625
-39.48,1588332998.421875
-42.87,1588332998.4375
-47.55,1588332998.453125
-53.57,1588332998.46875
-60.62,1588332998.484375
-67.94,1588332998.5
-74.21,1588332998.515625
-77.77,1588332998.53125
-77.02,1588332998.546875
-71.11,1588332998.5625
-60.34,1588332998.578125
-46.27,1588332998.59375
-31.18,1588332998.609375
-17.32,1588332998.625
-6.12,1588332998.640625
2.09,1588332998.65625
7.84,1588332998.671875
12.04,1588332998.6875
15.46,1588332998.703125
18.47,1588332998.71875
21.18,1588332998.734375
23.62,1588332998.75
25.83,1588332998.765625
27.91,1588332998.78125
29.9,1588332998.796875
31.63,1588332998.8125
32.81,1588332998.828125
33.2,1588332998.84375
32.71,1588332998.859375
31.54,1588332998.875
30.13,1588332998.890625
28.94,1588332998.90625
28.32,1588332998.921875
28.32,1588332998.9375
28.69,1588332998.953125
29.0,1588332998.96875
28.79,1588332998.984375
27.76,1588332999.0
25.86,1588332999.015625
23.37,1588332999.03125
20.68,1588332999.046875
18.27,1588332999.0625
16.46,1588332999.078125
15.32,1588332999.09375
14.61,1588332999.109375
13.95,1588332999.125
12.89,1588332999.140625
11.17,1588332999.15625
8.8,1588332999.171875
6.01,1588332999.1875
3.21,1588332999.203125
0.69,1588332999.21875
-1.51,1588332999.234375
-3.57,1588332999.25
-5.82,1588332999.265625
-8.51,1588332999.28125
-11.66,1588332999.296875
-15.08,1588332999.3125
-18.47,1588332999.328125
-21.53,1588332999.34375
-24.13,1588332999.359375
-26.3,1588332999.375
-28.2,1588332999.390625
-30.12,1588332999.40625
-32.4,1588332999.421875
-35.43,1588332999.4375
-39.6,1588332999.453125
-45.03,1588332999.46875
-51.36,1588332999.484375
-57.58,1588332999.5
-62.17,1588332999.515625
-63.5,1588332999.53125
-60.43,1588332999.546875
-52.77,1588332999.5625
-41.44,1588332999.578125
-28.12,1588332999.59375
-14.77,1588332999.609375
-2.94,1588332999.625
6.51,1588332999.640625
13.52,1588332999.65625
18.53,1588332999.671875
22.13,1588332999.6875
24.86,1588332999.703125
26.96,1588332999.71875
28.55,1588332999.734375
29.54,1588332999.75
29.9,1588332999.765625
29.63,1588332999.78125
28.8,1588332999.796875
27.59,1588332999.8125
26.2,1588332999.828125
24.85,1588332999.84375
23.71,1588332999.859375
22.93,1588332999.875
22.53,1588332999.890625
22.53,1588332999.90625
22.83,1588332999.921875
23.28,1588332999.9375
23.64,1588332999.953125
23.61,1588332999.96875
22.92,1588332999.984375
21.44,1588333000.0
19.27,1588333000.015625
16.72,1588333000.03125
14.21,1588333000.046875
12.08,1588333000.0625
10.42,1588333000.078125
9.03,1588333000.09375
7.54,1588333000.109375
5.6,1588333000.125
3.09,1588333000.140625
0.19,1588333000.15625
-2.74,1588333000.171875
-5.3,1588333000.1875
-7.32,1588333000.203125
-8.87,1588333000.21875
-10.24,1588333000.234375
-11.82,1588333000.25
-13.89,1588333000.265625
-16.57,1588333000.28125
-19.77,1588333000.296875
-23.24,1588333000.3125
-26.64,1588333000.328125
-29.69,1588333000.34375
-32.33,1588333000.359375
-34.78,1588333000.375
-37.49,1588333000.390625
-41.02,1588333000.40625
-45.75,1588333000.421875
-51.54,1588333000.4375
-57.57,1588333000.453125
-62.42,1588333000.46875
-64.5,1588333000.484375
-62.56,1588333000.5
-56.17,1588333000.515625
-45.97,1588333000.53125
-33.41,1588333000.546875
-20.26,1588333000.5625
-8.11,1588333000.578125
2.04,1588333000.59375
9.87,1588333000.609375
15.56,1588333000.625
19.6,1588333000.640625
22.58,1588333000.65625
24.93,1588333000.671875
27.0,1588333000.6875
28.92,1588333000.703125
30.66,1588333000.71875
32.05,1588333000.734375
32.91,1588333000.75
33.15,1588333000.765625
32.8,1588333000.78125
32.01,1588333000.796875
30.95,1588333000.8125
29.77,1588333000.828125
28.55,1588333000.84375
27.38,1588333000.859375
26.37,1588333000.875
25.61,1588333000.890625
25.08,1588333000.90625
24.62,1588333000.921875
23.92,1588333000.9375
22.67,1588333000.953125
20.73,1588333000.96875
18.17,1588333000.984375
15.29,1588333001.0
12.5,1588333001.015625
10.11,1588333001.03125
8.28,1588333001.046875
6.9,1588333001.0625
5.67,1588333001.078125
4.26,1588333001.09375
2.37,1588333001.109375
-0.09,1588333001.125
-2.94,1588333001.140625
-5.86,1588333001.15625
-8.48,1588333001.171875
-10.54,1588333001.1875
-12.02,1588333001.203125
-13.17,1588333001.21875
-14.44,1588333001.234375
-16.25,1588333001.25
-18.85,1588333001.265625
-22.19,1588333001.28125
-25.99,1588333001.296875
-29.81,1588333001.3125
-33.29,1588333001.328125
-36.19,1588333001.34375
-38.57,1588333001.359375
-40.68,1588333001.375
-42.92,1588333001.390625
-45.79,1588333001.40625
-49.75,1588333001.421875
-54.98,1588333001.4375
-61.14,1588333001.453125
-67.25,1588333001.46875
-71.74,1588333001.484375
-72.9,1588333001.5
-69.45,1588333001.515625
-61.08,1588333001.53125
-48.7,1588333001.546875
-34.12,1588333001.5625
-19.5,1588333001.578125
-6.6,1588333001.59375
3.63,1588333001.609375
11.15,1588333001.625
16.52,1588333001.640625
20.49,1588333001.65625
23.67,1588333001.671875
26.39,1588333001.6875
28.76,1588333001.703125
30.86,1588333001.71875
32.72,1588333001.734375
34.36,1588333001.75
35.7,1588333001.765625
36.61,1588333001.78125
36.86,1588333001.796875
36.28,1588333001.8125
34.9,1588333001.828125
33.01,1588333001.84375
31.05,1588333001.859375
29.49,1588333001.875
28.65,1588333001.890625
28.57,1588333001.90625
28.99,1588333001.921875
29.47,1588333001.9375
29.58,1588333001.953125
28.97,1588333001.96875
27.53,1588333001.984375
25.43,1588333002.0
22.99,1588333002.015625
20.59,1588333002.03125
18.5,1588333002.046875
16.78,1588333002.0625
15.2,1588333002.078125
13.43,1588333002.09375
11.13,1588333002.109375
8.22,1588333002.125
4.91,1588333002.140625
1.59,1588333002.15625
-1.32,1588333002.171875
-3.6,1588333002.1875
-5.4,1588333002.203125
-7.11,1588333002.21875
-9.2,1588333002.234375
-11.95,1588333002.25
-15.34,1588333002.265625
-19.09,1588333002.28125
-22.76,1588333002.296875
-26.04,1588333002.3125
-28.85,1588333002.328125
-31.38,1588333002.34375
-34.0,1588333002.359375
-37.22,1588333002.375
-41.48,1588333002.390625
-46.97,1588333002.40625
-53.31,1588333002.421875
-59.5,1588333002.4375
-63.91,1588333002.453125
-64.78,1588333002.46875
-60.87,1588333002.484375
-51.98,1588333002.5
-39.23,1588333002.515625
-24.58,1588333002.53125
-10.27,1588333002.546875
2.03,1588333002.5625
11.49,1588333002.578125
18.21,1588333002.59375
22.73,1588333002.609375
25.74,1588333002.625
27.79,1588333002.640625
29.25,1588333002.65625
30.34,1588333002.671875
31.2,1588333002.6875
31.87,1588333002.703125
32.27,1588333002.71875
32.3,1588333002.734375
31.9,1588333002.75
31.12,1588333002.765625
30.14,1588333002.78125
29.19,1588333002.796875
28.48,1588333002.8125
28.12,1588333002.828125
28.18,1588333002.84375
28.6,1588333002.859375
29.2,1588333002.875
29.65,1588333002.890625
29.54,1588333002.90625
28.53,1588333002.921875
26.51,1588333002.9375
23.7,1588333002.953125
20.53,1588333002.96875
17.47,1588333002.984375
14.74,1588333003.0
12.28,1588333003.015625
9.83,1588333003.03125
7.13,1588333003.046875
4.12,1588333003.0625
1.0,1588333003.078125
-1.91,1588333003.09375
-4.36,1588333003.109375
-6.33,1588333003.125
-8.11,1588333003.140625
-10.11,1588333003.15625
-12.69,1588333003.171875
-16.0,1588333003.1875
-19.9,1588333003.203125
-24.07,1588333003.21875
-28.14,1588333003.234375
-31.82,1588333003.25
-35.02,1588333003.265625
-37.83,1588333003.28125
-40.47,1588333003.296875
-43.29,1588333003.3125
-46.75,1588333003.328125
-51.35,1588333003.34375
-57.46,1588333003.359375
-64.93,1588333003.375
-72.83,1588333003.390625
-79.37,1588333003.40625
-82.39,1588333003.421875
-80.1,1588333003.4375
-71.87,1588333003.453125
-58.6,1588333003.46875
-42.45,1588333003.484375
-26.04,1588333003.5
-11.58,1588333003.515625
-0.21,1588333003.53125
8.07,1588333003.546875
13.98,1588333003.5625
18.47,1588333003.578125
22.26,1588333003.59375
25.74,1588333003.609375
29.01,1588333003.625
32.08,1588333003.640625
34.88,1588333003.65625
37.33,1588333003.671875
39.29,1588333003.6875
40.62,1588333003.703125
41.16,1588333003.71875
40.87,1588333003.734375
39.85,1588333003.75
38.35,1588333003.765625
36.8,1588333003.78125
35.65,1588333003.796875
35.27,1588333003.8125
35.76,1588333003.828125
36.91,1588333003.84375
38.18,1588333003.859375
38.94,1588333003.875
38.63,1588333003.890625
37.0,1588333003.90625
34.21,1588333003.921875
30.71,1588333003.9375
27.08,1588333003.953125
23.81,1588333003.96875
21.12,1588333003.984375
18.92,1588333004.0
16.93,1588333004.015625
14.83,1588333004.03125
12.35,1588333004.046875
9.43,1588333004.0625
6.16,1588333004.078125
2.77,1588333004.09375
-0.51,1588333004.109375
-3.46,1588333004.125
-5.97,1588333004.140625
-8.06,1588333004.15625
-9.94,1588333004.171875
-12.0,1588333004.1875
-14.66,1588333004.203125
-18.27,1588333004.21875
-22.88,1588333004.234375
-28.19,1588333004.25
-33.65,1588333004.265625
-38.67,1588333004.28125
-42.88,1588333004.296875
-46.23,1588333004.3125
-49.05,1588333004.328125
-51.89,1588333004.34375
-55.47,1588333004.359375
-60.38,1588333004.375
-66.97,1588333004.390625
-74.88,1588333004.40625
-82.98,1588333004.421875
-89.35,1588333004.4375
-91.75,1588333004.453125
-88.36,1588333004.46875
-78.61,1588333004.484375
-63.54,1588333004.5
-45.49,1588333004.515625
-27.27,1588333004.53125
-11.23,1588333004.546875
1.44,1588333004.5625
10.78,1588333004.578125
17.61,1588333004.59375
22.91,1588333004.609375
27.37,1588333004.625
31.28,1588333004.640625
34.64,1588333004.65625
37.41,1588333004.671875
39.66,1588333004.6875
41.46,1588333004.703125
42.88,1588333004.71875
43.86,1588333004.734375
44.33,1588333004.75
44.22,1588333004.765625
43.68,1588333004.78125
43.01,1588333004.796875
42.57,1588333004.8125
42.66,1588333004.828125
43.25,1588333004.84375
44.06,1588333004.859375
44.59,1588333004.875
44.32,1588333004.890625
42.92,1588333004.90625
40.43,1588333004.921875
37.15,1588333004.9375
33.55,1588333004.953125
30.09,1588333004.96875
27.03,1588333004.984375
24.39,1588333005.0
22.01,1588333005.015625
19.61,1588333005.03125
16.97,1588333005.046875
14.01,1588333005.0625
10.77,1588333005.078125
7.47,1588333005.09375
4.27,1588333005.109375
1.24,1588333005.125
-1.72,1588333005.140625
-4.85,1588333005.15625
-8.42,1588333005.171875
-12.55,1588333005.1875
-17.16,1588333005.203125
-21.99,1588333005.21875
-26.72,1588333005.234375
-31.19,1588333005.25
-35.43,1588333005.265625
-39.69,1588333005.28125
-44.36,1588333005.296875
-49.85,1588333005.3125
-56.47,1588333005.328125
-64.29,1588333005.34375
-72.83,1588333005.359375
-80.95,1588333005.375
-86.87,1588333005.390625
-88.61,1588333005.40625
-84.63,1588333005.421875
-74.56,1588333005.4375
-59.45,1588333005.453125
-41.49,1588333005.46875
-23.3,1588333005.484375
-7.04,1588333005.5
6.13,1588333005.515625
16.12,1588333005.53125
23.56,1588333005.546875
29.32,1588333005.5625
34.05,1588333005.578125
38.12,1588333005.59375
41.6,1588333005.609375
44.45,1588333005.625
46.56,1588333005.640625
47.86,1588333005.65625
48.34,1588333005.671875
48.16,1588333005.6875
47.61,1588333005.703125
47.03,1588333005.71875
46.76,1588333005.734375
46.91,1588333005.75
47.41,1588333005.765625
48.02,1588333005.78125
48.47,1588333005.796875
48.54,1588333005.8125
48.07,1588333005.828125
46.98,1588333005.84375
45.22,1588333005.859375
42.73,1588333005.875
39.55,1588333005.890625
35.83,1588333005.90625
31.86,1588333005.921875
27.95,1588333005.9375
24.28,1588333005.953125
20.8,1588333005.96875
17.25,1588333005.984375
13.29,1588333006.0
8.76,1588333006.015625
3.86,1588333006.03125
-0.92,1588333006.046875
-4.99,1588333006.0625
-8.03,1588333006.078125
-10.23,1588333006.09375
-12.24,1588333006.109375
-14.89,1588333006.125
-18.8,1588333006.140625
-24.11,1588333006.15625
-30.37,1588333006.171875
-36.86,1588333006.1875
-42.84,1588333006.203125
-47.96,1588333006.21875
-52.27,1588333006.234375
-56.25,1588333006.25
-60.61,1588333006.265625
-66.16,1588333006.28125
-73.49,1588333006.296875
-82.67,1588333006.3125
-92.92,1588333006.328125
-102.43,1588333006.34375
-108.74,1588333006.359375
-109.36,1588333006.375
-102.71,1588333006.390625
-88.83,1588333006.40625
-69.51,1588333006.421875
-47.68,1588333006.4375
-26.43,1588333006.453125
-8.08,1588333006.46875
6.35,1588333006.484375
17.03,1588333006.5
24.87,1588333006.515625
30.89,1588333006.53125
35.91,1588333006.546875
40.42,1588333006.5625
44.66,1588333006.578125
48.71,1588333006.59375
52.47,1588333006.609375
55.76,1588333006.625
58.27,1588333006.640625
59.77,1588333006.65625
60.18,1588333006.671875
59.64,1588333006.6875
58.54,1588333006.703125
57.35,1588333006.71875
56.43,1588333006.734375
56.02,1588333006.75
56.1,1588333006.765625
56.47,1588333006.78125
56.72,1588333006.796875
56.4,1588333006.8125
55.09,1588333006.828125
52.56,1588333006.84375
48.89,1588333006.859375
44.47,1588333006.875
39.91,1588333006.890625
35.81,1588333006.90625
32.53,1588333006.921875
30.04,1588333006.9375
27.97,1588333006.953125
25.77,1588333006.96875
22.96,1588333006.984375
19.36,1588333007.0
15.08,1588333007.015625
10.48,1588333007.03125
5.99,1588333007.046875
1.89,1588333007.0625
-1.81,1588333007.078125
-5.32,1588333007.09375
-9.04,1588333007.109375
-13.37,1588333007.125
-18.53,1588333007.140625
-24.41,1588333007.15625
-30.66,1588333007.171875
-36.7,1588333007.1875
-41.96,1588333007.203125
-46.12,1588333007.21875
-49.23,1588333007.234375
-51.79,1588333007.25
-54.72,1588333007.265625
-59.11,1588333007.28125
-65.9,1588333007.296875
-75.44,1588333007.3125
-87.03,1588333007.328125
-98.82,1588333007.34375
-108.08,1588333007.359375
-111.92,1588333007.375
-108.29,1588333007.390625
-96.79,1588333007.40625
-78.85,1588333007.421875
-57.31,1588333007.4375
-35.4,1588333007.453125
-15.77,1588333007.46875
0.18,1588333007.484375
12.35,1588333007.5
21.5,1588333007.515625
28.66,1588333007.53125
34.63,1588333007.546875
39.81,1588333007.5625
44.25,1588333007.578125
47.95,1588333007.59375
50.94,1588333007.609375
53.32,1588333007.625
55.18,1588333007.640625
56.49,1588333007.65625
57.15,1588333007.671875
56.98,1588333007.6875
56.02,1588333007.703125
54.53,1588333007.71875
53.05,1588333007.734375
52.08,1588333007.75
51.9,1588333007.765625
52.4,1588333007.78125
53.02,1588333007.796875
53.06,1588333007.8125
51.94,1588333007.828125
49.46,1588333007.84375
45.81,1588333007.859375
41.46,1588333007.875
36.95,1588333007.890625
32.71,1588333007.90625
28.95,1588333007.921875
25.7,1588333007.9375
22.76,1588333007.953125
19.83,1588333007.96875
16.6,1588333007.984375
12.85,1588333008.0
8.62,1588333008.015625
4.22,1588333008.03125
0.13,1588333008.046875
-3.19,1588333008.0625
-5.63,1588333008.078125
-7.51,1588333008.09375
-9.51,1588333008.109375
-12.34,1588333008.125
-16.4,1588333008.140625
-21.55,1588333008.15625
-27.2,1588333008.171875
-32.57,1588333008.1875
-37.14,1588333008.203125
-40.82,1588333008.21875
-43.99,1588333008.234375
-47.38,1588333008.25
-51.78,1588333008.265625
-57.8,1588333008.28125
-65.72,1588333008.296875
-75.17,1588333008.3125
-84.99,1588333008.328125
-93.26,1588333008.34375
-97.65,1588333008.359375
-96.16,1588333008.375
-87.84,1588333008.390625
-73.34,1588333008.40625
-54.76,1588333008.421875
-34.94,1588333008.4375
-16.45,1588333008.453125
-0.8,1588333008.46875
11.72,1588333008.484375
21.69,1588333008.5
29.93,1588333008.515625
36.95,1588333008.53125
42.85,1588333008.546875
47.52,1588333008.5625
50.94,1588333008.578125
53.29,1588333008.59375
54.82,1588333008.609375
55.73,1588333008.625
55.99,1588333008.640625
55.53,1588333008.65625
54.38,1588333008.671875
52.92,1588333008.6875
51.69,1588333008.703125
51.25,1588333008.71875
51.82,1588333008.734375
53.11,1588333008.75
54.44,1588333008.765625
55.03,1588333008.78125
54.32,1588333008.796875
52.17,1588333008.8125
48.83,1588333008.828125
44.75,1588333008.84375
40.37,1588333008.859375
35.95,1588333008.875
31.58,1588333008.890625
27.26,1588333008.90625
22.96,1588333008.921875
18.66,1588333008.9375
14.4,1588333008.953125
10.24,1588333008.96875
6.25,1588333008.984375
2.55,1588333009.0
-0.87,1588333009.015625
-4.11,1588333009.03125
-7.41,1588333009.046875
-11.14,1588333009.0625
-15.57,1588333009.078125
-20.67,1588333009.09375
-26.11,1588333009.109375
-31.37,1588333009.125
-35.93,1588333009.140625
-39.6,1588333009.15625
-42.66,1588333009.171875
-45.82,1588333009.1875
-49.98,1588333009.203125
-55.95,1588333009.21875
-64.02,1588333009.234375
-73.7,1588333009.25
-83.54,1588333009.265625
-91.36,1588333009.28125
-94.69,1588333009.296875
-91.63,1588333009.3125
-81.55,1588333009.328125
-65.44,1588333009.34375
-45.73,1588333009.359375
-25.51,1588333009.375
-7.44,1588333009.390625
6.88,1588333009.40625
17.3,1588333009.421875
24.7,1588333009.4375
30.35,1588333009.453125
35.3,1588333009.46875
40.04,1588333009.484375
44.5,1588333009.5
48.37,1588333009.515625
51.33,1588333009.53125
53.21,1588333009.546875
54.03,1588333009.5625
53.91,1588333009.578125
53.06,1588333009.59375
51.67,1588333009.609375
50.07,1588333009.625
48.64,1588333009.640625
47.76,1588333009.65625
47.75,1588333009.671875
48.64,1588333009.6875
50.12,1588333009.703125
51.58,1588333009.71875
52.26,1588333009.734375
51.53,1588333009.75
49.04,1588333009.765625
45.0,1588333009.78125
39.97,1588333009.796875
34.77,1588333009.8125
30.11,1588333009.828125
26.35,1588333009.84375
23.39,1588333009.859375
20.74,1588333009.875
17.78,1588333009.890625
14.05,1588333009.90625
9.52,1588333009.921875
4.54,1588333009.9375
-0.27,1588333009.953125
-4.41,1588333009.96875
-7.66,1588333009.984375
-10.28,1588333010.0
-12.82,1588333010.015625
-15.89,1588333010.03125
-19.87,1588333010.046875
-24.71,1588333010.0625
-30.01,1588333010.078125
-35.2,1588333010.09375
-39.87,1588333010.109375
-43.99,1588333010.125
-47.9,1588333010.140625
-52.22,1588333010.15625
-57.61,1588333010.171875
-64.58,1588333010.1875
-73.24,1588333010.203125
-83.06,1588333010.21875
-92.68,1588333010.234375
-100.13,1588333010.25
-103.1,1588333010.265625
-99.79,1588333010.28125
-89.61,1588333010.296875
-73.56,1588333010.3125
-54.0,1588333010.328125
-33.88,1588333010.34375
-15.73,1588333010.359375
-0.96,1588333010.375
10.25,1588333010.390625
18.57,1588333010.40625
24.91,1588333010.421875
30.01,1588333010.4375
34.32,1588333010.453125
38.11,1588333010.46875
41.59,1588333010.484375
44.85,1588333010.5
47.76,1588333010.515625
50.02,1588333010.53125
51.26,1588333010.546875
51.34,1588333010.5625
50.42,1588333010.578125
48.98,1588333010.59375
47.56,1588333010.609375
46.53,1588333010.625
45.98,1588333010.640625
45.77,1588333010.65625
45.66,1588333010.671875
45.45,1588333010.6875
44.95,1588333010.703125
43.93,1588333010.71875
42.17,1588333010.734375
39.49,1588333010.75
35.94,1588333010.765625
31.86,1588333010.78125
27.76,1588333010.796875
24.2,1588333010.8125
21.38,1588333010.828125
19.14,1588333010.84375
16.93,1588333010.859375
14.24,1588333010.875
10.82,1588333010.890625
6.85,1588333010.90625
2.91,1588333010.921875
-0.45,1588333010.9375
-2.96,1588333010.953125
-4.89,1588333010.96875
-6.85,1588333010.984375
-9.54,1588333011.0
-13.3,1588333011.015625
-18.01,1588333011.03125
-23.16,1588333011.046875
-28.13,1588333011.0625
-32.52,1588333011.078125
-36.3,1588333011.09375
-39.77,1588333011.109375
-43.39,1588333011.125
-47.56,1588333011.140625
-52.7,1588333011.15625
-59.1,1588333011.171875
-66.78,1588333011.1875
-75.18,1588333011.203125
-82.98,1588333011.21875
-88.16,1588333011.234375
-88.59,1588333011.25
-82.85,1588333011.265625
-70.9,1588333011.28125
-54.32,1588333011.296875
-35.75,1588333011.3125
-18.0,1588333011.328125
-3.08,1588333011.34375
8.26,1588333011.359375
16.45,1588333011.375
22.5,1588333011.390625
27.43,1588333011.40625
31.84,1588333011.421875
35.84,1588333011.4375
39.24,1588333011.453125
41.84,1588333011.46875
43.57,1588333011.484375
44.51,1588333011.5
44.87,1588333011.515625
44.85,1588333011.53125
44.61,1588333011.546875
44.23,1588333011.5625
43.74,1588333011.578125
43.21,1588333011.59375
42.72,1588333011.609375
42.36,1588333011.625
42.14,1588333011.640625
41.9,1588333011.65625
41.38,1588333011.671875
40.28,1588333011.6875
38.44,1588333011.703125
35.93,1588333011.71875
33.02,1588333011.734375
30.06,1588333011.75
27.24,1588333011.765625
24.57,1588333011.78125
21.86,1588333011.796875
18.85,1588333011.8125
15.44,1588333011.828125
11.75,1588333011.84375
8.07,1588333011.859375
4.72,1588333011.875
1.84,1588333011.890625
-0.69,1588333011.90625
-3.19,1588333011.921875
-6.03,1588333011.9375
-9.46,1588333011.953125
-13.49,1588333011.96875
-17.9,1588333011.984375
-22.4,1588333012.0
-26.7,1588333012.015625
-30.62,1588333012.03125
-34.15,1588333012.046875
-37.41,1588333012.0625
-40.68,1588333012.078125
-44.44,1588333012.09375
-49.25,1588333012.109375
-55.51,1588333012.125
-63.07,1588333012.140625
-70.94,1588333012.15625
-77.33,1588333012.171875
-80.04,1588333012.1875
-77.3,1588333012.203125
-68.5,1588333012.21875
-54.59,1588333012.234375
-37.81,1588333012.25
-20.9,1588333012.265625
-6.13,1588333012.28125
5.31,1588333012.296875
13.44,1588333012.3125
19.05,1588333012.328125
23.13,1588333012.34375
26.39,1588333012.359375
29.17,1588333012.375
31.54,1588333012.390625
33.48,1588333012.40625
35.07,1588333012.421875
36.41,1588333012.4375
37.57,1588333012.453125
38.54,1588333012.46875
39.21,1588333012.484375
39.41,1588333012.5
39.09,1588333012.515625
38.35,1588333012.53125
37.48,1588333012.546875
36.84,1588333012.5625
36.67,1588333012.578125
36.96,1588333012.59375
37.34,1588333012.609375
37.18,1588333012.625
35.93,1588333012.640625
33.32,1588333012.65625
29.61,1588333012.671875
25.46,1588333012.6875
21.63,1588333012.703125
18.58,1588333012.71875
16.31,1588333012.734375
14.32,1588333012.75
12.02,1588333012.765625
9.03,1588333012.78125
5.42,1588333012.796875
1.68,1588333012.8125
-1.65,1588333012.828125
-4.24,1588333012.84375
-6.21,1588333012.859375
-8.05,1588333012.875
-10.34,1588333012.890625
-13.47,1588333012.90625
-17.41,1588333012.921875
-21.81,1588333012.9375
-26.19,1588333012.953125
-30.13,1588333012.96875
-33.43,1588333012.984375
-36.13,1588333013.0
-38.5,1588333013.015625
-41.0,1588333013.03125
-44.24,1588333013.046875
-48.86,1588333013.0625
-55.24,1588333013.078125
-63.18,1588333013.09375
-71.6,1588333013.109375
-78.64,1588333013.125
-82.19,1588333013.140625
-80.58,1588333013.15625
-73.23,1588333013.171875
-60.94,1588333013.1875
-45.64,1588333013.203125
-29.68,1588333013.21875
-15.12,1588333013.234375
-3.18,1588333013.25
5.87,1588333013.265625
12.51,1588333013.28125
17.51,1588333013.296875
21.61,1588333013.3125
25.29,1588333013.328125
28.77,1588333013.34375
32.05,1588333013.359375
35.02,1588333013.375
37.5,1588333013.390625
39.39,1588333013.40625
40.62,1588333013.421875
41.17,1588333013.4375
41.1,1588333013.453125
40.49,1588333013.46875
39.5,1588333013.484375
38.35,1588333013.5
37.31,1588333013.515625
36.57,1588333013.53125
36.18,1588333013.546875
36.02,1588333013.5625
35.82,1588333013.578125
35.27,1588333013.59375
34.13,1588333013.609375
32.33,1588333013.625
29.97,1588333013.640625
27.24,1588333013.65625
24.42,1588333013.671875
21.7,1588333013.6875
19.23,1588333013.703125
17.01,1588333013.71875
14.88,1588333013.734375
12.63,1588333013.75
10.0,1588333013.765625
6.91,1588333013.78125
3.48,1588333013.796875
0.11,1588333013.8125
-2.77,1588333013.828125
-4.88,1588333013.84375
-6.38,1588333013.859375
-7.78,1588333013.875
-9.75,1588333013.890625
-12.83,1588333013.90625
-17.05,1588333013.921875
-22.0,1588333013.9375
-26.93,1588333013.953125
-31.17,1588333013.96875
-34.42,1588333013.984375
-36.88,1588333014.0
-39.1,1588333014.015625
-41.81,1588333014.03125
-45.6,1588333014.046875
-50.76,1588333014.0625
-57.2,1588333014.078125
-64.26,1588333014.09375
-70.78,1588333014.109375
-75.12,1588333014.125
-75.64,1588333014.140625
-71.2,1588333014.15625
-61.67,1588333014.171875
-48.21,1588333014.1875
-32.92,1588333014.203125
-18.1,1588333014.21875
-5.53,1588333014.234375
4.05,1588333014.25
10.89,1588333014.265625
15.82,1588333014.28125
19.73,1588333014.296875
23.2,1588333014.3125
26.45,1588333014.328125
29.46,1588333014.34375
32.13,1588333014.359375
34.36,1588333014.375
36.06,1588333014.390625
37.11,1588333014.40625
37.43,1588333014.421875
37.0,1588333014.4375
35.99,1588333014.453125
34.73,1588333014.46875
33.64,1588333014.484375
33.06,1588333014.5
33.13,1588333014.515625
33.76,1588333014.53125
34.59,1588333014.546875
35.15,1588333014.5625
34.98,1588333014.578125
33.79,1588333014.59375
31.51,1588333014.609375
28.38,1588333014.625
24.79,1588333014.640625
21.24,1588333014.65625
18.16,1588333014.671875
15.85,1588333014.6875
14.33,1588333014.703125
13.34,1588333014.71875
12.45,1588333014.734375
11.13,1588333014.75
9.05,1588333014.765625
6.17,1588333014.78125
2.78,1588333014.796875
-0.61,1588333014.8125
-3.49,1588333014.828125
-5.63,1588333014.84375
-7.14,1588333014.859375
-8.44,1588333014.875
-10.12,1588333014.890625
-12.55,1588333014.90625
-15.84,1588333014.921875
-19.67,1588333014.9375
-23.55,1588333014.953125
-27.0,1588333014.96875
-29.81,1588333014.984375
-32.14,1588333015.0
-34.45,1588333015.015625
-37.36,1588333015.03125
-41.35,1588333015.046875
-46.7,1588333015.0625
-53.24,1588333015.078125
-60.29,1588333015.09375
-66.63,1588333015.109375
-70.67,1588333015.125
-70.85,1588333015.140625
-66.17,1588333015.15625
-56.69,1588333015.171875
-43.6,1588333015.1875
-28.96,1588333015.203125
-15.0,1588333015.21875
-3.33,1588333015.234375
5.36,1588333015.25
11.4,1588333015.265625
15.64,1588333015.28125
18.99,1588333015.296875
22.03,1588333015.3125
24.91,1588333015.328125
27.5,1588333015.34375
29.62,1588333015.359375
31.15,1588333015.375
32.11,1588333015.390625
32.6,1588333015.40625
32.73,1588333015.421875
32.52,1588333015.4375
31.95,1588333015.453125
31.02,1588333015.46875
29.83,1588333015.484375
28.64,1588333015.5
27.79,1588333015.515625
27.54,1588333015.53125
27.9,1588333015.546875
28.51,1588333015.5625
28.79,1588333015.578125
28.18,1588333015.59375
26.44,1588333015.609375
23.79,1588333015.625
20.76,1588333015.640625
17.94,1588333015.65625
15.68,1588333015.671875
13.96,1588333015.6875
12.5,1588333015.703125
10.97,1588333015.71875
9.2,1588333015.734375
7.16,1588333015.75
4.92,1588333015.765625
2.57,1588333015.78125
0.14,1588333015.796875
-2.32,1588333015.8125
-4.71,1588333015.828125
-6.87,1588333015.84375
-8.75,1588333015.859375
-10.48,1588333015.875
-12.38,1588333015.890625
-14.81,1588333015.90625
-17.9,1588333015.921875
-21.48,1588333015.9375
-25.07,1588333015.953125
-28.19,1588333015.96875
-30.58,1588333015.984375
-32.39,1588333016.0
-34.12,1588333016.015625
-36.48,1588333016.03125
-40.07,1588333016.046875
-45.15,1588333016.0625
-51.44,1588333016.078125
-57.94,1588333016.09375
-63.1,1588333016.109375
-65.19,1588333016.125
-62.87,1588333016.140625
-55.79,1588333016.15625
-44.75,1588333016.171875
-31.52,1588333016.1875
-18.2,1588333016.203125
-6.47,1588333016.21875
2.86,1588333016.234375
9.84,1588333016.25
15.01,1588333016.265625
19.01,1588333016.28125
22.15,1588333016.296875
24.55,1588333016.3125
26.21,1588333016.328125
27.25,1588333016.34375
27.87,1588333016.359375
28.34,1588333016.375
28.75,1588333016.390625
29.06,1588333016.40625
29.16,1588333016.421875
28.93,1588333016.4375
28.43,1588333016.453125
27.84,1588333016.46875
27.41,1588333016.484375
27.3,1588333016.5
27.52,1588333016.515625
27.84,1588333016.53125
27.98,1588333016.546875
27.71,1588333016.5625
26.9,1588333016.578125
25.64,1588333016.59375
24.12,1588333016.609375
22.51,1588333016.625
20.92,1588333016.640625
19.33,1588333016.65625
17.67,1588333016.671875
15.9,1588333016.6875
13.98,1588333016.703125
11.87,1588333016.71875
9.55,1588333016.734375
6.99,1588333016.75
4.23,1588333016.765625
1.4,1588333016.78125
-1.25,1588333016.796875
-3.52,1588333016.8125
-5.36,1588333016.828125
-6.93,1588333016.84375
-8.62,1588333016.859375
-10.82,1588333016.875
-13.74,1588333016.890625
-17.29,1588333016.90625
-21.08,1588333016.921875
-24.64,1588333016.9375
-27.56,1588333016.953125
-29.75,1588333016.96875
-31.44,1588333016.984375
-33.13,1588333017.0
-35.46,1588333017.015625
-38.99,1588333017.03125
-43.94,1588333017.046875
-49.92,1588333017.0625
-55.87,1588333017.078125
-60.21,1588333017.09375
-61.25,1588333017.109375
-57.79,1588333017.125
-49.64,1588333017.140625
-37.75,1588333017.15625
-23.96,1588333017.171875
-10.37,1588333017.1875
1.34,1588333017.203125
10.31,1588333017.21875
16.62,1588333017.234375
20.88,1588333017.25
23.8,1588333017.265625
25.85,1588333017.28125
27.23,1588333017.296875
27.93,1588333017.3125
28.0,1588333017.328125
27.62,1588333017.34375
27.11,1588333017.359375
26.72,1588333017.375
26.5,1588333017.390625
26.31,1588333017.40625
25.97,1588333017.421875
25.36,1588333017.4375
24.63,1588333017.453125
24.07,1588333017.46875
23.95,1588333017.484375
24.34,1588333017.5
25.03,1588333017.515625
25.6,1588333017.53125
25.56,1588333017.546875
24.64,1588333017.5625
22.85,1588333017.578125
20.42,1588333017.59375
17.78,1588333017.609375
15.31,1588333017.625
13.22,1588333017.640625
11.52,1588333017.65625
10.01,1588333017.671875
8.39,1588333017.6875
6.44,1588333017.703125
4.08,1588333017.71875
1.46,1588333017.734375
-1.13,1588333017.75
-3.36,1588333017.765625
-5.06,1588333017.78125
-6.3,1588333017.796875
-7.37,1588333017.8125
-8.75,1588333017.828125
-10.84,1588333017.84375
-13.85,1588333017.859375
-17.66,1588333017.875
-21.89,1588333017.890625
-26.05,1588333017.90625
-29.76,1588333017.921875
-32.89,1588333017.9375
-35.56,1588333017.953125
-38.15,1588333017.96875
-41.11,1588333017.984375
-44.96,1588333018.0
-50.06,1588333018.015625
-56.35,1588333018.03125
-63.12,1588333018.046875
-68.94,1588333018.0625
-71.9,1588333018.078125
-70.27,1588333018.09375
-63.23,1588333018.109375
-51.38,1588333018.125
-36.65,1588333018.140625
-21.57,1588333018.15625
-8.37,1588333018.171875
1.76,1588333018.1875
8.86,1588333018.203125
13.76,1588333018.21875
17.44,1588333018.234375
20.57,1588333018.25
23.37,1588333018.265625
25.81,1588333018.28125
27.86,1588333018.296875
29.6,1588333018.3125
31.19,1588333018.328125
32.59,1588333018.34375
33.64,1588333018.359375
34.09,1588333018.375
33.73,1588333018.390625
32.63,1588333018.40625
31.14,1588333018.421875
29.76,1588333018.4375
28.96,1588333018.453125
29.02,1588333018.46875
29.91,1588333018.484375
31.25,1588333018.5
32.44,1588333018.515625
32.84,1588333018.53125
32.0,1588333018.546875
29.84,1588333018.5625
26.67,1588333018.578125
23.11,1588333018.59375
19.82,1588333018.609375
17.25,1588333018.625
15.43,1588333018.640625
14.04,1588333018.65625
12.56,1588333018.671875
10.53,1588333018.6875
7.76,1588333018.703125
4.45,1588333018.71875
1.03,1588333018.734375
-2.09,1588333018.75
-4.68,1588333018.765625
-6.81,1588333018.78125
-8.79,1588333018.796875
-10.98,1588333018.8125
-13.64,1588333018.828125
-16.84,1588333018.84375
-20.45,1588333018.859375
-24.24,1588333018.875
-27.95,1588333018.890625
-31.36,1588333018.90625
-34.33,1588333018.921875
-36.89,1588333018.9375
-39.3,1588333018.953125
-42.06,1588333018.96875
-45.82,1588333018.984375
-51.03,1588333019.0
-57.6,1588333019.015625
-64.61,1588333019.03125
-70.35,1588333019.046875
-72.84,1588333019.0625
-70.59,1588333019.078125
-63.16,1588333019.09375
-51.51,1588333019.109375
-37.59,1588333019.125
-23.63,1588333019.140625
-11.41,1588333019.15625
-1.77,1588333019.171875
5.43,1588333019.1875
10.92,1588333019.203125
15.47,1588333019.21875
19.67,1588333019.234375
23.69,1588333019.25
27.49,1588333019.265625
30.92,1588333019.28125
33.82,1588333019.296875
36.08,1588333019.3125
37.6,1588333019.328125
38.29,1588333019.34375
38.17,1588333019.359375
37.3,1588333019.375
35.88,1588333019.390625
34.19,1588333019.40625
32.6,1588333019.421875
31.45,1588333019.4375
31.01,1588333019.453125
31.29,1588333019.46875
32.02,1588333019.484375
32.66,1588333019.5
32.58,1588333019.515625
31.29,1588333019.53125
28.75,1588333019.546875
25.34,1588333019.5625
21.76,1588333019.578125
18.72,1588333019.59375
16.65,1588333019.609375
15.48,1588333019.625
14.74,1588333019.640625
13.82,1588333019.65625
12.3,1588333019.671875
10.06,1588333019.6875
7.32,1588333019.703125
4.46,1588333019.71875
1.8,1588333019.734375
-0.57,1588333019.75
-2.8,1588333019.765625
-5.18,1588333019.78125
-8.0,1588333019.796875
-11.42,1588333019.8125
-15.36,1588333019.828125
-19.56,1588333019.84375
-23.58,1588333019.859375
-27.08,1588333019.875
-29.9,1588333019.890625
-32.23,1588333019.90625
-34.56,1588333019.921875
-37.5,1588333019.9375
-41.66,1588333019.953125
-47.36,1588333019.96875
-54.4,1588333019.984375
-61.96,1588333020.0
-68.64,1588333020.015625
-72.74,1588333020.03125
-72.71,1588333020.046875
-67.73,1588333020.0625
-58.08,1588333020.078125
-45.1,1588333020.09375
-30.78,1588333020.109375
-17.11,1588333020.125
-5.49,1588333020.140625
3.59,1588333020.15625
10.38,1588333020.171875
15.5,1588333020.1875
19.61,1588333020.203125
23.14,1588333020.21875
26.28,1588333020.234375
29.11,1588333020.25
31.62,1588333020.265625
33.78,1588333020.28125
35.54,1588333020.296875
36.85,1588333020.3125
37.67,1588333020.328125
37.99,1588333020.34375
37.86,1588333020.359375
37.34,1588333020.375
36.55,1588333020.390625
35.64,1588333020.40625
34.81,1588333020.421875
34.23,1588333020.4375
33.98,1588333020.453125
33.91,1588333020.46875
33.68,1588333020.484375
32.88,1588333020.5
31.24,1588333020.515625
28.74,1588333020.53125
25.68,1588333020.546875
22.55,1588333020.5625
19.77,1588333020.578125
17.54,1588333020.59375
15.77,1588333020.609375
14.16,1588333020.625
12.3,1588333020.640625
9.94,1588333020.65625
7.06,1588333020.671875
3.88,1588333020.6875
0.74,1588333020.703125
-2.05,1588333020.71875
-4.37,1588333020.734375
-6.33,1588333020.75
-8.23,1588333020.765625
-10.41,1588333020.78125
-13.14,1588333020.796875
-16.47,1588333020.8125
-20.27,1588333020.828125
-24.22,1588333020.84375
-27.96,1588333020.859375
-31.27,1588333020.875
-34.11,1588333020.890625
-36.78,1588333020.90625
-39.82,1588333020.921875
-43.93,1588333020.9375
-49.53,1588333020.953125
-56.54,1588333020.96875
-64.07,1588333020.984375
-70.53,1588333021.0
-74.02,1588333021.015625
-72.97,1588333021.03125
-66.73,1588333021.046875
-55.85,1588333021.0625
-41.93,1588333021.078125
-27.09,1588333021.09375
-13.3,1588333021.109375
-1.88,1588333021.125
6.79,1588333021.140625
13.06,1588333021.15625
17.71,1588333021.171875
21.55,1588333021.1875
25.08,1588333021.203125
28.47,1588333021.21875
31.58,1588333021.234375
34.17,1588333021.25
36.08,1588333021.265625
37.27,1588333021.28125
37.82,1588333021.296875
37.88,1588333021.3125
37.55,1588333021.328125
36.91,1588333021.34375
36.07,1588333021.359375
35.24,1588333021.375
34.6,1588333021.390625
34.34,1588333021.40625
34.38,1588333021.421875
34.51,1588333021.4375
34.38,1588333021.453125
33.71,1588333021.46875
32.42,1588333021.484375
30.65,1588333021.5
28.62,1588333021.515625
26.55,1588333021.53125
24.49,1588333021.546875
22.34,1588333021.5625
19.92,1588333021.578125
17.1,1588333021.59375
13.94,1588333021.609375
10.63,1588333021.625
7.47,1588333021.640625
4.7,1588333021.65625
2.38,1588333021.671875
0.36,1588333021.6875
-1.66,1588333021.703125
-3.99,1588333021.71875
-6.83,1588333021.734375
-10.16,1588333021.75
-13.8,1588333021.765625
-17.51,1588333021.78125
-21.07,1588333021.796875
-24.32,1588333021.8125
-27.23,1588333021.828125
-29.83,1588333021.84375
-32.39,1588333021.859375
-35.36,1588333021.875
-39.37,1588333021.890625
-44.88,1588333021.90625
-51.8,1588333021.921875
-59.25,1588333021.9375
-65.59,1588333021.953125
-68.85,1588333021.96875
-67.46,1588333021.984375
-60.9,1588333022.0
-49.87,1588333022.015625
-36.1,1588333022.03125
-21.66,1588333022.046875
-8.34,1588333022.0625
2.78,1588333022.078125
11.37,1588333022.09375
17.69,1588333022.109375
22.27,1588333022.125
25.63,1588333022.140625
28.16,1588333022.15625
30.09,1588333022.171875
31.52,1588333022.1875
32.5,1588333022.203125
33.09,1588333022.21875
33.43,1588333022.234375
33.68,1588333022.25
33.92,1588333022.265625
34.17,1588333022.28125
34.29,1588333022.296875
34.21,1588333022.3125
33.96,1588333022.328125
33.7,1588333022.34375
33.67,1588333022.359375
33.93,1588333022.375
34.26,1588333022.390625
34.19,1588333022.40625
33.28,1588333022.421875
31.31,1588333022.4375
28.44,1588333022.453125
25.12,1588333022.46875
21.8,1588333022.484375
18.77,1588333022.5
16.0,1588333022.515625
13.22,1588333022.53125
10.17,1588333022.546875
6.8,1588333022.5625
3.26,1588333022.578125
-0.18,1588333022.59375
-3.31,1588333022.609375
-6.13,1588333022.625
-8.83,1588333022.640625
-11.69,1588333022.65625
-14.88,1588333022.671875
-18.38,1588333022.6875
-22.04,1588333022.703125
-25.63,1588333022.71875
-29.01,1588333022.734375
-32.18,1588333022.75
-35.29,1588333022.765625
-38.59,1588333022.78125
-42.42,1588333022.796875
-47.15,1588333022.8125
-53.14,1588333022.828125
-60.37,1588333022.84375
-68.24,1588333022.859375
-75.38,1588333022.875
-79.96,1588333022.890625
-80.18,1588333022.90625
-75.05,1588333022.921875
-64.83,1588333022.9375
-50.97,1588333022.953125
-35.57,1588333022.96875
-20.63,1588333022.984375
-7.47,1588333023.0
3.44,1588333023.015625
12.29,1588333023.03125
19.46,1588333023.046875
25.34,1588333023.0625
30.16,1588333023.078125
34.13,1588333023.09375
37.44,1588333023.109375
40.3,1588333023.125
42.76,1588333023.140625
44.68,1588333023.15625
45.81,1588333023.171875
45.96,1588333023.1875
45.15,1588333023.203125
43.67,1588333023.21875
41.98,1588333023.234375
40.49,1588333023.25
39.46,1588333023.265625
38.87,1588333023.28125
38.58,1588333023.296875
38.33,1588333023.3125
37.9,1588333023.328125
37.08,1588333023.34375
35.68,1588333023.359375
33.63,1588333023.375
30.95,1588333023.390625
27.84,1588333023.40625
24.65,1588333023.421875
21.67,1588333023.4375
19.09,1588333023.453125
16.83,1588333023.46875
14.63,1588333023.484375
12.16,1588333023.5
9.32,1588333023.515625
6.2,1588333023.53125
3.1,1588333023.546875
0.33,1588333023.5625
-2.02,1588333023.578125
-4.1,1588333023.59375
-6.33,1588333023.609375
-9.07,1588333023.625
-12.59,1588333023.640625
-16.88,1588333023.65625
-21.66,1588333023.671875
-26.56,1588333023.6875
-31.22,1588333023.703125
-35.42,1588333023.71875
-39.14,1588333023.734375
-42.56,1588333023.75
-46.06,1588333023.765625
-50.16,1588333023.78125
-55.39,1588333023.796875
-61.95,1588333023.8125
-69.47,1588333023.828125
-76.73,1588333023.84375
-81.87,1588333023.859375
-82.96,1588333023.875
-78.64,1588333023.890625
-68.77,1588333023.90625
-54.58,1588333023.921875
-38.22,1588333023.9375
-22.02,1588333023.953125
-7.76,1588333023.96875
3.75,1588333023.984375
12.58,1588333024.0
19.31,1588333024.015625
24.62,1588333024.03125
29.04,1588333024.046875
32.87,1588333024.0625
36.26,1588333024.078125
39.31,1588333024.09375
42.04,1588333024.109375
44.38,1588333024.125
46.22,1588333024.140625
47.39,1588333024.15625
47.76,1588333024.171875
47.36,1588333024.1875
46.34,1588333024.203125
45.01,1588333024.21875
43.75,1588333024.234375
42.93,1588333024.25
42.74,1588333024.265625
43.12,1588333024.28125
43.7,1588333024.296875
43.92,1588333024.3125
43.26,1588333024.328125
41.43,1588333024.34375
38.48,1588333024.359375
34.79,1588333024.375
30.92,1588333024.390625
27.4,1588333024.40625
24.47,1588333024.421875
22.16,1588333024.4375
20.24,1588333024.453125
18.42,1588333024.46875
16.44,1588333024.484375
14.15,1588333024.5
11.48,1588333024.515625
8.5,1588333024.53125
5.34,1588333024.546875
2.19,1588333024.5625
-0.78,1588333024.578125
-3.49,1588333024.59375
-6.02,1588333024.609375
-8.62,1588333024.625
-11.64,1588333024.640625
-15.34,1588333024.65625
-19.8,1588333024.671875
-24.8,1588333024.6875
-29.9,1588333024.703125
-34.62,1588333024.71875
-38.62,1588333024.734375
-41.9,1588333024.75
-44.76,1588333024.765625
-47.78,1588333024.78125
-51.63,1588333024.796875
-56.86,1588333024.8125
-63.62,1588333024.828125
-71.42,1588333024.84375
-79.04,1588333024.859375
-84.7,1588333024.875
-86.54,1588333024.890625
-83.19,1588333024.90625
-74.36,1588333024.921875
-60.99,1588333024.9375
-44.98,1588333024.953125
-28.51,1588333024.96875
-13.38,1588333024.984375
-0.62,1588333025.0
9.61,1588333025.015625
17.71,1588333025.03125
24.22,1588333025.046875
29.6,1588333025.0625
34.1,1588333025.078125
37.8,1588333025.09375
40.75,1588333025.109375
42.94,1588333025.125
44.39,1588333025.140625
45.1,1588333025.15625
45.12,1588333025.171875
44.61,1588333025.1875
43.81,1588333025.203125
43.03,1588333025.21875
42.56,1588333025.234375
42.56,1588333025.25
43.03,1588333025.265625
43.74,1588333025.28125
44.39,1588333025.296875
44.61,1588333025.3125
44.14,1588333025.328125
42.89,1588333025.34375
40.9,1588333025.359375
38.36,1588333025.375
35.49,1588333025.390625
32.48,1588333025.40625
29.47,1588333025.421875
26.49,1588333025.4375
23.57,1588333025.453125
20.71,1588333025.46875
17.93,1588333025.484375
15.21,1588333025.5
12.52,1588333025.515625
9.82,1588333025.53125
7.02,1588333025.546875
3.99,1588333025.5625
0.62,1588333025.578125
-3.14,1588333025.59375
-7.23,1588333025.609375
-11.46,1588333025.625
-15.59,1588333025.640625
-19.39,1588333025.65625
-22.73,1588333025.671875
-25.72,1588333025.6875
-28.6,1588333025.703125
-31.77,1588333025.71875
-35.65,1588333025.734375
-40.59,1588333025.75
-46.73,1588333025.765625
-53.81,1588333025.78125
-60.98,1588333025.796875
-66.85,1588333025.8125
-69.78,1588333025.828125
-68.34,1588333025.84375
-61.9,1588333025.859375
-50.94,1588333025.875
-37.0,1588333025.890625
-22.18,1588333025.90625
-8.45,1588333025.921875
2.93,1588333025.9375
11.63,1588333025.953125
18.07,1588333025.96875
22.98,1588333025.984375
26.99,1588333026.0
30.38,1588333026.015625
33.11,1588333026.03125
35.05,1588333026.046875
36.11,1588333026.0625
36.43,1588333026.078125
36.29,1588333026.09375
36.0,1588333026.109375
35.79,1588333026.125
35.7,1588333026.140625
35.64,1588333026.15625
35.53,1588333026.171875
35.37,1588333026.1875
35.31,1588333026.203125
35.48,1588333026.21875
35.91,1588333026.234375
36.4,1588333026.25
36.56,1588333026.265625
35.92,1588333026.28125
34.2,1588333026.296875
31.42,1588333026.3125
27.93,1588333026.328125
24.21,1588333026.34375
20.69,1588333026.359375
17.55,1588333026.375
14.68,1588333026.390625
11.83,1588333026.40625
8.81,1588333026.421875
5.62,1588333026.4375
2.45,1588333026.453125
-0.46,1588333026.46875
-3.01,1588333026.484375
-5.3,1588333026.5
-7.66,1588333026.515625
-10.48,1588333026.53125
-13.99,1588333026.546875
-18.15,1588333026.5625
-22.68,1588333026.578125
-27.08,1588333026.59375
-30.9,1588333026.609375
-33.9,1588333026.625
-36.15,1588333026.640625
-38.08,1588333026.65625
-40.4,1588333026.671875
-43.85,1588333026.6875
-48.93,1588333026.703125
-55.6,1588333026.71875
-63.07,1588333026.734375
-69.84,1588333026.75
-74.07,1588333026.765625
-74.1,1588333026.78125
-69.07,1588333026.796875
-59.25,1588333026.8125
-46.03,1588333026.828125
-31.42,1588333026.84375
-17.41,1588333026.859375
-5.34,1588333026.875
4.3,1588333026.890625
11.74,1588333026.90625
17.6,1588333026.921875
22.46,1588333026.9375
26.64,1588333026.953125
30.26,1588333026.96875
33.32,1588333026.984375
35.83,1588333027.0
37.8,1588333027.015625
39.25,1588333027.03125
40.08,1588333027.046875
40.19,1588333027.0625
39.5,1588333027.078125
38.13,1588333027.09375
36.37,1588333027.109375
34.63,1588333027.125
33.33,1588333027.140625
32.7,1588333027.15625
32.75,1588333027.171875
33.23,1588333027.1875
33.71,1588333027.203125
33.72,1588333027.21875
32.89,1588333027.234375
31.12,1588333027.25
28.56,1588333027.265625
25.61,1588333027.28125
22.72,1588333027.296875
20.27,1588333027.3125
18.33,1588333027.328125
16.77,1588333027.34375
15.23,1588333027.359375
13.41,1588333027.375
11.13,1588333027.390625
8.48,1588333027.40625
5.68,1588333027.421875
3.02,1588333027.4375
0.68,1588333027.453125
-1.28,1588333027.46875
-3.05,1588333027.484375
-4.89,1588333027.5
-7.11,1588333027.515625
-9.89,1588333027.53125
-13.25,1588333027.546875
-17.02,1588333027.5625
-20.96,1588333027.578125
-24.76,1588333027.59375
-28.24,1588333027.609375
-31.36,1588333027.625
-34.3,1588333027.640625
-37.34,1588333027.65625
-40.89,1588333027.671875
-45.31,1588333027.6875
-50.84,1588333027.703125
-57.4,1588333027.71875
-64.32,1588333027.734375
-70.47,1588333027.75
-74.28,1588333027.765625
-74.26,1588333027.78125
-69.5,1588333027.796875
-60.15,1588333027.8125
-47.4,1588333027.828125
-33.16,1588333027.84375
-19.48,1588333027.859375
-7.8,1588333027.875
1.25,1588333027.890625
7.89,1588333027.90625
12.79,1588333027.921875
16.63,1588333027.9375
19.86,1588333027.953125
22.61,1588333027.96875
24.88,1588333027.984375
26.63,1588333028.0
27.92,1588333028.015625
28.85,1588333028.03125
29.52,1588333028.046875
29.99,1588333028.0625
30.25,1588333028.078125
30.3,1588333028.09375
30.17,1588333028.109375
30.01,1588333028.125
30.03,1588333028.140625
30.34,1588333028.15625
30.89,1588333028.171875
31.37,1588333028.1875
31.39,1588333028.203125
30.56,1588333028.21875
28.81,1588333028.234375
26.38,1588333028.25
23.7,1588333028.265625
21.17,1588333028.28125
18.97,1588333028.296875
17.03,1588333028.3125
15.13,1588333028.328125
13.1,1588333028.34375
10.94,1588333028.359375
8.73,1588333028.375
6.58,1588333028.390625
4.57,1588333028.40625
2.65,1588333028.421875
0.72,1588333028.4375
-1.31,1588333028.453125
-3.53,1588333028.46875
-6.03,1588333028.484375
-8.86,1588333028.5
-12.09,1588333028.515625
-15.71,1588333028.53125
-19.64,1588333028.546875
-23.69,1588333028.5625
-27.61,1588333028.578125
-31.19,1588333028.59375
-34.42,1588333028.609375
-37.52,1588333028.625
-40.92,1588333028.640625
-45.1,1588333028.65625
-50.3,1588333028.671875
-56.18,1588333028.6875
-61.72,1588333028.703125
-65.35,1588333028.71875
-65.5,1588333028.734375
-61.19,1588333028.75
-52.45,1588333028.765625
-40.43,1588333028.78125
-26.9,1588333028.796875
-13.71,1588333028.8125
-2.22,1588333028.828125
6.97,1588333028.84375
13.92,1588333028.859375
19.06,1588333028.875
22.89,1588333028.890625
25.8,1588333028.90625
28.01,1588333028.921875
29.63,1588333028.9375
30.75,1588333028.953125
31.46,1588333028.96875
31.85,1588333028.984375
31.99,1588333029.0
31.97,1588333029.015625
31.81,1588333029.03125
31.53,1588333029.046875
31.1,1588333029.0625
30.56,1588333029.078125
30.02,1588333029.09375
29.64,1588333029.109375
29.55,1588333029.125
29.69,1588333029.140625
29.83,1588333029.15625
29.55,1588333029.171875
28.48,1588333029.1875
26.52,1588333029.203125
23.88,1588333029.21875
21.05,1588333029.234375
18.53,1588333029.25
16.57,1588333029.265625
15.09,1588333029.28125
13.68,1588333029.296875
11.87,1588333029.3125
9.38,1588333029.328125
6.27,1588333029.34375
2.91,1588333029.359375
-0.22,1588333029.375
-2.79,1588333029.390625
-4.77,1588333029.40625
-6.42,1588333029.421875
-8.17,1588333029.4375
-10.4,1588333029.453125
-13.26,1588333029.46875
-16.64,1588333029.484375
-20.19,1588333029.5
-23.48,1588333029.515625
-26.26,1588333029.53125
-28.54,1588333029.546875
-30.62,1588333029.5625
-33.01,1588333029.578125
-36.25,1588333029.59375
-40.8,1588333029.609375
-46.68,1588333029.625
-53.42,1588333029.640625
-59.88,1588333029.65625
-64.48,1588333029.671875
-65.62,1588333029.6875
-62.18,1588333029.703125
-54.06,1588333029.71875
-42.27,1588333029.734375
-28.62,1588333029.75
-15.15,1588333029.765625
-3.4,1588333029.78125
5.87,1588333029.796875
12.76,1588333029.8125
17.83,1588333029.828125
21.72,1588333029.84375
24.87,1588333029.859375
27.49,1588333029.875
29.62,1588333029.890625
31.28,1588333029.90625
32.5,1588333029.921875
33.31,1588333029.9375
33.75,1588333029.953125
33.81,1588333029.96875
33.49,1588333029.984375
32.85,1588333030.0
32.0,1588333030.015625
31.1,1588333030.03125
30.32,1588333030.046875
29.77,1588333030.0625
29.51,1588333030.078125
29.46,1588333030.09375
29.43,1588333030.109375
29.13,1588333030.125
28.27,1588333030.140625
26.68,1588333030.15625
24.37,1588333030.171875
21.57,1588333030.1875
18.66,1588333030.203125
16.0,1588333030.21875
13.84,1588333030.234375
12.12,1588333030.25
10.59,1588333030.265625
8.88,1588333030.28125
6.75,1588333030.296875
4.18,1588333030.3125
1.42,1588333030.328125
-1.16,1588333030.34375
-3.25,1588333030.359375
-4.77,1588333030.375
-5.93,1588333030.390625
-7.19,1588333030.40625
-9.01,1588333030.421875
-11.71,1588333030.4375
-15.24,1588333030.453125
-19.26,1588333030.46875
-23.17,1588333030.484375
-26.43,1588333030.5
-28.79,1588333030.515625
-30.41,1588333030.53125
-31.81,1588333030.546875
-33.67,1588333030.5625
-36.58,1588333030.578125
-40.84,1588333030.59375
-46.36,1588333030.609375
-52.55,1588333030.625
-58.38,1588333030.640625
-62.49,1588333030.65625
-63.49,1588333030.671875
-60.32,1588333030.6875
-52.75,1588333030.703125
-41.51,1588333030.71875
-28.19,1588333030.734375
-14.8,1588333030.75
-3.07,1588333030.765625
6.02,1588333030.78125
12.37,1588333030.796875
16.58,1588333030.8125
19.47,1588333030.828125
21.74,1588333030.84375
23.75,1588333030.859375
25.54,1588333030.875
27.03,1588333030.890625
28.1,1588333030.90625
28.74,1588333030.921875
29.0,1588333030.9375
28.97,1588333030.953125
28.73,1588333030.96875
28.34,1588333030.984375
27.9,1588333031.0
27.51,1588333031.015625
27.29,1588333031.03125
27.33,1588333031.046875
27.6,1588333031.0625
27.87,1588333031.078125
27.85,1588333031.09375
27.22,1588333031.109375
25.83,1588333031.125
23.77,1588333031.140625
21.3,1588333031.15625
18.7,1588333031.171875
16.14,1588333031.1875
13.67,1588333031.203125
11.25,1588333031.21875
8.91,1588333031.234375
6.77,1588333031.25
4.97,1588333031.265625
3.54,1588333031.28125
2.29,1588333031.296875
0.9,1588333031.3125
-0.99,1588333031.328125
-3.5,1588333031.34375
-6.47,1588333031.359375
-9.57,1588333031.375
-12.48,1588333031.390625
-15.06,1588333031.40625
-17.39,1588333031.421875
-19.66,1588333031.4375
-22.08,1588333031.453125
-24.76,1588333031.46875
-27.87,1588333031.484375
-31.65,1588333031.5
-36.43,1588333031.515625
-42.34,1588333031.53125
-49.05,1588333031.546875
-55.46,1588333031.5625
-59.9,1588333031.578125
-60.63,1588333031.59375
-56.54,1588333031.609375
-47.71,1588333031.625
-35.45,1588333031.640625
-21.78,1588333031.65625
-8.77,1588333031.671875
2.17,1588333031.6875
10.58,1588333031.703125
16.71,1588333031.71875
21.19,1588333031.734375
24.55,1588333031.75
27.1,1588333031.765625
28.96,1588333031.78125
30.17,1588333031.796875
30.85,1588333031.8125
31.11,1588333031.828125
31.04,1588333031.84375
30.66,1588333031.859375
30.03,1588333031.875
29.19,1588333031.890625
28.3,1588333031.90625
27.51,1588333031.921875
26.97,1588333031.9375
26.7,1588333031.953125
26.63,1588333031.96875
26.65,1588333031.984375
26.65,1588333032.0
26.53,1588333032.015625
26.17,1588333032.03125
25.36,1588333032.046875
23.82,1588333032.0625
21.32,1588333032.078125
17.86,1588333032.09375
13.71,1588333032.109375
9.45,1588333032.125
5.68,1588333032.140625
2.81,1588333032.15625
0.86,1588333032.171875
-0.57,1588333032.1875
-2.07,1588333032.203125
-4.19,1588333032.21875
-7.15,1588333032.234375
-10.83,1588333032.25
-14.78,1588333032.265625
-18.52,1588333032.28125
-21.75,1588333032.296875
-24.4,1588333032.3125
-26.65,1588333032.328125
-28.76,1588333032.34375
-31.06,1588333032.359375
-33.82,1588333032.375
-37.38,1588333032.390625
-42.0,1588333032.40625
-47.78,1588333032.421875
-54.35,1588333032.4375
-60.72,1588333032.453125
-65.35,1588333032.46875
-66.57,1588333032.484375
-63.22,1588333032.5
-55.17,1588333032.515625
-43.5,1588333032.53125
-30.14,1588333032.546875
-17.15,1588333032.5625
-6.12,1588333032.578125
2.38,1588333032.59375
8.59,1588333032.609375
13.26,1588333032.625
17.18,1588333032.640625
20.84,1588333032.65625
24.35,1588333032.671875
27.48,1588333032.6875
29.97,1588333032.703125
31.57,1588333032.71875
32.27,1588333032.734375
32.25,1588333032.75
31.8,1588333032.765625
31.24,1588333032.78125
30.78,1588333032.796875
30.47,1588333032.8125
30.32,1588333032.828125
30.3,1588333032.84375
30.4,1588333032.859375
30.66,1588333032.875
30.99,1588333032.890625
31.2,1588333032.90625
31.03,1588333032.921875
30.22,1588333032.9375
28.69,1588333032.953125
26.53,1588333032.96875
23.96,1588333032.984375
21.2,1588333033.0
18.36,1588333033.015625
15.46,1588333033.03125
12.45,1588333033.046875
9.34,1588333033.0625
6.19,1588333033.078125
3.1,1588333033.09375
0.14,1588333033.109375
-2.74,1588333033.125
-5.68,1588333033.140625
-8.83,1588333033.15625
-12.23,1588333033.171875
-15.77,1588333033.1875
-19.23,1588333033.203125
-22.39,1588333033.21875
-25.21,1588333033.234375
-27.78,1588333033.25
-30.34,1588333033.265625
-33.09,1588333033.28125
-36.22,1588333033.296875
-39.84,1588333033.3125
-44.16,1588333033.328125
-49.38,1588333033.34375
-55.52,1588333033.359375
-62.08,1588333033.375
-67.85,1588333033.390625
-71.07,1588333033.40625
-70.06,1588333033.421875
-63.92,1588333033.4375
-53.04,1588333033.453125
-39.15,1588333033.46875
-24.62,1588333033.484375
-11.63,1588333033.5
-1.42,1588333033.515625
5.96,1588333033.53125
11.26,1588333033.546875
15.45,1588333033.5625
19.24,1588333033.578125
22.86,1588333033.59375
26.25,1588333033.609375
29.23,1588333033.625
31.76,1588333033.640625
33.79,1588333033.65625
35.26,1588333033.671875
36.09,1588333033.6875
36.17,1588333033.703125
35.54,1588333033.71875
34.5,1588333033.734375
33.47,1588333033.75
32.87,1588333033.765625
32.91,1588333033.78125
33.52,1588333033.796875
34.34,1588333033.8125
34.91,1588333033.828125
34.86,1588333033.84375
33.98,1588333033.859375
32.3,1588333033.875
30.02,1588333033.890625
27.42,1588333033.90625
24.72,1588333033.921875
22.04,1588333033.9375
19.4,1588333033.953125
16.73,1588333033.96875
13.99,1588333033.984375
11.17,1588333034.0
8.34,1588333034.015625
5.62,1588333034.03125
3.12,1588333034.046875
0.83,1588333034.0625
-1.32,1588333034.078125
-3.51,1588333034.09375
-5.93,1588333034.109375
-8.7,1588333034.125
-11.8,1588333034.140625
-15.1,1588333034.15625
-18.39,1588333034.171875
-21.48,1588333034.1875
-24.26,1588333034.203125
-26.77,1588333034.21875
-29.13,1588333034.234375
-31.62,1588333034.25
-34.63,1588333034.265625
-38.62,1588333034.28125
-43.93,1588333034.296875
-50.33,1588333034.3125
-56.88,1588333034.328125
-61.9,1588333034.34375
-63.44,1588333034.359375
-60.04,1588333034.375
-51.45,1588333034.390625
-38.86,1588333034.40625
-24.55,1588333034.421875
-10.98,1588333034.4375
0.12,1588333034.453125
8.24,1588333034.46875
13.95,1588333034.484375
18.29,1588333034.5
22.08,1588333034.515625
25.52,1588333034.53125
28.32,1588333034.546875
30.07,1588333034.5625
30.68,1588333034.578125
30.49,1588333034.59375
30.11,1588333034.609375
30.01,1588333034.625
30.32,1588333034.640625
30.8,1588333034.65625
31.07,1588333034.671875
30.89,1588333034.6875
30.32,1588333034.703125
29.67,1588333034.71875
29.29,1588333034.734375
29.33,1588333034.75
29.65,1588333034.765625
29.83,1588333034.78125
29.4,1588333034.796875
27.96,1588333034.8125
25.37,1588333034.828125
21.75,1588333034.84375
17.48,1588333034.859375
13.1,1588333034.875
9.17,1588333034.890625
6.11,1588333034.90625
3.97,1588333034.921875
2.4,1588333034.9375
0.75,1588333034.953125
-1.61,1588333034.96875
-4.97,1588333034.984375
-9.13,1588333035.0
-13.53,1588333035.015625
-17.51,1588333035.03125
-20.68,1588333035.046875
-23.08,1588333035.0625
-25.08,1588333035.078125
-27.26,1588333035.09375
-30.15,1588333035.109375
-34.1,1588333035.125
-39.29,1588333035.140625
-45.69,1588333035.15625
-52.89,1588333035.171875
-59.97,1588333035.1875
-65.47,1588333035.203125
-67.73,1588333035.21875
-65.37,1588333035.234375
-57.99,1588333035.25
-46.39,1588333035.265625
-32.45,1588333035.28125
-18.41,1588333035.296875
-6.18,1588333035.3125
3.3,1588333035.328125
10.14,1588333035.34375
15.18,1588333035.359375
19.38,1588333035.375
23.39,1588333035.390625
27.31,1588333035.40625
30.87,1588333035.421875
33.69,1588333035.4375
35.57,1588333035.453125
36.57,1588333035.46875
36.94,1588333035.484375
36.97,1588333035.5
36.84,1588333035.515625
36.62,1588333035.53125
36.29,1588333035.546875
35.87,1588333035.5625
35.45,1588333035.578125
35.12,1588333035.59375
34.99,1588333035.609375
34.99,1588333035.625
34.97,1588333035.640625
34.68,1588333035.65625
33.79,1588333035.671875
32.03,1588333035.6875
29.29,1588333035.703125
25.65,1588333035.71875
21.49,1588333035.734375
17.34,1588333035.75
13.7,1588333035.765625
10.86,1588333035.78125
8.72,1588333035.796875
6.88,1588333035.8125
4.74,1588333035.828125
1.88,1588333035.84375
-1.86,1588333035.859375
-6.34,1588333035.875
-11.14,1588333035.890625
-15.88,1588333035.90625
-20.26,1588333035.921875
-24.19,1588333035.9375
-27.66,1588333035.953125
-30.75,1588333035.96875
-33.6,1588333035.984375
-36.42,1588333036.0
-39.61,1588333036.015625
-43.67,1588333036.03125
-49.03,1588333036.046875
-55.68,1588333036.0625
-62.94,1588333036.078125
-69.33,1588333036.09375
-72.97,1588333036.109375
-72.22,1588333036.125
-66.33,1588333036.140625
-55.88,1588333036.15625
-42.56,1588333036.171875
-28.6,1588333036.1875
-15.85,1588333036.203125
-5.34,1588333036.21875
2.89,1588333036.234375
9.46,1588333036.25
15.12,1588333036.265625
20.34,1588333036.28125
25.22,1588333036.296875
29.65,1588333036.3125
33.47,1588333036.328125
36.62,1588333036.34375
39.13,1588333036.359375
41.03,1588333036.375
42.31,1588333036.390625
42.93,1588333036.40625
42.87,1588333036.421875
42.27,1588333036.4375
41.38,1588333036.453125
40.58,1588333036.46875
40.19,1588333036.484375
40.36,1588333036.5
40.98,1588333036.515625
41.65,1588333036.53125
41.84,1588333036.546875
41.11,1588333036.5625
39.25,1588333036.578125
36.37,1588333036.59375
32.84,1588333036.609375
29.12,1588333036.625
25.6,1588333036.640625
22.49,1588333036.65625
19.77,1588333036.671875
17.23,1588333036.6875
14.65,1588333036.703125
11.84,1588333036.71875
8.82,1588333036.734375
5.75,1588333036.75
2.91,1588333036.765625
0.49,1588333036.78125
-1.51,1588333036.796875
-3.38,1588333036.8125
-5.53,1588333036.828125
-8.36,1588333036.84375
-12.01,1588333036.859375
-16.32,1588333036.875
-20.89,1588333036.890625
-25.27,1588333036.90625
-29.13,1588333036.921875
-32.36,1588333036.9375
-35.11,1588333036.953125
-37.7,1588333036.96875
-40.58,1588333036.984375
-44.29,1588333037.0
-49.32,1588333037.015625
-55.81,1588333037.03125
-63.3,1588333037.046875
-70.59,1588333037.0625
-75.91,1588333037.078125
-77.42,1588333037.09375
-73.91,1588333037.109375
-65.3,1588333037.125
-52.75,1588333037.140625
-38.28,1588333037.15625
-24.0,1588333037.171875
-11.48,1588333037.1875
-1.39,1588333037.203125
6.42,1588333037.21875
12.58,1588333037.234375
17.73,1588333037.25
22.31,1588333037.265625
26.48,1588333037.28125
30.22,1588333037.296875
33.47,1588333037.3125
36.18,1588333037.328125
38.32,1588333037.34375
39.84,1588333037.359375
40.76,1588333037.375
41.08,1588333037.390625
40.89,1588333037.40625
40.35,1588333037.421875
39.65,1588333037.4375
39.05,1588333037.453125
38.77,1588333037.46875
38.93,1588333037.484375
39.46,1588333037.5
40.1,1588333037.515625
40.35,1588333037.53125
39.72,1588333037.546875
37.89,1588333037.5625
34.91,1588333037.578125
31.19,1588333037.59375
27.34,1588333037.609375
23.94,1588333037.625
21.25,1588333037.640625
19.18,1588333037.65625
17.31,1588333037.671875
15.23,1588333037.6875
12.68,1588333037.703125
9.73,1588333037.71875
6.65,1588333037.734375
3.75,1588333037.75
1.12,1588333037.765625
-1.31,1588333037.78125
-3.84,1588333037.796875
-6.75,1588333037.8125
-10.17,1588333037.828125
-14.04,1588333037.84375
-18.14,1588333037.859375
-22.25,1588333037.875
-26.14,1588333037.890625
-29.71,1588333037.90625
-32.97,1588333037.921875
-36.08,1588333037.9375
-39.34,1588333037.953125
-43.2,1588333037.96875
-48.12,1588333037.984375
-54.26,1588333038.0
-61.2,1588333038.015625
-67.8,1588333038.03125
-72.39,1588333038.046875
-73.23,1588333038.0625
-69.25,1588333038.078125
-60.44,1588333038.09375
-47.96,1588333038.109375
-33.74,1588333038.125
-19.83,1588333038.140625
-7.73,1588333038.15625
1.91,1588333038.171875
9.27,1588333038.1875
14.96,1588333038.203125
19.64,1588333038.21875
23.78,1588333038.234375
27.58,1588333038.25
31.01,1588333038.265625
33.94,1588333038.28125
36.24,1588333038.296875
37.74,1588333038.3125
38.32,1588333038.328125
37.97,1588333038.34375
36.86,1588333038.359375
35.34,1588333038.375
33.85,1588333038.390625
32.75,1588333038.40625
32.24,1588333038.421875
32.35,1588333038.4375
32.91,1588333038.453125
33.7,1588333038.46875
34.4,1588333038.484375
34.7,1588333038.5
34.27,1588333038.515625
32.89,1588333038.53125
30.57,1588333038.546875
27.62,1588333038.5625
24.58,1588333038.578125
21.94,1588333038.59375
19.97,1588333038.609375
18.51,1588333038.625
17.08,1588333038.640625
15.15,1588333038.65625
12.43,1588333038.671875
9.0,1588333038.6875
5.27,1588333038.703125
1.77,1588333038.71875
-1.13,1588333038.734375
-3.35,1588333038.75
-5.16,1588333038.765625
-6.96,1588333038.78125
-9.18,1588333038.796875
-12.07,1588333038.8125
-15.62,1588333038.828125
-19.59,1588333038.84375
-23.58,1588333038.859375
-27.19,1588333038.875
-30.15,1588333038.890625
-32.47,1588333038.90625
-34.51,1588333038.921875
-36.84,1588333038.9375
-40.16,1588333038.953125
-44.97,1588333038.96875
-51.34,1588333038.984375
-58.61,1588333039.0
-65.49,1588333039.015625
-70.29,1588333039.03125
-71.43,1588333039.046875
-67.95,1588333039.0625
-59.93,1588333039.078125
-48.4,1588333039.09375
-35.06,1588333039.109375
-21.73,1588333039.125
-9.82,1588333039.140625
-0.06,1588333039.15625
7.51,1588333039.171875
13.31,1588333039.1875
17.91,1588333039.203125
21.8,1588333039.21875
25.28,1588333039.234375
28.37,1588333039.25
30.93,1588333039.265625
32.78,1588333039.28125
33.78,1588333039.296875
33.97,1588333039.3125
33.61,1588333039.328125
32.99,1588333039.34375
32.38,1588333039.359375
31.95,1588333039.375
31.76,1588333039.390625
31.8,1588333039.40625
32.06,1588333039.421875
32.47,1588333039.4375
32.93,1588333039.453125
33.2,1588333039.46875
32.97,1588333039.484375
32.0,1588333039.5
30.24,1588333039.515625
27.85,1588333039.53125
25.14,1588333039.546875
22.4,1588333039.5625
19.73,1588333039.578125
17.02,1588333039.59375
14.07,1588333039.609375
10.83,1588333039.625
7.41,1588333039.640625
4.1,1588333039.65625
1.22,1588333039.671875
-1.1,1588333039.6875
-3.01,1588333039.703125
-4.83,1588333039.71875
-6.96,1588333039.734375
-9.59,1588333039.75
-12.69,1588333039.765625
-15.99,1588333039.78125
-19.16,1588333039.796875
-21.89,1588333039.8125
-24.14,1588333039.828125
-26.08,1588333039.84375
-28.1,1588333039.859375
-30.72,1588333039.875
-34.39,1588333039.890625
