bvp,time
-12.52,1709208236.09375
1.96,1709208236.109375
14.17,1709208236.125
23.31,1709208236.140625
29.24,1709208236.15625
32.27,1709208236.171875
33.03,1709208236.1875
32.24,1709208236.203125
30.67,1709208236.21875
28.98,1709208236.234375
27.65,1709208236.25
26.81,1709208236.265625
26.27,1709208236.28125
25.62,1709208236.296875
24.49,1709208236.3125
22.77,1709208236.328125
20.73,1709208236.34375
18.94,1709208236.359375
18.01,1709208236.375
18.33,1709208236.390625
19.77,1709208236.40625
21.78,1709208236.421875
23.52,1709208236.4375
24.24,1709208236.453125
23.54,1709208236.46875
21.45,1709208236.484375
18.3,1709208236.5
14.47,1709208236.515625
10.35,1709208236.53125
6.42,1709208236.546875
3.3,1709208236.5625
1.63,1709208236.578125
1.67,1709208236.59375
2.96,1709208236.609375
4.27,1709208236.625
4.15,1709208236.640625
1.63,1709208236.65625
-3.16,1709208236.671875
-9.11,1709208236.6875
-14.79,1709208236.703125
-19.37,1709208236.71875
-23.14,1709208236.734375
-27.22,1709208236.75
-32.76,1709208236.765625
-40.07,1709208236.78125
-48.33,1709208236.796875
-56.11,1709208236.8125
-62.22,1709208236.828125
-66.35,1709208236.84375
-69.24,1709208236.859375
-72.19,1709208236.875
-76.31,1709208236.890625
-82.07,1709208236.90625
-89.07,1709208236.921875
-96.23,1709208236.9375
-102.3,1709208236.953125
-106.15,1709208236.96875
-107.21,1709208236.984375
-105.46,1709208237.0
-101.38,1709208237.015625
-95.72,1709208237.03125
-89.24,1709208237.046875
-82.45,1709208237.0625
-75.47,1709208237.078125
-67.93,1709208237.09375
-59.07,1709208237.109375
-47.89,1709208237.125
-33.49,1709208237.140625
-15.37,1709208237.15625
6.45,1709208237.171875
31.47,1709208237.1875
58.9,1709208237.203125
87.93,1709208237.21875
117.86,1709208237.234375
148.11,1709208237.25
178.11,1709208237.265625
207.29,1709208237.28125
235.13,1709208237.296875
261.35,1709208237.3125
285.9,1709208237.328125
308.66,1709208237.34375
328.75,1709208237.359375
344.23,1709208237.375
352.05,1709208237.390625
348.86,1709208237.40625
332.2,1709208237.421875
301.38,1709208237.4375
257.64,1709208237.453125
203.83,1709208237.46875
143.71,1709208237.484375
81.57,1709208237.5
22.1,1709208237.515625
-29.76,1709208237.53125
-69.53,1709208237.546875
-94.28,1709208237.5625
-103.74,1709208237.578125
-100.59,1709208237.59375
-89.65,1709208237.609375
-76.07,1709208237.625
-63.64,1709208237.640625
-53.86,1709208237.65625
-46.28,1709208237.671875
-39.61,1709208237.6875
-32.83,1709208237.703125
-25.82,1709208237.71875
-19.15,1709208237.734375
-13.56,1709208237.75
-9.57,1709208237.765625
-7.26,1709208237.78125
-6.37,1709208237.796875
-6.51,1709208237.8125
-7.27,1709208237.828125
-8.38,1709208237.84375
-9.85,1709208237.859375
-11.85,1709208237.875
-14.56,1709208237.890625
-17.94,1709208237.90625
-21.62,1709208237.921875
-24.99,1709208237.9375
-27.49,1709208237.953125
-28.96,1709208237.96875
-29.86,1709208237.984375
-31.08,1709208238.0
-33.61,1709208238.015625
-38.14,1709208238.03125
-44.85,1709208238.046875
-53.41,1709208238.0625
-63.18,1709208238.078125
-73.47,1709208238.09375
-83.7,1709208238.109375
-93.46,1709208238.125
-102.36,1709208238.140625
-109.87,1709208238.15625
-115.15,1709208238.171875
-117.13,1709208238.1875
-114.74,1709208238.203125
-107.41,1709208238.21875
-95.44,1709208238.234375
-80.08,1709208238.25
-63.29,1709208238.265625
-47.12,1709208238.28125
-33.13,1709208238.296875
-22.1,1709208238.3125
-14.03,1709208238.328125
-8.44,1709208238.34375
-4.72,1709208238.359375
-2.36,1709208238.375
-1.0,1709208238.390625
-0.36,1709208238.40625
-0.22,1709208238.421875
-0.38,1709208238.4375
-0.73,1709208238.453125
-1.25,1709208238.46875
-1.93,1709208238.484375
-2.74,1709208238.5
-3.54,1709208238.515625
-4.17,1709208238.53125
-4.44,1709208238.546875
-4.25,1709208238.5625
-3.55,1709208238.578125
-2.38,1709208238.59375
-0.84,1709208238.609375
0.95,1709208238.625
2.83,1709208238.640625
4.63,1709208238.65625
6.15,1709208238.671875
7.29,1709208238.6875
7.96,1709208238.703125
8.18,1709208238.71875
7.92,1709208238.734375
7.16,1709208238.75
5.92,1709208238.765625
4.24,1709208238.78125
2.3,1709208238.796875
0.37,1709208238.8125
-1.25,1709208238.828125
-2.33,1709208238.84375
-2.79,1709208238.859375
-2.75,1709208238.875
-2.45,1709208238.890625
-2.13,1709208238.90625
-2.01,1709208238.921875
-2.18,1709208238.9375
-2.66,1709208238.953125
-3.34,1709208238.96875
-4.05,1709208238.984375
-4.65,1709208239.0
-5.04,1709208239.015625
-5.35,1709208239.03125
-5.83,1709208239.046875
-6.85,1709208239.0625
-8.71,1709208239.078125
-11.46,1709208239.09375
-14.86,1709208239.109375
-18.46,1709208239.125
-21.77,1709208239.140625
-24.47,1709208239.15625
-26.52,1709208239.171875
-28.2,1709208239.1875
-29.98,1709208239.203125
-32.4,1709208239.21875
-35.83,1709208239.234375
-40.37,1709208239.25
-45.64,1709208239.265625
-50.72,1709208239.28125
-54.34,1709208239.296875
-55.13,1709208239.3125
-52.1,1709208239.328125
-45.01,1709208239.34375
-34.57,1709208239.359375
-22.2,1709208239.375
-9.63,1709208239.390625
1.59,1709208239.40625
10.54,1709208239.421875
16.93,1709208239.4375
21.0,1709208239.453125
23.21,1709208239.46875
24.06,1709208239.484375
23.92,1709208239.5
23.09,1709208239.515625
21.81,1709208239.53125
20.29,1709208239.546875
18.75,1709208239.5625
17.33,1709208239.578125
16.11,1709208239.59375
15.14,1709208239.609375
14.44,1709208239.625
14.09,1709208239.640625
14.19,1709208239.65625
14.86,1709208239.671875
16.2,1709208239.6875
18.17,1709208239.703125
20.61,1709208239.71875
23.14,1709208239.734375
25.33,1709208239.75
26.75,1709208239.765625
27.13,1709208239.78125
26.45,1709208239.796875
24.92,1709208239.8125
22.9,1709208239.828125
20.73,1709208239.84375
18.59,1709208239.859375
16.51,1709208239.875
14.38,1709208239.890625
12.08,1709208239.90625
9.58,1709208239.921875
7.02,1709208239.9375
4.61,1709208239.953125
2.57,1709208239.96875
1.04,1709208239.984375
0.0,1709208240.0
-0.7,1709208240.015625
-1.32,1709208240.03125
-2.05,1709208240.046875
-3.01,1709208240.0625
-4.2,1709208240.078125
-5.55,1709208240.09375
-6.97,1709208240.109375
-8.38,1709208240.125
-9.76,1709208240.140625
-11.12,1709208240.15625
-12.54,1709208240.171875
-14.13,1709208240.1875
-16.01,1709208240.203125
-18.2,1709208240.21875
-20.68,1709208240.234375
-23.23,1709208240.25
-25.62,1709208240.265625
-27.65,1709208240.28125
-29.24,1709208240.296875
-30.58,1709208240.3125
-32.06,1709208240.328125
-34.19,1709208240.34375
-37.4,1709208240.359375
-41.76,1709208240.375
-46.85,1709208240.390625
-51.65,1709208240.40625
-54.79,1709208240.421875
-54.84,1709208240.4375
-50.82,1709208240.453125
-42.56,1709208240.46875
-30.84,1709208240.484375
-17.15,1709208240.5
-3.3,1709208240.515625
9.13,1709208240.53125
19.05,1709208240.546875
26.04,1709208240.5625
30.24,1709208240.578125
32.1,1709208240.59375
32.22,1709208240.609375
31.17,1709208240.625
29.44,1709208240.640625
27.39,1709208240.65625
25.32,1709208240.671875
23.44,1709208240.6875
21.96,1709208240.703125
21.01,1709208240.71875
20.64,1709208240.734375
20.77,1709208240.75
21.26,1709208240.765625
22.0,1709208240.78125
22.96,1709208240.796875
24.23,1709208240.8125
25.84,1709208240.828125
27.7,1709208240.84375
29.46,1709208240.859375
30.68,1709208240.875
30.96,1709208240.890625
30.14,1709208240.90625
28.36,1709208240.921875
25.97,1709208240.9375
23.38,1709208240.953125
20.86,1709208240.96875
18.52,1709208240.984375
16.34,1709208241.0
14.27,1709208241.015625
12.26,1709208241.03125
10.29,1709208241.046875
8.33,1709208241.0625
6.35,1709208241.078125
4.28,1709208241.09375
2.15,1709208241.109375
0.05,1709208241.125
-1.86,1709208241.140625
-3.4,1709208241.15625
-4.48,1709208241.171875
-5.17,1709208241.1875
-5.65,1709208241.203125
-6.21,1709208241.21875
-7.17,1709208241.234375
-8.72,1709208241.25
-10.89,1709208241.265625
-13.47,1709208241.28125
-16.09,1709208241.296875
-18.32,1709208241.3125
-19.9,1709208241.328125
-20.86,1709208241.34375
-21.57,1709208241.359375
-22.63,1709208241.375
-24.66,1709208241.390625
-28.07,1709208241.40625
-32.85,1709208241.421875
-38.48,1709208241.4375
-43.93,1709208241.453125
-47.84,1709208241.46875
-48.85,1709208241.484375
-45.98,1709208241.5
-38.91,1709208241.515625
-28.17,1709208241.53125
-15.05,1709208241.546875
-1.26,1709208241.5625
11.48,1709208241.578125
21.85,1709208241.59375
29.19,1709208241.609375
33.47,1709208241.625
35.2,1709208241.640625
35.14,1709208241.65625
34.06,1709208241.671875
32.48,1709208241.6875
30.66,1709208241.703125
28.62,1709208241.71875
26.3,1709208241.734375
23.72,1709208241.75
21.06,1709208241.765625
18.62,1709208241.78125
16.72,1709208241.796875
15.59,1709208241.8125
15.31,1709208241.828125
15.85,1709208241.84375
17.13,1709208241.859375
19.04,1709208241.875
21.43,1709208241.890625
24.06,1709208241.90625
26.54,1709208241.921875
28.44,1709208241.9375
29.4,1709208241.953125
29.26,1709208241.96875
28.07,1709208241.984375
26.15,1709208242.0
23.89,1709208242.015625
21.73,1709208242.03125
19.92,1709208242.046875
18.52,1709208242.0625
17.41,1709208242.078125
16.33,1709208242.09375
15.04,1709208242.109375
13.45,1709208242.125
11.64,1709208242.140625
9.87,1709208242.15625
8.45,1709208242.171875
7.59,1709208242.1875
7.32,1709208242.203125
7.52,1709208242.21875
8.06,1709208242.234375
8.82,1709208242.25
9.79,1709208242.265625
11.0,1709208242.28125
12.52,1709208242.296875
14.51,1709208242.3125
17.1,1709208242.328125
20.34,1709208242.34375
23.9,1709208242.359375
26.92,1709208242.375
28.06,1709208242.390625
25.82,1709208242.40625
19.06,1709208242.421875
7.43,1709208242.4375
-8.51,1709208242.453125
-27.3,1709208242.46875
-46.94,1709208242.484375
-65.0,1709208242.5
-78.89,1709208242.515625
-86.28,1709208242.53125
-85.66,1709208242.546875
-76.91,1709208242.5625
-61.64,1709208242.578125
-42.83,1709208242.59375
-24.05,1709208242.609375
-8.27,1709208242.625
2.85,1709208242.640625
9.12,1709208242.65625
11.39,1709208242.671875
10.85,1709208242.6875
8.58,1709208242.703125
5.42,1709208242.71875
2.06,1709208242.734375
-0.85,1709208242.75
-2.8,1709208242.765625
-3.55,1709208242.78125
-3.28,1709208242.796875
-2.46,1709208242.8125
-1.68,1709208242.828125
-1.3,1709208242.84375
-1.38,1709208242.859375
-1.59,1709208242.875
-1.42,1709208242.890625
-0.46,1709208242.90625
1.44,1709208242.921875
4.07,1709208242.9375
6.91,1709208242.953125
9.39,1709208242.96875
11.01,1709208242.984375
11.58,1709208243.0
11.19,1709208243.015625
10.15,1709208243.03125
8.81,1709208243.046875
7.4,1709208243.0625
5.99,1709208243.078125
4.56,1709208243.09375
3.03,1709208243.109375
1.4,1709208243.125
-0.25,1709208243.140625
-1.79,1709208243.15625
-3.08,1709208243.171875
-4.07,1709208243.1875
-4.77,1709208243.203125
-5.24,1709208243.21875
-5.59,1709208243.234375
-5.91,1709208243.25
-6.26,1709208243.265625
-6.68,1709208243.28125
-7.14,1709208243.296875
-7.66,1709208243.3125
-8.32,1709208243.328125
-9.23,1709208243.34375
-10.53,1709208243.359375
-12.35,1709208243.375
-14.68,1709208243.390625
-17.36,1709208243.40625
-20.17,1709208243.421875
-22.83,1709208243.4375
-25.16,1709208243.453125
-27.08,1709208243.46875
-28.7,1709208243.484375
-30.3,1709208243.5
-32.28,1709208243.515625
-35.05,1709208243.53125
-38.84,1709208243.546875
-43.47,1709208243.5625
-48.17,1709208243.578125
-51.64,1709208243.59375
-52.43,1709208243.609375
-49.34,1709208243.625
-41.99,1709208243.640625
-30.97,1709208243.65625
-17.7,1709208243.671875
-4.01,1709208243.6875
8.44,1709208243.703125
18.51,1709208243.71875
25.73,1709208243.734375
30.19,1709208243.75
32.27,1709208243.765625
32.45,1709208243.78125
31.24,1709208243.796875
29.18,1709208243.8125
26.79,1709208243.828125
24.54,1709208243.84375
22.74,1709208243.859375
21.47,1709208243.875
20.59,1709208243.890625
19.88,1709208243.90625
19.15,1709208243.921875
18.41,1709208243.9375
17.84,1709208243.953125
17.72,1709208243.96875
18.28,1709208243.984375
19.56,1709208244.0
21.4,1709208244.015625
23.43,1709208244.03125
25.17,1709208244.046875
26.2,1709208244.0625
26.24,1709208244.078125
25.22,1709208244.09375
23.28,1709208244.109375
20.72,1709208244.125
17.92,1709208244.140625
15.21,1709208244.15625
12.76,1709208244.171875
10.56,1709208244.1875
8.46,1709208244.203125
6.22,1709208244.21875
3.65,1709208244.234375
0.74,1709208244.25
-2.35,1709208244.265625
-5.32,1709208244.28125
-7.85,1709208244.296875
-9.74,1709208244.3125
-11.0,1709208244.328125
-11.82,1709208244.34375
-12.54,1709208244.359375
-13.5,1709208244.375
-14.87,1709208244.390625
-16.64,1709208244.40625
-18.58,1709208244.421875
-20.38,1709208244.4375
-21.76,1709208244.453125
-22.63,1709208244.46875
-23.19,1709208244.484375
-23.84,1709208244.5
-25.16,1709208244.515625
-27.61,1709208244.53125
-31.37,1709208244.546875
-36.05,1709208244.5625
-40.76,1709208244.578125
-44.14,1709208244.59375
-44.82,1709208244.609375
-41.78,1709208244.625
-34.79,1709208244.640625
-24.48,1709208244.65625
-12.18,1709208244.671875
0.49,1709208244.6875
12.05,1709208244.703125
21.46,1709208244.71875
28.21,1709208244.734375
32.28,1709208244.75
33.94,1709208244.765625
33.63,1709208244.78125
31.95,1709208244.796875
29.49,1709208244.8125
26.84,1709208244.828125
24.49,1709208244.84375
22.7,1709208244.859375
21.51,1709208244.875
20.82,1709208244.890625
20.5,1709208244.90625
20.48,1709208244.921875
20.84,1709208244.9375
21.74,1709208244.953125
23.31,1709208244.96875
25.54,1709208244.984375
28.24,1709208245.0
31.03,1709208245.015625
33.5,1709208245.03125
35.33,1709208245.046875
36.34,1709208245.0625
36.55,1709208245.078125
36.09,1709208245.09375
35.22,1709208245.109375
34.27,1709208245.125
33.64,1709208245.140625
33.68,1709208245.15625
34.49,1709208245.171875
35.72,1709208245.1875
36.55,1709208245.203125
35.94,1709208245.21875
33.05,1709208245.234375
27.69,1709208245.25
20.43,1709208245.265625
12.29,1709208245.28125
4.35,1709208245.296875
-2.75,1709208245.3125
-8.96,1709208245.328125
-14.59,1709208245.34375
-19.97,1709208245.359375
-25.23,1709208245.375
-30.22,1709208245.390625
-34.72,1709208245.40625
-38.73,1709208245.421875
-42.51,1709208245.4375
-46.58,1709208245.453125
-51.46,1709208245.46875
-57.36,1709208245.484375
-64.04,1709208245.5
-70.64,1709208245.515625
-75.84,1709208245.53125
-78.13,1709208245.546875
-76.26,1709208245.5625
-69.64,1709208245.578125
-58.65,1709208245.59375
-44.64,1709208245.609375
-29.57,1709208245.625
-15.43,1709208245.640625
-3.73,1709208245.65625
4.8,1709208245.671875
10.22,1709208245.6875
13.15,1709208245.703125
14.36,1709208245.71875
14.52,1709208245.734375
14.09,1709208245.75
13.34,1709208245.765625
12.47,1709208245.78125
11.63,1709208245.796875
10.99,1709208245.8125
10.57,1709208245.828125
10.27,1709208245.84375
9.92,1709208245.859375
9.39,1709208245.875
8.72,1709208245.890625
8.18,1709208245.90625
8.13,1709208245.921875
8.8,1709208245.9375
10.16,1709208245.953125
11.81,1709208245.96875
13.22,1709208245.984375
13.88,1709208246.0
13.56,1709208246.015625
12.33,1709208246.03125
10.43,1709208246.046875
8.22,1709208246.0625
5.97,1709208246.078125
3.9,1709208246.09375
2.15,1709208246.109375
0.83,1709208246.125
-0.04,1709208246.140625
-0.56,1709208246.15625
-0.92,1709208246.171875
-1.4,1709208246.1875
-2.24,1709208246.203125
-3.54,1709208246.21875
-5.19,1709208246.234375
-6.95,1709208246.25
-8.52,1709208246.265625
-9.7,1709208246.28125
-10.47,1709208246.296875
-10.98,1709208246.3125
-11.53,1709208246.328125
-12.42,1709208246.34375
-13.8,1709208246.359375
-15.67,1709208246.375
-17.84,1709208246.390625
-20.07,1709208246.40625
-22.13,1709208246.421875
-23.92,1709208246.4375
-25.47,1709208246.453125
-26.94,1709208246.46875
-28.6,1709208246.484375
-30.86,1709208246.5
-34.08,1709208246.515625
-38.49,1709208246.53125
-43.91,1709208246.546875
-49.57,1709208246.5625
-54.2,1709208246.578125
-56.27,1709208246.59375
-54.49,1709208246.609375
-48.32,1709208246.625
-38.17,1709208246.640625
-25.35,1709208246.65625
-11.67,1709208246.671875
1.13,1709208246.6875
11.78,1709208246.703125
19.69,1709208246.71875
24.87,1709208246.734375
27.73,1709208246.75
28.86,1709208246.765625
28.82,1709208246.78125
28.14,1709208246.796875
27.24,1709208246.8125
26.42,1709208246.828125
25.82,1709208246.84375
25.48,1709208246.859375
25.35,1709208246.875
25.33,1709208246.890625
25.35,1709208246.90625
25.39,1709208246.921875
25.47,1709208246.9375
25.71,1709208246.953125
26.22,1709208246.96875
27.17,1709208246.984375
28.56,1709208247.0
30.29,1709208247.015625
32.01,1709208247.03125
33.32,1709208247.046875
33.79,1709208247.0625
33.19,1709208247.078125
31.55,1709208247.09375
29.14,1709208247.109375
26.36,1709208247.125
23.57,1709208247.140625
20.97,1709208247.15625
18.61,1709208247.171875
16.44,1709208247.1875
14.38,1709208247.203125
12.36,1709208247.21875
10.39,1709208247.234375
8.44,1709208247.25
6.52,1709208247.265625
4.64,1709208247.28125
2.88,1709208247.296875
1.34,1709208247.3125
0.09,1709208247.328125
-0.89,1709208247.34375
-1.81,1709208247.359375
-3.01,1709208247.375
-4.84,1709208247.390625
-7.46,1709208247.40625
-10.77,1709208247.421875
-14.37,1709208247.4375
-17.73,1709208247.453125
-20.43,1709208247.46875
-22.29,1709208247.484375
-23.47,1709208247.5
-24.42,1709208247.515625
-25.74,1709208247.53125
-27.97,1709208247.546875
-31.45,1709208247.5625
-36.16,1709208247.578125
-41.56,1709208247.59375
-46.64,1709208247.609375
-50.05,1709208247.625
-50.42,1709208247.640625
-46.77,1709208247.65625
-38.89,1709208247.671875
-27.37,1709208247.6875
-13.57,1709208247.703125
0.76,1709208247.71875
13.92,1709208247.734375
24.66,1709208247.75
32.42,1709208247.765625
37.44,1709208247.78125
40.57,1709208247.796875
42.87,1709208247.8125
45.18,1709208247.828125
47.81,1709208247.84375
50.53,1709208247.859375
52.78,1709208247.875
54.1,1709208247.890625
54.42,1709208247.90625
54.0,1709208247.921875
53.25,1709208247.9375
52.36,1709208247.953125
51.21,1709208247.96875
49.43,1709208247.984375
46.72,1709208248.0
43.06,1709208248.015625
38.77,1709208248.03125
34.28,1709208248.046875
29.92,1709208248.0625
25.72,1709208248.078125
21.49,1709208248.09375
17.03,1709208248.109375
12.27,1709208248.125
7.38,1709208248.140625
2.72,1709208248.15625
-1.4,1709208248.171875
-4.76,1709208248.1875
-7.33,1709208248.203125
-9.26,1709208248.21875
-10.78,1709208248.234375
-12.08,1709208248.25
-13.36,1709208248.265625
-14.65,1709208248.28125
-15.96,1709208248.296875
-17.25,1709208248.3125
-18.54,1709208248.328125
-19.86,1709208248.34375
-21.26,1709208248.359375
-22.77,1709208248.375
-24.32,1709208248.390625
-25.81,1709208248.40625
-27.08,1709208248.421875
-28.1,1709208248.4375
-28.97,1709208248.453125
-30.02,1709208248.46875
-31.82,1709208248.484375
-35.01,1709208248.5
-40.07,1709208248.515625
-47.02,1709208248.53125
-55.11,1709208248.546875
-62.91,1709208248.5625
-68.5,1709208248.578125
-70.11,1709208248.59375
-66.67,1709208248.609375
-58.22,1709208248.625
-45.91,1709208248.640625
-31.63,1709208248.65625
-17.4,1709208248.671875
-4.8,1709208248.6875
5.24,1709208248.703125
12.5,1709208248.71875
17.21,1709208248.734375
19.79,1709208248.75
20.74,1709208248.765625
20.52,1709208248.78125
19.6,1709208248.796875
18.41,1709208248.8125
17.31,1709208248.828125
16.51,1709208248.84375
16.05,1709208248.859375
15.86,1709208248.875
15.84,1709208248.890625
15.99,1709208248.90625
16.38,1709208248.921875
17.12,1709208248.9375
18.27,1709208248.953125
19.78,1709208248.96875
21.47,1709208248.984375
23.1,1709208249.0
24.49,1709208249.015625
25.51,1709208249.03125
26.07,1709208249.046875
26.08,1709208249.0625
25.42,1709208249.078125
24.05,1709208249.09375
22.01,1709208249.109375
19.54,1709208249.125
17.02,1709208249.140625
14.77,1709208249.15625
12.98,1709208249.171875
11.55,1709208249.1875
10.2,1709208249.203125
8.61,1709208249.21875
6.61,1709208249.234375
4.28,1709208249.25
1.87,1709208249.265625
-0.33,1709208249.28125
-2.12,1709208249.296875
-3.52,1709208249.3125
-4.71,1709208249.328125
-5.94,1709208249.34375
-7.44,1709208249.359375
-9.38,1709208249.375
-11.79,1709208249.390625
-14.61,1709208249.40625
-17.72,1709208249.421875
-20.93,1709208249.4375
-24.0,1709208249.453125
-26.76,1709208249.46875
-29.16,1709208249.484375
-31.3,1709208249.5
-33.47,1709208249.515625
-36.08,1709208249.53125
-39.5,1709208249.546875
-43.92,1709208249.5625
-49.11,1709208249.578125
-54.32,1709208249.59375
-58.31,1709208249.609375
-59.65,1709208249.625
-57.14,1709208249.640625
-50.2,1709208249.65625
-39.29,1709208249.671875
-25.71,1709208249.6875
-11.35,1709208249.703125
1.93,1709208249.71875
12.74,1709208249.734375
20.52,1709208249.75
25.38,1709208249.765625
27.91,1709208249.78125
28.87,1709208249.796875
28.9,1709208249.8125
28.42,1709208249.828125
27.69,1709208249.84375
26.83,1709208249.859375
25.85,1709208249.875
24.79,1709208249.890625
23.67,1709208249.90625
22.6,1709208249.921875
21.71,1709208249.9375
21.2,1709208249.953125
21.2,1709208249.96875
21.79,1709208249.984375
22.94,1709208250.0
24.54,1709208250.015625
26.42,1709208250.03125
28.36,1709208250.046875
30.12,1709208250.0625
31.47,1709208250.078125
32.21,1709208250.09375
32.18,1709208250.109375
31.35,1709208250.125
29.78,1709208250.140625
27.6,1709208250.15625
25.0,1709208250.171875
22.18,1709208250.1875
19.31,1709208250.203125
16.51,1709208250.21875
13.87,1709208250.234375
11.43,1709208250.25
9.18,1709208250.265625
7.01,1709208250.28125
4.82,1709208250.296875
2.49,1709208250.3125
0.07,1709208250.328125
-2.31,1709208250.34375
-4.44,1709208250.359375
-6.18,1709208250.375
-7.56,1709208250.390625
-8.77,1709208250.40625
-10.13,1709208250.421875
-11.91,1709208250.4375
-14.22,1709208250.453125
-16.98,1709208250.46875
-19.95,1709208250.484375
-22.9,1709208250.5
-25.66,1709208250.515625
-28.17,1709208250.53125
-30.5,1709208250.546875
-32.79,1709208250.5625
-35.27,1709208250.578125
-38.23,1709208250.59375
-42.0,1709208250.609375
-46.75,1709208250.625
-52.35,1709208250.640625
-58.13,1709208250.65625
-62.93,1709208250.671875
-65.26,1709208250.6875
-63.81,1709208250.703125
-57.88,1709208250.71875
-47.69,1709208250.734375
-34.41,1709208250.75
-19.74,1709208250.765625
-5.46,1709208250.78125
7.01,1709208250.796875
16.88,1709208250.8125
23.94,1709208250.828125
28.42,1709208250.84375
30.79,1709208250.859375
31.57,1709208250.875
31.3,1709208250.890625
30.43,1709208250.90625
29.33,1709208250.921875
28.23,1709208250.9375
27.23,1709208250.953125
26.34,1709208250.96875
25.55,1709208250.984375
24.81,1709208251.0
24.15,1709208251.015625
23.61,1709208251.03125
23.33,1709208251.046875
23.47,1709208251.0625
24.21,1709208251.078125
25.61,1709208251.09375
27.56,1709208251.109375
29.75,1709208251.125
31.7,1709208251.140625
32.95,1709208251.15625
33.15,1709208251.171875
32.21,1709208251.1875
30.29,1709208251.203125
27.72,1709208251.21875
24.9,1709208251.234375
22.11,1709208251.25
19.52,1709208251.265625
17.08,1709208251.28125
14.65,1709208251.296875
12.08,1709208251.3125
9.27,1709208251.328125
6.25,1709208251.34375
3.17,1709208251.359375
0.22,1709208251.375
-2.42,1709208251.390625
-4.65,1709208251.40625
-6.47,1709208251.421875
-7.96,1709208251.4375
-9.26,1709208251.453125
-10.55,1709208251.46875
-11.98,1709208251.484375
-13.63,1709208251.5
-15.51,1709208251.515625
-17.51,1709208251.53125
-19.48,1709208251.546875
-21.3,1709208251.5625
-22.99,1709208251.578125
-24.76,1709208251.59375
-26.99,1709208251.609375
-30.06,1709208251.625
-34.21,1709208251.640625
-39.26,1709208251.65625
-44.55,1709208251.671875
-48.98,1709208251.6875
-51.26,1709208251.703125
-50.26,1709208251.71875
-45.35,1709208251.734375
-36.64,1709208251.75
-24.95,1709208251.765625
-11.61,1709208251.78125
1.89,1709208251.796875
14.27,1709208251.8125
24.65,1709208251.828125
32.57,1709208251.84375
38.0,1709208251.859375
41.11,1709208251.875
42.25,1709208251.890625
41.85,1709208251.90625
40.41,1709208251.921875
38.51,1709208251.9375
36.66,1709208251.953125
35.24,1709208251.96875
34.39,1709208251.984375
34.01,1709208252.0
33.87,1709208252.015625
33.77,1709208252.03125
33.77,1709208252.046875
34.17,1709208252.0625
35.44,1709208252.078125
37.93,1709208252.09375
41.62,1709208252.109375
46.09,1709208252.125
50.6,1709208252.140625
54.42,1709208252.15625
57.12,1709208252.171875
58.71,1709208252.1875
59.62,1709208252.203125
60.47,1709208252.21875
61.78,1709208252.234375
63.81,1709208252.25
66.52,1709208252.265625
69.58,1709208252.28125
72.36,1709208252.296875
74.06,1709208252.3125
73.73,1709208252.328125
70.61,1709208252.34375
64.39,1709208252.359375
55.45,1709208252.375
44.75,1709208252.390625
33.5,1709208252.40625
22.64,1709208252.421875
12.52,1709208252.4375
2.94,1709208252.453125
-6.56,1709208252.46875
-16.17,1709208252.484375
-25.58,1709208252.5
-34.11,1709208252.515625
-41.08,1709208252.53125
-46.24,1709208252.546875
-50.06,1709208252.5625
-53.53,1709208252.578125
-57.81,1709208252.59375
-63.79,1709208252.609375
-71.68,1709208252.625
-80.78,1709208252.640625
-89.5,1709208252.65625
-95.7,1709208252.671875
-97.23,1709208252.6875
-92.65,1709208252.703125
-81.93,1709208252.71875
-66.67,1709208252.734375
-49.83,1709208252.75
-34.86,1709208252.765625
-24.65,1709208252.78125
-20.71,1709208252.796875
-22.82,1709208252.8125
-29.41,1709208252.828125
-38.26,1709208252.84375
-47.28,1709208252.859375
-54.99,1709208252.875
-60.59,1709208252.890625
-63.78,1709208252.90625
-64.45,1709208252.921875
-62.56,1709208252.9375
-58.22,1709208252.953125
-51.87,1709208252.96875
-44.31,1709208252.984375
-36.63,1709208253.0
-29.84,1709208253.015625
-24.49,1709208253.03125
-20.43,1709208253.046875
-16.93,1709208253.0625
-12.98,1709208253.078125
-7.83,1709208253.09375
-1.35,1709208253.109375
5.88,1709208253.125
12.85,1709208253.140625
18.52,1709208253.15625
22.28,1709208253.171875
24.09,1709208253.1875
24.39,1709208253.203125
23.87,1709208253.21875
23.09,1709208253.234375
22.33,1709208253.25
21.56,1709208253.265625
20.58,1709208253.28125
19.18,1709208253.296875
17.28,1709208253.3125
14.93,1709208253.328125
12.31,1709208253.34375
9.59,1709208253.359375
6.84,1709208253.375
4.08,1709208253.390625
1.25,1709208253.40625
-1.6,1709208253.421875
-4.32,1709208253.4375
-6.68,1709208253.453125
-8.46,1709208253.46875
-9.63,1709208253.484375
-10.42,1709208253.5
-11.26,1709208253.515625
-12.6,1709208253.53125
-14.63,1709208253.546875
-17.17,1709208253.5625
-19.8,1709208253.578125
-22.03,1709208253.59375
-23.66,1709208253.609375
-24.9,1709208253.625
-26.33,1709208253.640625
-28.65,1709208253.65625
-32.44,1709208253.671875
-37.83,1709208253.6875
-44.4,1709208253.703125
-51.16,1709208253.71875
-56.71,1709208253.734375
-59.55,1709208253.75
-58.45,1709208253.765625
-52.82,1709208253.78125
-42.9,1709208253.796875
-29.77,1709208253.8125
-15.04,1709208253.828125
-0.49,1709208253.84375
12.37,1709208253.859375
22.59,1709208253.875
29.82,1709208253.890625
34.26,1709208253.90625
36.45,1709208253.921875
37.06,1709208253.9375
36.76,1709208253.953125
36.06,1709208253.96875
35.27,1709208253.984375
34.48,1709208254.0
33.68,1709208254.015625
32.8,1709208254.03125
31.81,1709208254.046875
30.75,1709208254.0625
29.72,1709208254.078125
28.88,1709208254.09375
28.41,1709208254.109375
28.52,1709208254.125
29.3,1709208254.140625
30.74,1709208254.15625
32.58,1709208254.171875
34.4,1709208254.1875
35.65,1709208254.203125
35.94,1709208254.21875
35.14,1709208254.234375
33.44,1709208254.25
31.24,1709208254.265625
28.96,1709208254.28125
26.87,1709208254.296875
24.99,1709208254.3125
23.13,1709208254.328125
21.07,1709208254.34375
18.7,1709208254.359375
16.03,1709208254.375
13.22,1709208254.390625
10.44,1709208254.40625
7.89,1709208254.421875
5.65,1709208254.4375
3.75,1709208254.453125
2.12,1709208254.46875
0.63,1709208254.484375
-0.85,1709208254.5
-2.43,1709208254.515625
-4.14,1709208254.53125
-5.89,1709208254.546875
-7.46,1709208254.5625
-8.63,1709208254.578125
-9.27,1709208254.59375
-9.45,1709208254.609375
-9.47,1709208254.625
-9.78,1709208254.640625
-10.85,1709208254.65625
-12.9,1709208254.671875
-15.74,1709208254.6875
-18.58,1709208254.703125
-20.16,1709208254.71875
-18.98,1709208254.734375
-13.8,1709208254.75
-4.06,1709208254.765625
9.67,1709208254.78125
25.79,1709208254.796875
41.98,1709208254.8125
55.81,1709208254.828125
65.37,1709208254.84375
69.77,1709208254.859375
69.13,1709208254.875
64.37,1709208254.890625
56.76,1709208254.90625
47.5,1709208254.921875
37.53,1709208254.9375
27.46,1709208254.953125
17.7,1709208254.96875
8.55,1709208254.984375
0.29,1709208255.0
-6.84,1709208255.015625
-12.62,1709208255.03125
-16.99,1709208255.046875
-19.95,1709208255.0625
-21.6,1709208255.078125
-22.03,1709208255.09375
-21.42,1709208255.109375
-19.92,1709208255.125
-17.85,1709208255.140625
-15.6,1709208255.15625
-13.66,1709208255.171875
-12.44,1709208255.1875
-12.16,1709208255.203125
-12.79,1709208255.21875
-14.05,1709208255.234375
-15.62,1709208255.25
-17.26,1709208255.265625
-18.93,1709208255.28125
-20.76,1709208255.296875
-22.91,1709208255.3125
-25.4,1709208255.328125
-28.1,1709208255.34375
-30.71,1709208255.359375
-33.0,1709208255.375
-34.86,1709208255.390625
-36.37,1709208255.40625
-37.76,1709208255.421875
-39.24,1709208255.4375
-40.98,1709208255.453125
-42.98,1709208255.46875
-45.13,1709208255.484375
-47.29,1709208255.5
-49.37,1709208255.515625
-51.4,1709208255.53125
-53.55,1709208255.546875
-56.14,1709208255.5625
-59.53,1709208255.578125
-63.99,1709208255.59375
-69.59,1709208255.609375
-75.92,1709208255.625
-82.07,1709208255.640625
-86.61,1709208255.65625
-87.97,1709208255.671875
-84.88,1709208255.6875
-76.78,1709208255.703125
-64.14,1709208255.71875
-48.28,1709208255.734375
-31.07,1709208255.75
-14.4,1709208255.765625
0.24,1709208255.78125
11.93,1709208255.796875
20.38,1709208255.8125
25.75,1709208255.828125
28.53,1709208255.84375
29.43,1709208255.859375
29.14,1709208255.875
28.24,1709208255.890625
27.11,1709208255.90625
25.93,1709208255.921875
24.71,1709208255.9375
23.48,1709208255.953125
22.3,1709208255.96875
21.31,1709208255.984375
20.68,1709208256.0
20.54,1709208256.015625
21.02,1709208256.03125
22.19,1709208256.046875
24.1,1709208256.0625
26.67,1709208256.078125
29.7,1709208256.09375
32.77,1709208256.109375
35.36,1709208256.125
37.01,1709208256.140625
37.42,1709208256.15625
36.59,1709208256.171875
34.77,1709208256.1875
32.33,1709208256.203125
29.64,1709208256.21875
26.88,1709208256.234375
24.09,1709208256.25
21.15,1709208256.265625
17.88,1709208256.28125
14.2,1709208256.296875
10.18,1709208256.3125
6.04,1709208256.328125
2.05,1709208256.34375
-1.59,1709208256.359375
-4.87,1709208256.375
-7.95,1709208256.390625
-11.15,1709208256.40625
-14.75,1709208256.421875
-18.85,1709208256.4375
-23.29,1709208256.453125
-27.77,1709208256.46875
-31.94,1709208256.484375
-35.59,1709208256.5
-38.72,1709208256.515625
-41.62,1709208256.53125
-44.75,1709208256.546875
-48.71,1709208256.5625
-54.02,1709208256.578125
-60.9,1709208256.59375
-68.99,1709208256.609375
-77.22,1709208256.625
-83.86,1709208256.640625
-86.85,1709208256.65625
-84.52,1709208256.671875
-76.08,1709208256.6875
-62.04,1709208256.703125
-44.06,1709208256.71875
-24.5,1709208256.734375
-5.64,1709208256.75
10.81,1709208256.765625
23.97,1709208256.78125
33.75,1709208256.796875
40.56,1709208256.8125
45.03,1709208256.828125
47.82,1709208256.84375
49.51,1709208256.859375
50.51,1709208256.875
51.09,1709208256.890625
51.39,1709208256.90625
51.45,1709208256.921875
51.31,1709208256.9375
51.06,1709208256.953125
50.92,1709208256.96875
51.11,1709208256.984375
51.88,1709208257.0
53.36,1709208257.015625
55.54,1709208257.03125
58.3,1709208257.046875
61.45,1709208257.0625
64.76,1709208257.078125
68.0,1709208257.09375
70.97,1709208257.109375
73.46,1709208257.125
75.26,1709208257.140625
76.27,1709208257.15625
76.46,1709208257.171875
75.93,1709208257.1875
74.86,1709208257.203125
73.47,1709208257.21875
71.92,1709208257.234375
70.4,1709208257.25
69.17,1709208257.265625
68.69,1709208257.28125
69.47,1709208257.296875
71.75,1709208257.3125
75.17,1709208257.328125
78.64,1709208257.34375
80.51,1709208257.359375
79.23,1709208257.375
73.91,1709208257.390625
64.73,1709208257.40625
52.82,1709208257.421875
39.77,1709208257.4375
27.01,1709208257.453125
15.36,1709208257.46875
4.98,1709208257.484375
-4.45,1709208257.5
-13.49,1709208257.515625
-22.67,1709208257.53125
-32.5,1709208257.546875
-43.34,1709208257.5625
-55.32,1709208257.578125
-68.18,1709208257.59375
-81.03,1709208257.609375
-92.32,1709208257.625
-100.11,1709208257.640625
-102.55,1709208257.65625
-98.58,1709208257.671875
-88.54,1709208257.6875
-74.31,1709208257.703125
-58.94,1709208257.71875
-45.8,1709208257.734375
-37.55,1709208257.75
-35.34,1709208257.765625
-38.6,1709208257.78125
-45.39,1709208257.796875
-53.16,1709208257.8125
-59.58,1709208257.828125
-63.12,1709208257.84375
-63.22,1709208257.859375
-60.2,1709208257.875
-54.88,1709208257.890625
-48.29,1709208257.90625
-41.4,1709208257.921875
-34.93,1709208257.9375
-29.27,1709208257.953125
-24.51,1709208257.96875
-20.48,1709208257.984375
-16.76,1709208258.0
-12.91,1709208258.015625
-8.52,1709208258.03125
-3.41,1709208258.046875
2.29,1709208258.0625
8.16,1709208258.078125
13.57,1709208258.09375
17.93,1709208258.109375
20.8,1709208258.125
22.1,1709208258.140625
22.04,1709208258.15625
21.05,1709208258.171875
19.57,1709208258.1875
17.95,1709208258.203125
16.32,1709208258.21875
14.62,1709208258.234375
12.66,1709208258.25
10.29,1709208258.265625
7.46,1709208258.28125
4.32,1709208258.296875
1.16,1709208258.3125
-1.73,1709208258.328125
-4.21,1709208258.34375
-6.33,1709208258.359375
-8.39,1709208258.375
-10.73,1709208258.390625
-13.62,1709208258.40625
-17.05,1709208258.421875
-20.78,1709208258.4375
-24.38,1709208258.453125
-27.48,1709208258.46875
-29.97,1709208258.484375
-32.09,1709208258.5
-34.42,1709208258.515625
-37.63,1709208258.53125
-42.32,1709208258.546875
-48.63,1709208258.5625
-56.18,1709208258.578125
-63.88,1709208258.59375
-70.17,1709208258.609375
-73.23,1709208258.625
-71.53,1709208258.640625
-64.3,1709208258.65625
-51.89,1709208258.671875
-35.75,1709208258.6875
-18.09,1709208258.703125
-1.21,1709208258.71875
13.18,1709208258.734375
24.25,1709208258.75
32.14,1709208258.765625
37.52,1709208258.78125
41.13,1709208258.796875
43.5,1709208258.8125
44.84,1709208258.828125
45.25,1709208258.84375
44.84,1709208258.859375
43.89,1709208258.875
42.72,1709208258.890625
41.6,1709208258.90625
40.63,1709208258.921875
39.78,1709208258.9375
39.06,1709208258.953125
38.57,1709208258.96875
38.6,1709208258.984375
39.49,1709208259.0
41.44,1709208259.015625
44.38,1709208259.03125
47.85,1709208259.046875
51.14,1709208259.0625
53.53,1709208259.078125
54.48,1709208259.09375
53.94,1709208259.109375
52.23,1709208259.125
49.89,1709208259.140625
47.44,1709208259.15625
45.13,1709208259.171875
42.91,1709208259.1875
40.5,1709208259.203125
37.66,1709208259.21875
34.28,1709208259.234375
30.48,1709208259.25
26.52,1709208259.265625
22.72,1709208259.28125
19.31,1709208259.296875
16.39,1709208259.3125
13.93,1709208259.328125
11.75,1709208259.34375
9.58,1709208259.359375
7.14,1709208259.375
4.23,1709208259.390625
0.84,1709208259.40625
-2.86,1709208259.421875
-6.54,1709208259.4375
-9.9,1709208259.453125
-12.77,1709208259.46875
-15.19,1709208259.484375
-17.39,1709208259.5
-19.71,1709208259.515625
-22.47,1709208259.53125
-25.81,1709208259.546875
-29.54,1709208259.5625
-33.08,1709208259.578125
-35.44,1709208259.59375
-35.45,1709208259.609375
-32.15,1709208259.625
-25.12,1709208259.640625
-14.78,1709208259.65625
-2.3,1709208259.671875
10.62,1709208259.6875
22.34,1709208259.703125
31.67,1709208259.71875
38.09,1709208259.734375
41.73,1709208259.75
43.12,1709208259.765625
42.87,1709208259.78125
41.52,1709208259.796875
39.48,1709208259.8125
37.05,1709208259.828125
34.52,1709208259.84375
32.16,1709208259.859375
30.12,1709208259.875
28.44,1709208259.890625
26.98,1709208259.90625
25.53,1709208259.921875
23.97,1709208259.9375
22.33,1709208259.953125
20.85,1709208259.96875
19.87,1709208259.984375
19.66,1709208260.0
20.27,1709208260.015625
21.43,1709208260.03125
22.69,1709208260.046875
23.53,1709208260.0625
23.59,1709208260.078125
22.73,1709208260.09375
20.98,1709208260.109375
18.47,1709208260.125
15.29,1709208260.140625
11.52,1709208260.15625
7.25,1709208260.171875
2.73,1709208260.1875
-1.66,1709208260.203125
-5.5,1709208260.21875
-8.52,1709208260.234375
-10.74,1709208260.25
-12.49,1709208260.265625
-14.23,1709208260.28125
-16.35,1709208260.296875
-18.92,1709208260.3125
-21.7,1709208260.328125
-24.27,1709208260.34375
-26.26,1709208260.359375
-27.53,1709208260.375
-28.25,1709208260.390625
-28.77,1709208260.40625
-29.47,1709208260.421875
-30.58,1709208260.4375
-32.14,1709208260.453125
-34.0,1709208260.46875
-35.94,1709208260.484375
-37.75,1709208260.5
-39.34,1709208260.515625
-40.75,1709208260.53125
-42.14,1709208260.546875
-43.78,1709208260.5625
-46.05,1709208260.578125
-49.37,1709208260.59375
-54.08,1709208260.609375
-60.2,1709208260.625
-67.21,1709208260.640625
-73.9,1709208260.65625
-78.57,1709208260.671875
-79.41,1709208260.6875
-75.14,1709208260.703125
-65.44,1709208260.71875
-51.19,1709208260.734375
-34.23,1709208260.75
-16.77,1709208260.765625
-0.78,1709208260.78125
12.43,1709208260.796875
22.42,1709208260.8125
29.38,1709208260.828125
33.88,1709208260.84375
36.51,1709208260.859375
37.75,1709208260.875
37.93,1709208260.890625
37.33,1709208260.90625
36.2,1709208260.921875
34.78,1709208260.9375
33.28,1709208260.953125
31.81,1709208260.96875
30.39,1709208260.984375
29.07,1709208261.0
27.96,1709208261.015625
27.32,1709208261.03125
27.49,1709208261.046875
28.73,1709208261.0625
31.08,1709208261.078125
34.23,1709208261.09375
37.59,1709208261.109375
40.43,1709208261.125
42.14,1709208261.140625
42.39,1709208261.15625
41.17,1709208261.171875
38.79,1709208261.1875
35.69,1709208261.203125
32.32,1709208261.21875
28.98,1709208261.234375
25.82,1709208261.25
22.8,1709208261.265625
19.79,1709208261.28125
16.68,1709208261.296875
13.45,1709208261.3125
10.15,1709208261.328125
6.9,1709208261.34375
3.81,1709208261.359375
0.94,1709208261.375
-1.74,1709208261.390625
-4.29,1709208261.40625
-6.81,1709208261.421875
-9.4,1709208261.4375
-12.08,1709208261.453125
-14.82,1709208261.46875
-17.5,1709208261.484375
-19.99,1709208261.5
-22.22,1709208261.515625
-24.32,1709208261.53125
-26.6,1709208261.546875
-29.56,1709208261.5625
-33.65,1709208261.578125
-39.05,1709208261.59375
-45.43,1709208261.609375
-51.9,1709208261.625
-57.02,1709208261.640625
-59.21,1709208261.65625
-57.17,1709208261.671875
-50.31,1709208261.6875
-38.99,1709208261.703125
-24.47,1709208261.71875
-8.6,1709208261.734375
6.73,1709208261.75
19.98,1709208261.765625
30.26,1709208261.78125
37.28,1709208261.796875
41.32,1709208261.8125
42.87,1709208261.828125
42.58,1709208261.84375
41.04,1709208261.859375
38.78,1709208261.875
36.2,1709208261.890625
33.54,1709208261.90625
30.88,1709208261.921875
28.27,1709208261.9375
25.84,1709208261.953125
23.79,1709208261.96875
22.43,1709208261.984375
22.01,1709208262.0
22.6,1709208262.015625
24.04,1709208262.03125
25.95,1709208262.046875
27.86,1709208262.0625
29.35,1709208262.078125
30.13,1709208262.09375
30.09,1709208262.109375
29.22,1709208262.125
27.61,1709208262.140625
25.32,1709208262.15625
22.48,1709208262.171875
19.23,1709208262.1875
15.81,1709208262.203125
12.46,1709208262.21875
9.39,1709208262.234375
6.64,1709208262.25
4.08,1709208262.265625
1.48,1709208262.28125
-1.43,1709208262.296875
-4.75,1709208262.3125
-8.37,1709208262.328125
-11.97,1709208262.34375
-15.21,1709208262.359375
-17.9,1709208262.375
-20.05,1709208262.390625
-21.91,1709208262.40625
-23.81,1709208262.421875
-26.03,1709208262.4375
-28.71,1709208262.453125
-31.79,1709208262.46875
-35.1,1709208262.484375
-38.39,1709208262.5
-41.41,1709208262.515625
-43.99,1709208262.53125
-46.09,1709208262.546875
-47.87,1709208262.5625
-49.71,1709208262.578125
-52.13,1709208262.59375
-55.64,1709208262.609375
-60.49,1709208262.625
-66.39,1709208262.640625
-72.39,1709208262.65625
-76.93,1709208262.671875
-78.24,1709208262.6875
-74.87,1709208262.703125
-66.25,1709208262.71875
-52.89,1709208262.734375
-36.38,1709208262.75
-18.79,1709208262.765625
-2.18,1709208262.78125
12.02,1709208262.796875
23.16,1709208262.8125
31.23,1709208262.828125
36.61,1709208262.84375
39.78,1709208262.859375
41.18,1709208262.875
41.23,1709208262.890625
40.37,1709208262.90625
39.04,1709208262.921875
37.58,1709208262.9375
36.12,1709208262.953125
34.63,1709208262.96875
32.95,1709208262.984375
31.04,1709208263.0
29.03,1709208263.015625
27.22,1709208263.03125
25.99,1709208263.046875
25.57,1709208263.0625
26.03,1709208263.078125
27.2,1709208263.09375
28.84,1709208263.109375
30.69,1709208263.125
32.48,1709208263.140625
33.94,1709208263.15625
34.77,1709208263.171875
34.7,1709208263.1875
33.58,1709208263.203125
31.46,1709208263.21875
28.6,1709208263.234375
25.34,1709208263.25
22.01,1709208263.265625
18.8,1709208263.28125
15.75,1709208263.296875
12.81,1709208263.3125
9.91,1709208263.328125
7.03,1709208263.34375
4.18,1709208263.359375
1.38,1709208263.375
-1.32,1709208263.390625
-3.89,1709208263.40625
-6.27,1709208263.421875
-8.4,1709208263.4375
-10.23,1709208263.453125
-11.77,1709208263.46875
-13.12,1709208263.484375
-14.47,1709208263.5
-16.06,1709208263.515625
-18.06,1709208263.53125
-20.54,1709208263.546875
-23.39,1709208263.5625
-26.39,1709208263.578125
-29.31,1709208263.59375
-32.0,1709208263.609375
-34.45,1709208263.625
-36.8,1709208263.640625
-39.35,1709208263.65625
-42.45,1709208263.671875
-46.45,1709208263.6875
-51.48,1709208263.703125
-57.27,1709208263.71875
-62.94,1709208263.734375
-67.11,1709208263.75
-68.22,1709208263.765625
-65.08,1709208263.78125
-57.27,1709208263.796875
-45.43,1709208263.8125
-31.02,1709208263.828125
-15.85,1709208263.84375
-1.55,1709208263.859375
10.76,1709208263.875
20.52,1709208263.890625
27.62,1709208263.90625
32.19,1709208263.921875
34.52,1709208263.9375
34.97,1709208263.953125
34.08,1709208263.96875
32.44,1709208263.984375
30.64,1709208264.0
29.08,1709208264.015625
27.87,1709208264.03125
26.92,1709208264.046875
26.01,1709208264.0625
24.97,1709208264.078125
23.8,1709208264.09375
22.71,1709208264.109375
21.96,1709208264.125
21.82,1709208264.140625
22.39,1709208264.15625
23.61,1709208264.171875
25.22,1709208264.1875
26.89,1709208264.203125
28.26,1709208264.21875
29.11,1709208264.234375
29.26,1709208264.25
28.68,1709208264.265625
27.37,1709208264.28125
25.39,1709208264.296875
22.87,1709208264.3125
19.91,1709208264.328125
16.59,1709208264.34375
13.01,1709208264.359375
9.25,1709208264.375
5.42,1709208264.390625
1.66,1709208264.40625
-1.85,1709208264.421875
-5.01,1709208264.4375
-7.81,1709208264.453125
-10.4,1709208264.46875
-12.98,1709208264.484375
-15.75,1709208264.5
-18.81,1709208264.515625
-22.09,1709208264.53125
-25.4,1709208264.546875
-28.53,1709208264.5625
-31.31,1709208264.578125
-33.71,1709208264.59375
-35.83,1709208264.609375
-37.86,1709208264.625
-40.14,1709208264.640625
-43.03,1709208264.65625
-46.88,1709208264.671875
-51.86,1709208264.6875
-57.7,1709208264.703125
-63.54,1709208264.71875
-68.05,1709208264.734375
-69.66,1709208264.75
-67.12,1709208264.765625
-59.99,1709208264.78125
-48.83,1709208264.796875
-35.03,1709208264.8125
-20.41,1709208264.828125
-6.65,1709208264.84375
5.1,1709208264.859375
14.3,1709208264.875
20.87,1709208264.890625
25.04,1709208264.90625
27.11,1709208264.921875
27.51,1709208264.9375
26.73,1709208264.953125
25.33,1709208264.96875
23.86,1709208264.984375
22.67,1709208265.0
21.86,1709208265.015625
21.28,1709208265.03125
20.65,1709208265.046875
19.77,1709208265.0625
18.59,1709208265.078125
17.31,1709208265.09375
16.29,1709208265.109375
15.94,1709208265.125
16.52,1709208265.140625
18.04,1709208265.15625
20.25,1709208265.171875
22.69,1709208265.1875
24.76,1709208265.203125
25.92,1709208265.21875
25.84,1709208265.234375
24.44,1709208265.25
21.97,1709208265.265625
18.89,1709208265.28125
15.67,1709208265.296875
12.6,1709208265.3125
9.75,1709208265.328125
6.9,1709208265.34375
3.73,1709208265.359375
0.01,1709208265.375
-4.26,1709208265.390625
-8.88,1709208265.40625
-13.48,1709208265.421875
-17.73,1709208265.4375
-21.48,1709208265.453125
-24.75,1709208265.46875
-27.74,1709208265.484375
-30.77,1709208265.5
-34.16,1709208265.515625
-38.19,1709208265.53125
-43.02,1709208265.546875
-48.45,1709208265.5625
-53.89,1709208265.578125
-58.28,1709208265.59375
-60.32,1709208265.609375
-58.82,1709208265.625
-53.1,1709208265.640625
-43.38,1709208265.65625
-30.7,1709208265.671875
-16.72,1709208265.6875
-3.15,1709208265.703125
8.64,1709208265.71875
17.91,1709208265.734375
24.52,1709208265.75
28.73,1709208265.765625
30.89,1709208265.78125
31.37,1709208265.796875
30.47,1709208265.8125
28.54,1709208265.828125
26.01,1709208265.84375
23.28,1709208265.859375
20.7,1709208265.875
18.41,1709208265.890625
16.42,1709208265.90625
14.68,1709208265.921875
13.26,1709208265.9375
12.36,1709208265.953125
12.24,1709208265.96875
13.12,1709208265.984375
14.94,1709208266.0
17.38,1709208266.015625
19.92,1709208266.03125
22.05,1709208266.046875
23.42,1709208266.0625
23.92,1709208266.078125
23.66,1709208266.09375
22.75,1709208266.109375
21.26,1709208266.125
19.13,1709208266.140625
16.23,1709208266.15625
12.55,1709208266.171875
8.22,1709208266.1875
3.58,1709208266.203125
-0.91,1709208266.21875
-4.84,1709208266.234375
-8.01,1709208266.25
-10.53,1709208266.265625
-12.82,1709208266.28125
-15.47,1709208266.296875
-19.03,1709208266.3125
-23.78,1709208266.328125
-29.44,1709208266.34375
-35.13,1709208266.359375
-39.37,1709208266.375
-40.46,1709208266.390625
-36.97,1709208266.40625
-28.24,1709208266.421875
-14.66,1709208266.4375
2.33,1709208266.453125
20.62,1709208266.46875
37.97,1709208266.484375
52.52,1709208266.5
63.05,1709208266.515625
69.14,1709208266.53125
71.04,1709208266.546875
69.49,1709208266.5625
65.52,1709208266.578125
60.19,1709208266.59375
54.44,1709208266.609375
48.91,1709208266.625
43.96,1709208266.640625
39.75,1709208266.65625
36.37,1709208266.671875
33.88,1709208266.6875
32.33,1709208266.703125
31.62,1709208266.71875
31.55,1709208266.734375
31.77,1709208266.75
31.96,1709208266.765625
31.86,1709208266.78125
31.26,1709208266.796875
29.92,1709208266.8125
27.49,1709208266.828125
23.62,1709208266.84375
18.12,1709208266.859375
11.09,1709208266.875
2.97,1709208266.890625
-5.61,1709208266.90625
-14.09,1709208266.921875
-22.17,1709208266.9375
-29.83,1709208266.953125
-37.27,1709208266.96875
-44.68,1709208266.984375
-52.14,1709208267.0
-59.5,1709208267.015625
-66.45,1709208267.03125
-72.65,1709208267.046875
-77.79,1709208267.0625
-81.71,1709208267.078125
-84.47,1709208267.09375
-86.35,1709208267.109375
-87.87,1709208267.125
-89.64,1709208267.140625
-92.25,1709208267.15625
-95.89,1709208267.171875
-100.2,1709208267.1875
-104.11,1709208267.203125
-105.99,1709208267.21875
-104.16,1709208267.234375
-97.38,1709208267.25
-85.42,1709208267.265625
-69.2,1709208267.28125
-50.54,1709208267.296875
-31.67,1709208267.3125
-14.54,1709208267.328125
-0.38,1709208267.34375
10.42,1709208267.359375
18.16,1709208267.375
23.49,1709208267.390625
27.06,1709208267.40625
29.32,1709208267.421875
30.53,1709208267.4375
30.84,1709208267.453125
30.44,1709208267.46875
29.62,1709208267.484375
28.69,1709208267.5
27.93,1709208267.515625
27.44,1709208267.53125
27.25,1709208267.546875
27.29,1709208267.5625
27.58,1709208267.578125
28.19,1709208267.59375
29.25,1709208267.609375
30.84,1709208267.625
32.86,1709208267.640625
35.05,1709208267.65625
37.05,1709208267.671875
38.52,1709208267.6875
39.17,1709208267.703125
38.89,1709208267.71875
37.65,1709208267.734375
35.5,1709208267.75
32.52,1709208267.765625
28.91,1709208267.78125
24.89,1709208267.796875
20.76,1709208267.8125
16.81,1709208267.828125
13.23,1709208267.84375
10.1,1709208267.859375
7.35,1709208267.875
4.85,1709208267.890625
2.45,1709208267.90625
0.08,1709208267.921875
-2.24,1709208267.9375
-4.4,1709208267.953125
-6.31,1709208267.96875
-7.98,1709208267.984375
-9.56,1709208268.0
-11.32,1709208268.015625
-13.55,1709208268.03125
-16.46,1709208268.046875
-20.05,1709208268.0625
-24.04,1709208268.078125
-28.01,1709208268.09375
-31.54,1709208268.109375
-34.38,1709208268.125
-36.65,1709208268.140625
-38.76,1709208268.15625
-41.31,1709208268.171875
-44.88,1709208268.1875
-49.76,1709208268.203125
-55.77,1709208268.21875
-62.16,1709208268.234375
-67.72,1709208268.25
-70.98,1709208268.265625
-70.59,1709208268.28125
-65.74,1709208268.296875
-56.35,1709208268.3125
-43.22,1709208268.328125
-27.73,1709208268.34375
-11.54,1709208268.359375
3.85,1709208268.375
17.32,1709208268.390625
28.19,1709208268.40625
36.22,1709208268.421875
41.46,1709208268.4375
44.23,1709208268.453125
45.05,1709208268.46875
44.53,1709208268.484375
43.34,1709208268.5
42.05,1709208268.515625
41.07,1709208268.53125
40.67,1709208268.546875
41.0,1709208268.5625
42.11,1709208268.578125
43.94,1709208268.59375
46.32,1709208268.609375
48.96,1709208268.625
51.65,1709208268.640625
54.47,1709208268.65625
57.81,1709208268.671875
62.31,1709208268.6875
68.39,1709208268.703125
75.85,1709208268.71875
83.66,1709208268.734375
90.21,1709208268.75
93.87,1709208268.765625
93.63,1709208268.78125
89.52,1709208268.796875
82.51,1709208268.8125
73.98,1709208268.828125
65.25,1709208268.84375
57.06,1709208268.859375
49.54,1709208268.875
42.41,1709208268.890625
35.29,1709208268.90625
27.93,1709208268.921875
20.31,1709208268.9375
12.59,1709208268.953125
5.03,1709208268.96875
-2.06,1709208268.984375
-8.25,1709208269.0
-12.89,1709208269.015625
-15.19,1709208269.03125
-14.44,1709208269.046875
-10.5,1709208269.0625
-4.19,1709208269.078125
2.57,1709208269.09375
7.3,1709208269.109375
7.77,1709208269.125
2.87,1709208269.140625
-7.0,1709208269.15625
-20.3,1709208269.171875
-35.17,1709208269.1875
-50.3,1709208269.203125
-65.18,1709208269.21875
-79.79,1709208269.234375
-93.82,1709208269.25
-106.19,1709208269.265625
-115.07,1709208269.28125
-118.52,1709208269.296875
-115.43,1709208269.3125
-106.07,1709208269.328125
-92.03,1709208269.34375
-75.64,1709208269.359375
-59.22,1709208269.375
-44.34,1709208269.390625
-31.65,1709208269.40625
-21.06,1709208269.421875
-12.26,1709208269.4375
-5.04,1709208269.453125
0.53,1709208269.46875
4.27,1709208269.484375
6.07,1709208269.5
6.17,1709208269.515625
5.21,1709208269.53125
3.99,1709208269.546875
3.27,1709208269.5625
3.48,1709208269.578125
4.69,1709208269.59375
6.62,1709208269.609375
8.94,1709208269.625
11.39,1709208269.640625
13.96,1709208269.65625
16.82,1709208269.671875
20.12,1709208269.6875
23.81,1709208269.703125
27.54,1709208269.71875
30.76,1709208269.734375
32.92,1709208269.75
33.72,1709208269.765625
33.24,1709208269.78125
31.83,1709208269.796875
29.96,1709208269.8125
27.99,1709208269.828125
26.03,1709208269.84375
24.03,1709208269.859375
21.89,1709208269.875
19.57,1709208269.890625
17.15,1709208269.90625
14.71,1709208269.921875
12.33,1709208269.9375
10.0,1709208269.953125
7.7,1709208269.96875
5.42,1709208269.984375
3.22,1709208270.0
1.21,1709208270.015625
-0.53,1709208270.03125
-1.97,1709208270.046875
-3.17,1709208270.0625
-4.28,1709208270.078125
-5.44,1709208270.09375
-6.83,1709208270.109375
-8.6,1709208270.125
-10.84,1709208270.140625
-13.57,1709208270.15625
-16.67,1709208270.171875
-19.96,1709208270.1875
-23.17,1709208270.203125
-26.03,1709208270.21875
-28.43,1709208270.234375
-30.5,1709208270.25
-32.58,1709208270.265625
-35.2,1709208270.28125
-38.87,1709208270.296875
-43.85,1709208270.3125
-49.9,1709208270.328125
-56.19,1709208270.34375
-61.36,1709208270.359375
-63.83,1709208270.375
-62.28,1709208270.390625
-56.14,1709208270.40625
-45.78,1709208270.421875
-32.51,1709208270.4375
-18.12,1709208270.453125
-4.36,1709208270.46875
7.54,1709208270.484375
17.06,1709208270.5
24.23,1709208270.515625
29.39,1709208270.53125
32.8,1709208270.546875
34.62,1709208270.5625
34.96,1709208270.578125
34.05,1709208270.59375
32.39,1709208270.609375
30.64,1709208270.625
29.39,1709208270.640625
28.95,1709208270.65625
29.21,1709208270.671875
29.75,1709208270.6875
30.13,1709208270.703125
30.14,1709208270.71875
29.98,1709208270.734375
30.16,1709208270.75
31.31,1709208270.765625
33.87,1709208270.78125
37.83,1709208270.796875
42.78,1709208270.8125
48.01,1709208270.828125
52.77,1709208270.84375
56.54,1709208270.859375
59.12,1709208270.875
60.59,1709208270.890625
61.24,1709208270.90625
61.48,1709208270.921875
61.93,1709208270.9375
63.32,1709208270.953125
66.3,1709208270.96875
70.92,1709208270.984375
76.27,1709208271.0
80.43,1709208271.015625
80.95,1709208271.03125
75.83,1709208271.046875
64.45,1709208271.0625
47.98,1709208271.078125
28.96,1709208271.09375
10.27,1709208271.109375
-5.95,1709208271.125
-18.91,1709208271.140625
-28.96,1709208271.15625
-37.01,1709208271.171875
-43.72,1709208271.1875
-49.26,1709208271.203125
-53.44,1709208271.21875
-56.18,1709208271.234375
-57.81,1709208271.25
-59.05,1709208271.265625
-60.77,1709208271.28125
-63.44,1709208271.296875
-66.98,1709208271.3125
-70.73,1709208271.328125
-73.82,1709208271.34375
-75.57,1709208271.359375
-75.85,1709208271.375
-75.07,1709208271.390625
-74.01,1709208271.40625
-73.52,1709208271.421875
-74.22,1709208271.4375
-76.36,1709208271.453125
-79.78,1709208271.46875
-83.86,1709208271.484375
-87.61,1709208271.5
-89.72,1709208271.515625
-88.79,1709208271.53125
-83.74,1709208271.546875
-74.16,1709208271.5625
-60.54,1709208271.578125
-44.21,1709208271.59375
-26.96,1709208271.609375
-10.49,1709208271.625
3.88,1709208271.640625
15.5,1709208271.65625
24.16,1709208271.671875
30.03,1709208271.6875
33.4,1709208271.703125
34.71,1709208271.71875
34.44,1709208271.734375
33.16,1709208271.75
31.41,1709208271.765625
29.6,1709208271.78125
27.96,1709208271.796875
26.53,1709208271.8125
25.27,1709208271.828125
24.09,1709208271.84375
22.99,1709208271.859375
22.05,1709208271.875
21.46,1709208271.890625
21.44,1709208271.90625
22.18,1709208271.921875
23.75,1709208271.9375
26.02,1709208271.953125
28.62,1709208271.96875
31.11,1709208271.984375
32.98,1709208272.0
33.96,1709208272.015625
34.0,1709208272.03125
33.27,1709208272.046875
32.0,1709208272.0625
30.41,1709208272.078125
28.59,1709208272.09375
26.6,1709208272.109375
24.48,1709208272.125
22.26,1709208272.140625
19.94,1709208272.15625
17.47,1709208272.171875
14.78,1709208272.1875
11.86,1709208272.203125
8.83,1709208272.21875
5.92,1709208272.234375
3.41,1709208272.25
1.41,1709208272.265625
-0.16,1709208272.28125
-1.55,1709208272.296875
-3.03,1709208272.3125
-4.69,1709208272.328125
-6.44,1709208272.34375
-8.04,1709208272.359375
-9.34,1709208272.375
-10.36,1709208272.390625
-11.39,1709208272.40625
-12.74,1709208272.421875
-14.7,1709208272.4375
-17.31,1709208272.453125
-20.42,1709208272.46875
-23.67,1709208272.484375
-26.73,1709208272.5
-29.37,1709208272.515625
-31.55,1709208272.53125
-33.44,1709208272.546875
-35.41,1709208272.5625
-37.88,1709208272.578125
-41.28,1709208272.59375
-45.83,1709208272.609375
-51.36,1709208272.625
-57.15,1709208272.640625
-62.01,1709208272.65625
-64.47,1709208272.671875
-63.3,1709208272.6875
-57.82,1709208272.703125
-48.23,1709208272.71875
-35.46,1709208272.734375
-20.92,1709208272.75
-6.07,1709208272.765625
7.87,1709208272.78125
20.06,1709208272.796875
30.03,1709208272.8125
37.56,1709208272.828125
42.66,1709208272.84375
45.49,1709208272.859375
46.34,1709208272.875
45.58,1709208272.890625
43.61,1709208272.90625
40.81,1709208272.921875
37.57,1709208272.9375
34.33,1709208272.953125
31.48,1709208272.96875
29.34,1709208272.984375
28.03,1709208273.0
27.48,1709208273.015625
27.49,1709208273.03125
27.84,1709208273.046875
28.44,1709208273.0625
29.26,1709208273.078125
30.25,1709208273.09375
31.26,1709208273.109375
31.99,1709208273.125
32.13,1709208273.140625
31.41,1709208273.15625
29.8,1709208273.171875
27.38,1709208273.1875
24.38,1709208273.203125
20.96,1709208273.21875
17.21,1709208273.234375
13.2,1709208273.25
9.05,1709208273.265625
5.0,1709208273.28125
1.35,1709208273.296875
-1.63,1709208273.3125
-3.89,1709208273.328125
-5.6,1709208273.34375
-7.15,1709208273.359375
-8.88,1709208273.375
-11.03,1709208273.390625
-13.51,1709208273.40625
-16.05,1709208273.421875
-18.29,1709208273.4375
-20.02,1709208273.453125
-21.31,1709208273.46875
-22.45,1709208273.484375
-23.82,1709208273.5
-25.71,1709208273.515625
-28.15,1709208273.53125
-30.93,1709208273.546875
-33.73,1709208273.5625
-36.28,1709208273.578125
-38.44,1709208273.59375
-40.29,1709208273.609375
-42.04,1709208273.625
-43.98,1709208273.640625
-46.44,1709208273.65625
-49.76,1709208273.671875
-54.18,1709208273.6875
-59.59,1709208273.703125
-65.35,1709208273.71875
-70.23,1709208273.734375
-72.59,1709208273.75
-70.92,1709208273.765625
-64.37,1709208273.78125
-53.17,1709208273.796875
-38.6,1709208273.8125
-22.63,1709208273.828125
-7.24,1709208273.84375
6.08,1709208273.859375
16.56,1709208273.875
24.09,1709208273.890625
29.0,1709208273.90625
31.74,1709208273.921875
32.78,1709208273.9375
32.5,1709208273.953125
31.29,1709208273.96875
29.52,1709208273.984375
27.57,1709208274.0
25.71,1709208274.015625
24.1,1709208274.03125
22.73,1709208274.046875
21.56,1709208274.0625
20.56,1709208274.078125
19.83,1709208274.09375
19.6,1709208274.109375
20.14,1709208274.125
21.64,1709208274.140625
24.08,1709208274.15625
27.16,1709208274.171875
30.39,1709208274.1875
33.2,1709208274.203125
35.15,1709208274.21875
35.99,1709208274.234375
35.78,1709208274.25
34.72,1709208274.265625
33.12,1709208274.28125
31.19,1709208274.296875
29.02,1709208274.3125
26.59,1709208274.328125
23.85,1709208274.34375
20.8,1709208274.359375
17.6,1709208274.375
14.47,1709208274.390625
11.62,1709208274.40625
9.15,1709208274.421875
6.98,1709208274.4375
4.92,1709208274.453125
2.75,1709208274.46875
0.38,1709208274.484375
-2.16,1709208274.5
-4.69,1709208274.515625
-7.01,1709208274.53125
-9.02,1709208274.546875
-10.74,1709208274.5625
-12.35,1709208274.578125
-14.11,1709208274.59375
-16.23,1709208274.609375
-18.82,1709208274.625
-21.83,1709208274.640625
-25.13,1709208274.65625
-28.56,1709208274.671875
-32.0,1709208274.6875
-35.41,1709208274.703125
-38.8,1709208274.71875
-42.2,1709208274.734375
-45.7,1709208274.75
-49.47,1709208274.765625
-53.78,1709208274.78125
-58.85,1709208274.796875
-64.63,1709208274.8125
-70.51,1709208274.828125
-75.32,1709208274.84375
-77.52,1709208274.859375
-75.71,1709208274.875
-69.14,1709208274.890625
-58.07,1709208274.90625
-43.67,1709208274.921875
-27.67,1709208274.9375
-11.81,1709208274.953125
2.56,1709208274.96875
14.62,1709208274.984375
23.97,1709208275.0
30.48,1709208275.015625
34.2,1709208275.03125
35.4,1709208275.046875
34.59,1709208275.0625
32.54,1709208275.078125
30.03,1709208275.09375
27.7,1709208275.109375
25.81,1709208275.125
24.34,1709208275.140625
23.05,1709208275.15625
21.78,1709208275.171875
20.54,1709208275.1875
19.56,1709208275.203125
19.15,1709208275.21875
19.6,1709208275.234375
20.98,1709208275.25
23.22,1709208275.265625
26.05,1709208275.28125
29.1,1709208275.296875
31.96,1709208275.3125
34.23,1709208275.328125
35.61,1709208275.34375
35.99,1709208275.359375
35.47,1709208275.375
34.3,1709208275.390625
32.77,1709208275.40625
31.05,1709208275.421875
29.17,1709208275.4375
26.98,1709208275.453125
24.35,1709208275.46875
21.31,1709208275.484375
18.1,1709208275.5
15.06,1709208275.515625
12.44,1709208275.53125
10.27,1709208275.546875
8.31,1709208275.5625
6.23,1709208275.578125
3.78,1709208275.59375
0.98,1709208275.609375
-1.98,1709208275.625
-4.78,1709208275.640625
-7.24,1709208275.65625
-9.35,1709208275.671875
-11.26,1709208275.6875
-13.18,1709208275.703125
-15.35,1709208275.71875
-17.87,1709208275.734375
-20.8,1709208275.75
-24.08,1709208275.765625
-27.59,1709208275.78125
-31.12,1709208275.796875
-34.52,1709208275.8125
-37.66,1709208275.828125
-40.62,1709208275.84375
-43.7,1709208275.859375
-47.33,1709208275.875
-51.97,1709208275.890625
-57.84,1709208275.90625
-64.71,1709208275.921875
-71.77,1709208275.9375
-77.69,1709208275.953125
-80.9,1709208275.96875
-79.96,1709208275.984375
-74.06,1709208276.0
-63.28,1709208276.015625
-48.61,1709208276.03125
-31.73,1709208276.046875
-14.55,1709208276.0625
1.2,1709208276.078125
14.25,1709208276.09375
23.98,1709208276.109375
30.29,1709208276.125
33.59,1709208276.140625
34.49,1709208276.15625
33.73,1709208276.171875
31.96,1709208276.1875
29.68,1709208276.203125
27.26,1709208276.21875
24.94,1709208276.234375
22.94,1709208276.25
21.41,1709208276.265625
20.45,1709208276.28125
20.11,1709208276.296875
20.35,1709208276.3125
21.15,1709208276.328125
22.52,1709208276.34375
24.56,1709208276.359375
27.31,1709208276.375
30.68,1709208276.390625
34.28,1709208276.40625
37.53,1709208276.421875
39.78,1709208276.4375
40.56,1709208276.453125
39.73,1709208276.46875
37.58,1709208276.484375
34.63,1709208276.5
31.47,1709208276.515625
28.54,1709208276.53125
25.94,1709208276.546875
23.54,1709208276.5625
21.01,1709208276.578125
18.07,1709208276.59375
14.64,1709208276.609375
10.91,1709208276.625
7.24,1709208276.640625
4.02,1709208276.65625
1.48,1709208276.671875
-0.39,1709208276.6875
-1.8,1709208276.703125
-3.1,1709208276.71875
-4.6,1709208276.734375
-6.48,1709208276.75
-8.78,1709208276.765625
-11.37,1709208276.78125
-14.08,1709208276.796875
-16.68,1709208276.8125
-19.06,1709208276.828125
-21.21,1709208276.84375
-23.32,1709208276.859375
-25.78,1709208276.875
-29.07,1709208276.890625
-33.6,1709208276.90625
-39.45,1709208276.921875
-46.21,1709208276.9375
-52.88,1709208276.953125
-58.02,1709208276.96875
-60.09,1709208276.984375
-57.91,1709208277.0
-51.05,1709208277.015625
-40.0,1709208277.03125
-26.12,1709208277.046875
-11.21,1709208277.0625
2.98,1709208277.078125
15.13,1709208277.09375
24.58,1709208277.109375
31.28,1709208277.125
35.48,1709208277.140625
37.58,1709208277.15625
37.9,1709208277.171875
36.75,1709208277.1875
34.44,1709208277.203125
31.45,1709208277.21875
28.28,1709208277.234375
25.43,1709208277.25
23.24,1709208277.265625
21.8,1709208277.28125
21.08,1709208277.296875
21.0,1709208277.3125
21.6,1709208277.328125
22.97,1709208277.34375
25.21,1709208277.359375
28.22,1709208277.375
31.68,1709208277.390625
35.05,1709208277.40625
37.77,1709208277.421875
39.38,1709208277.4375
39.68,1709208277.453125
38.76,1709208277.46875
36.89,1709208277.484375
34.43,1709208277.5
31.7,1709208277.515625
28.89,1709208277.53125
26.04,1709208277.546875
23.12,1709208277.5625
20.02,1709208277.578125
16.65,1709208277.59375
12.98,1709208277.609375
9.06,1709208277.625
5.06,1709208277.640625
1.24,1709208277.65625
-2.16,1709208277.671875
-4.95,1709208277.6875
-7.17,1709208277.703125
-9.04,1709208277.71875
-10.97,1709208277.734375
-13.32,1709208277.75
-16.34,1709208277.765625
-19.97,1709208277.78125
-23.97,1709208277.796875
-27.95,1709208277.8125
-31.61,1709208277.828125
-34.83,1709208277.84375
-37.76,1709208277.859375
-40.76,1709208277.875
-44.38,1709208277.890625
-49.14,1709208277.90625
-55.32,1709208277.921875
-62.69,1709208277.9375
-70.36,1709208277.953125
-76.82,1709208277.96875
-80.27,1709208277.984375
-79.19,1709208278.0
-72.87,1709208278.015625
-61.67,1709208278.03125
-46.96,1709208278.046875
-30.7,1709208278.0625
-14.86,1709208278.078125
-0.94,1709208278.09375
10.28,1709208278.109375
18.64,1709208278.125
24.48,1709208278.140625
28.33,1709208278.15625
30.77,1709208278.171875
32.29,1709208278.1875
33.26,1709208278.203125
33.89,1709208278.21875
34.24,1709208278.234375
34.27,1709208278.25
33.96,1709208278.265625
33.38,1709208278.28125
32.66,1709208278.296875
32.07,1709208278.3125
31.87,1709208278.328125
32.3,1709208278.34375
33.46,1709208278.359375
35.34,1709208278.375
37.82,1709208278.390625
40.65,1709208278.40625
43.47,1709208278.421875
45.89,1709208278.4375
47.47,1709208278.453125
47.9,1709208278.46875
47.08,1709208278.484375
45.17,1709208278.5
42.57,1709208278.515625
39.78,1709208278.53125
37.21,1709208278.546875
35.0,1709208278.5625
33.05,1709208278.578125
31.1,1709208278.59375
28.87,1709208278.609375
26.27,1709208278.625
23.4,1709208278.640625
20.49,1709208278.65625
17.81,1709208278.671875
15.56,1709208278.6875
13.78,1709208278.703125
12.38,1709208278.71875
11.19,1709208278.734375
9.97,1709208278.75
8.5,1709208278.765625
6.65,1709208278.78125
4.41,1709208278.796875
1.92,1709208278.8125
-0.62,1709208278.828125
-3.04,1709208278.84375
-5.32,1709208278.859375
-7.56,1709208278.875
-9.98,1709208278.890625
-12.77,1709208278.90625
-16.05,1709208278.921875
-19.77,1709208278.9375
-23.75,1709208278.953125
-27.8,1709208278.96875
-31.76,1709208278.984375
-35.58,1709208279.0
-39.32,1709208279.015625
-43.16,1709208279.03125
-47.4,1709208279.046875
-52.34,1709208279.0625
-58.14,1709208279.078125
-64.58,1709208279.09375
-70.9,1709208279.109375
-75.78,1709208279.125
-77.61,1709208279.140625
-74.99,1709208279.15625
-67.28,1709208279.171875
-54.86,1709208279.1875
-39.16,1709208279.203125
-22.22,1709208279.21875
-6.12,1709208279.234375
7.58,1709208279.25
18.1,1709208279.265625
25.41,1709208279.28125
29.99,1709208279.296875
32.48,1709208279.3125
33.51,1709208279.328125
33.61,1709208279.34375
33.16,1709208279.359375
32.54,1709208279.375
31.96,1709208279.390625
31.61,1709208279.40625
31.5,1709208279.421875
31.58,1709208279.4375
31.7,1709208279.453125
31.75,1709208279.46875
31.71,1709208279.484375
31.69,1709208279.5
31.9,1709208279.515625
32.55,1709208279.53125
33.72,1709208279.546875
35.35,1709208279.5625
37.17,1709208279.578125
38.81,1709208279.59375
39.93,1709208279.609375
40.32,1709208279.625
39.96,1709208279.640625
38.98,1709208279.65625
37.55,1709208279.671875
35.8,1709208279.6875
33.78,1709208279.703125
31.46,1709208279.71875
28.78,1709208279.734375
25.76,1709208279.75
22.48,1709208279.765625
19.1,1709208279.78125
15.87,1709208279.796875
13.06,1709208279.8125
10.82,1709208279.828125
9.23,1709208279.84375
8.18,1709208279.859375
7.46,1709208279.875
6.85,1709208279.890625
6.17,1709208279.90625
5.33,1709208279.921875
4.3,1709208279.9375
3.01,1709208279.953125
1.36,1709208279.96875
-0.79,1709208279.984375
-3.42,1709208280.0
-6.35,1709208280.015625
-9.17,1709208280.03125
-11.48,1709208280.046875
-13.05,1709208280.0625
-14.06,1709208280.078125
-14.99,1709208280.09375
-16.44,1709208280.109375
-18.77,1709208280.125
-21.93,1709208280.140625
-25.45,1709208280.15625
-28.69,1709208280.171875
-31.22,1709208280.1875
-32.96,1709208280.203125
-34.3,1709208280.21875
-35.83,1709208280.234375
-38.17,1709208280.25
-41.72,1709208280.265625
-46.53,1709208280.28125
-52.18,1709208280.296875
-57.81,1709208280.3125
-62.17,1709208280.328125
-63.9,1709208280.34375
-61.86,1709208280.359375
-55.53,1709208280.375
-45.19,1709208280.390625
-32.01,1709208280.40625
-17.65,1709208280.421875
-3.87,1709208280.4375
7.95,1709208280.453125
17.06,1709208280.46875
23.38,1709208280.484375
27.31,1709208280.5
29.46,1709208280.515625
30.41,1709208280.53125
30.54,1709208280.546875
30.08,1709208280.5625
29.15,1709208280.578125
27.88,1709208280.59375
26.45,1709208280.609375
25.05,1709208280.625
23.89,1709208280.640625
23.13,1709208280.65625
22.86,1709208280.671875
23.16,1709208280.6875
24.11,1709208280.703125
25.74,1709208280.71875
27.99,1709208280.734375
30.63,1709208280.75
33.25,1709208280.765625
35.4,1709208280.78125
36.7,1709208280.796875
36.99,1709208280.8125
36.33,1709208280.828125
34.99,1709208280.84375
33.29,1709208280.859375
31.5,1709208280.875
29.75,1709208280.890625
28.04,1709208280.90625
26.27,1709208280.921875
24.3,1709208280.9375
22.03,1709208280.953125
19.42,1709208280.96875
16.56,1709208280.984375
13.62,1709208281.0
10.85,1709208281.015625
8.48,1709208281.03125
6.65,1709208281.046875
5.28,1709208281.0625
4.15,1709208281.078125
2.94,1709208281.09375
1.45,1709208281.109375
-0.37,1709208281.125
-2.3,1709208281.140625
-3.97,1709208281.15625
-5.07,1709208281.171875
-5.51,1709208281.1875
-5.58,1709208281.203125
-5.8,1709208281.21875
-6.74,1709208281.234375
-8.71,1709208281.25
-11.54,1709208281.265625
-14.68,1709208281.28125
-17.4,1709208281.296875
-19.2,1709208281.3125
-19.99,1709208281.328125
-20.14,1709208281.34375
-20.19,1709208281.359375
-20.57,1709208281.375
-21.44,1709208281.390625
-22.81,1709208281.40625
-24.51,1709208281.421875
-26.22,1709208281.4375
-27.21,1709208281.453125
-26.22,1709208281.46875
-21.7,1709208281.484375
-12.5,1709208281.5
1.35,1709208281.515625
18.27,1709208281.53125
35.41,1709208281.546875
49.64,1709208281.5625
58.7,1709208281.578125
61.9,1709208281.59375
60.01,1709208281.609375
54.64,1709208281.625
47.32,1709208281.640625
39.08,1709208281.65625
30.4,1709208281.671875
21.58,1709208281.6875
13.06,1709208281.703125
5.44,1709208281.71875
-0.75,1709208281.734375
-5.28,1709208281.75
-8.37,1709208281.765625
-10.47,1709208281.78125
-12.1,1709208281.796875
-13.57,1709208281.8125
-14.8,1709208281.828125
-15.46,1709208281.84375
-15.12,1709208281.859375
-13.5,1709208281.875
-10.63,1709208281.890625
-6.9,1709208281.90625
-2.96,1709208281.921875
0.54,1709208281.9375
3.14,1709208281.953125
4.68,1709208281.96875
5.28,1709208281.984375
5.26,1709208282.0
4.95,1709208282.015625
4.61,1709208282.03125
4.35,1709208282.046875
4.16,1709208282.0625
3.91,1709208282.078125
3.43,1709208282.09375
2.59,1709208282.109375
1.4,1709208282.125
0.03,1709208282.140625
-1.28,1709208282.15625
-2.25,1709208282.171875
-2.76,1709208282.1875
-2.86,1709208282.203125
-2.78,1709208282.21875
-2.78,1709208282.234375
-3.06,1709208282.25
-3.6,1709208282.265625
-4.27,1709208282.28125
-4.89,1709208282.296875
-5.34,1709208282.3125
-5.69,1709208282.328125
-6.12,1709208282.34375
-6.87,1709208282.359375
-8.1,1709208282.375
-9.76,1709208282.390625
-11.65,1709208282.40625
-13.47,1709208282.421875
-15.04,1709208282.4375
-16.38,1709208282.453125
-17.72,1709208282.46875
-19.37,1709208282.484375
-21.55,1709208282.5
-24.21,1709208282.515625
-27.05,1709208282.53125
-29.68,1709208282.546875
-31.83,1709208282.5625
-33.46,1709208282.578125
-34.8,1709208282.59375
-36.24,1709208282.609375
-38.15,1709208282.625
-40.84,1709208282.640625
-44.42,1709208282.65625
-48.74,1709208282.671875
-53.33,1709208282.6875
-57.3,1709208282.703125
-59.56,1709208282.71875
-59.0,1709208282.734375
-54.92,1709208282.75
-47.32,1709208282.765625
-36.94,1709208282.78125
-25.05,1709208282.796875
-13.07,1709208282.8125
-2.2,1709208282.828125
6.78,1709208282.84375
13.53,1709208282.859375
18.03,1709208282.875
20.47,1709208282.890625
21.23,1709208282.90625
20.82,1709208282.921875
19.81,1709208282.9375
18.73,1709208282.953125
17.88,1709208282.96875
17.37,1709208282.984375
17.09,1709208283.0
16.93,1709208283.015625
16.77,1709208283.03125
16.64,1709208283.046875
16.63,1709208283.0625
16.82,1709208283.078125
17.3,1709208283.09375
18.08,1709208283.109375
19.2,1709208283.125
20.65,1709208283.140625
22.35,1709208283.15625
24.08,1709208283.171875
25.52,1709208283.1875
26.36,1709208283.203125
26.38,1709208283.21875
25.6,1709208283.234375
24.24,1709208283.25
22.6,1709208283.265625
20.92,1709208283.28125
19.25,1709208283.296875
17.51,1709208283.3125
15.59,1709208283.328125
13.48,1709208283.34375
11.35,1709208283.359375
9.41,1709208283.375
7.82,1709208283.390625
6.58,1709208283.40625
5.55,1709208283.421875
4.54,1709208283.4375
3.42,1709208283.453125
2.22,1709208283.46875
1.06,1709208283.484375
0.07,1709208283.5
-0.72,1709208283.515625
-1.4,1709208283.53125
-2.1,1709208283.546875
-2.91,1709208283.5625
-3.81,1709208283.578125
-4.69,1709208283.59375
-5.43,1709208283.609375
-5.99,1709208283.625
-6.42,1709208283.640625
-6.87,1709208283.65625
-7.52,1709208283.671875
-8.49,1709208283.6875
-9.91,1709208283.703125
-11.85,1709208283.71875
-14.33,1709208283.734375
-17.29,1709208283.75
-20.57,1709208283.765625
-23.88,1709208283.78125
-26.92,1709208283.796875
-29.5,1709208283.8125
-31.67,1709208283.828125
-33.71,1709208283.84375
-36.08,1709208283.859375
-39.19,1709208283.875
-43.22,1709208283.890625
-47.94,1709208283.90625
-52.64,1709208283.921875
-56.28,1709208283.9375
-57.69,1709208283.953125
-55.87,1709208283.96875
-50.37,1709208283.984375
-41.4,1709208284.0
-29.95,1709208284.015625
-17.43,1709208284.03125
-5.4,1709208284.046875
4.91,1709208284.0625
12.79,1709208284.078125
18.08,1709208284.09375
21.02,1709208284.109375
22.07,1709208284.125
21.7,1709208284.140625
20.38,1709208284.15625
18.53,1709208284.171875
16.51,1709208284.1875
14.64,1709208284.203125
13.12,1709208284.21875
11.98,1709208284.234375
11.16,1709208284.25
10.52,1709208284.265625
10.01,1709208284.28125
9.69,1709208284.296875
9.74,1709208284.3125
10.34,1709208284.328125
11.61,1709208284.34375
13.43,1709208284.359375
15.54,1709208284.375
17.56,1709208284.390625
19.2,1709208284.40625
20.29,1709208284.421875
20.81,1709208284.4375
20.84,1709208284.453125
20.44,1709208284.46875
19.69,1709208284.484375
18.58,1709208284.5
17.15,1709208284.515625
15.46,1709208284.53125
13.56,1709208284.546875
11.48,1709208284.5625
9.3,1709208284.578125
7.09,1709208284.59375
4.98,1709208284.609375
3.15,1709208284.625
1.72,1709208284.640625
0.71,1709208284.65625
-0.02,1709208284.671875
-0.68,1709208284.6875
-1.54,1709208284.703125
-2.73,1709208284.71875
-4.24,1709208284.734375
-5.94,1709208284.75
-7.6,1709208284.765625
-9.06,1709208284.78125
-10.25,1709208284.796875
-11.24,1709208284.8125
-12.27,1709208284.828125
-13.57,1709208284.84375
-15.33,1709208284.859375
-17.63,1709208284.875
-20.35,1709208284.890625
-23.27,1709208284.90625
-26.13,1709208284.921875
-28.74,1709208284.9375
-31.02,1709208284.953125
-33.04,1709208284.96875
-35.02,1709208284.984375
-37.26,1709208285.0
-40.08,1709208285.015625
-43.63,1709208285.03125
-47.69,1709208285.046875
-51.64,1709208285.0625
-54.43,1709208285.078125
-54.88,1709208285.09375
-52.05,1709208285.109375
-45.58,1709208285.125
-35.87,1709208285.140625
-24.01,1709208285.15625
-11.43,1709208285.171875
0.46,1709208285.1875
10.58,1709208285.203125
18.35,1709208285.21875
23.63,1709208285.234375
26.64,1709208285.25
27.79,1709208285.265625
27.57,1709208285.28125
26.49,1709208285.296875
24.93,1709208285.3125
23.17,1709208285.328125
21.34,1709208285.34375
19.5,1709208285.359375
17.72,1709208285.375
16.07,1709208285.390625
14.71,1709208285.40625
13.82,1709208285.421875
13.54,1709208285.4375
13.98,1709208285.453125
15.15,1709208285.46875
16.98,1709208285.484375
19.3,1709208285.5
21.84,1709208285.515625
24.26,1709208285.53125
26.25,1709208285.546875
27.61,1709208285.5625
28.32,1709208285.578125
28.46,1709208285.59375
28.16,1709208285.609375
27.53,1709208285.625
26.62,1709208285.640625
25.49,1709208285.65625
24.23,1709208285.671875
22.99,1709208285.6875
21.85,1709208285.703125
20.89,1709208285.71875
20.19,1709208285.734375
19.97,1709208285.75
20.59,1709208285.765625
22.43,1709208285.78125
25.75,1709208285.796875
30.42,1709208285.8125
35.91,1709208285.828125
41.53,1709208285.84375
46.72,1709208285.859375
51.25,1709208285.875
55.15,1709208285.890625
58.32,1709208285.90625
60.36,1709208285.921875
60.46,1709208285.9375
57.81,1709208285.953125
52.02,1709208285.96875
43.43,1709208285.984375
32.98,1709208286.0
21.9,1709208286.015625
11.15,1709208286.03125
1.12,1709208286.046875
-8.38,1709208286.0625
-17.96,1709208286.078125
-28.32,1709208286.09375
-40.01,1709208286.109375
-53.24,1709208286.125
-67.85,1709208286.140625
-83.32,1709208286.15625
-98.83,1709208286.171875
-113.31,1709208286.1875
-125.47,1709208286.203125
-133.99,1709208286.21875
-137.64,1709208286.234375
-135.58,1709208286.25
-127.62,1709208286.265625
-114.41,1709208286.28125
-97.44,1709208286.296875
-78.74,1709208286.3125
-60.52,1709208286.328125
-44.53,1709208286.34375
-31.78,1709208286.359375
-22.4,1709208286.375
-15.84,1709208286.390625
-11.25,1709208286.40625
-7.81,1709208286.421875
-4.99,1709208286.4375
-2.55,1709208286.453125
-0.51,1709208286.46875
1.08,1709208286.484375
2.23,1709208286.5
3.06,1709208286.515625
3.75,1709208286.53125
4.55,1709208286.546875
5.66,1709208286.5625
7.24,1709208286.578125
9.4,1709208286.59375
12.14,1709208286.609375
15.33,1709208286.625
18.75,1709208286.640625
22.16,1709208286.65625
25.32,1709208286.671875
28.05,1709208286.6875
30.21,1709208286.703125
31.65,1709208286.71875
32.21,1709208286.734375
31.79,1709208286.75
30.43,1709208286.765625
28.41,1709208286.78125
26.18,1709208286.796875
24.13,1709208286.8125
22.5,1709208286.828125
21.17,1709208286.84375
19.86,1709208286.859375
18.24,1709208286.875
16.15,1709208286.890625
13.68,1709208286.90625
11.03,1709208286.921875
8.48,1709208286.9375
6.18,1709208286.953125
4.19,1709208286.96875
2.5,1709208286.984375
1.1,1709208287.0
-0.05,1709208287.015625
-1.03,1709208287.03125
-2.01,1709208287.046875
-3.21,1709208287.0625
-4.76,1709208287.078125
-6.65,1709208287.09375
-8.74,1709208287.109375
-10.82,1709208287.125
-12.78,1709208287.140625
-14.67,1709208287.15625
-16.66,1709208287.171875
-18.95,1709208287.1875
-21.62,1709208287.203125
-24.58,1709208287.21875
-27.62,1709208287.234375
-30.55,1709208287.25
-33.27,1709208287.265625
-35.91,1709208287.28125
-38.73,1709208287.296875
-42.08,1709208287.3125
-46.32,1709208287.328125
-51.63,1709208287.34375
-57.84,1709208287.359375
-64.32,1709208287.375
-69.89,1709208287.390625
-73.12,1709208287.40625
-72.61,1709208287.421875
-67.52,1709208287.4375
-57.88,1709208287.453125
-44.67,1709208287.46875
-29.55,1709208287.484375
-14.37,1709208287.5
-0.69,1709208287.515625
10.53,1709208287.53125
18.95,1709208287.546875
24.75,1709208287.5625
28.28,1709208287.578125
30.0,1709208287.59375
30.25,1709208287.609375
29.41,1709208287.625
27.85,1709208287.640625
25.95,1709208287.65625
24.06,1709208287.671875
22.42,1709208287.6875
21.12,1709208287.703125
20.13,1709208287.71875
19.44,1709208287.734375
19.1,1709208287.75
19.28,1709208287.765625
20.22,1709208287.78125
22.07,1709208287.796875
24.79,1709208287.8125
28.08,1709208287.828125
31.46,1709208287.84375
34.41,1709208287.859375
36.49,1709208287.875
37.5,1709208287.890625
37.44,1709208287.90625
36.48,1709208287.921875
34.87,1709208287.9375
32.88,1709208287.953125
30.72,1709208287.96875
28.52,1709208287.984375
26.31,1709208288.0
24.07,1709208288.015625
21.73,1709208288.03125
19.24,1709208288.046875
16.59,1709208288.0625
13.79,1709208288.078125
10.91,1709208288.09375
8.03,1709208288.109375
5.15,1709208288.125
2.34,1709208288.140625
-0.39,1709208288.15625
-2.99,1709208288.171875
-5.38,1709208288.1875
-7.51,1709208288.203125
-9.41,1709208288.21875
-11.23,1709208288.234375
-13.15,1709208288.25
-15.43,1709208288.265625
-18.22,1709208288.28125
-21.54,1709208288.296875
-25.24,1709208288.3125
-29.08,1709208288.328125
-32.81,1709208288.34375
-36.3,1709208288.359375
-39.61,1709208288.375
-43.03,1709208288.390625
-46.98,1709208288.40625
-51.9,1709208288.421875
-57.98,1709208288.4375
-64.96,1709208288.453125
-71.97,1709208288.46875
-77.6,1709208288.484375
-80.21,1709208288.5
-78.41,1709208288.515625
-71.53,1709208288.53125
-59.95,1709208288.546875
-45.04,1709208288.5625
-28.72,1709208288.578125
-12.99,1709208288.59375
0.66,1709208288.609375
11.43,1709208288.625
19.2,1709208288.640625
24.35,1709208288.65625
27.4,1709208288.671875
28.94,1709208288.6875
29.47,1709208288.703125
29.46,1709208288.71875
29.23,1709208288.734375
28.97,1709208288.75
28.74,1709208288.765625
28.45,1709208288.78125
28.02,1709208288.796875
27.5,1709208288.8125
27.09,1709208288.828125
27.09,1709208288.84375
27.8,1709208288.859375
29.36,1709208288.875
31.71,1709208288.890625
34.6,1709208288.90625
37.65,1709208288.921875
40.52,1709208288.9375
42.89,1709208288.953125
44.55,1709208288.96875
45.34,1709208288.984375
45.22,1709208289.0
44.24,1709208289.015625
42.6,1709208289.03125
40.59,1709208289.046875
38.49,1709208289.0625
36.48,1709208289.078125
34.6,1709208289.09375
32.72,1709208289.109375
30.68,1709208289.125
28.39,1709208289.140625
25.83,1709208289.15625
23.17,1709208289.171875
20.6,1709208289.1875
18.32,1709208289.203125
16.44,1709208289.21875
14.97,1709208289.234375
13.82,1709208289.25
12.79,1709208289.265625
11.67,1709208289.28125
10.23,1709208289.296875
8.4,1709208289.3125
6.14,1709208289.328125
3.6,1709208289.34375
0.95,1709208289.359375
-1.61,1709208289.375
-3.95,1709208289.390625
-6.11,1709208289.40625
-8.28,1709208289.421875
-10.74,1709208289.4375
-13.77,1709208289.453125
-17.53,1709208289.46875
-21.98,1709208289.484375
-26.88,1709208289.5
-31.88,1709208289.515625
-36.66,1709208289.53125
-40.98,1709208289.546875
-44.84,1709208289.5625
-48.45,1709208289.578125
-52.22,1709208289.59375
-56.68,1709208289.609375
-62.24,1709208289.625
-68.94,1709208289.640625
-76.17,1709208289.65625
-82.58,1709208289.671875
-86.34,1709208289.6875
-85.66,1709208289.703125
-79.38,1709208289.71875
-67.5,1709208289.734375
-51.22,1709208289.75
-32.61,1709208289.765625
-14.0,1709208289.78125
2.62,1709208289.796875
16.0,1709208289.8125
25.73,1709208289.828125
32.1,1709208289.84375
35.79,1709208289.859375
37.64,1709208289.875
38.4,1709208289.890625
38.63,1709208289.90625
38.67,1709208289.921875
38.68,1709208289.9375
38.69,1709208289.953125
38.69,1709208289.96875
38.68,1709208289.984375
38.71,1709208290.0
38.88,1709208290.015625
39.34,1709208290.03125
40.28,1709208290.046875
41.87,1709208290.0625
44.21,1709208290.078125
47.2,1709208290.09375
50.51,1709208290.109375
53.65,1709208290.125
56.09,1709208290.140625
57.56,1709208290.15625
58.17,1709208290.171875
58.5,1709208290.1875
59.33,1709208290.203125
61.39,1709208290.21875
64.94,1709208290.234375
69.66,1709208290.25
74.72,1709208290.265625
79.09,1709208290.28125
81.92,1709208290.296875
82.79,1709208290.3125
81.64,1709208290.328125
78.67,1709208290.34375
74.03,1709208290.359375
67.8,1709208290.375
60.01,1709208290.390625
50.84,1709208290.40625
40.74,1709208290.421875
30.38,1709208290.4375
20.44,1709208290.453125
11.34,1709208290.46875
3.15,1709208290.484375
-4.4,1709208290.5
-11.62,1709208290.515625
-18.62,1709208290.53125
-25.24,1709208290.546875
-31.11,1709208290.5625
-35.83,1709208290.578125
-39.22,1709208290.59375
-41.37,1709208290.609375
-42.66,1709208290.625
-43.56,1709208290.640625
-44.51,1709208290.65625
-45.78,1709208290.671875
-47.46,1709208290.6875
-49.45,1709208290.703125
-51.61,1709208290.71875
-53.75,1709208290.734375
-55.75,1709208290.75
-57.58,1709208290.765625
-59.28,1709208290.78125
-61.02,1709208290.796875
-63.01,1709208290.8125
-65.58,1709208290.828125
-69.07,1709208290.84375
-73.7,1709208290.859375
-79.37,1709208290.875
-85.43,1709208290.890625
-90.63,1709208290.90625
-93.3,1709208290.921875
-91.83,1709208290.9375
-85.22,1709208290.953125
-73.49,1709208290.96875
-57.81,1709208290.984375
-40.11,1709208291.0
-22.56,1709208291.015625
-6.91,1709208291.03125
5.81,1709208291.046875
15.34,1709208291.0625
21.97,1709208291.078125
26.25,1709208291.09375
28.76,1709208291.109375
30.01,1709208291.125
30.44,1709208291.140625
30.43,1709208291.15625
30.27,1709208291.171875
30.14,1709208291.1875
30.07,1709208291.203125
30.0,1709208291.21875
29.83,1709208291.234375
29.55,1709208291.25
29.29,1709208291.265625
29.31,1709208291.28125
29.93,1709208291.296875
31.37,1709208291.3125
33.64,1709208291.328125
36.53,1709208291.34375
39.59,1709208291.359375
42.32,1709208291.375
44.24,1709208291.390625
45.08,1709208291.40625
44.8,1709208291.421875
43.57,1709208291.4375
41.73,1709208291.453125
39.58,1709208291.46875
37.34,1709208291.484375
35.07,1709208291.5
32.69,1709208291.515625
30.09,1709208291.53125
27.21,1709208291.546875
24.15,1709208291.5625
21.1,1709208291.578125
18.35,1709208291.59375
16.05,1709208291.609375
14.23,1709208291.625
12.75,1709208291.640625
11.39,1709208291.65625
9.93,1709208291.671875
8.28,1709208291.6875
6.42,1709208291.703125
4.45,1709208291.71875
2.49,1709208291.734375
0.64,1709208291.75
-1.06,1709208291.765625
-2.7,1709208291.78125
-4.41,1709208291.796875
-6.36,1709208291.8125
-8.67,1709208291.828125
-11.34,1709208291.84375
-14.23,1709208291.859375
-17.16,1709208291.875
-19.94,1709208291.890625
-22.54,1709208291.90625
-25.05,1709208291.921875
-27.72,1709208291.9375
-30.81,1709208291.953125
-34.54,1709208291.96875
-39.01,1709208291.984375
-44.17,1709208292.0
-49.68,1709208292.015625
-54.89,1709208292.03125
-58.76,1709208292.046875
-60.08,1709208292.0625
-57.68,1709208292.078125
-50.9,1709208292.09375
-39.9,1709208292.109375
-25.75,1709208292.125
-10.23,1709208292.140625
4.73,1709208292.15625
17.55,1709208292.171875
27.45,1709208292.1875
34.44,1709208292.203125
39.08,1709208292.21875
42.11,1709208292.234375
44.11,1709208292.25
45.57,1709208292.265625
46.96,1709208292.28125
48.85,1709208292.296875
51.74,1709208292.3125
55.78,1709208292.328125
60.42,1709208292.34375
64.54,1709208292.359375
66.79,1709208292.375
66.22,1709208292.390625
62.78,1709208292.40625
57.28,1709208292.421875
50.98,1709208292.4375
44.98,1709208292.453125
39.76,1709208292.46875
35.17,1709208292.484375
30.79,1709208292.5
26.3,1709208292.515625
21.77,1709208292.53125
17.48,1709208292.546875
13.69,1709208292.5625
10.42,1709208292.578125
7.44,1709208292.59375
4.42,1709208292.609375
1.21,1709208292.625
-2.08,1709208292.640625
-5.13,1709208292.65625
-7.58,1709208292.671875
-9.28,1709208292.6875
-10.31,1709208292.703125
-11.0,1709208292.71875
-11.68,1709208292.734375
-12.6,1709208292.75
-13.78,1709208292.765625
-15.09,1709208292.78125
-16.32,1709208292.796875
-17.32,1709208292.8125
-18.03,1709208292.828125
-18.51,1709208292.84375
-18.89,1709208292.859375
-19.34,1709208292.875
-19.96,1709208292.890625
-20.83,1709208292.90625
-21.96,1709208292.921875
-23.29,1709208292.9375
-24.76,1709208292.953125
-26.29,1709208292.96875
-27.86,1709208292.984375
-29.51,1709208293.0
-31.35,1709208293.015625
-33.49,1709208293.03125
-35.97,1709208293.046875
-38.74,1709208293.0625
-41.58,1709208293.078125
-44.22,1709208293.09375
-46.46,1709208293.109375
-48.32,1709208293.125
-50.09,1709208293.140625
-52.32,1709208293.15625
-55.6,1709208293.171875
-60.29,1709208293.1875
-66.22,1709208293.203125
-72.53,1709208293.21875
-77.74,1709208293.234375
-80.18,1709208293.25
-78.42,1709208293.265625
-71.81,1709208293.28125
-60.64,1709208293.296875
-46.17,1709208293.3125
-30.19,1709208293.328125
-14.6,1709208293.34375
-0.96,1709208293.359375
9.76,1709208293.375
17.27,1709208293.390625
21.85,1709208293.40625
24.2,1709208293.421875
25.18,1709208293.4375
25.61,1709208293.453125
26.06,1709208293.46875
26.76,1709208293.484375
27.62,1709208293.5
28.38,1709208293.515625
28.8,1709208293.53125
28.83,1709208293.546875
28.62,1709208293.5625
28.45,1709208293.578125
28.61,1709208293.59375
29.3,1709208293.609375
30.61,1709208293.625
32.47,1709208293.640625
34.75,1709208293.65625
37.19,1709208293.671875
39.51,1709208293.6875
41.35,1709208293.703125
42.41,1709208293.71875
42.49,1709208293.734375
41.65,1709208293.75
40.12,1709208293.765625
38.26,1709208293.78125
36.41,1709208293.796875
34.7,1709208293.8125
33.06,1709208293.828125
31.27,1709208293.84375
29.14,1709208293.859375
26.59,1709208293.875
23.74,1709208293.890625
20.88,1709208293.90625
18.29,1709208293.921875
16.22,1709208293.9375
14.72,1709208293.953125
13.7,1709208293.96875
12.91,1709208293.984375
12.13,1709208294.0
11.17,1709208294.015625
9.97,1709208294.03125
8.57,1709208294.046875
7.1,1709208294.0625
5.67,1709208294.078125
4.33,1709208294.09375
3.06,1709208294.109375
1.75,1709208294.125
0.27,1709208294.140625
-1.42,1709208294.15625
-3.33,1709208294.171875
-5.34,1709208294.1875
-7.38,1709208294.203125
-9.37,1709208294.21875
-11.32,1709208294.234375
-13.28,1709208294.25
-15.34,1709208294.265625
-17.59,1709208294.28125
-20.06,1709208294.296875
-22.77,1709208294.3125
-25.65,1709208294.328125
-28.59,1709208294.34375
-31.46,1709208294.359375
-34.15,1709208294.375
-36.68,1709208294.390625
-39.18,1709208294.40625
-41.96,1709208294.421875
-45.41,1709208294.4375
-49.89,1709208294.453125
-55.47,1709208294.46875
-61.76,1709208294.484375
-67.76,1709208294.5
-72.01,1709208294.515625
-72.99,1709208294.53125
-69.52,1709208294.546875
-61.27,1709208294.5625
-48.94,1709208294.578125
-34.07,1709208294.59375
-18.64,1709208294.609375
-4.51,1709208294.625
7.02,1709208294.640625
15.41,1709208294.65625
20.78,1709208294.671875
23.69,1709208294.6875
24.86,1709208294.703125
24.98,1709208294.71875
24.59,1709208294.734375
24.06,1709208294.75
23.62,1709208294.765625
23.33,1709208294.78125
23.19,1709208294.796875
23.12,1709208294.8125
23.06,1709208294.828125
22.98,1709208294.84375
22.97,1709208294.859375
23.17,1709208294.875
23.77,1709208294.890625
24.92,1709208294.90625
26.62,1709208294.921875
28.73,1709208294.9375
30.95,1709208294.953125
32.92,1709208294.96875
34.35,1709208294.984375
35.07,1709208295.0
35.04,1709208295.015625
34.35,1709208295.03125
33.12,1709208295.046875
31.42,1709208295.0625
29.31,1709208295.078125
26.82,1709208295.09375
23.99,1709208295.109375
20.94,1709208295.125
17.84,1709208295.140625
14.84,1709208295.15625
12.1,1709208295.171875
9.7,1709208295.1875
7.68,1709208295.203125
6.05,1709208295.21875
4.77,1709208295.234375
3.81,1709208295.25
3.11,1709208295.265625
2.63,1709208295.28125
2.29,1709208295.296875
1.97,1709208295.3125
1.52,1709208295.328125
0.73,1709208295.34375
-0.57,1709208295.359375
-2.44,1709208295.375
-4.8,1709208295.390625
-7.46,1709208295.40625
-10.11,1709208295.421875
-12.49,1709208295.4375
-14.49,1709208295.453125
-16.19,1709208295.46875
-17.84,1709208295.484375
-19.77,1709208295.5
-22.23,1709208295.515625
-25.27,1709208295.53125
-28.71,1709208295.546875
-32.16,1709208295.5625
-35.2,1709208295.578125
-37.56,1709208295.59375
-39.26,1709208295.609375
-40.61,1709208295.625
-42.19,1709208295.640625
-44.55,1709208295.65625
-48.05,1709208295.671875
-52.66,1709208295.6875
-57.89,1709208295.703125
-62.81,1709208295.71875
-66.16,1709208295.734375
-66.66,1709208295.75
-63.29,1709208295.765625
-55.64,1709208295.78125
-44.14,1709208295.796875
-29.99,1709208295.8125
-14.95,1709208295.828125
-0.84,1709208295.84375
10.91,1709208295.859375
19.56,1709208295.875
25.09,1709208295.890625
27.98,1709208295.90625
28.91,1709208295.921875
28.49,1709208295.9375
27.22,1709208295.953125
25.43,1709208295.96875
23.47,1709208295.984375
21.65,1709208296.0
20.26,1709208296.015625
19.49,1709208296.03125
19.37,1709208296.046875
19.79,1709208296.0625
20.62,1709208296.078125
21.78,1709208296.09375
23.27,1709208296.109375
25.1,1709208296.125
27.21,1709208296.140625
29.45,1709208296.15625
31.53,1709208296.171875
33.16,1709208296.1875
34.14,1709208296.203125
34.39,1709208296.21875
33.93,1709208296.234375
32.84,1709208296.25
31.23,1709208296.265625
29.27,1709208296.28125
27.18,1709208296.296875
25.18,1709208296.3125
23.46,1709208296.328125
22.04,1709208296.34375
20.76,1709208296.359375
19.34,1709208296.375
17.56,1709208296.390625
15.36,1709208296.40625
12.95,1709208296.421875
10.62,1709208296.4375
8.64,1709208296.453125
7.06,1709208296.46875
5.79,1709208296.484375
4.6,1709208296.5
3.33,1709208296.515625
1.99,1709208296.53125
0.69,1709208296.546875
-0.44,1709208296.5625
-1.39,1709208296.578125
-2.3,1709208296.59375
-3.39,1709208296.609375
-4.83,1709208296.625
-6.65,1709208296.640625
-8.78,1709208296.65625
-11.09,1709208296.671875
-13.54,1709208296.6875
-16.18,1709208296.703125
-19.09,1709208296.71875
-22.29,1709208296.734375
-25.67,1709208296.75
-28.99,1709208296.765625
-32.03,1709208296.78125
-34.68,1709208296.796875
-37.1,1709208296.8125
-39.59,1709208296.828125
-42.59,1709208296.84375
-46.42,1709208296.859375
-51.22,1709208296.875
-56.71,1709208296.890625
-62.19,1709208296.90625
-66.58,1709208296.921875
-68.64,1709208296.9375
-67.25,1709208296.953125
-61.82,1709208296.96875
-52.51,1709208296.984375
-40.23,1709208297.0
-26.45,1709208297.015625
-12.79,1709208297.03125
-0.63,1709208297.046875
9.12,1709208297.0625
16.11,1709208297.078125
20.5,1709208297.09375
22.76,1709208297.109375
23.54,1709208297.125
23.46,1709208297.140625
23.05,1709208297.15625
22.63,1709208297.171875
22.38,1709208297.1875
22.34,1709208297.203125
22.5,1709208297.21875
22.81,1709208297.234375
23.2,1709208297.25
23.62,1709208297.265625
24.08,1709208297.28125
24.62,1709208297.296875
25.4,1709208297.3125
26.59,1709208297.328125
28.26,1709208297.34375
30.37,1709208297.359375
32.67,1709208297.375
34.79,1709208297.390625
36.36,1709208297.40625
37.15,1709208297.421875
37.11,1709208297.4375
36.33,1709208297.453125
35.02,1709208297.46875
33.39,1709208297.484375
31.59,1709208297.5
29.72,1709208297.515625
27.84,1709208297.53125
25.94,1709208297.546875
23.98,1709208297.5625
21.97,1709208297.578125
19.91,1709208297.59375
17.87,1709208297.609375
15.92,1709208297.625
14.14,1709208297.640625
12.55,1709208297.65625
11.08,1709208297.671875
9.65,1709208297.6875
8.17,1709208297.703125
6.64,1709208297.71875
5.1,1709208297.734375
3.67,1709208297.75
2.42,1709208297.765625
1.34,1709208297.78125
0.33,1709208297.796875
-0.77,1709208297.8125
-2.1,1709208297.828125
-3.71,1709208297.84375
-5.5,1709208297.859375
-7.37,1709208297.875
-9.19,1709208297.890625
-10.97,1709208297.90625
-12.81,1709208297.921875
-14.85,1709208297.9375
-17.15,1709208297.953125
-19.64,1709208297.96875
-22.1,1709208297.984375
-24.36,1709208298.0
-26.37,1709208298.015625
-28.24,1709208298.03125
-30.25,1709208298.046875
-32.63,1709208298.0625
-35.54,1709208298.078125
-39.03,1709208298.09375
-43.12,1709208298.109375
-47.75,1709208298.125
-52.73,1709208298.140625
-57.55,1709208298.15625
-61.32,1709208298.171875
-62.9,1709208298.1875
-61.25,1709208298.203125
-55.81,1709208298.21875
-46.81,1709208298.234375
-35.22,1709208298.25
-22.48,1709208298.265625
-10.1,1709208298.28125
0.7,1709208298.296875
9.19,1709208298.3125
15.12,1709208298.328125
18.65,1709208298.34375
20.29,1709208298.359375
20.7,1709208298.375
20.6,1709208298.390625
20.56,1709208298.40625
20.82,1709208298.421875
21.33,1709208298.4375
21.84,1709208298.453125
22.07,1709208298.46875
21.92,1709208298.484375
21.48,1709208298.5
21.01,1709208298.515625
20.85,1709208298.53125
21.29,1709208298.546875
22.64,1709208298.5625
25.16,1709208298.578125
29.05,1709208298.59375
34.27,1709208298.609375
40.39,1709208298.625
46.52,1709208298.640625
51.57,1709208298.65625
54.63,1709208298.671875
55.42,1709208298.6875
54.42,1709208298.703125
52.66,1709208298.71875
51.22,1709208298.734375
50.71,1709208298.75
51.02,1709208298.765625
51.58,1709208298.78125
51.82,1709208298.796875
51.58,1709208298.8125
51.17,1709208298.828125
51.06,1709208298.84375
51.37,1709208298.859375
51.65,1709208298.875
50.98,1709208298.890625
48.5,1709208298.90625
43.82,1709208298.921875
37.21,1709208298.9375
29.44,1709208298.953125
21.37,1709208298.96875
13.55,1709208298.984375
6.13,1709208299.0
-1.0,1709208299.015625
-7.99,1709208299.03125
-14.78,1709208299.046875
-21.12,1709208299.0625
-26.71,1709208299.078125
-31.34,1709208299.09375
-35.08,1709208299.109375
-38.2,1709208299.125
-41.06,1709208299.140625
-44.01,1709208299.15625
-47.21,1709208299.171875
-50.57,1709208299.1875
-53.85,1709208299.203125
-56.76,1709208299.21875
-59.16,1709208299.234375
-61.16,1709208299.25
-63.1,1709208299.265625
-65.41,1709208299.28125
-68.36,1709208299.296875
-71.82,1709208299.3125
-75.08,1709208299.328125
-77.01,1709208299.34375
-76.4,1709208299.359375
-72.36,1709208299.375
-64.7,1709208299.390625
-54.06,1709208299.40625
-41.7,1709208299.421875
-29.07,1709208299.4375
-17.42,1709208299.453125
-7.5,1709208299.46875
0.42,1709208299.484375
6.41,1709208299.5
10.67,1709208299.515625
13.44,1709208299.53125
15.01,1709208299.546875
15.73,1709208299.5625
16.04,1709208299.578125
16.37,1709208299.59375
16.99,1709208299.609375
17.96,1709208299.625
19.09,1709208299.640625
20.1,1709208299.65625
20.77,1709208299.671875
21.08,1709208299.6875
21.26,1709208299.703125
21.61,1709208299.71875
22.46,1709208299.734375
23.95,1709208299.75
26.0,1709208299.765625
28.34,1709208299.78125
30.57,1709208299.796875
32.25,1709208299.8125
33.05,1709208299.828125
32.81,1709208299.84375
31.59,1709208299.859375
29.65,1709208299.875
27.32,1709208299.890625
24.96,1709208299.90625
22.78,1709208299.921875
20.83,1709208299.9375
19.04,1709208299.953125
17.32,1709208299.96875
15.61,1709208299.984375
13.91,1709208300.0
12.27,1709208300.015625
10.74,1709208300.03125
9.36,1709208300.046875
8.12,1709208300.0625
6.97,1709208300.078125
5.87,1709208300.09375
4.76,1709208300.109375
3.61,1709208300.125
2.37,1709208300.140625
1.07,1709208300.15625
-0.26,1709208300.171875
-1.59,1709208300.1875
-2.91,1709208300.203125
-4.28,1709208300.21875
-5.8,1709208300.234375
-7.54,1709208300.25
-9.5,1709208300.265625
-11.56,1709208300.28125
-13.56,1709208300.296875
-15.37,1709208300.3125
-16.97,1709208300.328125
-18.48,1709208300.34375
-20.11,1709208300.359375
-22.04,1709208300.375
-24.34,1709208300.390625
-26.87,1709208300.40625
-29.34,1709208300.421875
-31.35,1709208300.4375
-32.58,1709208300.453125
-32.88,1709208300.46875
-32.46,1709208300.484375
-31.81,1709208300.5
-31.56,1709208300.515625
-32.35,1709208300.53125
-34.46,1709208300.546875
-37.79,1709208300.5625
-41.72,1709208300.578125
-45.25,1709208300.59375
-47.21,1709208300.609375
-46.5,1709208300.625
-42.52,1709208300.640625
-35.29,1709208300.65625
-25.58,1709208300.671875
-14.66,1709208300.6875
-3.97,1709208300.703125
5.4,1709208300.71875
13.01,1709208300.734375
19.14,1709208300.75
24.47,1709208300.765625
29.68,1709208300.78125
35.02,1709208300.796875
40.26,1709208300.8125
44.77,1709208300.828125
47.88,1709208300.84375
49.15,1709208300.859375
48.47,1709208300.875
46.06,1709208300.890625
42.31,1709208300.90625
37.69,1709208300.921875
32.65,1709208300.9375
27.69,1709208300.953125
23.32,1709208300.96875
19.95,1709208300.984375
17.85,1709208301.0
16.97,1709208301.015625
16.99,1709208301.03125
17.39,1709208301.046875
17.68,1709208301.0625
17.55,1709208301.078125
16.87,1709208301.09375
15.74,1709208301.109375
14.33,1709208301.125
12.85,1709208301.140625
11.45,1709208301.15625
10.22,1709208301.171875
9.23,1709208301.1875
8.5,1709208301.203125
7.97,1709208301.21875
7.55,1709208301.234375
7.13,1709208301.25
6.59,1709208301.265625
5.9,1709208301.28125
5.12,1709208301.296875
4.36,1709208301.3125
3.75,1709208301.328125
3.37,1709208301.34375
3.2,1709208301.359375
3.15,1709208301.375
3.06,1709208301.390625
2.79,1709208301.40625
2.27,1709208301.421875
1.55,1709208301.4375
0.75,1709208301.453125
-0.03,1709208301.46875
-0.79,1709208301.484375
-1.62,1709208301.5
-2.63,1709208301.515625
-3.94,1709208301.53125
-5.55,1709208301.546875
-7.37,1709208301.5625
-9.26,1709208301.578125
-11.1,1709208301.59375
-12.83,1709208301.609375
-14.45,1709208301.625
-16.07,1709208301.640625
-17.79,1709208301.65625
-19.71,1709208301.671875
-21.9,1709208301.6875
-24.3,1709208301.703125
-26.73,1709208301.71875
-28.92,1709208301.734375
-30.68,1709208301.75
-32.01,1709208301.765625
-33.15,1709208301.78125
-34.6,1709208301.796875
-36.87,1709208301.8125
-40.23,1709208301.828125
-44.49,1709208301.84375
-48.97,1709208301.859375
-52.55,1709208301.875
-54.06,1709208301.890625
-52.56,1709208301.90625
-47.63,1709208301.921875
-39.56,1709208301.9375
-29.21,1709208301.953125
-17.84,1709208301.96875
-6.79,1709208301.984375
2.8,1709208302.0
10.22,1709208302.015625
15.23,1709208302.03125
18.0,1709208302.046875
18.99,1709208302.0625
18.74,1709208302.078125
17.81,1709208302.09375
16.6,1709208302.109375
15.41,1709208302.125
14.4,1709208302.140625
13.64,1709208302.15625
13.14,1709208302.171875
12.84,1709208302.1875
12.71,1709208302.203125
12.72,1709208302.21875
12.9,1709208302.234375
13.33,1709208302.25
14.1,1709208302.265625
15.25,1709208302.28125
16.76,1709208302.296875
18.51,1709208302.3125
20.24,1709208302.328125
21.7,1709208302.34375
22.56,1709208302.359375
22.61,1709208302.375
21.76,1709208302.390625
20.06,1709208302.40625
17.71,1709208302.421875
15.02,1709208302.4375
12.33,1709208302.453125
9.96,1709208302.46875
8.06,1709208302.484375
6.65,1709208302.5
5.53,1709208302.515625
4.48,1709208302.53125
3.29,1709208302.546875
1.98,1709208302.5625
0.76,1709208302.578125
0.03,1709208302.59375
0.1,1709208302.609375
1.09,1709208302.625
2.77,1709208302.640625
4.63,1709208302.65625
6.04,1709208302.671875
6.5,1709208302.6875
5.79,1709208302.703125
3.98,1709208302.71875
1.43,1709208302.734375
-1.44,1709208302.75
-4.28,1709208302.765625
-6.93,1709208302.78125
-9.42,1709208302.796875
-11.93,1709208302.8125
-14.61,1709208302.828125
-17.52,1709208302.84375
-20.51,1709208302.859375
-23.33,1709208302.875
-25.73,1709208302.890625
-27.61,1709208302.90625
-29.09,1709208302.921875
-30.51,1709208302.9375
-32.33,1709208302.953125
-34.96,1709208302.96875
-38.57,1709208302.984375
-43.03,1709208303.0
-47.83,1709208303.015625
-52.13,1709208303.03125
-54.88,1709208303.046875
-55.06,1709208303.0625
-52.0,1709208303.078125
-45.56,1709208303.09375
-36.23,1709208303.109375
-25.09,1709208303.125
-13.49,1709208303.140625
-2.8,1709208303.15625
5.91,1709208303.171875
12.1,1709208303.1875
15.75,1709208303.203125
17.31,1709208303.21875
17.46,1709208303.234375
16.9,1709208303.25
16.2,1709208303.265625
15.64,1709208303.28125
15.29,1709208303.296875
15.04,1709208303.3125
14.78,1709208303.328125
14.44,1709208303.34375
14.02,1709208303.359375
13.61,1709208303.375
13.32,1709208303.390625
13.27,1709208303.40625
13.55,1709208303.421875
14.27,1709208303.4375
15.44,1709208303.453125
17.0,1709208303.46875
18.83,1709208303.484375
20.68,1709208303.5
22.27,1709208303.515625
23.33,1709208303.53125
23.66,1709208303.546875
23.25,1709208303.5625
22.26,1709208303.578125
20.97,1709208303.59375
19.63,1709208303.609375
18.4,1709208303.625
17.26,1709208303.640625
16.06,1709208303.65625
14.71,1709208303.671875
13.23,1709208303.6875
11.8,1709208303.703125
10.62,1709208303.71875
9.74,1709208303.734375
9.07,1709208303.75
8.35,1709208303.765625
7.35,1709208303.78125
6.04,1709208303.796875
4.57,1709208303.8125
3.19,1709208303.828125
2.07,1709208303.84375
1.17,1709208303.859375
0.32,1709208303.875
-0.72,1709208303.890625
-2.08,1709208303.90625
-3.68,1709208303.921875
-5.35,1709208303.9375
-6.88,1709208303.953125
-8.2,1709208303.96875
-9.38,1709208303.984375
-10.62,1709208304.0
-12.18,1709208304.015625
-14.23,1709208304.03125
-16.81,1709208304.046875
-19.76,1709208304.0625
-22.82,1709208304.078125
-25.66,1709208304.09375
-28.06,1709208304.109375
-29.92,1709208304.125
-31.31,1709208304.140625
-32.51,1709208304.15625
-33.88,1709208304.171875
-35.83,1709208304.1875
-38.66,1709208304.203125
-42.51,1709208304.21875
-47.11,1709208304.234375
-51.77,1709208304.25
-55.39,1709208304.265625
-56.72,1709208304.28125
-54.74,1709208304.296875
-49.02,1709208304.3125
-40.01,1709208304.328125
-28.87,1709208304.34375
-17.17,1709208304.359375
-6.39,1709208304.375
2.47,1709208304.390625
9.01,1709208304.40625
13.37,1709208304.421875
16.01,1709208304.4375
17.45,1709208304.453125
18.17,1709208304.46875
18.52,1709208304.484375
18.75,1709208304.5
18.98,1709208304.515625
19.24,1709208304.53125
19.46,1709208304.546875
19.61,1709208304.5625
19.65,1709208304.578125
19.66,1709208304.59375
19.77,1709208304.609375
20.13,1709208304.625
20.84,1709208304.640625
21.92,1709208304.65625
23.26,1709208304.671875
24.74,1709208304.6875
26.18,1709208304.703125
27.41,1709208304.71875
28.27,1709208304.734375
28.62,1709208304.75
28.38,1709208304.765625
27.58,1709208304.78125
26.32,1709208304.796875
24.79,1709208304.8125
23.21,1709208304.828125
21.7,1709208304.84375
20.32,1709208304.859375
19.01,1709208304.875
17.72,1709208304.890625
16.4,1709208304.90625
15.04,1709208304.921875
13.7,1709208304.9375
12.44,1709208304.953125
11.29,1709208304.96875
10.29,1709208304.984375
9.48,1709208305.0
8.9,1709208305.015625
8.56,1709208305.03125
8.42,1709208305.046875
8.37,1709208305.0625
8.26,1709208305.078125
7.94,1709208305.09375
7.32,1709208305.109375
6.35,1709208305.125
5.01,1709208305.140625
3.3,1709208305.15625
1.3,1709208305.171875
-0.8,1709208305.1875
-2.7,1709208305.203125
-4.0,1709208305.21875
-4.4,1709208305.234375
-3.81,1709208305.25
-2.47,1709208305.265625
-0.9,1709208305.28125
0.36,1709208305.296875
0.87,1709208305.3125
0.57,1709208305.328125
-0.36,1709208305.34375
-1.55,1709208305.359375
-2.75,1709208305.375
-3.89,1709208305.390625
-5.1,1709208305.40625
-6.67,1709208305.421875
-8.95,1709208305.4375
-12.21,1709208305.453125
-16.63,1709208305.46875
-22.16,1709208305.484375
-28.5,1709208305.5
-34.96,1709208305.515625
-40.56,1709208305.53125
-44.18,1709208305.546875
-44.92,1709208305.5625
-42.41,1709208305.578125
-36.95,1709208305.59375
-29.49,1709208305.609375
-21.3,1709208305.625
-13.62,1709208305.640625
-7.36,1709208305.65625
-2.94,1709208305.671875
-0.35,1709208305.6875
0.75,1709208305.703125
0.88,1709208305.71875
0.54,1709208305.734375
0.12,1709208305.75
-0.15,1709208305.765625
-0.2,1709208305.78125
-0.08,1709208305.796875
0.12,1709208305.8125
0.41,1709208305.828125
0.84,1709208305.84375
1.56,1709208305.859375
2.69,1709208305.875
4.27,1709208305.890625
6.22,1709208305.90625
8.4,1709208305.921875
10.67,1709208305.9375
12.95,1709208305.953125
15.22,1709208305.96875
17.4,1709208305.984375
19.39,1709208306.0
20.99,1709208306.015625
22.05,1709208306.03125
22.48,1709208306.046875
22.34,1709208306.0625
21.76,1709208306.078125
20.91,1709208306.09375
19.9,1709208306.109375
18.81,1709208306.125
17.67,1709208306.140625
16.52,1709208306.15625
15.39,1709208306.171875
14.3,1709208306.1875
13.21,1709208306.203125
12.1,1709208306.21875
10.92,1709208306.234375
9.7,1709208306.25
8.52,1709208306.265625
7.45,1709208306.28125
6.5,1709208306.296875
5.65,1709208306.3125
4.84,1709208306.328125
4.08,1709208306.34375
3.36,1709208306.359375
2.71,1709208306.375
2.05,1709208306.390625
1.27,1709208306.40625
0.22,1709208306.421875
-1.16,1709208306.4375
-2.8,1709208306.453125
-4.57,1709208306.46875
-6.36,1709208306.484375
-8.15,1709208306.5
-10.06,1709208306.515625
-12.22,1709208306.53125
-14.72,1709208306.546875
-17.53,1709208306.5625
-20.49,1709208306.578125
-23.43,1709208306.59375
-26.19,1709208306.609375
-28.74,1709208306.625
-31.13,1709208306.640625
-33.49,1709208306.65625
-35.98,1709208306.671875
-38.75,1709208306.6875
-41.99,1709208306.703125
-45.8,1709208306.71875
-50.12,1709208306.734375
-54.58,1709208306.75
-58.45,1709208306.765625
-60.7,1709208306.78125
-60.25,1709208306.796875
-56.36,1709208306.8125
-48.93,1709208306.828125
-38.57,1709208306.84375
-26.53,1709208306.859375
-14.31,1709208306.875
-3.27,1709208306.890625
5.66,1709208306.90625
12.12,1709208306.921875
16.2,1709208306.9375
18.34,1709208306.953125
19.12,1709208306.96875
19.09,1709208306.984375
18.69,1709208307.0
18.23,1709208307.015625
17.86,1709208307.03125
17.6,1709208307.046875
17.46,1709208307.0625
17.39,1709208307.078125
17.4,1709208307.09375
17.51,1709208307.109375
17.84,1709208307.125
18.5,1709208307.140625
19.57,1709208307.15625
21.09,1709208307.171875
22.96,1709208307.1875
25.01,1709208307.203125
27.04,1709208307.21875
28.86,1709208307.234375
30.32,1709208307.25
31.32,1709208307.265625
31.78,1709208307.28125
31.61,1709208307.296875
30.78,1709208307.3125
29.33,1709208307.328125
27.45,1709208307.34375
25.38,1709208307.359375
23.35,1709208307.375
21.42,1709208307.390625
19.55,1709208307.40625
17.62,1709208307.421875
15.64,1709208307.4375
13.75,1709208307.453125
12.2,1709208307.46875
11.19,1709208307.484375
10.76,1709208307.5
10.69,1709208307.515625
10.64,1709208307.53125
10.29,1709208307.546875
9.49,1709208307.5625
8.33,1709208307.578125
7.01,1709208307.59375
5.77,1709208307.609375
4.7,1709208307.625
3.77,1709208307.640625
2.87,1709208307.65625
1.87,1709208307.671875
0.73,1709208307.6875
-0.59,1709208307.703125
-2.05,1709208307.71875
-3.66,1709208307.734375
-5.46,1709208307.75
-7.42,1709208307.765625
-9.45,1709208307.78125
-11.43,1709208307.796875
-13.2,1709208307.8125
-14.71,1709208307.828125
-16.06,1709208307.84375
-17.43,1709208307.859375
-19.06,1709208307.875
-21.06,1709208307.890625
-23.4,1709208307.90625
-25.92,1709208307.921875
-28.38,1709208307.9375
-30.6,1709208307.953125
-32.53,1709208307.96875
-34.37,1709208307.984375
-36.49,1709208308.0
-39.34,1709208308.015625
-43.3,1709208308.03125
-48.43,1709208308.046875
-54.32,1709208308.0625
-60.04,1709208308.078125
-64.29,1709208308.09375
-65.76,1709208308.109375
-63.47,1709208308.125
-57.14,1709208308.140625
-47.31,1709208308.15625
-35.14,1709208308.171875
-22.18,1709208308.1875
-9.89,1709208308.203125
0.61,1709208308.21875
8.72,1709208308.234375
14.33,1709208308.25
17.73,1709208308.265625
19.38,1709208308.28125
19.83,1709208308.296875
19.59,1709208308.3125
19.11,1709208308.328125
18.74,1709208308.34375
18.63,1709208308.359375
18.81,1709208308.375
19.14,1709208308.390625
19.46,1709208308.40625
19.69,1709208308.421875
19.9,1709208308.4375
20.3,1709208308.453125
21.16,1709208308.46875
22.64,1709208308.484375
24.67,1709208308.5
27.03,1709208308.515625
29.36,1709208308.53125
31.32,1709208308.546875
32.73,1709208308.5625
33.52,1709208308.578125
33.68,1709208308.59375
33.27,1709208308.609375
32.35,1709208308.625
31.01,1709208308.640625
29.41,1709208308.65625
27.75,1709208308.671875
26.21,1709208308.6875
24.89,1709208308.703125
23.78,1709208308.71875
22.74,1709208308.734375
21.64,1709208308.75
20.41,1709208308.765625
19.06,1709208308.78125
17.65,1709208308.796875
16.24,1709208308.8125
14.84,1709208308.828125
13.41,1709208308.84375
11.85,1709208308.859375
10.18,1709208308.875
8.46,1709208308.890625
6.8,1709208308.90625
5.35,1709208308.921875
4.18,1709208308.9375
3.28,1709208308.953125
2.54,1709208308.96875
1.77,1709208308.984375
0.83,1709208309.0
-0.4,1709208309.015625
-1.93,1709208309.03125
-3.64,1709208309.046875
-5.41,1709208309.0625
-7.06,1709208309.078125
-8.51,1709208309.09375
-9.79,1709208309.109375
-11.08,1709208309.125
-12.64,1709208309.140625
-14.72,1709208309.15625
-17.4,1709208309.171875
-20.53,1709208309.1875
-23.81,1709208309.203125
-26.91,1709208309.21875
-29.59,1709208309.234375
-31.88,1709208309.25
-34.01,1709208309.265625
-36.39,1709208309.28125
-39.37,1709208309.296875
-43.2,1709208309.3125
-47.87,1709208309.328125
-53.03,1709208309.34375
-57.97,1709208309.359375
-61.69,1709208309.375
-63.05,1709208309.390625
-61.07,1709208309.40625
-55.3,1709208309.421875
-46.02,1709208309.4375
-34.22,1709208309.453125
-21.37,1709208309.46875
-9.02,1709208309.484375
1.6,1709208309.5
9.81,1709208309.515625
15.47,1709208309.53125
18.9,1709208309.546875
20.62,1709208309.5625
21.23,1709208309.578125
21.22,1709208309.59375
20.95,1709208309.609375
20.65,1709208309.625
20.39,1709208309.640625
20.18,1709208309.65625
19.96,1709208309.671875
19.74,1709208309.6875
19.56,1709208309.703125
19.54,1709208309.71875
19.81,1709208309.734375
20.52,1709208309.75
21.74,1709208309.765625
23.46,1709208309.78125
25.53,1709208309.796875
27.72,1709208309.8125
29.75,1709208309.828125
31.32,1709208309.84375
32.29,1709208309.859375
32.59,1709208309.875
32.25,1709208309.890625
31.42,1709208309.90625
30.23,1709208309.921875
28.83,1709208309.9375
27.35,1709208309.953125
25.89,1709208309.96875
24.46,1709208309.984375
22.99,1709208310.0
21.38,1709208310.015625
19.5,1709208310.03125
17.25,1709208310.046875
14.67,1709208310.0625
11.93,1709208310.078125
9.29,1709208310.09375
7.0,1709208310.109375
5.17,1709208310.125
3.75,1709208310.140625
2.55,1709208310.15625
1.4,1709208310.171875
0.21,1709208310.1875
-1.03,1709208310.203125
-2.25,1709208310.21875
-3.47,1709208310.234375
-4.77,1709208310.25
-6.3,1709208310.265625
-8.21,1709208310.28125
-10.55,1709208310.296875
-13.26,1709208310.3125
-16.22,1709208310.328125
-19.26,1709208310.34375
-22.21,1709208310.359375
-24.97,1709208310.375
-27.52,1709208310.390625
-30.04,1709208310.40625
-32.82,1709208310.421875
-36.28,1709208310.4375
-40.7,1709208310.453125
-46.02,1709208310.46875
-51.68,1709208310.484375
-56.59,1709208310.5
-59.46,1709208310.515625
-59.11,1709208310.53125
-54.91,1709208310.546875
-46.95,1709208310.5625
-36.05,1709208310.578125
-23.48,1709208310.59375
-10.65,1709208310.609375
1.13,1709208310.625
10.95,1709208310.640625
18.3,1709208310.65625
23.09,1709208310.671875
25.59,1709208310.6875
26.35,1709208310.703125
26.01,1709208310.71875
25.17,1709208310.734375
24.23,1709208310.75
23.35,1709208310.765625
22.47,1709208310.78125
21.43,1709208310.796875
20.21,1709208310.8125
18.94,1709208310.828125
17.95,1709208310.84375
17.59,1709208310.859375
18.16,1709208310.875
19.71,1709208310.890625
22.1,1709208310.90625
25.02,1709208310.921875
28.13,1709208310.9375
31.02,1709208310.953125
33.33,1709208310.96875
34.78,1709208310.984375
35.19,1709208311.0
34.56,1709208311.015625
33.12,1709208311.03125
31.24,1709208311.046875
29.3,1709208311.0625
27.57,1709208311.078125
26.07,1709208311.09375
24.65,1709208311.109375
23.07,1709208311.125
21.15,1709208311.140625
18.89,1709208311.15625
16.4,1709208311.171875
13.91,1709208311.1875
11.65,1709208311.203125
9.82,1709208311.21875
8.52,1709208311.234375
7.71,1709208311.25
7.23,1709208311.265625
6.83,1709208311.28125
6.26,1709208311.296875
5.35,1709208311.3125
4.04,1709208311.328125
2.44,1709208311.34375
0.68,1709208311.359375
-1.12,1709208311.375
-2.98,1709208311.390625
-4.96,1709208311.40625
-7.14,1709208311.421875
-9.56,1709208311.4375
-12.16,1709208311.453125
-14.86,1709208311.46875
-17.64,1709208311.484375
-20.56,1709208311.5
-23.74,1709208311.515625
-27.26,1709208311.53125
-31.02,1709208311.546875
-34.73,1709208311.5625
-38.05,1709208311.578125
-40.78,1709208311.59375
-43.08,1709208311.609375
-45.47,1709208311.625
-48.65,1709208311.640625
-53.04,1709208311.65625
-58.43,1709208311.671875
-63.78,1709208311.6875
-67.5,1709208311.703125
-67.89,1709208311.71875
-63.82,1709208311.734375
-55.05,1709208311.75
-42.43,1709208311.765625
-27.5,1709208311.78125
-12.13,1709208311.796875
2.01,1709208311.8125
13.71,1709208311.828125
22.38,1709208311.84375
27.98,1709208311.859375
30.9,1709208311.875
31.92,1709208311.890625
32.07,1709208311.90625
32.52,1709208311.921875
34.33,1709208311.9375
38.16,1709208311.953125
44.0,1709208311.96875
51.11,1709208311.984375
58.33,1709208312.0
64.48,1709208312.015625
68.82,1709208312.03125
71.22,1709208312.046875
72.04,1709208312.0625
71.72,1709208312.078125
70.53,1709208312.09375
68.39,1709208312.109375
65.09,1709208312.125
60.49,1709208312.140625
54.72,1709208312.15625
48.17,1709208312.171875
41.36,1709208312.1875
34.74,1709208312.203125
28.59,1709208312.21875
23.06,1709208312.234375
18.22,1709208312.25
14.13,1709208312.265625
10.81,1709208312.28125
8.21,1709208312.296875
6.23,1709208312.3125
4.69,1709208312.328125
3.39,1709208312.34375
2.15,1709208312.359375
0.85,1709208312.375
-0.57,1709208312.390625
-2.07,1709208312.40625
-3.51,1709208312.421875
-4.74,1709208312.4375
-5.61,1709208312.453125
-6.06,1709208312.46875
-6.15,1709208312.484375
-5.99,1709208312.5
-5.76,1709208312.515625
-5.62,1709208312.53125
-5.66,1709208312.546875
-5.94,1709208312.5625
-6.51,1709208312.578125
-7.38,1709208312.59375
-8.58,1709208312.609375
-10.1,1709208312.625
-11.89,1709208312.640625
-13.83,1709208312.65625
-15.82,1709208312.671875
-17.81,1709208312.6875
-19.83,1709208312.703125
-21.98,1709208312.71875
-24.33,1709208312.734375
-26.85,1709208312.75
-29.46,1709208312.765625
-32.01,1709208312.78125
-34.4,1709208312.796875
-36.65,1709208312.8125
-38.89,1709208312.828125
-41.33,1709208312.84375
-44.24,1709208312.859375
-47.82,1709208312.875
-52.14,1709208312.890625
-57.02,1709208312.90625
-61.89,1709208312.921875
-65.82,1709208312.9375
-67.65,1709208312.953125
-66.29,1709208312.96875
-61.11,1709208312.984375
-52.23,1709208313.0
-40.49,1709208313.015625
-27.26,1709208313.03125
-14.11,1709208313.046875
-2.36,1709208313.0625
7.15,1709208313.078125
14.05,1709208313.09375
18.45,1709208313.109375
20.77,1709208313.125
21.61,1709208313.140625
21.64,1709208313.15625
21.45,1709208313.171875
21.45,1709208313.1875
21.85,1709208313.203125
22.58,1709208313.21875
23.43,1709208313.234375
24.17,1709208313.25
24.6,1709208313.265625
24.69,1709208313.28125
24.58,1709208313.296875
24.52,1709208313.3125
24.83,1709208313.328125
25.73,1709208313.34375
27.27,1709208313.359375
29.32,1709208313.375
31.52,1709208313.390625
33.42,1709208313.40625
34.59,1709208313.421875
34.77,1709208313.4375
33.98,1709208313.453125
32.45,1709208313.46875
30.61,1709208313.484375
28.78,1709208313.5
27.17,1709208313.515625
25.74,1709208313.53125
24.34,1709208313.546875
22.82,1709208313.5625
21.13,1709208313.578125
