PPG GREEN,time
2412483.0,1709208236.127
2413807.0,1709208236.167
2415220.0,1709208236.207
2416411.0,1709208236.248
2417797.0,1709208236.287
2418714.0,1709208236.327
2419743.0,1709208236.369
2420474.0,1709208236.407
2418485.0,1709208236.447
2412939.0,1709208236.488
2410695.0,1709208236.527
2411066.0,1709208236.568
2412694.0,1709208236.608
2413563.0,1709208236.647
2413839.0,1709208236.688
2414609.0,1709208236.729
2414022.0,1709208236.769
2413367.0,1709208236.808
2411900.0,1709208236.888
2412212.0,1709208236.849
2412733.0,1709208236.97
2412265.0,1709208236.928
2414480.0,1709208237.008
2415526.0,1709208237.048
2416150.0,1709208237.09
2415931.0,1709208237.129
2414829.0,1709208237.169
2413487.0,1709208237.21
2412940.0,1709208237.249
2412744.0,1709208237.289
2412686.0,1709208237.33
2412656.0,1709208237.37
2412875.0,1709208237.409
2413316.0,1709208237.45
2412607.0,1709208237.489
2408688.0,1709208237.529
2404043.0,1709208237.571
2401559.0,1709208237.609
2400400.0,1709208237.65
2400284.0,1709208237.691
2400408.0,1709208237.73
2401291.0,1709208237.771
2401835.0,1709208237.811
2402047.0,1709208237.85
2402677.0,1709208237.89
2403113.0,1709208237.931
2404248.0,1709208237.971
2405607.0,1709208238.01
2406918.0,1709208238.051
2407826.0,1709208238.091
2408981.0,1709208238.131
2409782.0,1709208238.172
2410337.0,1709208238.211
2411100.0,1709208238.251
2412010.0,1709208238.292
2412320.0,1709208238.331
2413295.0,1709208238.372
2413937.0,1709208238.412
2414172.0,1709208238.451
2414882.0,1709208238.491
2415538.0,1709208238.532
2415756.0,1709208238.572
2413381.0,1709208238.611
2408820.0,1709208238.653
2405182.0,1709208238.692
2404186.0,1709208238.732
2404493.0,1709208238.774
2405047.0,1709208238.812
2405611.0,1709208238.852
2406173.0,1709208238.893
2406830.0,1709208238.932
2407446.0,1709208238.973
2409113.0,1709208239.013
2410626.0,1709208239.052
2413297.0,1709208239.092
2415629.0,1709208239.134
2417369.0,1709208239.173
2420767.0,1709208239.254
2419062.0,1709208239.213
2422399.0,1709208239.293
2423217.0,1709208239.333
2423533.0,1709208239.375
2423848.0,1709208239.413
2425551.0,1709208239.453
2427699.0,1709208239.494
2429930.0,1709208239.533
2431480.0,1709208239.574
2433301.0,1709208239.614
2434579.0,1709208239.653
2436173.0,1709208239.694
2438659.0,1709208239.735
2434594.0,1709208239.774
2422296.0,1709208239.855
2425971.0,1709208239.814
2420419.0,1709208239.894
2419407.0,1709208239.934
2419820.0,1709208239.976
2420834.0,1709208240.014
2421706.0,1709208240.054
2421975.0,1709208240.095
2421554.0,1709208240.135
2420966.0,1709208240.175
2420421.0,1709208240.216
2420793.0,1709208240.255
2420871.0,1709208240.295
2421132.0,1709208240.336
2421226.0,1709208240.376
2421429.0,1709208240.415
2421887.0,1709208240.456
2421752.0,1709208240.497
2421964.0,1709208240.537
2422126.0,1709208240.579
2422466.0,1709208240.617
2423127.0,1709208240.658
2423887.0,1709208240.699
2424939.0,1709208240.738
2424178.0,1709208240.778
2420781.0,1709208240.819
2416674.0,1709208240.858
2414319.0,1709208240.898
2413548.0,1709208240.939
2413966.0,1709208240.979
2414989.0,1709208241.018
2417482.0,1709208241.059
2418928.0,1709208241.098
2418935.0,1709208241.138
2418675.0,1709208241.18
2418312.0,1709208241.219
2418867.0,1709208241.259
2419563.0,1709208241.3
2420895.0,1709208241.339
2422434.0,1709208241.38
2426859.0,1709208241.459
2424770.0,1709208241.42
2428974.0,1709208241.499
2430376.0,1709208241.54
2433545.0,1709208241.619
2431948.0,1709208241.58
2435211.0,1709208241.661
2437475.0,1709208241.7
2439456.0,1709208241.74
2440599.0,1709208241.782
2441222.0,1709208241.82
2437413.0,1709208241.86
2432712.0,1709208241.901
2431461.0,1709208241.94
2432191.0,1709208241.981
2433025.0,1709208242.021
2433516.0,1709208242.06
2433644.0,1709208242.101
2432245.0,1709208242.142
2430512.0,1709208242.182
2428158.0,1709208242.221
2427079.0,1709208242.262
2426278.0,1709208242.301
2426515.0,1709208242.341
2426082.0,1709208242.383
2425652.0,1709208242.421
2425603.0,1709208242.461
2431309.0,1709208242.502
2440288.0,1709208242.542
2446637.0,1709208242.582
2450520.0,1709208242.623
2453014.0,1709208242.662
2454317.0,1709208242.702
2454116.0,1709208242.743
2453566.0,1709208242.783
2453529.0,1709208242.822
2454139.0,1709208242.863
2454009.0,1709208242.903
2448981.0,1709208242.943
2443036.0,1709208242.984
2440755.0,1709208243.023
2439503.0,1709208243.063
2439117.0,1709208243.104
2438422.0,1709208243.143
2438217.0,1709208243.184
2436852.0,1709208243.263
2437850.0,1709208243.224
2435419.0,1709208243.303
2434720.0,1709208243.344
2433844.0,1709208243.384
2433839.0,1709208243.424
2434620.0,1709208243.504
2434290.0,1709208243.465
2436343.0,1709208243.586
2435264.0,1709208243.544
2439708.0,1709208243.664
2437336.0,1709208243.624
2444026.0,1709208243.744
2441596.0,1709208243.705
2446858.0,1709208243.825
2445627.0,1709208243.785
2447565.0,1709208243.864
2440075.0,1709208243.946
2435457.0,1709208243.986
2431874.0,1709208244.025
2430624.0,1709208244.066
2430230.0,1709208244.105
2445894.0,1709208243.905
2432157.0,1709208244.145
2436656.0,1709208244.187
2439170.0,1709208244.225
2439524.0,1709208244.265
2439127.0,1709208244.307
2438794.0,1709208244.346
2438356.0,1709208244.386
2438390.0,1709208244.427
2437388.0,1709208244.506
2438038.0,1709208244.466
2436319.0,1709208244.547
2435253.0,1709208244.587
2434686.0,1709208244.626
2435247.0,1709208244.667
2436332.0,1709208244.706
2439739.0,1709208244.746
2442161.0,1709208244.788
2445592.0,1709208244.826
2446959.0,1709208244.867
2442996.0,1709208244.908
2440083.0,1709208244.947
2440107.0,1709208244.988
2443283.0,1709208245.028
2446348.0,1709208245.067
2448662.0,1709208245.107
2451561.0,1709208245.148
2452503.0,1709208245.188
2451527.0,1709208245.227
2448929.0,1709208245.268
2446023.0,1709208245.307
2444562.0,1709208245.347
2442662.0,1709208245.389
2441277.0,1709208245.427
2441356.0,1709208245.467
2441738.0,1709208245.508
2442053.0,1709208245.548
2441951.0,1709208245.588
2441843.0,1709208245.629
2441995.0,1709208245.668
2442261.0,1709208245.708
2442397.0,1709208245.749
2442461.0,1709208245.789
2442806.0,1709208245.828
2443142.0,1709208245.869
2441079.0,1709208245.908
2434744.0,1709208245.948
2427529.0,1709208245.99
2422514.0,1709208246.028
2419586.0,1709208246.068
2417504.0,1709208246.109
2415830.0,1709208246.149
2414825.0,1709208246.189
2413710.0,1709208246.23
2412169.0,1709208246.269
2411882.0,1709208246.309
2413524.0,1709208246.39
2412905.0,1709208246.35
2415083.0,1709208246.429
2416561.0,1709208246.47
2418492.0,1709208246.509
2419631.0,1709208246.549
2420661.0,1709208246.591
2422222.0,1709208246.629
2423197.0,1709208246.669
2423751.0,1709208246.71
2424697.0,1709208246.75
2426963.0,1709208246.79
2429724.0,1709208246.831
2431999.0,1709208246.87
2433750.0,1709208246.91
2431828.0,1709208246.951
2426202.0,1709208246.991
2422283.0,1709208247.03
2420283.0,1709208247.071
2419466.0,1709208247.11
2419001.0,1709208247.15
2419277.0,1709208247.192
2419589.0,1709208247.23
2418900.0,1709208247.27
2418338.0,1709208247.312
2418160.0,1709208247.351
2418697.0,1709208247.391
2421695.0,1709208247.432
2424837.0,1709208247.471
2428680.0,1709208247.511
2433198.0,1709208247.552
2436247.0,1709208247.592
2439035.0,1709208247.631
2440878.0,1709208247.672
2441735.0,1709208247.711
2441817.0,1709208247.751
2440673.0,1709208247.793
2437894.0,1709208247.831
2434988.0,1709208247.871
2430845.0,1709208247.913
2424643.0,1709208247.952
2420658.0,1709208247.992
2418469.0,1709208248.033
2418060.0,1709208248.072
2417594.0,1709208248.112
2418430.0,1709208248.153
2419808.0,1709208248.193
2420599.0,1709208248.232
2421315.0,1709208248.273
2421183.0,1709208248.312
2421629.0,1709208248.352
2422654.0,1709208248.394
2423541.0,1709208248.433
2424499.0,1709208248.473
2425744.0,1709208248.514
2426764.0,1709208248.553
2428391.0,1709208248.594
2429432.0,1709208248.634
2431424.0,1709208248.673
2433153.0,1709208248.713
2434258.0,1709208248.754
2434792.0,1709208248.794
2435070.0,1709208248.833
2435392.0,1709208248.874
2435083.0,1709208248.913
2430200.0,1709208248.953
2423399.0,1709208248.995
2416824.0,1709208249.033
2412881.0,1709208249.073
2410298.0,1709208249.115
2407962.0,1709208249.154
2406587.0,1709208249.194
2406198.0,1709208249.235
2406813.0,1709208249.274
2407856.0,1709208249.314
2409805.0,1709208249.355
2414346.0,1709208249.395
2418319.0,1709208249.434
2420940.0,1709208249.475
2422974.0,1709208249.514
2424460.0,1709208249.554
2425450.0,1709208249.596
2426915.0,1709208249.634
2429577.0,1709208249.674
2430475.0,1709208249.716
2430233.0,1709208249.755
2428726.0,1709208249.795
2426162.0,1709208249.836
2424620.0,1709208249.875
2424856.0,1709208249.915
2426355.0,1709208249.956
2427417.0,1709208249.996
2423535.0,1709208250.035
2418747.0,1709208250.076
2415466.0,1709208250.115
2414516.0,1709208250.155
2414576.0,1709208250.197
2415625.0,1709208250.235
2416685.0,1709208250.275
2417553.0,1709208250.317
2417441.0,1709208250.356
2418152.0,1709208250.396
2418424.0,1709208250.437
2418257.0,1709208250.476
2418011.0,1709208250.516
2417958.0,1709208250.557
2418044.0,1709208250.597
2417819.0,1709208250.677
2418133.0,1709208250.636
2418276.0,1709208250.716
2418364.0,1709208250.756
2417710.0,1709208250.798
2417394.0,1709208250.836
2416853.0,1709208250.876
2416867.0,1709208250.917
2417187.0,1709208250.956
2417503.0,1709208250.997
2415189.0,1709208251.038
2410095.0,1709208251.077
2405449.0,1709208251.117
2403221.0,1709208251.158
2402734.0,1709208251.198
2402676.0,1709208251.237
2403136.0,1709208251.278
2403183.0,1709208251.317
2403149.0,1709208251.357
2402998.0,1709208251.399
2403630.0,1709208251.437
2405506.0,1709208251.477
2409623.0,1709208251.558
2407508.0,1709208251.519
2412695.0,1709208251.639
2411352.0,1709208251.598
2413257.0,1709208251.678
2413221.0,1709208251.718
2412903.0,1709208251.759
2412503.0,1709208251.799
2412036.0,1709208251.838
2411951.0,1709208251.879
2411899.0,1709208251.918
2411842.0,1709208251.958
2411277.0,1709208252.0
2407167.0,1709208252.038
2399808.0,1709208252.078
2392652.0,1709208252.119
2388060.0,1709208252.159
2385513.0,1709208252.199
2383448.0,1709208252.24
2382120.0,1709208252.279
2381845.0,1709208252.319
2381397.0,1709208252.36
2380903.0,1709208252.4
2380278.0,1709208252.439
2380261.0,1709208252.48
2381378.0,1709208252.52
2382377.0,1709208252.56
2383941.0,1709208252.602
2385385.0,1709208252.64
2386389.0,1709208252.68
2387141.0,1709208252.721
2389885.0,1709208252.842
2390402.0,1709208252.881
2391200.0,1709208252.921
2388989.0,1709208252.801
2388085.0,1709208252.76
2392354.0,1709208252.962
2393026.0,1709208253.002
2394068.0,1709208253.041
2391572.0,1709208253.082
2386070.0,1709208253.121
2380739.0,1709208253.161
2378158.0,1709208253.203
2376933.0,1709208253.241
2376631.0,1709208253.281
2376068.0,1709208253.361
2376224.0,1709208253.402
2376365.0,1709208253.322
2375079.0,1709208253.443
2374558.0,1709208253.482
2374521.0,1709208253.522
2376346.0,1709208253.642
2374919.0,1709208253.563
2377462.0,1709208253.683
2378655.0,1709208253.722
2379747.0,1709208253.762
2375411.0,1709208253.603
2381272.0,1709208253.804
2383268.0,1709208253.842
2386167.0,1709208253.882
2389038.0,1709208253.923
2391434.0,1709208253.963
2393874.0,1709208254.003
2395918.0,1709208254.044
2393808.0,1709208254.083
2391587.0,1709208254.323
2388908.0,1709208254.243
2392891.0,1709208254.363
2393711.0,1709208254.405
2393537.0,1709208254.444
2393494.0,1709208254.484
2387580.0,1709208254.204
2389963.0,1709208254.123
2387497.0,1709208254.164
2393689.0,1709208254.525
2390160.0,1709208254.284
2394867.0,1709208254.564
2396082.0,1709208254.605
2397548.0,1709208254.645
2398083.0,1709208254.684
2404429.0,1709208254.724
2412231.0,1709208254.765
2417314.0,1709208254.805
2420768.0,1709208254.845
2422343.0,1709208254.886
2422264.0,1709208254.925
2422099.0,1709208254.965
2418592.0,1709208255.007
2410314.0,1709208255.045
2404999.0,1709208255.085
2402805.0,1709208255.126
2402066.0,1709208255.165
2401739.0,1709208255.206
2401412.0,1709208255.246
2401525.0,1709208255.286
2400409.0,1709208255.326
2398676.0,1709208255.367
2397035.0,1709208255.407
2396295.0,1709208255.446
2395923.0,1709208255.487
2396522.0,1709208255.526
2398215.0,1709208255.608
2399040.0,1709208255.646
2399687.0,1709208255.687
2400061.0,1709208255.728
2397312.0,1709208255.566
2400468.0,1709208255.767
2401002.0,1709208255.808
2401556.0,1709208255.848
2401702.0,1709208255.927
2401612.0,1709208255.887
2400151.0,1709208255.968
2393308.0,1709208256.008
2376372.0,1709208256.089
2372010.0,1709208256.128
2383796.0,1709208256.047
2369710.0,1709208256.168
2367837.0,1709208256.209
2366761.0,1709208256.248
2365457.0,1709208256.329
2366891.0,1709208256.368
2369567.0,1709208256.409
2372376.0,1709208256.449
2374540.0,1709208256.488
2365952.0,1709208256.288
2377185.0,1709208256.528
2379718.0,1709208256.57
2383351.0,1709208256.609
2385444.0,1709208256.649
2386969.0,1709208256.69
2387290.0,1709208256.729
2387129.0,1709208256.769
2386460.0,1709208256.811
2385488.0,1709208256.849
2384864.0,1709208256.889
2384779.0,1709208256.93
2384402.0,1709208256.969
2378600.0,1709208257.01
2369976.0,1709208257.051
2362945.0,1709208257.09
2358808.0,1709208257.13
2353868.0,1709208257.211
2356001.0,1709208257.171
2352858.0,1709208257.25
2351638.0,1709208257.291
2350044.0,1709208257.33
2348263.0,1709208257.37
2346607.0,1709208257.412
2346106.0,1709208257.45
2345779.0,1709208257.49
2346251.0,1709208257.531
2346925.0,1709208257.571
2347764.0,1709208257.611
2348966.0,1709208257.652
2350063.0,1709208257.691
2351648.0,1709208257.731
2353571.0,1709208257.772
2355473.0,1709208257.812
2357706.0,1709208257.851
2360019.0,1709208257.892
2361047.0,1709208257.931
2357114.0,1709208257.971
2350146.0,1709208258.013
2344099.0,1709208258.052
2341319.0,1709208258.092
2340197.0,1709208258.133
2339732.0,1709208258.172
2339863.0,1709208258.213
2340223.0,1709208258.253
2339983.0,1709208258.292
2338999.0,1709208258.332
2338920.0,1709208258.373
2339426.0,1709208258.413
2340850.0,1709208258.452
2342011.0,1709208258.494
2343599.0,1709208258.533
2345592.0,1709208258.573
2347508.0,1709208258.615
2349425.0,1709208258.653
2352008.0,1709208258.693
2354892.0,1709208258.734
2359417.0,1709208258.773
2363993.0,1709208258.814
2368083.0,1709208258.854
2370790.0,1709208258.894
2372511.0,1709208258.934
2368282.0,1709208258.975
2362652.0,1709208259.015
2360692.0,1709208259.054
2360783.0,1709208259.095
2360777.0,1709208259.134
2360268.0,1709208259.174
2359481.0,1709208259.216
2358272.0,1709208259.254
2355978.0,1709208259.294
2358584.0,1709208259.336
2368760.0,1709208259.375
2376597.0,1709208259.415
2381664.0,1709208259.456
2383956.0,1709208259.495
2383068.0,1709208259.535
2381415.0,1709208259.576
2379844.0,1709208259.655
2380135.0,1709208259.696
2380192.0,1709208259.615
2380072.0,1709208259.735
2380410.0,1709208259.775
2380763.0,1709208259.817
2381442.0,1709208259.855
2382254.0,1709208259.895
2382950.0,1709208259.936
2383196.0,1709208259.975
2379801.0,1709208260.016
2371448.0,1709208260.056
2362951.0,1709208260.095
2358105.0,1709208260.135
2355957.0,1709208260.177
2354603.0,1709208260.216
2353420.0,1709208260.256
2353113.0,1709208260.297
2352177.0,1709208260.336
2350796.0,1709208260.376
2349567.0,1709208260.418
2348567.0,1709208260.456
2348962.0,1709208260.496
2349900.0,1709208260.537
2351120.0,1709208260.576
2352068.0,1709208260.617
2353260.0,1709208260.657
2354235.0,1709208260.696
2355338.0,1709208260.736
2356489.0,1709208260.777
2357746.0,1709208260.817
2359086.0,1709208260.856
2361111.0,1709208260.897
2363462.0,1709208260.937
2364867.0,1709208260.977
2362058.0,1709208261.018
2359216.0,1709208261.057
2358787.0,1709208261.097
2359909.0,1709208261.138
2361504.0,1709208261.177
2363228.0,1709208261.218
2365594.0,1709208261.258
2367219.0,1709208261.297
2366888.0,1709208261.337
2367575.0,1709208261.378
2367876.0,1709208261.418
2375948.0,1709208261.457
2385117.0,1709208261.498
2391133.0,1709208261.537
2394898.0,1709208261.578
2397267.0,1709208261.619
2398123.0,1709208261.658
2397554.0,1709208261.698
2396854.0,1709208261.739
2396555.0,1709208261.778
2396558.0,1709208261.819
2396292.0,1709208261.859
2396505.0,1709208261.898
2396910.0,1709208261.938
2397312.0,1709208261.979
2394817.0,1709208262.019
2386124.0,1709208262.058
2379239.0,1709208262.1
2375361.0,1709208262.139
2374717.0,1709208262.179
2375247.0,1709208262.221
2375620.0,1709208262.259
2376603.0,1709208262.299
2377076.0,1709208262.379
2377117.0,1709208262.34
2377089.0,1709208262.42
2377101.0,1709208262.46
2378146.0,1709208262.499
2379701.0,1709208262.539
2381681.0,1709208262.58
2383525.0,1709208262.62
2385442.0,1709208262.66
2387362.0,1709208262.701
2388795.0,1709208262.74
2390700.0,1709208262.78
2391978.0,1709208262.822
2394014.0,1709208262.86
2395887.0,1709208262.9
2397652.0,1709208262.941
2399958.0,1709208262.98
2401764.0,1709208263.021
2403841.0,1709208263.061
2401940.0,1709208263.1
2395375.0,1709208263.14
2393217.0,1709208263.221
2392506.0,1709208263.182
2394976.0,1709208263.261
2396795.0,1709208263.302
2397558.0,1709208263.341
2399527.0,1709208263.381
2400825.0,1709208263.423
2401391.0,1709208263.461
2401949.0,1709208263.501
2402127.0,1709208263.542
2403994.0,1709208263.581
2405827.0,1709208263.622
2407271.0,1709208263.662
2409278.0,1709208263.701
2411967.0,1709208263.742
2415373.0,1709208263.783
2418507.0,1709208263.822
2421303.0,1709208263.862
2422967.0,1709208263.942
2422628.0,1709208263.903
2423345.0,1709208263.982
2422896.0,1709208264.024
2421687.0,1709208264.062
2415582.0,1709208264.102
2406615.0,1709208264.143
2402538.0,1709208264.182
2402335.0,1709208264.223
2402929.0,1709208264.264
2403019.0,1709208264.303
2403295.0,1709208264.343
2403043.0,1709208264.384
2402779.0,1709208264.424
2401912.0,1709208264.463
2401146.0,1709208264.504
2401760.0,1709208264.534
2402700.0,1709208264.574
2403661.0,1709208264.616
2404564.0,1709208264.654
2405380.0,1709208264.694
2408379.0,1709208264.775
2409988.0,1709208264.815
2406828.0,1709208264.736
2411810.0,1709208264.856
2413091.0,1709208264.895
2411061.0,1709208264.935
2404498.0,1709208264.976
2398534.0,1709208265.016
2396002.0,1709208265.055
2395299.0,1709208265.096
2395306.0,1709208265.135
2396335.0,1709208265.176
2397415.0,1709208265.217
2398303.0,1709208265.256
2397927.0,1709208265.296
2397854.0,1709208265.337
2398691.0,1709208265.376
2399780.0,1709208265.417
2404614.0,1709208265.496
2408507.0,1709208265.536
2401984.0,1709208265.457
2412030.0,1709208265.577
2414575.0,1709208265.617
2417763.0,1709208265.697
2411595.0,1709208265.737
2403926.0,1709208265.777
2399885.0,1709208265.818
2399111.0,1709208265.857
2416420.0,1709208265.656
2400186.0,1709208265.897
2400784.0,1709208265.938
2402471.0,1709208265.977
2403171.0,1709208266.018
2403071.0,1709208266.058
2402094.0,1709208266.097
2401505.0,1709208266.137
2401877.0,1709208266.178
2402831.0,1709208266.218
2403768.0,1709208266.258
2404795.0,1709208266.299
2405649.0,1709208266.338
2406467.0,1709208266.378
2407392.0,1709208266.42
2408010.0,1709208266.458
2408699.0,1709208266.498
2408574.0,1709208266.539
2402597.0,1709208266.579
2394505.0,1709208266.619
2388322.0,1709208266.66
2385529.0,1709208266.699
2384586.0,1709208266.739
2384727.0,1709208266.78
2385920.0,1709208266.82
2387371.0,1709208266.859
2387872.0,1709208266.9
2387337.0,1709208266.939
2386617.0,1709208266.979
2386200.0,1709208267.021
2385611.0,1709208267.1
2385709.0,1709208267.141
2387211.0,1709208267.221
2386145.0,1709208267.18
2388718.0,1709208267.3
2389352.0,1709208267.34
2390954.0,1709208267.421
2392182.0,1709208267.46
2393592.0,1709208267.501
2396304.0,1709208267.54
2398971.0,1709208267.581
2390299.0,1709208267.381
2388100.0,1709208267.261
2385993.0,1709208267.06
2394432.0,1709208267.622
2382069.0,1709208267.701
2387326.0,1709208267.661
2379304.0,1709208267.781
2380267.0,1709208267.862
2379941.0,1709208267.742
2379588.0,1709208267.822
2381765.0,1709208267.901
2382291.0,1709208267.941
2382091.0,1709208267.983
2382273.0,1709208268.022
2383595.0,1709208268.062
2385621.0,1709208268.103
2387624.0,1709208268.142
2389960.0,1709208268.182
2392014.0,1709208268.224
2393138.0,1709208268.262
2394105.0,1709208268.302
2395001.0,1709208268.343
2395986.0,1709208268.382
2396966.0,1709208268.423
2397909.0,1709208268.464
2399139.0,1709208268.503
2399781.0,1709208268.543
2400364.0,1709208268.584
2396146.0,1709208268.624
2386766.0,1709208268.663
2376413.0,1709208268.704
2370630.0,1709208268.743
2367306.0,1709208268.783
2366387.0,1709208268.825
2365538.0,1709208268.864
2365290.0,1709208268.904
2363759.0,1709208268.945
2361748.0,1709208268.984
2360811.0,1709208269.025
2360180.0,1709208269.065
2361809.0,1709208269.144
2360584.0,1709208269.104
2363012.0,1709208269.185
2364672.0,1709208269.225
2366084.0,1709208269.262
2369630.0,1709208269.337
2367956.0,1709208269.298
2373407.0,1709208269.413
2371545.0,1709208269.374
2375227.0,1709208269.452
2377567.0,1709208269.492
2379864.0,1709208269.533
2382283.0,1709208269.569
2384714.0,1709208269.61
2387289.0,1709208269.65
2387298.0,1709208269.69
2380500.0,1709208269.73
2374617.0,1709208269.771
2371416.0,1709208269.811
2370960.0,1709208269.85
2371627.0,1709208269.891
2371929.0,1709208269.93
2372645.0,1709208269.97
2373599.0,1709208270.012
2374040.0,1709208270.05
2374303.0,1709208270.09
2374953.0,1709208270.132
2376045.0,1709208270.17
2377396.0,1709208270.212
2379075.0,1709208270.253
2380766.0,1709208270.292
2382540.0,1709208270.332
2384192.0,1709208270.373
2385849.0,1709208270.413
2387233.0,1709208270.452
2388806.0,1709208270.493
2390575.0,1709208270.532
2391774.0,1709208270.573
2393093.0,1709208270.615
2394307.0,1709208270.653
2395245.0,1709208270.693
2396112.0,1709208270.735
2397001.0,1709208270.765
2397777.0,1709208270.806
2394494.0,1709208270.847
2386831.0,1709208270.886
2378724.0,1709208270.926
2374229.0,1709208270.967
2372901.0,1709208271.007
2372455.0,1709208271.046
2372303.0,1709208271.087
2372361.0,1709208271.126
2371985.0,1709208271.167
2370855.0,1709208271.208
2369587.0,1709208271.247
2368671.0,1709208271.287
2368837.0,1709208271.328
2369279.0,1709208271.367
2370224.0,1709208271.408
2371483.0,1709208271.448
2372949.0,1709208271.488
2374258.0,1709208271.526
2375302.0,1709208271.561
2376523.0,1709208271.596
2377925.0,1709208271.633
2379156.0,1709208271.675
2380590.0,1709208271.714
2382046.0,1709208271.754
2383971.0,1709208271.796
2385480.0,1709208271.835
2387435.0,1709208271.875
2389295.0,1709208271.916
2390773.0,1709208271.953
2386237.0,1709208271.993
2379714.0,1709208272.034
2375741.0,1709208272.073
2374860.0,1709208272.113
2375898.0,1709208272.154
2376828.0,1709208272.194
2378494.0,1709208272.233
2380090.0,1709208272.274
2382242.0,1709208272.313
2383440.0,1709208272.353
2384372.0,1709208272.395
2386559.0,1709208272.434
2388552.0,1709208272.474
2390067.0,1709208272.515
2391298.0,1709208272.554
2392668.0,1709208272.595
2396760.0,1709208272.635
2401253.0,1709208272.674
2404456.0,1709208272.715
2406025.0,1709208272.757
2406504.0,1709208272.796
2406722.0,1709208272.834
2406387.0,1709208272.875
2405676.0,1709208272.914
2404839.0,1709208272.954
2404708.0,1709208272.996
2397177.0,1709208273.075
2404107.0,1709208273.035
2382269.0,1709208273.155
2388961.0,1709208273.116
2379313.0,1709208273.197
2377751.0,1709208273.23
2377113.0,1709208273.269
2377196.0,1709208273.309
2377194.0,1709208273.35
2375981.0,1709208273.39
2374234.0,1709208273.43
2372583.0,1709208273.471
2371710.0,1709208273.51
2371594.0,1709208273.55
2371690.0,1709208273.592
2372106.0,1709208273.63
2372438.0,1709208273.67
2372644.0,1709208273.711
2373163.0,1709208273.75
2373446.0,1709208273.791
2373708.0,1709208273.832
2374299.0,1709208273.871
2374818.0,1709208273.911
2375473.0,1709208273.953
2376258.0,1709208273.993
2377272.0,1709208274.033
2378449.0,1709208274.074
2379924.0,1709208274.113
2378823.0,1709208274.154
2372096.0,1709208274.196
2363820.0,1709208274.234
2358216.0,1709208274.275
2355605.0,1709208274.316
2354853.0,1709208274.355
2355974.0,1709208274.396
2357968.0,1709208274.436
2359779.0,1709208274.471
2360775.0,1709208274.511
2362674.0,1709208274.552
2367085.0,1709208274.592
2372914.0,1709208274.631
2377764.0,1709208274.672
2380348.0,1709208274.711
2381434.0,1709208274.751
2381253.0,1709208274.793
2378748.0,1709208274.832
2375532.0,1709208274.872
2372938.0,1709208274.913
2371478.0,1709208274.952
2370711.0,1709208274.993
2370356.0,1709208275.033
2370424.0,1709208275.072
2370695.0,1709208275.112
2371428.0,1709208275.154
2372749.0,1709208275.194
2374368.0,1709208275.234
2372648.0,1709208275.276
2361092.0,1709208275.355
2366935.0,1709208275.315
2357723.0,1709208275.435
2358454.0,1709208275.397
2359283.0,1709208275.516
2358546.0,1709208275.476
2360822.0,1709208275.553
2361346.0,1709208275.594
2360961.0,1709208275.635
2360536.0,1709208275.674
2360841.0,1709208275.706
2360967.0,1709208275.747
2360838.0,1709208275.787
2359926.0,1709208275.826
2359433.0,1709208275.867
2358770.0,1709208275.906
2357725.0,1709208275.946
2357609.0,1709208275.988
2357842.0,1709208276.026
2358756.0,1709208276.067
2359544.0,1709208276.108
2360506.0,1709208276.147
2361896.0,1709208276.188
2363197.0,1709208276.228
2361801.0,1709208276.267
2355246.0,1709208276.307
2347343.0,1709208276.348
2342637.0,1709208276.388
2341003.0,1709208276.427
2340558.0,1709208276.468
2342908.0,1709208276.509
2345630.0,1709208276.549
2348064.0,1709208276.59
2349627.0,1709208276.629
2350537.0,1709208276.669
2350904.0,1709208276.71
2351236.0,1709208276.749
2351012.0,1709208276.79
2350003.0,1709208276.831
2349266.0,1709208276.87
2348842.0,1709208276.91
2348832.0,1709208276.951
2349306.0,1709208276.991
2350186.0,1709208277.03
2351734.0,1709208277.071
2353706.0,1709208277.11
2355849.0,1709208277.15
2358113.0,1709208277.192
2360653.0,1709208277.23
2360222.0,1709208277.271
2344275.0,1709208277.351
2353216.0,1709208277.312
2337931.0,1709208277.392
2333936.0,1709208277.432
2331016.0,1709208277.471
2328103.0,1709208277.511
2326492.0,1709208277.552
2324903.0,1709208277.592
2319397.0,1709208277.672
2317535.0,1709208277.708
2322528.0,1709208277.63
2316517.0,1709208277.743
2316157.0,1709208277.78
2317351.0,1709208277.856
2316902.0,1709208277.816
2317989.0,1709208277.898
2318755.0,1709208277.937
2319573.0,1709208277.978
2320264.0,1709208278.018
2321270.0,1709208278.058
2322343.0,1709208278.095
2324077.0,1709208278.136
2329555.0,1709208278.255
2331889.0,1709208278.294
2335052.0,1709208278.414
2327057.0,1709208278.454
2323321.0,1709208278.495
2331943.0,1709208278.575
2326209.0,1709208278.534
2336991.0,1709208278.616
2327866.0,1709208278.214
2340308.0,1709208278.655
2325636.0,1709208278.174
2341630.0,1709208278.695
2334486.0,1709208278.334
2341555.0,1709208278.736
2336389.0,1709208278.376
2335807.0,1709208278.776
2345536.0,1709208278.857
2353157.0,1709208278.897
2336952.0,1709208278.816
2359510.0,1709208279.017
2357602.0,1709208278.936
2359621.0,1709208278.978
2359759.0,1709208279.057
2359244.0,1709208279.098
2358498.0,1709208279.138
2358094.0,1709208279.179
2357769.0,1709208279.219
2357509.0,1709208279.258
2357498.0,1709208279.338
2357761.0,1709208279.408
2357649.0,1709208279.369
2357423.0,1709208279.299
2358044.0,1709208279.449
2358688.0,1709208279.488
2359434.0,1709208279.529
2360220.0,1709208279.57
2358075.0,1709208279.609
2349485.0,1709208279.649
2338847.0,1709208279.69
2332237.0,1709208279.729
2328516.0,1709208279.77
2326503.0,1709208279.81
2325409.0,1709208279.849
2324412.0,1709208279.889
2322772.0,1709208279.93
2320873.0,1709208279.97
2318596.0,1709208280.01
2317542.0,1709208280.051
2317054.0,1709208280.091
2317681.0,1709208280.126
2318549.0,1709208280.162
2319581.0,1709208280.198
2320794.0,1709208280.238
2322238.0,1709208280.28
2323639.0,1709208280.319
2324872.0,1709208280.36
2326298.0,1709208280.4
2327680.0,1709208280.439
2329305.0,1709208280.48
2330989.0,1709208280.521
2332762.0,1709208280.559
2334791.0,1709208280.596
2336736.0,1709208280.637
2339086.0,1709208280.676
2340150.0,1709208280.716
2334875.0,1709208280.758
2325690.0,1709208280.796
2318766.0,1709208280.836
2315425.0,1709208280.877
2313721.0,1709208280.916
2312141.0,1709208280.957
2311461.0,1709208280.998
2310914.0,1709208281.037
2310301.0,1709208281.077
2309130.0,1709208281.118
2308608.0,1709208281.157
2308193.0,1709208281.197
2309006.0,1709208281.238
2310287.0,1709208281.277
2312202.0,1709208281.318
2313993.0,1709208281.36
2315973.0,1709208281.398
2317985.0,1709208281.439
2319812.0,1709208281.48
2321647.0,1709208281.519
2323294.0,1709208281.56
2325148.0,1709208281.601
2327009.0,1709208281.64
2329102.0,1709208281.681
2331191.0,1709208281.72
2333340.0,1709208281.76
2335462.0,1709208281.799
2337563.0,1709208281.832
2337563.0,1709208281.872
2339301.0,1709208281.912
2341499.0,1709208281.953
2342705.0,1709208281.992
2337573.0,1709208282.032
2328813.0,1709208282.073
2321873.0,1709208282.112
2318714.0,1709208282.153
2317855.0,1709208282.193
2317237.0,1709208282.232
2316773.0,1709208282.272
2316820.0,1709208282.314
2316566.0,1709208282.353
2315554.0,1709208282.393
2314968.0,1709208282.434
2316224.0,1709208282.473
2322407.0,1709208282.513
2330153.0,1709208282.555
2336116.0,1709208282.593
2339986.0,1709208282.633
2342448.0,1709208282.674
2344692.0,1709208282.713
2346768.0,1709208282.754
2348927.0,1709208282.795
2351186.0,1709208282.834
2353969.0,1709208282.874
2356557.0,1709208282.915
2359665.0,1709208282.955
2361904.0,1709208282.994
2363312.0,1709208283.035
2364261.0,1709208283.066
2364025.0,1709208283.106
2362240.0,1709208283.148
2364004.0,1709208283.186
2371062.0,1709208283.226
2374290.0,1709208283.267
2371851.0,1709208283.306
2367774.0,1709208283.347
2365928.0,1709208283.387
2364092.0,1709208283.426
2362780.0,1709208283.467
2361964.0,1709208283.508
2361075.0,1709208283.547
2359399.0,1709208283.587
2357409.0,1709208283.628
2355683.0,1709208283.667
2354884.0,1709208283.707
2354945.0,1709208283.74
2355516.0,1709208283.779
2356315.0,1709208283.819
2357383.0,1709208283.86
2358104.0,1709208283.899
2358956.0,1709208283.94
2359619.0,1709208283.981
2360292.0,1709208284.02
2360986.0,1709208284.06
2361772.0,1709208284.101
2362450.0,1709208284.141
2363170.0,1709208284.179
2363788.0,1709208284.22
2365087.0,1709208284.259
2366576.0,1709208284.296
2367531.0,1709208284.338
2363573.0,1709208284.376
2355594.0,1709208284.416
2348320.0,1709208284.458
2344696.0,1709208284.497
2343316.0,1709208284.538
2343064.0,1709208284.578
2343164.0,1709208284.617
2343574.0,1709208284.657
2343589.0,1709208284.698
2343159.0,1709208284.738
2344321.0,1709208284.777
2349233.0,1709208284.818
2355097.0,1709208284.858
2359666.0,1709208284.898
2363430.0,1709208284.939
2367379.0,1709208284.978
2370574.0,1709208285.019
2373669.0,1709208285.06
2376558.0,1709208285.099
2378540.0,1709208285.14
2379848.0,1709208285.18
2381123.0,1709208285.22
2382240.0,1709208285.26
2383215.0,1709208285.301
2383679.0,1709208285.341
2384126.0,1709208285.381
2384311.0,1709208285.422
2384836.0,1709208285.461
2382725.0,1709208285.499
2372292.0,1709208285.534
2362451.0,1709208285.572
2356019.0,1709208285.612
2353306.0,1709208285.653
2351933.0,1709208285.692
2350812.0,1709208285.733
2350041.0,1709208285.774
2349328.0,1709208285.813
2347749.0,1709208285.853
2345510.0,1709208285.894
2343657.0,1709208285.934
2342833.0,1709208285.973
2342456.0,1709208286.014
2342803.0,1709208286.053
2343395.0,1709208286.093
2344413.0,1709208286.135
2345244.0,1709208286.174
2346403.0,1709208286.215
2347596.0,1709208286.252
2348832.0,1709208286.284
2350408.0,1709208286.325
2352090.0,1709208286.363
2355769.0,1709208286.441
2353847.0,1709208286.401
2357399.0,1709208286.482
2359068.0,1709208286.522
2360893.0,1709208286.562
2363072.0,1709208286.603
2365208.0,1709208286.642
2361383.0,1709208286.683
2353550.0,1709208286.722
2347051.0,1709208286.76
2344578.0,1709208286.8
2344412.0,1709208286.841
2344453.0,1709208286.88
2344848.0,1709208286.921
2346327.0,1709208286.961
2349475.0,1709208287.0
2352588.0,1709208287.04
2354189.0,1709208287.081
2355441.0,1709208287.121
2356161.0,1709208287.161
2357517.0,1709208287.202
2359033.0,1709208287.241
2360867.0,1709208287.281
2363506.0,1709208287.361
2362458.0,1709208287.322
2364372.0,1709208287.401
2365708.0,1709208287.442
2367495.0,1709208287.481
2375935.0,1709208287.522
2383322.0,1709208287.562
2387504.0,1709208287.601
2389939.0,1709208287.641
2390982.0,1709208287.682
2391072.0,1709208287.722
2360928.0,1709208287.842
2355074.0,1709208287.882
2384503.0,1709208287.762
2371256.0,1709208287.803
2348951.0,1709208287.962
2351694.0,1709208287.924
2346798.0,1709208288.002
2344891.0,1709208288.043
2342622.0,1709208288.082
2339377.0,1709208288.123
2336032.0,1709208288.163
2333536.0,1709208288.202
2330621.0,1709208288.284
2331637.0,1709208288.242
2329567.0,1709208288.363
2329944.0,1709208288.323
2329805.0,1709208288.404
2329514.0,1709208288.444
2329604.0,1709208288.485
2330100.0,1709208288.526
2330350.0,1709208288.564
2331008.0,1709208288.604
2331812.0,1709208288.645
2333111.0,1709208288.684
2334007.0,1709208288.725
2336824.0,1709208288.804
2338432.0,1709208288.845
2340376.0,1709208288.886
2335654.0,1709208288.765
2341415.0,1709208288.926
2326531.0,1709208289.004
2317835.0,1709208289.043
2313228.0,1709208289.083
2311912.0,1709208289.125
2313184.0,1709208289.164
2316081.0,1709208289.2
2336359.0,1709208288.965
2316081.0,1709208289.241
2318197.0,1709208289.28
2318317.0,1709208289.321
2317036.0,1709208289.361
2315357.0,1709208289.401
2315379.0,1709208289.441
2316113.0,1709208289.482
2316869.0,1709208289.521
2322072.0,1709208289.761
2321240.0,1709208289.723
2320404.0,1709208289.681
2319646.0,1709208289.641
2318814.0,1709208289.602
2323227.0,1709208289.801
2324324.0,1709208289.842
2317821.0,1709208289.561
2325499.0,1709208289.881
2326594.0,1709208289.923
2328254.0,1709208289.964
2330021.0,1709208290.003
2331482.0,1709208290.043
2332540.0,1709208290.084
2334873.0,1709208290.164
2333509.0,1709208290.124
2335169.0,1709208290.205
2328880.0,1709208290.244
2317273.0,1709208290.285
2306078.0,1709208290.327
2298239.0,1709208290.365
2293421.0,1709208290.403
2288844.0,1709208290.44
2285311.0,1709208290.479
2283113.0,1709208290.52
2280247.0,1709208290.56
2277210.0,1709208290.599
2274363.0,1709208290.639
2272654.0,1709208290.68
2270461.0,1709208290.801
2270359.0,1709208290.84
2270383.0,1709208290.88
2270835.0,1709208290.922
2271516.0,1709208290.72
2271133.0,1709208290.96
2271473.0,1709208291.0
2270905.0,1709208290.759
2271584.0,1709208291.041
2272127.0,1709208291.08
2273055.0,1709208291.122
2274480.0,1709208291.163
2276390.0,1709208291.202
2278286.0,1709208291.243
2281159.0,1709208291.284
2284425.0,1709208291.324
2280202.0,1709208291.405
2274485.0,1709208291.444
2270059.0,1709208291.565
2271597.0,1709208291.484
2269784.0,1709208291.605
2270803.0,1709208291.526
2285409.0,1709208291.364
2269800.0,1709208291.645
2268920.0,1709208291.684
2267072.0,1709208291.725
2265180.0,1709208291.766
2264279.0,1709208291.805
2264274.0,1709208291.845
2265189.0,1709208291.886
2266769.0,1709208291.926
2268470.0,1709208291.965
2272996.0,1709208292.045
2270695.0,1709208292.006
2275370.0,1709208292.085
2277287.0,1709208292.127
2279358.0,1709208292.165
2281028.0,1709208292.205
2282808.0,1709208292.247
2284724.0,1709208292.286
2286645.0,1709208292.326
2288109.0,1709208292.367
2289144.0,1709208292.406
2290264.0,1709208292.446
2290931.0,1709208292.487
2290717.0,1709208292.527
2284705.0,1709208292.566
2269987.0,1709208292.607
2250746.0,1709208292.646
2237072.0,1709208292.686
2227631.0,1709208292.728
2219401.0,1709208292.767
2212149.0,1709208292.807
2206925.0,1709208292.848
2201869.0,1709208292.887
2195910.0,1709208292.928
2189835.0,1709208292.968
2185661.0,1709208293.007
2182713.0,1709208293.047
2181126.0,1709208293.088
2181140.0,1709208293.128
2181559.0,1709208293.167
2182984.0,1709208293.208
2184541.0,1709208293.247
2186783.0,1709208293.288
2189719.0,1709208293.329
2193166.0,1709208293.368
2198892.0,1709208293.408
2203722.0,1709208293.449
2209183.0,1709208293.488
2213602.0,1709208293.528
2217425.0,1709208293.566
2220684.0,1709208293.605
2223096.0,1709208293.645
2225668.0,1709208293.687
2227397.0,1709208293.727
2228678.0,1709208293.766
2229874.0,1709208293.807
2228420.0,1709208293.847
2229822.0,1709208293.885
2234727.0,1709208293.927
2238387.0,1709208293.965
2240229.0,1709208294.006
2240402.0,1709208294.047
2240665.0,1709208294.086
2240962.0,1709208294.117
2240716.0,1709208294.157
2239893.0,1709208294.196
2238819.0,1709208294.236
2239233.0,1709208294.277
2239972.0,1709208294.317
2241012.0,1709208294.356
2242076.0,1709208294.397
2243096.0,1709208294.437
2243722.0,1709208294.477
2244356.0,1709208294.518
2244854.0,1709208294.557
2245596.0,1709208294.597
2246037.0,1709208294.638
2246669.0,1709208294.677
2247471.0,1709208294.718
2248160.0,1709208294.758
2249268.0,1709208294.797
2250414.0,1709208294.838
2251619.0,1709208294.875
2252967.0,1709208294.915
2254432.0,1709208294.946
2256134.0,1709208294.987
2254678.0,1709208295.024
2247583.0,1709208295.065
2237070.0,1709208295.107
2229542.0,1709208295.145
2225471.0,1709208295.186
2223375.0,1709208295.227
2222315.0,1709208295.266
2221953.0,1709208295.307
2221276.0,1709208295.345
2219760.0,1709208295.384
2218514.0,1709208295.424
2218492.0,1709208295.465
2219589.0,1709208295.505
2220822.0,1709208295.545
2222597.0,1709208295.586
2224408.0,1709208295.625
2226104.0,1709208295.665
2228081.0,1709208295.707
2230126.0,1709208295.745
2234438.0,1709208295.785
2238133.0,1709208295.826
2241546.0,1709208295.865
2244701.0,1709208295.906
2246223.0,1709208295.946
2247596.0,1709208295.985
2248510.0,1709208296.025
2248156.0,1709208296.066
2248307.0,1709208296.106
2249515.0,1709208296.146
2251135.0,1709208296.187
2248674.0,1709208296.226
2241380.0,1709208296.267
2230372.0,1709208296.309
2221710.0,1709208296.345
2217156.0,1709208296.385
2213697.0,1709208296.427
2210153.0,1709208296.466
2207721.0,1709208296.507
2205671.0,1709208296.547
2203051.0,1709208296.582
2200013.0,1709208296.622
2197680.0,1709208296.664
2196436.0,1709208296.703
2196132.0,1709208296.743
2196081.0,1709208296.784
2196762.0,1709208296.823
2197498.0,1709208296.863
2198441.0,1709208296.905
2199435.0,1709208296.943
2200629.0,1709208296.983
2202037.0,1709208297.024
2203744.0,1709208297.063
2205814.0,1709208297.104
2207818.0,1709208297.144
2209923.0,1709208297.184
2212373.0,1709208297.224
2214790.0,1709208297.265
2217173.0,1709208297.305
2219783.0,1709208297.345
2222322.0,1709208297.387
2225151.0,1709208297.425
2224218.0,1709208297.465
2218845.0,1709208297.507
2211350.0,1709208297.546
2206276.0,1709208297.586
2204283.0,1709208297.627
2203111.0,1709208297.667
2202189.0,1709208297.708
2202175.0,1709208297.748
2202270.0,1709208297.785
2201868.0,1709208297.821
2200813.0,1709208297.862
2200586.0,1709208297.902
2200970.0,1709208297.941
2201726.0,1709208297.983
2203042.0,1709208298.022
2204311.0,1709208298.062
2205520.0,1709208298.103
2206912.0,1709208298.142
2208597.0,1709208298.182
2210409.0,1709208298.223
2212530.0,1709208298.262
2214517.0,1709208298.303
2216716.0,1709208298.343
2218975.0,1709208298.382
2221547.0,1709208298.422
2223627.0,1709208298.464
2226250.0,1709208298.504
2228695.0,1709208298.544
2231248.0,1709208298.585
2231091.0,1709208298.624
2225847.0,1709208298.666
2219040.0,1709208298.708
2213943.0,1709208298.746
2212126.0,1709208298.786
2211298.0,1709208298.827
2210474.0,1709208298.867
2210457.0,1709208298.908
2210402.0,1709208298.948
2209787.0,1709208298.987
2209046.0,1709208299.027
2208988.0,1709208299.069
2209592.0,1709208299.108
2210412.0,1709208299.148
2211561.0,1709208299.189
2213146.0,1709208299.228
2214724.0,1709208299.268
2216113.0,1709208299.31
2217475.0,1709208299.348
2219135.0,1709208299.388
2220813.0,1709208299.429
2222620.0,1709208299.468
2224389.0,1709208299.509
2226397.0,1709208299.549
2228701.0,1709208299.588
2230661.0,1709208299.629
2232952.0,1709208299.67
2235220.0,1709208299.709
2237695.0,1709208299.746
2240207.0,1709208299.788
2242412.0,1709208299.827
2244435.0,1709208299.867
2241269.0,1709208299.909
2234838.0,1709208299.948
2227501.0,1709208299.988
2222340.0,1709208300.029
2220060.0,1709208300.069
2218301.0,1709208300.107
2216723.0,1709208300.148
2216149.0,1709208300.187
2215281.0,1709208300.227
2214106.0,1709208300.259
2213131.0,1709208300.298
2212434.0,1709208300.338
2212691.0,1709208300.379
2213135.0,1709208300.468
2214156.0,1709208300.508
2215007.0,1709208300.55
2216434.0,1709208300.588
2217491.0,1709208300.628
2218952.0,1709208300.669
2219985.0,1709208300.708
2221340.0,1709208300.749
2223220.0,1709208300.789
2224838.0,1709208300.828
2226505.0,1709208300.869
2228370.0,1709208300.91
2230176.0,1709208300.95
2232192.0,1709208300.989
2234005.0,1709208301.028
2235874.0,1709208301.06
2237714.0,1709208301.1
2239820.0,1709208301.142
2241838.0,1709208301.176
2238992.0,1709208301.216
2232441.0,1709208301.258
2224365.0,1709208301.298
2219323.0,1709208301.339
2216901.0,1709208301.379
2215110.0,1709208301.418
2214163.0,1709208301.459
2213495.0,1709208301.5
2212275.0,1709208301.537
2210626.0,1709208301.577
2209354.0,1709208301.618
2209187.0,1709208301.657
2209725.0,1709208301.697
2210272.0,1709208301.739
2211838.0,1709208301.777
2213157.0,1709208301.817
2214908.0,1709208301.858
2216476.0,1709208301.897
2218289.0,1709208301.938
2220178.0,1709208301.978
2222365.0,1709208302.017
2223990.0,1709208302.057
2225552.0,1709208302.098
2226815.0,1709208302.138
2227388.0,1709208302.178
2228769.0,1709208302.219
2231809.0,1709208302.258
2241934.0,1709208302.299
2251060.0,1709208302.341
2254088.0,1709208302.379
2247937.0,1709208302.42
2243991.0,1709208302.461
2241416.0,1709208302.5
2238956.0,1709208302.541
2235783.0,1709208302.582
2232924.0,1709208302.619
2230489.0,1709208302.659
2227971.0,1709208302.701
2224727.0,1709208302.74
2221686.0,1709208302.773
2221686.0,1709208302.814
2219564.0,1709208302.853
2218494.0,1709208302.893
2217807.0,1709208302.973
2217731.0,1709208302.935
2218102.0,1709208303.014
2218591.0,1709208303.055
2218856.0,1709208303.094
2219604.0,1709208303.135
2220606.0,1709208303.175
2221504.0,1709208303.214
2222826.0,1709208303.254
2224465.0,1709208303.295
2225852.0,1709208303.335
2227648.0,1709208303.374
2229540.0,1709208303.416
2231098.0,1709208303.455
2232836.0,1709208303.496
2234781.0,1709208303.538
2236884.0,1709208303.576
2236680.0,1709208303.617
2231491.0,1709208303.658
2223196.0,1709208303.698
2216349.0,1709208303.738
2212431.0,1709208303.778
2209956.0,1709208303.817
2207258.0,1709208303.858
2205921.0,1709208303.9
2204978.0,1709208303.94
2203677.0,1709208303.978
2201948.0,1709208304.016
2200056.0,1709208304.055
2198796.0,1709208304.095
2198016.0,1709208304.137
2197804.0,1709208304.175
2198262.0,1709208304.215
2199416.0,1709208304.256
2200208.0,1709208304.295
2201043.0,1709208304.336
2201951.0,1709208304.377
2202896.0,1709208304.416
2203614.0,1709208304.456
2204490.0,1709208304.497
2205460.0,1709208304.537
2205832.0,1709208304.576
2206477.0,1709208304.617
2206927.0,1709208304.656
2207473.0,1709208304.697
2208392.0,1709208304.739
2209494.0,1709208304.778
2211448.0,1709208304.819
2213148.0,1709208304.86
2210325.0,1709208304.899
2202936.0,1709208304.94
2192463.0,1709208304.981
2185566.0,1709208305.02
2181850.0,1709208305.06
2178573.0,1709208305.102
2176513.0,1709208305.142
2175276.0,1709208305.181
2173450.0,1709208305.221
2171232.0,1709208305.258
2169298.0,1709208305.298
2168052.0,1709208305.34
2167437.0,1709208305.379
2167364.0,1709208305.419
2167843.0,1709208305.46
2168733.0,1709208305.499
2169774.0,1709208305.54
2170921.0,1709208305.58
2172397.0,1709208305.619
2173755.0,1709208305.659
2175442.0,1709208305.7
2177215.0,1709208305.74
2179149.0,1709208305.779
2181149.0,1709208305.82
2183449.0,1709208305.859
2185804.0,1709208305.9
2188184.0,1709208305.942
2190369.0,1709208305.981
2192734.0,1709208306.021
2195250.0,1709208306.062
2197718.0,1709208306.101
2196436.0,1709208306.143
2191470.0,1709208306.183
2183734.0,1709208306.22
2178465.0,1709208306.261
2175898.0,1709208306.301
2174271.0,1709208306.341
2172927.0,1709208306.379
2172627.0,1709208306.421
2172599.0,1709208306.454
2172530.0,1709208306.494
2172639.0,1709208306.535
2174041.0,1709208306.574
2175168.0,1709208306.614
2177397.0,1709208306.655
2179445.0,1709208306.694
2181763.0,1709208306.735
2184103.0,1709208306.775
2186305.0,1709208306.814
2188112.0,1709208306.854
2190089.0,1709208306.896
2192161.0,1709208306.935
2194223.0,1709208306.975
2196833.0,1709208307.016
2199419.0,1709208307.055
2201617.0,1709208307.095
2203689.0,1709208307.137
2205498.0,1709208307.175
2207152.0,1709208307.215
2208698.0,1709208307.257
2210283.0,1709208307.296
2212295.0,1709208307.336
2214941.0,1709208307.377
2217395.0,1709208307.417
2215032.0,1709208307.457
2210253.0,1709208307.497
2205260.0,1709208307.534
2202600.0,1709208307.569
2201886.0,1709208307.61
2201153.0,1709208307.643
2200053.0,1709208307.682
2199662.0,1709208307.724
2198622.0,1709208307.763
2196933.0,1709208307.803
2194697.0,1709208307.844
2192963.0,1709208307.883
2191280.0,1709208307.924
2190511.0,1709208307.964
2190187.0,1709208308.003
2189982.0,1709208308.043
2189951.0,1709208308.084
2190101.0,1709208308.124
2190372.0,1709208308.163
2191060.0,1709208308.205
2191961.0,1709208308.244
2193037.0,1709208308.284
2194347.0,1709208308.325
2195869.0,1709208308.363
2197621.0,1709208308.4
2199388.0,1709208308.442
2201117.0,1709208308.481
2202859.0,1709208308.522
2204932.0,1709208308.562
2206473.0,1709208308.602
2208601.0,1709208308.642
2210615.0,1709208308.683
2209136.0,1709208308.721
2204019.0,1709208308.761
2195836.0,1709208308.802
2189836.0,1709208308.841
2187208.0,1709208308.881
2185817.0,1709208308.915
2184853.0,1709208308.953
2184727.0,1709208308.994
2183939.0,1709208309.035
2183163.0,1709208309.074
2182350.0,1709208309.115
2182243.0,1709208309.155
2186803.0,1709208309.194
2192131.0,1709208309.234
2197297.0,1709208309.275
2199821.0,1709208309.315
2200813.0,1709208309.354
2201266.0,1709208309.395
2200917.0,1709208309.435
2200319.0,1709208309.475
2200567.0,1709208309.516
2201536.0,1709208309.555
2203461.0,1709208309.595
2205461.0,1709208309.628
2207299.0,1709208309.664
2209272.0,1709208309.703
2211266.0,1709208309.743
2213149.0,1709208309.782
2212570.0,1709208309.823
2206753.0,1709208309.864
2195765.0,1709208309.904
2185490.0,1709208309.944
2176059.0,1709208310.024
2179670.0,1709208309.985
2173354.0,1709208310.062
2171512.0,1709208310.104
2169608.0,1709208310.14
2166887.0,1709208310.18
2164417.0,1709208310.221
2162517.0,1709208310.26
2162015.0,1709208310.301
2162208.0,1709208310.341
2163213.0,1709208310.38
2164630.0,1709208310.42
2166097.0,1709208310.461
2167679.0,1709208310.501
2169284.0,1709208310.54
2171343.0,1709208310.581
2173160.0,1709208310.62
2175095.0,1709208310.66
2177061.0,1709208310.702
2179152.0,1709208310.74
2181110.0,1709208310.78
2183297.0,1709208310.822
2185815.0,1709208310.861
2188669.0,1709208310.903
2191736.0,1709208310.943
2194341.0,1709208310.982
2193074.0,1709208311.023
2187951.0,1709208311.064
2181371.0,1709208311.104
2177307.0,1709208311.144
2175676.0,1709208311.185
2174616.0,1709208311.224
2173343.0,1709208311.265
2172566.0,1709208311.304
2171662.0,1709208311.343
2170225.0,1709208311.378
2170225.0,1709208311.419
2169208.0,1709208311.458
2168486.0,1709208311.499
2168850.0,1709208311.54
2169891.0,1709208311.579
2171145.0,1709208311.619
2172611.0,1709208311.66
2174186.0,1709208311.7
2175716.0,1709208311.739
2177393.0,1709208311.78
2179054.0,1709208311.819
2180636.0,1709208311.859
2182751.0,1709208311.901
2184736.0,1709208311.939
2186892.0,1709208311.979
2188737.0,1709208312.02
2191157.0,1709208312.06
2193041.0,1709208312.102
2194615.0,1709208312.142
2196757.0,1709208312.182
2198834.0,1709208312.222
2200741.0,1709208312.264
2199169.0,1709208312.304
2192657.0,1709208312.343
2181855.0,1709208312.384
2173292.0,1709208312.418
2168513.0,1709208312.458
2165073.0,1709208312.5
2161535.0,1709208312.538
2159418.0,1709208312.578
2157801.0,1709208312.619
2154924.0,1709208312.658
2152752.0,1709208312.699
2150718.0,1709208312.739
2149717.0,1709208312.778
2149796.0,1709208312.818
2150270.0,1709208312.859
2151203.0,1709208312.899
2152486.0,1709208312.938
2153860.0,1709208312.98
2155407.0,1709208313.019
2157388.0,1709208313.059
2159939.0,1709208313.1
2163497.0,1709208313.139
2168089.0,1709208313.179
2172005.0,1709208313.22
2174847.0,1709208313.26
2177253.0,1709208313.301
2179438.0,1709208313.342
2181714.0,1709208313.381
2184043.0,1709208313.421
2186284.0,1709208313.462
2185775.0,1709208313.502
2181112.0,1709208313.542
2175688.0,1709208313.583
2172006.0,1709208313.622
2170972.0,1709208313.661
2170510.0,1709208313.703
2170774.0,1709208313.741
2171254.0,1709208313.782
2171239.0,1709208313.822
2170704.0,1709208313.861
2170487.0,1709208313.902
2171116.0,1709208313.942
2172440.0,1709208313.981
2174376.0,1709208314.021
2176108.0,1709208314.062
2178208.0,1709208314.102
2180206.0,1709208314.141
2181862.0,1709208314.182
2183697.0,1709208314.221
2185417.0,1709208314.261
2187321.0,1709208314.303
2189045.0,1709208314.342
2191184.0,1709208314.382
2193195.0,1709208314.423
2195439.0,1709208314.462
2197475.0,1709208314.504
2199391.0,1709208314.544
2201147.0,1709208314.581
2202737.0,1709208314.622
2204729.0,1709208314.663
2205816.0,1709208314.703
2201976.0,1709208314.742
2193845.0,1709208314.784
2184009.0,1709208314.823
2178400.0,1709208314.863
2175159.0,1709208314.903
2172421.0,1709208314.941
2170527.0,1709208314.982
2168458.0,1709208315.051
2169509.0,1709208315.023
2167169.0,1709208315.092
2166324.0,1709208315.132
2166789.0,1709208315.171
2167333.0,1709208315.212
2168670.0,1709208315.253
2170085.0,1709208315.292
2171321.0,1709208315.332
2172675.0,1709208315.373
2173967.0,1709208315.412
2174966.0,1709208315.452
2177329.0,1709208315.494
2182030.0,1709208315.532
2192131.0,1709208315.572
2201308.0,1709208315.614
2206574.0,1709208315.653
2210292.0,1709208315.693
2211492.0,1709208315.734
2210811.0,1709208315.768
2209914.0,1709208315.809
2209880.0,1709208315.844
2209954.0,1709208315.881
2210896.0,1709208315.921
2210449.0,1709208315.962
2205356.0,1709208316.002
2193445.0,1709208316.042
2179351.0,1709208316.084
2169930.0,1709208316.122
2163118.0,1709208316.163
2156227.0,1709208316.204
2150466.0,1709208316.241
2145446.0,1709208316.282
2140178.0,1709208316.322
2134285.0,1709208316.361
2128982.0,1709208316.401
2125309.0,1709208316.442
2122552.0,1709208316.482
2121162.0,1709208316.522
2120413.0,1709208316.563
2120128.0,1709208316.602
2120082.0,1709208316.642
2120258.0,1709208316.684
2120815.0,1709208316.722
2121389.0,1709208316.762
2122357.0,1709208316.803
2123454.0,1709208316.842
2124998.0,1709208316.883
2126696.0,1709208316.923
2128663.0,1709208316.962
2130795.0,1709208317.003
2133090.0,1709208317.044
2135183.0,1709208317.084
2137723.0,1709208317.121
2140245.0,1709208317.163
2142759.0,1709208317.202
2144975.0,1709208317.242
2143979.0,1709208317.284
2136975.0,1709208317.323
2125394.0,1709208317.363
2117250.0,1709208317.404
2115923.0,1709208317.443
2117580.0,1709208317.482
2118402.0,1709208317.515
2119101.0,1709208317.554
2119652.0,1709208317.594
2120552.0,1709208317.635
2121224.0,1709208317.675
2121568.0,1709208317.714
2122530.0,1709208317.755
2123764.0,1709208317.794
2125500.0,1709208317.834
2127394.0,1709208317.876
2129334.0,1709208317.914
2131136.0,1709208317.954
2132931.0,1709208317.996
2134910.0,1709208318.035
2136825.0,1709208318.075
2138663.0,1709208318.116
2140024.0,1709208318.155
2141925.0,1709208318.195
2143548.0,1709208318.228
2145112.0,1709208318.265
2146755.0,1709208318.303
2148262.0,1709208318.344
2150265.0,1709208318.383
2152081.0,1709208318.428
2153364.0,1709208318.466
2149987.0,1709208318.504
2138635.0,1709208318.545
2124411.0,1709208318.586
2115305.0,1709208318.623
2109822.0,1709208318.664
2104884.0,1709208318.705
2100272.0,1709208318.738
2100272.0,1709208318.778
2096786.0,1709208318.819
2092521.0,1709208318.859
2086860.0,1709208318.898
2082085.0,1709208318.939
2078707.0,1709208318.978
2076929.0,1709208319.018
2075934.0,1709208319.06
2075929.0,1709208319.099
2076398.0,1709208319.139
2077209.0,1709208319.18
2078022.0,1709208319.219
2079228.0,1709208319.26
2080390.0,1709208319.3
2081776.0,1709208319.339
2083491.0,1709208319.379
2085589.0,1709208319.42
2087686.0,1709208319.461
2089770.0,1709208319.501
2092158.0,1709208319.542
2094679.0,1709208319.582
2096889.0,1709208319.622
2099307.0,1709208319.664
2101759.0,1709208319.703
2104424.0,1709208319.743
2105671.0,1709208319.785
2100856.0,1709208319.824
2088099.0,1709208319.865
2077201.0,1709208319.905
2072493.0,1709208319.945
2071122.0,1709208319.984
2071207.0,1709208320.025
2074725.0,1709208320.065
2080367.0,1709208320.104
2084626.0,1709208320.145
2087542.0,1709208320.184
2090149.0,1709208320.224
2093414.0,1709208320.266
2096501.0,1709208320.305
2099670.0,1709208320.345
2102483.0,1709208320.386
2105165.0,1709208320.425
2107911.0,1709208320.466
2110547.0,1709208320.506
2113073.0,1709208320.545
2115084.0,1709208320.585
2117148.0,1709208320.626
2119449.0,1709208320.667
2121550.0,1709208320.704
2123606.0,1709208320.745
2125633.0,1709208320.784
2127496.0,1709208320.825
2129484.0,1709208320.867
2131322.0,1709208320.905
2133424.0,1709208320.945
2135457.0,1709208320.987
2137623.0,1709208321.026
2139786.0,1709208321.065
2143064.0,1709208321.105
2142614.0,1709208321.144
2137835.0,1709208321.184
2129423.0,1709208321.217
2124001.0,1709208321.256
2122512.0,1709208321.296
2122912.0,1709208321.337
2124251.0,1709208321.376
2126215.0,1709208321.416
2127936.0,1709208321.458
2128787.0,1709208321.496
2129229.0,1709208321.536
2129883.0,1709208321.577
2131017.0,1709208321.616
2132098.0,1709208321.657
2133437.0,1709208321.698
2134517.0,1709208321.737
2135327.0,1709208321.777
2136258.0,1709208321.818
2137060.0,1709208321.858
2137781.0,1709208321.898
2139020.0,1709208321.936
2140007.0,1709208321.968
2141257.0,1709208322.008
2142714.0,1709208322.048
2143706.0,1709208322.083
2145397.0,1709208322.124
2147083.0,1709208322.165
2148845.0,1709208322.204
2150771.0,1709208322.245
2151985.0,1709208322.286
2148485.0,1709208322.325
2138653.0,1709208322.365
2128930.0,1709208322.406
2124067.0,1709208322.446
2121953.0,1709208322.486
2120661.0,1709208322.527
2120311.0,1709208322.566
2119759.0,1709208322.606
2118081.0,1709208322.648
2116222.0,1709208322.686
2114722.0,1709208322.726
2114735.0,1709208322.767
2115716.0,1709208322.806
2117216.0,1709208322.847
2118981.0,1709208322.888
2123189.0,1709208322.967
2125243.0,1709208323.008
2121078.0,1709208322.927
2127385.0,1709208323.047
2129253.0,1709208323.087
2131191.0,1709208323.128
2132970.0,1709208323.164
2134963.0,1709208323.204
2138323.0,1709208323.285
2136667.0,1709208323.246
2139592.0,1709208323.325
2140836.0,1709208323.366
2142140.0,1709208323.406
2143145.0,1709208323.446
2142119.0,1709208323.485
2132083.0,1709208323.524
2111844.0,1709208323.565
2094889.0,1709208323.606
2083203.0,1709208323.646
2073701.0,1709208323.679
2063915.0,1709208323.72
2057199.0,1709208323.759
2052368.0,1709208323.8
2048222.0,1709208323.841
2044626.0,1709208323.88
2043312.0,1709208323.92
2044255.0,1709208323.961
2046129.0,1709208324.0
2048771.0,1709208324.041
2051624.0,1709208324.081
2054507.0,1709208324.12
2057409.0,1709208324.161
2060333.0,1709208324.202
2064231.0,1709208324.241
2068232.0,1709208324.281
2073238.0,1709208324.322
2079270.0,1709208324.361
2084145.0,1709208324.4
2096637.0,1709208324.517
2099475.0,1709208324.556
2102561.0,1709208324.595
2092807.0,1709208324.478
2088620.0,1709208324.439
2105086.0,1709208324.634
2107813.0,1709208324.673
2110761.0,1709208324.712
2114328.0,1709208324.751
2117169.0,1709208324.79
2115274.0,1709208324.829
2110492.0,1709208324.868
2110492.0,1709208324.907
2104081.0,1709208324.946
2099829.0,1709208324.985
2096947.0,1709208325.024
2093203.0,1709208325.063
2089603.0,1709208325.102
2086889.0,1709208325.141
2083317.0,1709208325.18
2079286.0,1709208325.219
2075336.0,1709208325.258
2072149.0,1709208325.297
2069985.0,1709208325.336
2069304.0,1709208325.375
2069116.0,1709208325.414
2069017.0,1709208325.453
2069353.0,1709208325.492
2070466.0,1709208325.57
2071383.0,1709208325.609
2069761.0,1709208325.531
2072714.0,1709208325.648
2074470.0,1709208325.687
2076772.0,1709208325.726
2079260.0,1709208325.765
2082079.0,1709208325.804
2085030.0,1709208325.843
2087973.0,1709208325.882
2090796.0,1709208325.921
2093838.0,1709208325.96
2096653.0,1709208325.999
2099598.0,1709208326.038
2102383.0,1709208326.077
2104715.0,1709208326.116
2103236.0,1709208326.155
2095969.0,1709208326.194
2086414.0,1709208326.233
2081772.0,1709208326.272
2079210.0,1709208326.311
2076844.0,1709208326.35
2075451.0,1709208326.389
2070366.0,1709208326.467
2060240.0,1709208326.545
2057218.0,1709208326.584
2060068.0,1709208326.623
2070465.0,1709208326.662
2080110.0,1709208326.701
2085785.0,1709208326.74
2088271.0,1709208326.779
2065393.0,1709208326.506
2073803.0,1709208326.428
2090125.0,1709208326.818
2092101.0,1709208326.857
2093537.0,1709208326.896
2095578.0,1709208326.935
2099734.0,1709208327.013
2097612.0,1709208326.974
2104028.0,1709208327.091
2101929.0,1709208327.052
2108084.0,1709208327.169
2110068.0,1709208327.208
2106106.0,1709208327.13
2112364.0,1709208327.247
2116732.0,1709208327.325
2114616.0,1709208327.286
2116632.0,1709208327.364
2110402.0,1709208327.403
2096948.0,1709208327.442
2087452.0,1709208327.481
2082480.0,1709208327.52
2078521.0,1709208327.559
2073982.0,1709208327.598
2071162.0,1709208327.637
2068713.0,1709208327.676
2065364.0,1709208327.715
2061648.0,1709208327.754
2059148.0,1709208327.793
2058348.0,1709208327.832
2058356.0,1709208327.871
2059298.0,1709208327.91
2060428.0,1709208327.949
2061933.0,1709208327.988
2063753.0,1709208328.027
2067972.0,1709208328.105
2065692.0,1709208328.066
2070329.0,1709208328.144
2073273.0,1709208328.184
2076235.0,1709208328.224
2079243.0,1709208328.264
2081963.0,1709208328.304
2087080.0,1709208328.384
2084797.0,1709208328.344
2089149.0,1709208328.424
2091263.0,1709208328.464
2093653.0,1709208328.504
2095985.0,1709208328.544
2098195.0,1709208328.584
2100412.0,1709208328.624
2101110.0,1709208328.664
2095550.0,1709208328.704
2082433.0,1709208328.744
2073254.0,1709208328.784
2068417.0,1709208328.824
2064595.0,1709208328.864
2060198.0,1709208328.904
2056659.0,1709208328.944
2053460.0,1709208328.984
2049729.0,1709208329.024
2045326.0,1709208329.064
2041802.0,1709208329.104
2039233.0,1709208329.144
2037982.0,1709208329.184
2037035.0,1709208329.224
2036221.0,1709208329.264
2035212.0,1709208329.304
2034790.0,1709208329.344
2034657.0,1709208329.384
2035057.0,1709208329.424
2036008.0,1709208329.464
2037081.0,1709208329.504
2038839.0,1709208329.544
2040858.0,1709208329.584
2043219.0,1709208329.624
2045715.0,1709208329.664
2048203.0,1709208329.704
2050780.0,1709208329.744
2053602.0,1709208329.784
2056309.0,1709208329.824
2059275.0,1709208329.864
2062229.0,1709208329.904
2065572.0,1709208329.944
2068598.0,1709208329.984
2068570.0,1709208330.024
2060040.0,1709208330.064
2048613.0,1709208330.104
2042198.0,1709208330.144
2039335.0,1709208330.184
2036986.0,1709208330.224
2034270.0,1709208330.264
2032263.0,1709208330.304
2030122.0,1709208330.344
2027431.0,1709208330.384
2024674.0,1709208330.424
2023672.0,1709208330.464
2023859.0,1709208330.504
2025354.0,1709208330.544
2027805.0,1709208330.584
2031171.0,1709208330.624
2035553.0,1709208330.664
2040354.0,1709208330.704
2044086.0,1709208330.744
2047611.0,1709208330.784
2050419.0,1709208330.824
2052391.0,1709208330.864
2054134.0,1709208330.904
2056949.0,1709208330.944
2059484.0,1709208330.984
2061611.0,1709208331.024
2063834.0,1709208331.064
2066307.0,1709208331.104
2068797.0,1709208331.144
2071799.0,1709208331.184
2074518.0,1709208331.224
2076883.0,1709208331.264
2074750.0,1709208331.304
2062667.0,1709208331.344
2050484.0,1709208331.384
2044398.0,1709208331.424
2041506.0,1709208331.464
2038811.0,1709208331.504
2037132.0,1709208331.544
2036116.0,1709208331.584
2033841.0,1709208331.624
2030677.0,1709208331.664
2027861.0,1709208331.704
2025834.0,1709208331.744
2024794.0,1709208331.784
2024725.0,1709208331.824
2025249.0,1709208331.864
2026080.0,1709208331.904
2026898.0,1709208331.944
2027689.0,1709208331.984
2028352.0,1709208332.024
2028929.0,1709208332.064
2030030.0,1709208332.104
2031638.0,1709208332.144
2033294.0,1709208332.184
2035646.0,1709208332.224
2035646.0,1709208332.264
2037954.0,1709208332.304
2040734.0,1709208332.344
2043420.0,1709208332.384
2046276.0,1709208332.424
2050247.0,1709208332.464
2054343.0,1709208332.504
2055684.0,1709208332.544
2050842.0,1709208332.584
2040493.0,1709208332.624
2034918.0,1709208332.664
2033435.0,1709208332.704
2033449.0,1709208332.744
2034403.0,1709208332.784
2036359.0,1709208332.824
2039474.0,1709208332.864
2042922.0,1709208332.904
2045606.0,1709208332.944
2049951.0,1709208332.984
2054063.0,1709208333.024
2055489.0,1709208333.064
2056760.0,1709208333.104
2058004.0,1709208333.144
2058026.0,1709208333.184
2058606.0,1709208333.224
2059584.0,1709208333.264
2061018.0,1709208333.304
2062510.0,1709208333.344
2064430.0,1709208333.384
2066223.0,1709208333.424
2068211.0,1709208333.464
2070364.0,1709208333.504
2072228.0,1709208333.544
2074114.0,1709208333.584
2076418.0,1709208333.624
2078407.0,1709208333.664
2080722.0,1709208333.704
2082961.0,1709208333.744
2085509.0,1709208333.784
2086419.0,1709208333.824
2079857.0,1709208333.864
2066410.0,1709208333.904
2056771.0,1709208333.944
2051496.0,1709208333.984
2047115.0,1709208334.024
2041946.0,1709208334.064
2037766.0,1709208334.104
2033969.0,1709208334.144
2029045.0,1709208334.184
2023582.0,1709208334.224
2019473.0,1709208334.264
2017209.0,1709208334.304
2015792.0,1709208334.344
2015468.0,1709208334.384
2016057.0,1709208334.424
2017147.0,1709208334.464
2018626.0,1709208334.504
2020356.0,1709208334.544
2022839.0,1709208334.584
2025921.0,1709208334.624
2029178.0,1709208334.664
2033137.0,1709208334.704
2037084.0,1709208334.744
2041328.0,1709208334.784
2045998.0,1709208334.824
2050369.0,1709208334.864
2054361.0,1709208334.904
2058238.0,1709208334.944
2061205.0,1709208334.984
2064131.0,1709208335.024
2067214.0,1709208335.064
2069800.0,1709208335.104
2070850.0,1709208335.144
2066311.0,1709208335.184
2055845.0,1709208335.224
2049686.0,1709208335.264
2047527.0,1709208335.304
2045838.0,1709208335.344
2044499.0,1709208335.384
2044175.0,1709208335.424
2043051.0,1709208335.464
2040883.0,1709208335.504
2038358.0,1709208335.544
2037082.0,1709208335.584
2036610.0,1709208335.624
2037222.0,1709208335.664
2038162.0,1709208335.704
2039757.0,1709208335.744
2041289.0,1709208335.784
2042950.0,1709208335.824
2044983.0,1709208335.864
2047237.0,1709208335.904
2049600.0,1709208335.944
2052107.0,1709208335.984
2055156.0,1709208336.024
2058275.0,1709208336.064
2061387.0,1709208336.104
2064601.0,1709208336.144
2067988.0,1709208336.184
2071483.0,1709208336.224
2074682.0,1709208336.301
2078015.0,1709208336.341
2081333.0,1709208336.383
2084941.0,1709208336.422
2088293.0,1709208336.462
2090698.0,1709208336.503
2088042.0,1709208336.542
2078300.0,1709208336.583
2070594.0,1709208336.623
2067253.0,1709208336.662
2065480.0,1709208336.702
2063166.0,1709208336.744
2062170.0,1709208336.783
2061538.0,1709208336.822
2059886.0,1709208336.858
2057572.0,1709208336.898
2055745.0,1709208336.93
2054532.0,1709208336.972
2054017.0,1709208337.007
2053745.0,1709208337.048
2053350.0,1709208337.089
2053200.0,1709208337.128
2053579.0,1709208337.169
2054287.0,1709208337.209
2055088.0,1709208337.248
2055806.0,1709208337.288
2057209.0,1709208337.33
2058924.0,1709208337.369
2060793.0,1709208337.409
2062666.0,1709208337.45
2064617.0,1709208337.489
2066309.0,1709208337.529
2068139.0,1709208337.571
2070179.0,1709208337.609
2072437.0,1709208337.649
2074415.0,1709208337.69
2076386.0,1709208337.729
2078473.0,1709208337.77
2080832.0,1709208337.811
2083131.0,1709208337.85
2084904.0,1709208337.89
2082364.0,1709208337.931
2069582.0,1709208337.969
2056862.0,1709208338.009
2049381.0,1709208338.05
2044704.0,1709208338.089
2040617.0,1709208338.129
2036782.0,1709208338.171
2034515.0,1709208338.21
2032066.0,1709208338.25
2029032.0,1709208338.289
2026011.0,1709208338.329
2024459.0,1709208338.37
2024077.0,1709208338.402
2024846.0,1709208338.441
2026099.0,1709208338.481
2028570.0,1709208338.522
2030803.0,1709208338.562
2033090.0,1709208338.601
2035259.0,1709208338.643
2038017.0,1709208338.682
2040445.0,1709208338.722
2043237.0,1709208338.764
2046417.0,1709208338.802
2048845.0,1709208338.842
2051232.0,1709208338.883
2053336.0,1709208338.923
2055414.0,1709208338.963
2056250.0,1709208339.004
2056578.0,1709208339.043
2058510.0,1709208339.084
2063987.0,1709208339.121
2078599.0,1709208339.161
2091913.0,1709208339.194
2095667.0,1709208339.233
2093626.0,1709208339.27
2091912.0,1709208339.31
2091473.0,1709208339.352
2091274.0,1709208339.39
2090348.0,1709208339.431
2089860.0,1709208339.472
2089076.0,1709208339.511
2087119.0,1709208339.551
2083986.0,1709208339.592
2081050.0,1709208339.631
2079556.0,1709208339.671
2078844.0,1709208339.712
2078767.0,1709208339.752
2078859.0,1709208339.791
2079435.0,1709208339.832
2079874.0,1709208339.871
2080609.0,1709208339.911
2081518.0,1709208339.953
2082243.0,1709208339.992
2083968.0,1709208340.032
2086037.0,1709208340.073
2087977.0,1709208340.112
2090634.0,1709208340.153
2093435.0,1709208340.193
2096590.0,1709208340.232
2099521.0,1709208340.272
2102669.0,1709208340.313
2106179.0,1709208340.353
2109541.0,1709208340.39
2111842.0,1709208340.432
2110215.0,1709208340.471
2102990.0,1709208340.511
2094444.0,1709208340.553
2089923.0,1709208340.592
2087859.0,1709208340.632
2085749.0,1709208340.673
2083642.0,1709208340.71
2082263.0,1709208340.752
2079840.0,1709208340.792
2075917.0,1709208340.831
2071888.0,1709208340.871
2069153.0,1709208340.912
2068350.0,1709208340.951
2068566.0,1709208340.991
2069641.0,1709208341.032
2071479.0,1709208341.071
2073213.0,1709208341.111
2074974.0,1709208341.153
2076767.0,1709208341.191
2079118.0,1709208341.231
2081492.0,1709208341.272
2085235.0,1709208341.311
2088482.0,1709208341.352
2092364.0,1709208341.392
2095467.0,1709208341.431
2097268.0,1709208341.472
2098372.0,1709208341.513
2100114.0,1709208341.553
2102700.0,1709208341.591
2105108.0,1709208341.632
2107145.0,1709208341.671
2109050.0,1709208341.712
2109072.0,1709208341.754
2102496.0,1709208341.792
2088394.0,1709208341.832
2077517.0,1709208341.874
2071738.0,1709208341.913
2067074.0,1709208341.952
2062162.0,1709208341.992
2058489.0,1709208342.031
2049837.0,1709208342.145
2054760.0,1709208342.071
2054760.0,1709208342.105
2039098.0,1709208342.226
2044230.0,1709208342.185
2034841.0,1709208342.265
2030579.0,1709208342.347
2032198.0,1709208342.305
2030036.0,1709208342.385
2029823.0,1709208342.425
2029832.0,1709208342.467
2030178.0,1709208342.547
2032609.0,1709208342.626
2031202.0,1709208342.587
2037111.0,1709208342.707
2034647.0,1709208342.666
2029979.0,1709208342.506
2040093.0,1709208342.747
2042863.0,1709208342.788
2045809.0,1709208342.827
2048960.0,1709208342.866
2051876.0,1709208342.905
2054920.0,1709208342.942
2058258.0,1709208342.97
2061823.0,1709208343.011
2065519.0,1709208343.052
2067151.0,1709208343.091
2063267.0,1709208343.132
2042902.0,1709208343.212
2051930.0,1709208343.173
2038665.0,1709208343.252
2035856.0,1709208343.293
2031948.0,1709208343.334
2029144.0,1709208343.373
2025884.0,1709208343.414
2021557.0,1709208343.453
2016943.0,1709208343.493
2013069.0,1709208343.535
2010061.0,1709208343.573
2008812.0,1709208343.614
2009726.0,1709208343.655
2013544.0,1709208343.694
2025433.0,1709208343.735
2039988.0,1709208343.775
2048174.0,1709208343.814
2051844.0,1709208343.854
2052874.0,1709208343.895
2054248.0,1709208343.935
2055957.0,1709208343.974
2058098.0,1709208344.015
2060177.0,1709208344.051
2062655.0,1709208344.091
2064980.0,1709208344.133
2067344.0,1709208344.172
2069925.0,1709208344.212
2072451.0,1709208344.253
2073062.0,1709208344.292
2066464.0,1709208344.333
2053005.0,1709208344.372
2043638.0,1709208344.411
2038653.0,1709208344.452
2035273.0,1709208344.493
2032430.0,1709208344.533
2031143.0,1709208344.566
2029497.0,1709208344.607
2027117.0,1709208344.647
2024640.0,1709208344.687
2023620.0,1709208344.728
2023802.0,1709208344.767
2024627.0,1709208344.807
2026511.0,1709208344.848
2028643.0,1709208344.887
2031130.0,1709208344.928
2033621.0,1709208344.969
2036370.0,1709208345.008
2039900.0,1709208345.048
2043611.0,1709208345.089
2047034.0,1709208345.129
2051220.0,1709208345.168
2054972.0,1709208345.209
2058928.0,1709208345.249
2062622.0,1709208345.29
2066388.0,1709208345.331
2069600.0,1709208345.37
2072920.0,1709208345.411
2076089.0,1709208345.453
2077807.0,1709208345.491
2074431.0,1709208345.532
2063505.0,1709208345.573
2055435.0,1709208345.612
2051574.0,1709208345.652
2048721.0,1709208345.694
2045612.0,1709208345.733
2043915.0,1709208345.771
2042473.0,1709208345.812
2040450.0,1709208345.851
2037830.0,1709208345.891
2036060.0,1709208345.933
2035417.0,1709208345.971
2035518.0,1709208346.011
2035900.0,1709208346.052
2036549.0,1709208346.091
2036909.0,1709208346.132
2038090.0,1709208346.212
2037362.0,1709208346.173
2040317.0,1709208346.293
2039134.0,1709208346.252
2043436.0,1709208346.372
2041693.0,1709208346.333
2045314.0,1709208346.413
2047298.0,1709208346.452
2048931.0,1709208346.492
2050935.0,1709208346.534
2052851.0,1709208346.573
2054705.0,1709208346.613
2056938.0,1709208346.654
2058908.0,1709208346.694
2063826.0,1709208346.773
2061165.0,1709208346.735
2070077.0,1709208346.853
2066908.0,1709208346.812
2070651.0,1709208346.894
2050850.0,1709208346.973
2061876.0,1709208346.934
2043697.0,1709208347.014
2039778.0,1709208347.053
2032155.0,1709208347.135
2036124.0,1709208347.093
2030166.0,1709208347.174
2028040.0,1709208347.214
2024908.0,1709208347.255
2022278.0,1709208347.294
2020825.0,1709208347.335
2020309.0,1709208347.375
2021131.0,1709208347.414
2022821.0,1709208347.454
2024744.0,1709208347.495
2026949.0,1709208347.535
2029280.0,1709208347.574
2031546.0,1709208347.616
2033668.0,1709208347.655
2036517.0,1709208347.694
2039781.0,1709208347.735
2043271.0,1709208347.774
2046963.0,1709208347.814
2050668.0,1709208347.855
2054264.0,1709208347.894
2056901.0,1709208347.933
2059364.0,1709208347.974
2061985.0,1709208348.013
2064841.0,1709208348.053
2067589.0,1709208348.095
2068911.0,1709208348.135
2063570.0,1709208348.174
2056189.0,1709208348.213
2052371.0,1709208348.252
2051272.0,1709208348.291
2051102.0,1709208348.33
2051202.0,1709208348.369
2051524.0,1709208348.408
2051252.0,1709208348.447
2049991.0,1709208348.486
2049231.0,1709208348.525
2049672.0,1709208348.564
2050727.0,1709208348.603
2052071.0,1709208348.642
2053972.0,1709208348.681
2055721.0,1709208348.72
2057441.0,1709208348.759
2059298.0,1709208348.798
2060736.0,1709208348.837
2062401.0,1709208348.876
2064166.0,1709208348.915
2066160.0,1709208348.954
2068149.0,1709208348.993
2070578.0,1709208349.032
2072902.0,1709208349.071
2075322.0,1709208349.11
2077537.0,1709208349.149
2080155.0,1709208349.188
2082733.0,1709208349.227
2085404.0,1709208349.266
2088392.0,1709208349.305
2090024.0,1709208349.344
2084769.0,1709208349.383
2075530.0,1709208349.422
2069566.0,1709208349.461
2066997.0,1709208349.5
2065524.0,1709208349.539
2064060.0,1709208349.578
2062927.0,1709208349.617
2062906.0,1709208349.656
2061823.0,1709208349.695
2060740.0,1709208349.734
2060361.0,1709208349.773
2060970.0,1709208349.812
2062227.0,1709208349.851
2065431.0,1709208349.929
2067353.0,1709208349.968
2068967.0,1709208350.007
2063710.0,1709208349.89
2070979.0,1709208350.046
2072844.0,1709208350.085
2074724.0,1709208350.124
2077036.0,1709208350.163
2079357.0,1709208350.202
2081972.0,1709208350.241
2084592.0,1709208350.28
2090180.0,1709208350.358
2092789.0,1709208350.397
2087457.0,1709208350.319
2095456.0,1709208350.436
2098122.0,1709208350.475
2100469.0,1709208350.514
2102889.0,1709208350.553
2105477.0,1709208350.592
2108245.0,1709208350.631
2109771.0,1709208350.67
2104836.0,1709208350.709
2087764.0,1709208350.787
2094960.0,1709208350.748
2084287.0,1709208350.826
2082713.0,1709208350.865
2080557.0,1709208350.904
2078176.0,1709208350.982
2079018.0,1709208350.943
2076563.0,1709208351.021
2074634.0,1709208351.06
2072731.0,1709208351.099
2072512.0,1709208351.138
2072786.0,1709208351.177
2074007.0,1709208351.216
2075167.0,1709208351.255
2076771.0,1709208351.294
2078463.0,1709208351.333
2080283.0,1709208351.372
2082176.0,1709208351.411
2084082.0,1709208351.45
2086141.0,1709208351.489
2088499.0,1709208351.528
2090976.0,1709208351.567
2093584.0,1709208351.606
2096008.0,1709208351.645
2098496.0,1709208351.684
2100864.0,1709208351.723
2103033.0,1709208351.762
2105166.0,1709208351.801
2107201.0,1709208351.84
2109341.0,1709208351.879
2110673.0,1709208351.918
2107069.0,1709208351.957
2095817.0,1709208351.996
2086507.0,1709208352.035
2081819.0,1709208352.074
2079462.0,1709208352.113
2077662.0,1709208352.152
2077662.0,1709208352.191
2076578.0,1709208352.23
2075470.0,1709208352.269
2073394.0,1709208352.308
2070667.0,1709208352.347
2068341.0,1709208352.386
2066860.0,1709208352.425
2066548.0,1709208352.464
2067007.0,1709208352.503
2068129.0,1709208352.542
2069166.0,1709208352.581
2070247.0,1709208352.62
2070882.0,1709208352.659
2071572.0,1709208352.698
2072313.0,1709208352.737
2073086.0,1709208352.776
2074321.0,1709208352.815
2075739.0,1709208352.855
2077427.0,1709208352.895
2079571.0,1709208352.935
2081462.0,1709208352.975
2083554.0,1709208353.015
2085249.0,1709208353.055
2087359.0,1709208353.095
2089481.0,1709208353.135
2090460.0,1709208353.175
2083323.0,1709208353.215
2070578.0,1709208353.255
2060951.0,1709208353.295
2055996.0,1709208353.335
2052984.0,1709208353.375
2049871.0,1709208353.415
2047818.0,1709208353.455
2046066.0,1709208353.495
2043609.0,1709208353.535
2040801.0,1709208353.575
2038630.0,1709208353.615
2037743.0,1709208353.655
2038258.0,1709208353.695
2039667.0,1709208353.735
2041177.0,1709208353.775
2042861.0,1709208353.815
2044603.0,1709208353.855
2046163.0,1709208353.895
2047597.0,1709208353.935
2048665.0,1709208353.975
2049762.0,1709208354.015
2050895.0,1709208354.055
2052003.0,1709208354.095
2053539.0,1709208354.135
2055078.0,1709208354.175
2057003.0,1709208354.215
2058341.0,1709208354.255
2059685.0,1709208354.295
2060914.0,1709208354.335
2062680.0,1709208354.375
2065751.0,1709208354.415
2071063.0,1709208354.455
2080868.0,1709208354.495
2087862.0,1709208354.535
2091580.0,1709208354.575
2094208.0,1709208354.615
2095353.0,1709208354.655
2095198.0,1709208354.695
2092891.0,1709208354.735
2090262.0,1709208354.775
2087255.0,1709208354.815
2083241.0,1709208354.855
2079198.0,1709208354.895
2075802.0,1709208354.935
2073866.0,1709208354.975
2072235.0,1709208355.015
2070803.0,1709208355.055
2069167.0,1709208355.095
2068071.0,1709208355.135
2066901.0,1709208355.175
2066044.0,1709208355.215
2065347.0,1709208355.255
2064990.0,1709208355.295
2065372.0,1709208355.335
2065959.0,1709208355.375
2066975.0,1709208355.415
2068331.0,1709208355.455
2070249.0,1709208355.495
2072510.0,1709208355.535
2074854.0,1709208355.575
2077212.0,1709208355.615
2079865.0,1709208355.655
2082828.0,1709208355.695
2086066.0,1709208355.735
2088595.0,1709208355.775
2085431.0,1709208355.815
2075152.0,1709208355.855
2066744.0,1709208355.895
2062904.0,1709208355.935
2061321.0,1709208355.975
2059384.0,1709208356.015
2058328.0,1709208356.055
2057531.0,1709208356.095
2055705.0,1709208356.135
2053045.0,1709208356.175
2050609.0,1709208356.215
2048917.0,1709208356.255
2047749.0,1709208356.295
2046597.0,1709208356.335
2047366.0,1709208356.375
2051117.0,1709208356.415
2061440.0,1709208356.455
2075129.0,1709208356.495
2083329.0,1709208356.535
2087967.0,1709208356.575
2090086.0,1709208356.615
2090909.0,1709208356.655
2091938.0,1709208356.695
2092945.0,1709208356.735
2093683.0,1709208356.775
2094000.0,1709208356.815
2093508.0,1709208356.855
2092858.0,1709208356.895
2091890.0,1709208356.935
2089476.0,1709208356.975
2078361.0,1709208357.015
2061040.0,1709208357.055
2046080.0,1709208357.095
2035580.0,1709208357.135
2025973.0,1709208357.175
2016125.0,1709208357.215
2007531.0,1709208357.255
1999576.0,1709208357.295
1991027.0,1709208357.335
1982724.0,1709208357.375
1975998.0,1709208357.415
1971519.0,1709208357.455
1968368.0,1709208357.495
1966409.0,1709208357.535
1965640.0,1709208357.575
1965229.0,1709208357.615
1965181.0,1709208357.655
1965631.0,1709208357.695
1966537.0,1709208357.735
1967331.0,1709208357.775
1968968.0,1709208357.815
1971073.0,1709208357.855
1973542.0,1709208357.895
1976411.0,1709208357.935
1979459.0,1709208357.975
1982907.0,1709208358.015
1986451.0,1709208358.055
1989884.0,1709208358.095
1994267.0,1709208358.135
1998903.0,1709208358.175
2003743.0,1709208358.215
2004154.0,1709208358.255
1995780.0,1709208358.295
1995780.0,1709208358.335
1987609.0,1709208358.375
1983654.0,1709208358.415
1981876.0,1709208358.455
1979172.0,1709208358.495
1977476.0,1709208358.535
1977107.0,1709208358.575
1976173.0,1709208358.615
1974755.0,1709208358.655
1973759.0,1709208358.695
1973942.0,1709208358.735
1974880.0,1709208358.775
1976499.0,1709208358.815
1978525.0,1709208358.855
1980784.0,1709208358.895
1982916.0,1709208358.935
1985339.0,1709208358.975
1987805.0,1709208359.015
1990610.0,1709208359.055
1993218.0,1709208359.095
1996464.0,1709208359.135
1999788.0,1709208359.175
2003163.0,1709208359.215
2006582.0,1709208359.255
2010298.0,1709208359.295
2014045.0,1709208359.335
2017592.0,1709208359.375
2021103.0,1709208359.415
2024281.0,1709208359.455
2027461.0,1709208359.495
2030497.0,1709208359.535
2033327.0,1709208359.575
2036278.0,1709208359.615
2039170.0,1709208359.655
2042678.0,1709208359.695
2045695.0,1709208359.735
2046317.0,1709208359.775
2040346.0,1709208359.815
2034492.0,1709208359.855
2032074.0,1709208359.895
2031780.0,1709208359.935
2031604.0,1709208359.975
2031366.0,1709208360.015
2031602.0,1709208360.055
2032094.0,1709208360.095
2031993.0,1709208360.175
2032012.0,1709208360.215
2032852.0,1709208360.256
2034387.0,1709208360.295
2036323.0,1709208360.335
2038418.0,1709208360.376
2040385.0,1709208360.415
2042697.0,1709208360.456
2045007.0,1709208360.496
2047488.0,1709208360.535
2050262.0,1709208360.575
2053574.0,1709208360.617
2057076.0,1709208360.657
2060702.0,1709208360.696
2064416.0,1709208360.737
2067977.0,1709208360.776
2071511.0,1709208360.817
2074474.0,1709208360.855
2077545.0,1709208360.893
2080637.0,1709208360.933
2083688.0,1709208360.974
2087390.0,1709208361.013
2089611.0,1709208361.054
2086815.0,1709208361.095
2083057.0,1709208361.134
2081585.0,1709208361.174
2081906.0,1709208361.215
2082448.0,1709208361.255
2083009.0,1709208361.294
2084966.0,1709208361.374
2084014.0,1709208361.335
2085319.0,1709208361.415
2085406.0,1709208361.456
2086011.0,1709208361.495
2087381.0,1709208361.535
2088907.0,1709208361.577
2090832.0,1709208361.617
2092761.0,1709208361.658
2095343.0,1709208361.698
2097243.0,1709208361.737
2099055.0,1709208361.777
2101238.0,1709208361.818
2103539.0,1709208361.858
2105863.0,1709208361.898
2108306.0,1709208361.939
2111162.0,1709208361.978
2114090.0,1709208362.018
2116974.0,1709208362.052
2119949.0,1709208362.091
2122942.0,1709208362.131
2125819.0,1709208362.172
2128540.0,1709208362.211
2131657.0,1709208362.252
2134362.0,1709208362.292
2137640.0,1709208362.331
2138048.0,1709208362.371
2134872.0,1709208362.412
2132716.0,1709208362.452
2135242.0,1709208362.492
2139163.0,1709208362.533
2143536.0,1709208362.572
2146840.0,1709208362.612
2148904.0,1709208362.654
2149989.0,1709208362.692
2150379.0,1709208362.732
2149269.0,1709208362.771
2148525.0,1709208362.805
2148673.0,1709208362.847
2149360.0,1709208362.881
2150135.0,1709208362.918
2151050.0,1709208362.958
2152500.0,1709208363.0
2153352.0,1709208363.039
2154386.0,1709208363.079
2155153.0,1709208363.12
2155940.0,1709208363.159
2156440.0,1709208363.2
2157434.0,1709208363.242
2158162.0,1709208363.277
2159094.0,1709208363.317
2159800.0,1709208363.358
2160496.0,1709208363.398
2160697.0,1709208363.438
2160994.0,1709208363.479
2161183.0,1709208363.518
2161240.0,1709208363.558
2161677.0,1709208363.599
2162762.0,1709208363.639
2163365.0,1709208363.678
2158196.0,1709208363.719
2148114.0,1709208363.758
2138424.0,1709208363.798
2132392.0,1709208363.84
2128556.0,1709208363.878
2125023.0,1709208363.918
2121877.0,1709208363.96
2119422.0,1709208363.999
2116372.0,1709208364.041
2112184.0,1709208364.081
2108593.0,1709208364.12
2105787.0,1709208364.161
2103967.0,1709208364.2
2102934.0,1709208364.24
2102109.0,1709208364.279
2101383.0,1709208364.32
2100597.0,1709208364.36
2099538.0,1709208364.4
2098416.0,1709208364.442
2097131.0,1709208364.481
2096569.0,1709208364.508
2096569.0,1709208364.549
2097494.0,1709208364.588
2099955.0,1709208364.629
2106203.0,1709208364.67
2117066.0,1709208364.709
2124078.0,1709208364.749
2127652.0,1709208364.79
2128627.0,1709208364.83
2129922.0,1709208364.869
2130608.0,1709208364.91
2128253.0,1709208364.949
2117507.0,1709208364.989
2106829.0,1709208365.031
2095930.0,1709208365.11
2100075.0,1709208365.07
2091869.0,1709208365.151
2089015.0,1709208365.19
2086386.0,1709208365.231
2082540.0,1709208365.272
2077640.0,1709208365.305
2073305.0,1709208365.346
2070249.0,1709208365.382
2066885.0,1709208365.458
2068423.0,1709208365.418
2065834.0,1709208365.499
2065516.0,1709208365.538
2064984.0,1709208365.578
2064784.0,1709208365.62
2064619.0,1709208365.658
2064743.0,1709208365.698
2065071.0,1709208365.739
2065724.0,1709208365.778
2068521.0,1709208365.859
2070235.0,1709208365.898
2071633.0,1709208365.939
2067246.0,1709208365.819
2075360.0,1709208366.019
2073363.0,1709208365.98
2079296.0,1709208366.1
2076971.0,1709208366.059
2075999.0,1709208366.179
2054832.0,1709208366.259
2064920.0,1709208366.221
2080822.0,1709208366.139
2044884.0,1709208366.34
2040823.0,1709208366.379
2037064.0,1709208366.42
2035028.0,1709208366.461
2035277.0,1709208366.5
2037418.0,1709208366.54
2045676.0,1709208366.582
2048938.0,1709208366.299
2056384.0,1709208366.619
2063178.0,1709208366.659
2067393.0,1709208366.7
2069862.0,1709208366.739
2071735.0,1709208366.78
2073833.0,1709208366.822
2075636.0,1709208366.86
2077019.0,1709208366.901
2078190.0,1709208366.94
2079134.0,1709208366.974
2080357.0,1709208367.015
2081507.0,1709208367.055
2082931.0,1709208367.094
2083760.0,1709208367.134
2084815.0,1709208367.175
2085460.0,1709208367.215
2085962.0,1709208367.255
2085812.0,1709208367.296
2085642.0,1709208367.335
2085685.0,1709208367.375
2085867.0,1709208367.417
2085446.0,1709208367.455
2077324.0,1709208367.495
2064703.0,1709208367.536
2054815.0,1709208367.576
2048896.0,1709208367.616
2044436.0,1709208367.657
2039763.0,1709208367.696
2036255.0,1709208367.736
2033489.0,1709208367.777
2030078.0,1709208367.817
2026368.0,1709208367.856
2023191.0,1709208367.897
2021307.0,1709208367.937
2020370.0,1709208367.977
2019742.0,1709208368.019
2019937.0,1709208368.057
2020136.0,1709208368.097
2020492.0,1709208368.138
2021227.0,1709208368.177
2021935.0,1709208368.218
2023106.0,1709208368.259
2025247.0,1709208368.298
2027741.0,1709208368.339
2031687.0,1709208368.381
2035996.0,1709208368.42
2040441.0,1709208368.459
2045523.0,1709208368.501
2051127.0,1709208368.54
2056791.0,1709208368.58
2061743.0,1709208368.622
2066427.0,1709208368.661
2069498.0,1709208368.701
2071456.0,1709208368.742
2070309.0,1709208368.781
2064715.0,1709208368.82
2060237.0,1709208368.861
2058983.0,1709208368.9
2058811.0,1709208368.94
2058393.0,1709208368.982
2058545.0,1709208369.022
2058024.0,1709208369.061
2056263.0,1709208369.102
2053891.0,1709208369.142
2051896.0,1709208369.18
2050209.0,1709208369.222
2049307.0,1709208369.26
2048322.0,1709208369.301
2047359.0,1709208369.342
2046469.0,1709208369.381
2045695.0,1709208369.422
2045458.0,1709208369.463
2045148.0,1709208369.5
2045044.0,1709208369.54
2045396.0,1709208369.581
2045977.0,1709208369.621
2046677.0,1709208369.661
2047789.0,1709208369.702
2049019.0,1709208369.741
2050761.0,1709208369.782
2052203.0,1709208369.824
2054078.0,1709208369.86
2055880.0,1709208369.9
2057925.0,1709208369.942
2058816.0,1709208369.981
2052382.0,1709208370.022
2042883.0,1709208370.062
2035735.0,1709208370.102
2032680.0,1709208370.142
2031886.0,1709208370.183
2031165.0,1709208370.221
2032381.0,1709208370.265
2034165.0,1709208370.301
2035001.0,1709208370.34
2035456.0,1709208370.381
2036562.0,1709208370.422
2037793.0,1709208370.46
2039519.0,1709208370.501
2040891.0,1709208370.542
2042377.0,1709208370.581
2043889.0,1709208370.622
2045299.0,1709208370.663
2046619.0,1709208370.702
2048145.0,1709208370.742
2049746.0,1709208370.783
2054828.0,1709208370.861
2052226.0,1709208370.821
2057463.0,1709208370.902
2060611.0,1709208370.941
2063471.0,1709208370.982
2066515.0,1709208371.024
2069242.0,1709208371.062
2072245.0,1709208371.102
2074885.0,1709208371.142
2077596.0,1709208371.181
2080210.0,1709208371.222
2082643.0,1709208371.262
2085275.0,1709208371.302
2087541.0,1709208371.342
2083393.0,1709208371.383
2072947.0,1709208371.423
2064779.0,1709208371.461
2060569.0,1709208371.502
2058224.0,1709208371.541
2055245.0,1709208371.582
2053026.0,1709208371.623
2051341.0,1709208371.662
2049152.0,1709208371.702
2046571.0,1709208371.744
2044023.0,1709208371.783
2043056.0,1709208371.822
2043069.0,1709208371.862
2043574.0,1709208371.901
2044748.0,1709208371.942
2046096.0,1709208371.983
2047402.0,1709208372.023
2049141.0,1709208372.062
2051060.0,1709208372.104
2052876.0,1709208372.146
2055131.0,1709208372.186
2057502.0,1709208372.227
2059835.0,1709208372.266
2062279.0,1709208372.306
2064987.0,1709208372.347
2067314.0,1709208372.386
2069827.0,1709208372.427
2072424.0,1709208372.467
2075250.0,1709208372.506
2077661.0,1709208372.546
2080518.0,1709208372.588
2083256.0,1709208372.627
2086449.0,1709208372.667
2089007.0,1709208372.708
2086399.0,1709208372.747
2077073.0,1709208372.788
2069667.0,1709208372.83
2066719.0,1709208372.865
2065600.0,1709208372.905
2064206.0,1709208372.946
2063277.0,1709208372.985
2062526.0,1709208373.027
2061011.0,1709208373.068
2058581.0,1709208373.106
2056631.0,1709208373.147
2055303.0,1709208373.188
2055204.0,1709208373.228
2055674.0,1709208373.267
2056394.0,1709208373.309
2057251.0,1709208373.348
2058026.0,1709208373.388
2058429.0,1709208373.43
2058525.0,1709208373.467
2058742.0,1709208373.507
2058989.0,1709208373.548
2059779.0,1709208373.587
2060789.0,1709208373.628
2062383.0,1709208373.669
2064307.0,1709208373.708
2066135.0,1709208373.748
2068033.0,1709208373.79
2069673.0,1709208373.827
2071517.0,1709208373.867
2073446.0,1709208373.908
2072472.0,1709208373.948
2062996.0,1709208373.988
2052056.0,1709208374.03
2044594.0,1709208374.068
2040571.0,1709208374.109
2037355.0,1709208374.15
2034124.0,1709208374.187
2032074.0,1709208374.228
2029627.0,1709208374.268
2025971.0,1709208374.308
2022104.0,1709208374.348
2019031.0,1709208374.389
2017223.0,1709208374.429
2016276.0,1709208374.469
2015970.0,1709208374.508
2015880.0,1709208374.547
2016291.0,1709208374.588
2016587.0,1709208374.63
2017429.0,1709208374.668
2018308.0,1709208374.708
2019232.0,1709208374.75
2020456.0,1709208374.789
2022058.0,1709208374.83
2023717.0,1709208374.868
2025656.0,1709208374.907
2027860.0,1709208374.948
2030128.0,1709208374.989
2032562.0,1709208375.029
2035058.0,1709208375.069
2037466.0,1709208375.11
2040221.0,1709208375.149
2043077.0,1709208375.189
2042601.0,1709208375.229
2033534.0,1709208375.268
2023615.0,1709208375.308
2017943.0,1709208375.349
2015311.0,1709208375.391
2012744.0,1709208375.428
2010292.0,1709208375.469
2008979.0,1709208375.507
2007480.0,1709208375.548
2005445.0,1709208375.589
2003010.0,1709208375.629
2001960.0,1709208375.668
2001931.0,1709208375.71
2002838.0,1709208375.749
2003994.0,1709208375.789
2005772.0,1709208375.831
2007572.0,1709208375.87
2009426.0,1709208375.908
2011273.0,1709208375.949
2013321.0,1709208375.988
2015366.0,1709208376.029
2017657.0,1709208376.07
2020085.0,1709208376.109
2022759.0,1709208376.149
2025586.0,1709208376.19
2028388.0,1709208376.23
2031183.0,1709208376.268
2033955.0,1709208376.309
2036753.0,1709208376.348
2045660.0,1709208376.469
2048475.0,1709208376.51
2045544.0,1709208376.551
2039546.0,1709208376.389
2042501.0,1709208376.431
2036100.0,1709208376.588
2028317.0,1709208376.629
2023201.0,1709208376.709
2019647.0,1709208376.79
2021236.0,1709208376.749
2024972.0,1709208376.669
2018739.0,1709208376.83
2016528.0,1709208376.87
2013700.0,1709208376.911
2008876.0,1709208377.03
2009481.0,1709208376.988
2011268.0,1709208376.948
2008209.0,1709208377.069
2008041.0,1709208377.109
2008081.0,1709208377.15
2008260.0,1709208377.19
2008893.0,1709208377.231
2009317.0,1709208377.271
2009984.0,1709208377.308
2011069.0,1709208377.349
2012644.0,1709208377.39
2014629.0,1709208377.43
2017151.0,1709208377.469
2019811.0,1709208377.511
2022251.0,1709208377.55
2025136.0,1709208377.59
2028013.0,1709208377.63
2030997.0,1709208377.669
2033952.0,1709208377.709
2036790.0,1709208377.75
2039658.0,1709208377.789
2037898.0,1709208377.83
2029674.0,1709208377.871
2022929.0,1709208377.91
2019676.0,1709208377.951
2018399.0,1709208377.989
2017309.0,1709208378.029
2016954.0,1709208378.068
2016924.0,1709208378.109
2016294.0,1709208378.149
2015162.0,1709208378.19
2013910.0,1709208378.23
2014109.0,1709208378.269
2014720.0,1709208378.309
2016125.0,1709208378.35
2017867.0,1709208378.39
2019832.0,1709208378.431
2022064.0,1709208378.471
2024052.0,1709208378.511
2026345.0,1709208378.551
2028739.0,1709208378.59
2031061.0,1709208378.63
2033624.0,1709208378.669
2036682.0,1709208378.711
2040011.0,1709208378.75
2043266.0,1709208378.79
2046383.0,1709208378.832
2049839.0,1709208378.871
2053484.0,1709208378.911
2057370.0,1709208378.95
2061455.0,1709208378.989
2065513.0,1709208379.03
2067770.0,1709208379.071
2062322.0,1709208379.11
2055192.0,1709208379.15
2050964.0,1709208379.191
2049909.0,1709208379.231
2050250.0,1709208379.271
2056776.0,1709208379.349
2051664.0,1709208379.31
2082534.0,1709208379.432
2087555.0,1709208379.47
2070412.0,1709208379.39
2089920.0,1709208379.552
2089547.0,1709208379.511
2089949.0,1709208379.591
2089724.0,1709208379.63
2089474.0,1709208379.671
2089761.0,1709208379.71
2089827.0,1709208379.75
2089959.0,1709208379.791
2089445.0,1709208379.831
2088595.0,1709208379.871
2087803.0,1709208379.912
2087084.0,1709208379.951
2086508.0,1709208379.989
2086240.0,1709208380.031
2086130.0,1709208380.07
2085976.0,1709208380.11
2085792.0,1709208380.152
2085442.0,1709208380.191
2085479.0,1709208380.232
2085782.0,1709208380.272
2086050.0,1709208380.311
2083695.0,1709208380.35
2073851.0,1709208380.391
2062253.0,1709208380.431
2053901.0,1709208380.471
2048733.0,1709208380.513
2044331.0,1709208380.549
2040203.0,1709208380.59
2036783.0,1709208380.631
2033088.0,1709208380.67
2028261.0,1709208380.71
2023380.0,1709208380.751
2019252.0,1709208380.791
2016202.0,1709208380.832
2014358.0,1709208380.872
2013511.0,1709208380.911
2013430.0,1709208380.952
2014278.0,1709208380.991
2016243.0,1709208381.031
2018270.0,1709208381.07
2020278.0,1709208381.112
2022285.0,1709208381.151
2024980.0,1709208381.191
2027747.0,1709208381.233
2030576.0,1709208381.272
2033045.0,1709208381.312
2035585.0,1709208381.351
2038321.0,1709208381.39
2041092.0,1709208381.431
2041295.0,1709208381.472
2033621.0,1709208381.511
2024358.0,1709208381.551
2018496.0,1709208381.593
2015666.0,1709208381.633
2013269.0,1709208381.67
2011246.0,1709208381.711
2009977.0,1709208381.751
2007864.0,1709208381.791
2004361.0,1709208381.833
2000571.0,1709208381.871
1997012.0,1709208381.912
1995180.0,1709208381.953
1994238.0,1709208381.992
1993950.0,1709208382.031
1993964.0,1709208382.072
1994262.0,1709208382.111
1994034.0,1709208382.151
1993659.0,1709208382.192
1993567.0,1709208382.232
1993932.0,1709208382.272
1994336.0,1709208382.313
1994951.0,1709208382.352
1995950.0,1709208382.391
1996928.0,1709208382.433
1997899.0,1709208382.471
1999029.0,1709208382.511
2000370.0,1709208382.553
2002045.0,1709208382.592
2003936.0,1709208382.633
2003707.0,1709208382.673
1994188.0,1709208382.713
1982520.0,1709208382.751
1974150.0,1709208382.792
1968901.0,1709208382.832
1964382.0,1709208382.871
1960328.0,1709208382.913
1957670.0,1709208382.952
1955022.0,1709208382.992
1951691.0,1709208383.034
1948344.0,1709208383.077
1945993.0,1709208383.118
1945082.0,1709208383.155
1945135.0,1709208383.191
1945942.0,1709208383.232
1948246.0,1709208383.272
1955973.0,1709208383.312
1963047.0,1709208383.352
1969029.0,1709208383.393
1976716.0,1709208383.433
1985156.0,1709208383.473
1992661.0,1709208383.512
1997660.0,1709208383.551
2001877.0,1709208383.592
2005632.0,1709208383.634
2009106.0,1709208383.672
2012165.0,1709208383.712
2014674.0,1709208383.754
2016576.0,1709208383.793
2018041.0,1709208383.832
2019532.0,1709208383.872
2021023.0,1709208383.912
2022546.0,1709208383.952
2023232.0,1709208383.993
2016184.0,1709208384.033
2004710.0,1709208384.073
1995091.0,1709208384.114
1989669.0,1709208384.156
1984807.0,1709208384.196
1979943.0,1709208384.238
1976238.0,1709208384.276
1969552.0,1709208384.357
1973246.0,1709208384.316
1965528.0,1709208384.396
1962472.0,1709208384.437
1960638.0,1709208384.478
1960195.0,1709208384.517
1960223.0,1709208384.557
1961796.0,1709208384.637
1963129.0,1709208384.677
1960732.0,1709208384.598
1967382.0,1709208384.797
1964419.0,1709208384.718
1965715.0,1709208384.757
1969331.0,1709208384.839
1971714.0,1709208384.877
1981947.0,1709208384.997
1974807.0,1709208384.917
1978036.0,1709208384.958
1985634.0,1709208385.038
1990041.0,1709208385.079
1994594.0,1709208385.118
1999503.0,1709208385.199
1999642.0,1709208385.158
1994006.0,1709208385.238
1989635.0,1709208385.278
1987665.0,1709208385.319
1986780.0,1709208385.358
1985337.0,1709208385.398
1984048.0,1709208385.44
1978413.0,1709208385.558
1976710.0,1709208385.597
1976338.0,1709208385.638
1980726.0,1709208385.519
1982980.0,1709208385.478
1978086.0,1709208385.679
1981676.0,1709208385.718
1986592.0,1709208385.758
1991635.0,1709208385.799
1998080.0,1709208385.839
2005810.0,1709208385.878
2015410.0,1709208385.919
2027701.0,1709208385.959
2038109.0,1709208385.999
2050414.0,1709208386.077
2045384.0,1709208386.039
2054320.0,1709208386.118
2057901.0,1709208386.159
2061065.0,1709208386.198
2063892.0,1709208386.239
2066262.0,1709208386.28
2068398.0,1709208386.319
2068921.0,1709208386.398
2069932.0,1709208386.359
2059792.0,1709208386.438
2049388.0,1709208386.478
2031421.0,1709208386.599
2041819.0,1709208386.519
2036622.0,1709208386.558
2025887.0,1709208386.641
2021659.0,1709208386.679
2017016.0,1709208386.719
2011623.0,1709208386.758
2006357.0,1709208386.798
2001948.0,1709208386.839
1998693.0,1709208386.879
1996222.0,1709208386.918
1994474.0,1709208386.959
1992855.0,1709208387.0
1991537.0,1709208387.04
1990977.0,1709208387.08
1990562.0,1709208387.119
1991399.0,1709208387.158
1992971.0,1709208387.198
1993998.0,1709208387.24
1995435.0,1709208387.279
1997623.0,1709208387.319
2000048.0,1709208387.36
2002458.0,1709208387.4
2005185.0,1709208387.438
2009131.0,1709208387.479
2013381.0,1709208387.518
2017443.0,1709208387.559
2018682.0,1709208387.6
2012791.0,1709208387.64
2006637.0,1709208387.679
2003347.0,1709208387.72
2001716.0,1709208387.76
2000930.0,1709208387.798
2000775.0,1709208387.84
2001070.0,1709208387.878
2000460.0,1709208387.919
1998579.0,1709208387.96
1997118.0,1709208387.999
1996213.0,1709208388.04
1996128.0,1709208388.081
1996987.0,1709208388.12
1998002.0,1709208388.158
1999080.0,1709208388.199
2000222.0,1709208388.239
2001455.0,1709208388.279
2002373.0,1709208388.32
2003446.0,1709208388.359
2004304.0,1709208388.399
2005607.0,1709208388.441
2007029.0,1709208388.48
2008930.0,1709208388.518
2010838.0,1709208388.56
2013032.0,1709208388.599
2013216.0,1709208388.64
2006644.0,1709208388.68
1998986.0,1709208388.72
1994622.0,1709208388.76
1992016.0,1709208388.801
1989952.0,1709208388.841
1988499.0,1709208388.878
1987922.0,1709208388.92
1987009.0,1709208388.959
1985164.0,1709208388.999
1983744.0,1709208389.041
1983086.0,1709208389.08
1983556.0,1709208389.12
1984861.0,1709208389.161
1986461.0,1709208389.2
1988508.0,1709208389.239
1990756.0,1709208389.28
1992803.0,1709208389.319
1994724.0,1709208389.359
1996544.0,1709208389.401
1998636.0,1709208389.441
2001315.0,1709208389.48
2004223.0,1709208389.521
2007179.0,1709208389.559
2010746.0,1709208389.599
2014364.0,1709208389.641
2018258.0,1709208389.679
2022570.0,1709208389.72
2027329.0,1709208389.761
2031121.0,1709208389.8
2029416.0,1709208389.841
2026183.0,1709208389.882
2025947.0,1709208389.919
2028294.0,1709208389.959
2029635.0,1709208390.0
2030612.0,1709208390.04
2032121.0,1709208390.08
2033495.0,1709208390.121
2034425.0,1709208390.16
2035825.0,1709208390.201
2037879.0,1709208390.243
2040101.0,1709208390.279
2042491.0,1709208390.319
2045596.0,1709208390.361
2050161.0,1709208390.4
2054319.0,1709208390.441
2057497.0,1709208390.481
2060509.0,1709208390.521
2062918.0,1709208390.561
2065106.0,1709208390.6
2067223.0,1709208390.64
2069806.0,1709208390.68
2072313.0,1709208390.721
2074552.0,1709208390.76
2076952.0,1709208390.798
2079661.0,1709208390.84
2081551.0,1709208390.878
2083882.0,1709208390.918
2086018.0,1709208390.959
2087754.0,1709208390.999
2089529.0,1709208391.041
2091249.0,1709208391.08
2093029.0,1709208391.119
2091224.0,1709208391.16
2084842.0,1709208391.201
2080077.0,1709208391.241
2077987.0,1709208391.281
2076998.0,1709208391.322
2076157.0,1709208391.361
2075569.0,1709208391.402
2075745.0,1709208391.441
2075641.0,1709208391.48
2075054.0,1709208391.52
2074451.0,1709208391.561
2074712.0,1709208391.601
2075471.0,1709208391.642
2076414.0,1709208391.682
2077786.0,1709208391.721
2079046.0,1709208391.762
2080073.0,1709208391.801
2081300.0,1709208391.841
2082360.0,1709208391.88
2083961.0,1709208391.921
2085350.0,1709208391.961
2086968.0,1709208392.001
2088952.0,1709208392.043
2090419.0,1709208392.082
2092380.0,1709208392.12
2093752.0,1709208392.161
2095431.0,1709208392.2
2096629.0,1709208392.241
2097583.0,1709208392.282
2098683.0,1709208392.321
2100029.0,1709208392.361
2101182.0,1709208392.403
2098799.0,1709208392.441
2092409.0,1709208392.48
2086146.0,1709208392.521
2082345.0,1709208392.561
2080126.0,1709208392.601
2078339.0,1709208392.643
2077045.0,1709208392.681
2076477.0,1709208392.722
2075248.0,1709208392.763
2073381.0,1709208392.8
2071557.0,1709208392.841
2070914.0,1709208392.882
2070849.0,1709208392.921
2070686.0,1709208392.961
2071064.0,1709208393.002
2071602.0,1709208393.042
2072193.0,1709208393.082
2072654.0,1709208393.123
2073062.0,1709208393.16
2073771.0,1709208393.201
2074604.0,1709208393.243
2075531.0,1709208393.281
2077187.0,1709208393.321
2078886.0,1709208393.36
2080836.0,1709208393.399
2082324.0,1709208393.44
2084447.0,1709208393.48
2086107.0,1709208393.519
2087681.0,1709208393.559
2089951.0,1709208393.6
2091798.0,1709208393.64
2093975.0,1709208393.679
2094176.0,1709208393.722
2088090.0,1709208393.761
2080440.0,1709208393.801
2074572.0,1709208393.842
2071392.0,1709208393.881
2068967.0,1709208393.921
2066533.0,1709208393.962
2064857.0,1709208394.002
2063093.0,1709208394.043
2060722.0,1709208394.083
2058128.0,1709208394.122
2055615.0,1709208394.163
2054294.0,1709208394.202
2053610.0,1709208394.242
2053459.0,1709208394.281
2053715.0,1709208394.323
2053894.0,1709208394.362
2054180.0,1709208394.402
2054173.0,1709208394.444
2054582.0,1709208394.483
2054827.0,1709208394.521
2055589.0,1709208394.562
2056869.0,1709208394.601
2058114.0,1709208394.642
2059787.0,1709208394.683
2061528.0,1709208394.722
2063469.0,1709208394.762
2065551.0,1709208394.804
2067643.0,1709208394.844
2069795.0,1709208394.881
2072255.0,1709208394.922
2074603.0,1709208394.962
2076171.0,1709208395.002
2071768.0,1709208395.044
2063666.0,1709208395.082
2056844.0,1709208395.123
2053312.0,1709208395.164
2051573.0,1709208395.203
2049888.0,1709208395.242
2048999.0,1709208395.282
2048179.0,1709208395.322
2046654.0,1709208395.362
2044260.0,1709208395.403
2042570.0,1709208395.443
2041770.0,1709208395.483
2041814.0,1709208395.524
2042664.0,1709208395.561
2043914.0,1709208395.602
2045432.0,1709208395.644
2046974.0,1709208395.682
2048544.0,1709208395.722
2050268.0,1709208395.764
2051667.0,1709208395.803
2053595.0,1709208395.844
2055652.0,1709208395.884
2057764.0,1709208395.923
2060277.0,1709208395.962
2062485.0,1709208396.003
2065070.0,1709208396.043
2067591.0,1709208396.082
2070456.0,1709208396.124
2073210.0,1709208396.158
2075166.0,1709208396.198
2071435.0,1709208396.239
2063752.0,1709208396.278
2057301.0,1709208396.318
2054514.0,1709208396.359
2052966.0,1709208396.398
2051642.0,1709208396.439
2051491.0,1709208396.479
2052283.0,1709208396.518
2055481.0,1709208396.558
2061184.0,1709208396.599
2074774.0,1709208396.639
2086575.0,1709208396.679
2093411.0,1709208396.72
2096189.0,1709208396.759
2096940.0,1709208396.799
2097384.0,1709208396.841
2097755.0,1709208396.879
2097640.0,1709208396.919
2097720.0,1709208396.96
2097971.0,1709208396.999
2098484.0,1709208397.04
2099829.0,1709208397.08
2100914.0,1709208397.119
2102387.0,1709208397.16
2103861.0,1709208397.201
2105617.0,1709208397.24
2107391.0,1709208397.28
2108952.0,1709208397.321
2110868.0,1709208397.36
2112799.0,1709208397.4
2114738.0,1709208397.442
2117037.0,1709208397.48
2117137.0,1709208397.52
2111062.0,1709208397.561
2103815.0,1709208397.601
2099226.0,1709208397.642
2097555.0,1709208397.682
2096884.0,1709208397.719
2095917.0,1709208397.76
2095890.0,1709208397.801
2095972.0,1709208397.841
2095352.0,1709208397.88
2094318.0,1709208397.922
2093604.0,1709208397.961
2093449.0,1709208398.001
2094053.0,1709208398.043
2095234.0,1709208398.079
2096205.0,1709208398.12
2097454.0,1709208398.161
2099084.0,1709208398.2
2100564.0,1709208398.241
2101976.0,1709208398.282
2103379.0,1709208398.321
2104861.0,1709208398.361
2106580.0,1709208398.401
2108445.0,1709208398.441
2110072.0,1709208398.48
2111969.0,1709208398.521
2113514.0,1709208398.56
2115470.0,1709208398.6
2117149.0,1709208398.642
2118678.0,1709208398.68
2120295.0,1709208398.721
2122008.0,1709208398.762
2123984.0,1709208398.801
2124914.0,1709208398.842
2119863.0,1709208398.883
2112167.0,1709208398.92
2107142.0,1709208398.96
2105008.0,1709208399.001
2104130.0,1709208399.041
2103567.0,1709208399.081
2103318.0,1709208399.122
2102886.0,1709208399.161
2101603.0,1709208399.202
2099744.0,1709208399.244
2098512.0,1709208399.28
2098451.0,1709208399.32
2098776.0,1709208399.362
2099772.0,1709208399.401
2100912.0,1709208399.442
2102101.0,1709208399.482
2103114.0,1709208399.522
2104152.0,1709208399.562
2105210.0,1709208399.601
2106147.0,1709208399.641
2107366.0,1709208399.681
2108683.0,1709208399.722
2110091.0,1709208399.761
2111811.0,1709208399.801
2113404.0,1709208399.843
2115286.0,1709208399.882
2117246.0,1709208399.922
2119417.0,1709208399.961
2121639.0,1709208400.001
2123544.0,1709208400.042
2126009.0,1709208400.082
2128284.0,1709208400.121
2130983.0,1709208400.162
2130882.0,1709208400.203
2124452.0,1709208400.243
2116465.0,1709208400.282
2111389.0,1709208400.322
2109192.0,1709208400.361
2107682.0,1709208400.401
2106088.0,1709208400.443
2104987.0,1709208400.482
2104029.0,1709208400.522
2101972.0,1709208400.563
2099641.0,1709208400.603
2097758.0,1709208400.641
2097041.0,1709208400.682
2096969.0,1709208400.721
2097452.0,1709208400.761
2100819.0,1709208400.803
2106800.0,1709208400.843
2120544.0,1709208400.882
2135144.0,1709208400.923
2143374.0,1709208400.963
2146561.0,1709208401.0
2146090.0,1709208401.042
2144801.0,1709208401.08
2144300.0,1709208401.12
2143838.0,1709208401.161
2143373.0,1709208401.201
2143736.0,1709208401.242
2144354.0,1709208401.282
2144865.0,1709208401.321
2145692.0,1709208401.362
2146377.0,1709208401.403
2147243.0,1709208401.443
2148157.0,1709208401.482
2149445.0,1709208401.524
2150095.0,1709208401.561
2144878.0,1709208401.601
2133408.0,1709208401.643
2122846.0,1709208401.682
2116030.0,1709208401.722
2112476.0,1709208401.763
2108527.0,1709208401.803
2105134.0,1709208401.844
2102667.0,1709208401.884
2099575.0,1709208401.921
2095428.0,1709208401.961
2091184.0,1709208402.003
2088294.0,1709208402.043
2086935.0,1709208402.082
2085766.0,1709208402.123
2084974.0,1709208402.163
2084326.0,1709208402.203
2083954.0,1709208402.243
2083496.0,1709208402.282
2083033.0,1709208402.322
2082886.0,1709208402.363
2083173.0,1709208402.402
2084097.0,1709208402.443
2085850.0,1709208402.484
2087827.0,1709208402.523
2090735.0,1709208402.561
2093510.0,1709208402.603
2096742.0,1709208402.643
2099846.0,1709208402.682
2102626.0,1709208402.723
2104748.0,1709208402.763
2106272.0,1709208402.803
2107224.0,1709208402.845
2108397.0,1709208402.883
2107708.0,1709208402.922
2100765.0,1709208402.963
2093290.0,1709208403.002
2091432.0,1709208403.043
2095616.0,1709208403.084
2099647.0,1709208403.123
2101449.0,1709208403.163
2101903.0,1709208403.204
2100088.0,1709208403.244
2097134.0,1709208403.282
2093096.0,1709208403.323
2089468.0,1709208403.362
2086703.0,1709208403.403
2084701.0,1709208403.445
2083412.0,1709208403.483
2082728.0,1709208403.523
2082258.0,1709208403.565
2082055.0,1709208403.604
2081841.0,1709208403.644
2082073.0,1709208403.685
2082134.0,1709208403.722
2082949.0,1709208403.762
2084309.0,1709208403.803
2085698.0,1709208403.843
2087173.0,1709208403.883
2088972.0,1709208403.924
2090277.0,1709208403.963
2091884.0,1709208404.004
2092904.0,1709208404.046
2094690.0,1709208404.082
2096610.0,1709208404.125
2095391.0,1709208404.166
2086049.0,1709208404.205
2075466.0,1709208404.245
2068897.0,1709208404.286
2065540.0,1709208404.325
2063148.0,1709208404.365
2061207.0,1709208404.406
2060113.0,1709208404.446
2057906.0,1709208404.485
2054115.0,1709208404.526
2050345.0,1709208404.566
2047605.0,1709208404.606
2046190.0,1709208404.647
2046563.0,1709208404.686
2048812.0,1709208404.726
2051110.0,1709208404.767
2053012.0,1709208404.806
2054672.0,1709208404.848
2056622.0,1709208404.886
2058224.0,1709208404.922
2060919.0,1709208405.004
2059583.0,1709208404.963
2062055.0,1709208405.044
2064661.0,1709208405.125
2067609.0,1709208405.204
2066107.0,1709208405.164
2063341.0,1709208405.084
2068565.0,1709208405.364
2072422.0,1709208405.323
2069357.0,1709208405.246
2071010.0,1709208405.283
2044983.0,1709208405.445
2056953.0,1709208405.404
2031605.0,1709208405.524
2036972.0,1709208405.485
2022068.0,1709208405.604
2018974.0,1709208405.644
2015483.0,1709208405.683
2026649.0,1709208405.565
2011112.0,1709208405.725
2007158.0,1709208405.764
2004446.0,1709208405.804
2003111.0,1709208405.846
2002837.0,1709208405.925
2002558.0,1709208405.885
2003341.0,1709208405.964
2005141.0,1709208406.044
2004380.0,1709208406.003
2005935.0,1709208406.085
2007172.0,1709208406.122
2008297.0,1709208406.162
2010178.0,1709208406.203
2012508.0,1709208406.243
2014762.0,1709208406.283
2017466.0,1709208406.324
2020202.0,1709208406.363
2023047.0,1709208406.404
2025971.0,1709208406.446
2029037.0,1709208406.484
2032282.0,1709208406.524
2034322.0,1709208406.566
2028812.0,1709208406.605
2020397.0,1709208406.646
2015111.0,1709208406.684
2012503.0,1709208406.723
2010837.0,1709208406.764
2009003.0,1709208406.805
2008015.0,1709208406.845
2007443.0,1709208406.884
2006206.0,1709208406.926
2004445.0,1709208406.965
2003883.0,1709208407.005
2004043.0,1709208407.045
2006814.0,1709208407.124
2004962.0,1709208407.084
2008767.0,1709208407.165
2010730.0,1709208407.204
2013178.0,1709208407.245
2015534.0,1709208407.286
2017939.0,1709208407.325
2020416.0,1709208407.365
2023257.0,1709208407.405
2026181.0,1709208407.445
2029329.0,1709208407.484
2032747.0,1709208407.525
2036253.0,1709208407.565
2039576.0,1709208407.605
2043140.0,1709208407.647
2046768.0,1709208407.685
2050146.0,1709208407.726
2053825.0,1709208407.765
2057361.0,1709208407.804
2060950.0,1709208407.845
2064604.0,1709208407.885
2068017.0,1709208407.925
2067114.0,1709208407.965
2063328.0,1709208408.006
2060796.0,1709208408.046
2060999.0,1709208408.086
2062093.0,1709208408.125
2062920.0,1709208408.164
2064259.0,1709208408.203
2065962.0,1709208408.242
2067227.0,1709208408.281
2067911.0,1709208408.32
2068942.0,1709208408.359
2070572.0,1709208408.398
2072828.0,1709208408.437
2075319.0,1709208408.476
2077813.0,1709208408.515
2080406.0,1709208408.554
2083298.0,1709208408.593
2085836.0,1709208408.632
2088029.0,1709208408.671
2090601.0,1709208408.71
2093040.0,1709208408.749
2095709.0,1709208408.788
2098009.0,1709208408.827
2100775.0,1709208408.866
2103484.0,1709208408.905
2105921.0,1709208408.944
2108502.0,1709208408.983
2111273.0,1709208409.022
2113975.0,1709208409.061
2116821.0,1709208409.1
2119895.0,1709208409.139
2122910.0,1709208409.178
2125285.0,1709208409.217
2124099.0,1709208409.256
2121638.0,1709208409.295
2120754.0,1709208409.334
2121850.0,1709208409.373
2123388.0,1709208409.412
2124858.0,1709208409.451
2126560.0,1709208409.49
2128134.0,1709208409.529
2129073.0,1709208409.568
2129906.0,1709208409.607
2130947.0,1709208409.646
2132540.0,1709208409.685
2134445.0,1709208409.724
2136702.0,1709208409.763
2138960.0,1709208409.802
2141104.0,1709208409.841
2143303.0,1709208409.881
2145592.0,1709208409.921
2147649.0,1709208409.961
2149892.0,1709208410.001
2152112.0,1709208410.041
2154580.0,1709208410.081
2157064.0,1709208410.121
2159552.0,1709208410.161
2162163.0,1709208410.201
2164514.0,1709208410.241
2166720.0,1709208410.281
2169073.0,1709208410.321
2171916.0,1709208410.361
2173929.0,1709208410.401
2174544.0,1709208410.441
2170959.0,1709208410.481
2166977.0,1709208410.521
2165150.0,1709208410.561
2165025.0,1709208410.601
2164856.0,1709208410.641
2164971.0,1709208410.681
2165253.0,1709208410.721
2165189.0,1709208410.761
2164535.0,1709208410.801
2163962.0,1709208410.841
2163878.0,1709208410.881
2164075.0,1709208410.921
2164721.0,1709208410.961
2165609.0,1709208411.001
2166855.0,1709208411.041
2167879.0,1709208411.081
2168834.0,1709208411.121
2169704.0,1709208411.161
2170744.0,1709208411.201
2171501.0,1709208411.241
2172740.0,1709208411.281
2173824.0,1709208411.321
2174944.0,1709208411.361
2176505.0,1709208411.401
2177884.0,1709208411.441
2179458.0,1709208411.481
2181086.0,1709208411.521
2182605.0,1709208411.561
2184191.0,1709208411.601
2185766.0,1709208411.641
2187199.0,1709208411.681
2184884.0,1709208411.721
2177509.0,1709208411.761
2169641.0,1709208411.801
2164393.0,1709208411.841
2161772.0,1709208411.881
2159426.0,1709208411.921
2157112.0,1709208411.961
2155650.0,1709208412.001
2153509.0,1709208412.041
2150700.0,1709208412.081
2148043.0,1709208412.121
2145635.0,1709208412.161
2144217.0,1709208412.201
2143796.0,1709208412.241
2143640.0,1709208412.281
2143798.0,1709208412.321
2144215.0,1709208412.361
2144468.0,1709208412.401
2144657.0,1709208412.441
2144987.0,1709208412.481
2145372.0,1709208412.521
2145841.0,1709208412.561
2146559.0,1709208412.601
2147426.0,1709208412.641
2148439.0,1709208412.681
2149450.0,1709208412.721
2150537.0,1709208412.761
2151499.0,1709208412.801
2152381.0,1709208412.841
2153286.0,1709208412.881
2154230.0,1709208412.921
2154322.0,1709208412.961
2149824.0,1709208413.001
2139374.0,1709208413.041
2130787.0,1709208413.081
2128090.0,1709208413.121
2129484.0,1709208413.161
2135795.0,1709208413.201
2142578.0,1709208413.241
2146228.0,1709208413.281
2147235.0,1709208413.321
2145382.0,1709208413.361
2142405.0,1709208413.401
2139804.0,1709208413.441
2138408.0,1709208413.481
2137494.0,1709208413.521
2137192.0,1709208413.561
2137077.0,1709208413.601
2136771.0,1709208413.641
2136431.0,1709208413.681
2136220.0,1709208413.721
2135408.0,1709208413.761
2134917.0,1709208413.801
2134873.0,1709208413.841
2135018.0,1709208413.881
2135447.0,1709208413.921
2136534.0,1709208413.961
2137473.0,1709208414.001
2138603.0,1709208414.041
2139838.0,1709208414.081
2141103.0,1709208414.121
2142583.0,1709208414.161
2144201.0,1709208414.201
2140912.0,1709208414.241
2130998.0,1709208414.281
2121246.0,1709208414.321
2115401.0,1709208414.361
2112680.0,1709208414.401
2110414.0,1709208414.441
2109245.0,1709208414.481
2108060.0,1709208414.521
2106018.0,1709208414.561
2102591.0,1709208414.601
2099300.0,1709208414.641
2097015.0,1709208414.681
2096394.0,1709208414.721
2096299.0,1709208414.761
2096753.0,1709208414.801
2097708.0,1709208414.841
2098364.0,1709208414.881
2098745.0,1709208414.921
2098911.0,1709208414.961
2098933.0,1709208415.001
2098955.0,1709208415.041
2099123.0,1709208415.081
2100836.0,1709208415.121
2103562.0,1709208415.161
2107618.0,1709208415.201
2113175.0,1709208415.241
2117621.0,1709208415.281
2116283.0,1709208415.321
2107102.0,1709208415.361
2098333.0,1709208415.401
2093661.0,1709208415.441
2091095.0,1709208415.481
2089694.0,1709208415.521
2089407.0,1709208415.561
2088949.0,1709208415.601
2087166.0,1709208415.641
2084608.0,1709208415.681
2082347.0,1709208415.721
2081207.0,1709208415.761
2081278.0,1709208415.801
2081735.0,1709208415.841
2082484.0,1709208415.881
2083484.0,1709208415.921
2084510.0,1709208415.961
2085890.0,1709208416.001
2086897.0,1709208416.041
2088121.0,1709208416.081
2089403.0,1709208416.121
2090723.0,1709208416.161
2092212.0,1709208416.201
2094002.0,1709208416.241
2095872.0,1709208416.281
2097620.0,1709208416.321
2100017.0,1709208416.361
2101502.0,1709208416.401
2100433.0,1709208416.441
2090108.0,1709208416.481
2077804.0,1709208416.521
2068774.0,1709208416.561
2063209.0,1709208416.601
2059263.0,1709208416.641
2055074.0,1709208416.681
2052353.0,1709208416.721
2049418.0,1709208416.761
2045680.0,1709208416.801
2041644.0,1709208416.841
2038439.0,1709208416.881
2037021.0,1709208416.921
2036321.0,1709208416.961
2036163.0,1709208417.001
2036462.0,1709208417.041
2036955.0,1709208417.081
2037416.0,1709208417.121
2037897.0,1709208417.161
2038127.0,1709208417.201
2038616.0,1709208417.241
2039358.0,1709208417.281
2040622.0,1709208417.321
2042552.0,1709208417.361
2044169.0,1709208417.401
2046144.0,1709208417.441
2048060.0,1709208417.481
2050306.0,1709208417.521
2052510.0,1709208417.561
2054360.0,1709208417.601
2049413.0,1709208417.641
2039003.0,1709208417.681
2030250.0,1709208417.721
2025233.0,1709208417.761
2021898.0,1709208417.801
2018530.0,1709208417.841
2015968.0,1709208417.881
2014053.0,1709208417.921
2011105.0,1709208417.961
2008106.0,1709208418.001
2005168.0,1709208418.041
2003828.0,1709208418.081
2003137.0,1709208418.121
2003291.0,1709208418.161
2003886.0,1709208418.201
2004880.0,1709208418.241
2005980.0,1709208418.281
2006965.0,1709208418.321
2007915.0,1709208418.361
2008806.0,1709208418.401
2010078.0,1709208418.441
2011760.0,1709208418.481
2013386.0,1709208418.521
2015594.0,1709208418.561
2017564.0,1709208418.601
2020132.0,1709208418.641
2022629.0,1709208418.681
2025411.0,1709208418.721
2028563.0,1709208418.761
2030416.0,1709208418.801
2025956.0,1709208418.841
2019145.0,1709208418.881
2015203.0,1709208418.921
2013497.0,1709208418.961
2013191.0,1709208419.001
2012571.0,1709208419.041
2012970.0,1709208419.081
2012810.0,1709208419.121
2011817.0,1709208419.161
2010885.0,1709208419.201
2010711.0,1709208419.241
2011733.0,1709208419.281
2013350.0,1709208419.321
2015415.0,1709208419.361
2017617.0,1709208419.401
2020246.0,1709208419.441
2022593.0,1709208419.481
2025084.0,1709208419.521
2027718.0,1709208419.561
2030431.0,1709208419.601
2033278.0,1709208419.641
2036506.0,1709208419.681
2039739.0,1709208419.721
2042932.0,1709208419.761
2046211.0,1709208419.801
2049819.0,1709208419.841
2053287.0,1709208419.881
2056818.0,1709208419.921
2056967.0,1709208419.961
2052506.0,1709208420.001
2049474.0,1709208420.041
2048728.0,1709208420.081
2049490.0,1709208420.125
2050131.0,1709208420.165
2051158.0,1709208420.206
2052686.0,1709208420.245
2054019.0,1709208420.326
2054787.0,1709208420.365
2056181.0,1709208420.406
2053557.0,1709208420.285
2058198.0,1709208420.446
2060640.0,1709208420.485
2063267.0,1709208420.526
2066145.0,1709208420.567
2068656.0,1709208420.606
2071597.0,1709208420.646
2074266.0,1709208420.687
2076703.0,1709208420.726
2079395.0,1709208420.766
2082368.0,1709208420.808
2085171.0,1709208420.846
2088226.0,1709208420.886
2091318.0,1709208420.927
2094472.0,1709208420.966
2097383.0,1709208421.007
2100270.0,1709208421.048
2103207.0,1709208421.087
