bvp,time
12.93,1778927451.28125
19.23,1778927451.296875
31.37,1778927451.3125
46.97,1778927451.328125
62.19,1778927451.34375
73.55,1778927451.359375
79.42,1778927451.375
80.42,1778927451.390625
78.83,1778927451.40625
77.19,1778927451.421875
77.19,1778927451.4375
79.3,1778927451.453125
82.95,1778927451.46875
87.13,1778927451.484375
90.8,1778927451.5
93.11,1778927451.515625
93.47,1778927451.53125
91.61,1778927451.546875
87.58,1778927451.5625
81.73,1778927451.578125
74.56,1778927451.59375
66.52,1778927451.609375
57.95,1778927451.625
49.03,1778927451.640625
39.98,1778927451.65625
31.06,1778927451.671875
22.52,1778927451.6875
14.4,1778927451.703125
6.33,1778927451.71875
-2.39,1778927451.734375
-12.49,1778927451.75
-24.16,1778927451.765625
-36.79,1778927451.78125
-48.82,1778927451.796875
-58.21,1778927451.8125
-63.04,1778927451.828125
-62.21,1778927451.84375
-55.67,1778927451.859375
-44.41,1778927451.875
-29.97,1778927451.890625
-13.97,1778927451.90625
2.23,1778927451.921875
17.66,1778927451.9375
31.61,1778927451.953125
43.53,1778927451.96875
52.9,1778927451.984375
59.35,1778927452.0
62.79,1778927452.015625
63.43,1778927452.03125
61.83,1778927452.046875
58.69,1778927452.0625
54.71,1778927452.078125
50.46,1778927452.09375
46.38,1778927452.109375
42.75,1778927452.125
39.74,1778927452.140625
37.38,1778927452.15625
35.59,1778927452.171875
34.19,1778927452.1875
33.0,1778927452.203125
31.98,1778927452.21875
31.24,1778927452.234375
31.16,1778927452.25
32.2,1778927452.265625
34.8,1778927452.28125
39.2,1778927452.296875
45.33,1778927452.3125
52.86,1778927452.328125
61.17,1778927452.34375
69.51,1778927452.359375
77.11,1778927452.375
83.36,1778927452.390625
87.92,1778927452.40625
90.74,1778927452.421875
92.05,1778927452.4375
92.12,1778927452.453125
90.91,1778927452.46875
87.9,1778927452.484375
82.08,1778927452.5
72.21,1778927452.515625
57.3,1778927452.53125
36.93,1778927452.546875
11.17,1778927452.5625
-19.57,1778927452.578125
-54.77,1778927452.59375
-93.55,1778927452.609375
-134.26,1778927452.625
-174.01,1778927452.640625
-208.82,1778927452.65625
-234.46,1778927452.671875
-247.75,1778927452.6875
-247.47,1778927452.703125
-234.43,1778927452.71875
-210.91,1778927452.734375
-179.77,1778927452.75
-144.08,1778927452.765625
-107.1,1778927452.78125
-72.5,1778927452.796875
-44.01,1778927452.8125
-24.42,1778927452.828125
-14.55,1778927452.84375
-12.57,1778927452.859375
-14.71,1778927452.875
-16.7,1778927452.890625
-15.54,1778927452.90625
-10.37,1778927452.921875
-2.2,1778927452.9375
7.15,1778927452.953125
16.29,1778927452.96875
24.82,1778927452.984375
33.11,1778927453.0
41.68,1778927453.015625
50.7,1778927453.03125
59.86,1778927453.046875
68.67,1778927453.0625
76.9,1778927453.078125
84.61,1778927453.09375
92.09,1778927453.109375
99.43,1778927453.125
106.36,1778927453.140625
112.5,1778927453.15625
117.8,1778927453.171875
122.75,1778927453.1875
128.19,1778927453.203125
134.49,1778927453.21875
140.77,1778927453.234375
144.83,1778927453.25
143.73,1778927453.265625
135.19,1778927453.28125
118.73,1778927453.296875
96.01,1778927453.3125
70.17,1778927453.328125
44.42,1778927453.34375
20.83,1778927453.359375
-0.1,1778927453.375
-19.04,1778927453.390625
-36.91,1778927453.40625
-54.14,1778927453.421875
-70.55,1778927453.4375
-85.58,1778927453.453125
-98.69,1778927453.46875
-109.55,1778927453.484375
-117.85,1778927453.5
-123.11,1778927453.515625
-124.66,1778927453.53125
-122.0,1778927453.546875
-115.47,1778927453.5625
-106.56,1778927453.578125
-97.75,1778927453.59375
-91.58,1778927453.609375
-89.48,1778927453.625
-90.79,1778927453.640625
-92.95,1778927453.65625
-92.42,1778927453.671875
-86.45,1778927453.6875
-74.34,1778927453.703125
-57.78,1778927453.71875
-40.05,1778927453.734375
-24.49,1778927453.75
-13.21,1778927453.765625
-6.49,1778927453.78125
-3.2,1778927453.796875
-1.79,1778927453.8125
-1.22,1778927453.828125
-1.28,1778927453.84375
-2.38,1778927453.859375
-4.99,1778927453.875
-9.21,1778927453.890625
-14.58,1778927453.90625
-20.25,1778927453.921875
-25.17,1778927453.9375
-28.24,1778927453.953125
-28.43,1778927453.96875
-24.94,1778927453.984375
-17.39,1778927454.0
-6.08,1778927454.015625
7.81,1778927454.03125
22.31,1778927454.046875
35.07,1778927454.0625
44.02,1778927454.078125
47.94,1778927454.09375
46.89,1778927454.109375
42.06,1778927454.125
35.32,1778927454.140625
28.52,1778927454.15625
22.87,1778927454.171875
18.73,1778927454.1875
15.6,1778927454.203125
12.58,1778927454.21875
8.77,1778927454.234375
3.57,1778927454.25
-3.18,1778927454.265625
-11.3,1778927454.28125
-20.37,1778927454.296875
-29.77,1778927454.3125
-38.77,1778927454.328125
-46.53,1778927454.34375
-52.28,1778927454.359375
-55.51,1778927454.375
-56.26,1778927454.390625
-55.21,1778927454.40625
-53.58,1778927454.421875
-52.8,1778927454.4375
-53.91,1778927454.453125
-57.19,1778927454.46875
-61.89,1778927454.484375
-66.58,1778927454.5
-69.65,1778927454.515625
-70.08,1778927454.53125
-67.81,1778927454.546875
-63.85,1778927454.5625
-59.8,1778927454.578125
-57.3,1778927454.59375
-57.41,1778927454.609375
-60.29,1778927454.625
-65.17,1778927454.640625
-70.54,1778927454.65625
-74.5,1778927454.671875
-75.14,1778927454.6875
-70.9,1778927454.703125
-60.98,1778927454.71875
-45.63,1778927454.734375
-26.2,1778927454.75
-4.85,1778927454.765625
16.05,1778927454.78125
34.63,1778927454.796875
50.0,1778927454.8125
62.13,1778927454.828125
71.46,1778927454.84375
78.26,1778927454.859375
82.32,1778927454.875
83.09,1778927454.890625
80.22,1778927454.90625
73.95,1778927454.921875
65.3,1778927454.9375
55.68,1778927454.953125
46.34,1778927454.96875
38.0,1778927454.984375
30.8,1778927455.0
24.58,1778927455.015625
19.32,1778927455.03125
15.21,1778927455.046875
12.62,1778927455.0625
11.71,1778927455.078125
12.32,1778927455.09375
13.95,1778927455.109375
16.06,1778927455.125
18.33,1778927455.140625
20.76,1778927455.15625
23.6,1778927455.171875
27.11,1778927455.1875
31.38,1778927455.203125
36.22,1778927455.21875
41.27,1778927455.234375
46.11,1778927455.25
50.4,1778927455.265625
53.8,1778927455.28125
55.97,1778927455.296875
56.54,1778927455.3125
55.17,1778927455.328125
51.83,1778927455.34375
46.95,1778927455.359375
41.46,1778927455.375
36.63,1778927455.390625
33.73,1778927455.40625
33.61,1778927455.421875
36.46,1778927455.4375
41.79,1778927455.453125
48.56,1778927455.46875
55.41,1778927455.484375
60.88,1778927455.5
63.69,1778927455.515625
62.99,1778927455.53125
58.67,1778927455.546875
51.56,1778927455.5625
43.38,1778927455.578125
36.43,1778927455.59375
32.95,1778927455.609375
34.42,1778927455.625
40.99,1778927455.640625
51.29,1778927455.65625
62.73,1778927455.671875
72.25,1778927455.6875
77.23,1778927455.703125
76.43,1778927455.71875
70.35,1778927455.734375
60.94,1778927455.75
50.73,1778927455.765625
41.66,1778927455.78125
34.44,1778927455.796875
28.37,1778927455.8125
22.08,1778927455.828125
14.42,1778927455.84375
4.98,1778927455.859375
-5.73,1778927455.875
-16.93,1778927455.890625
-27.97,1778927455.90625
-38.62,1778927455.921875
-48.82,1778927455.9375
-58.39,1778927455.953125
-66.88,1778927455.96875
-73.81,1778927455.984375
-79.09,1778927456.0
-83.37,1778927456.015625
-87.87,1778927456.03125
-93.73,1778927456.046875
-101.45,1778927456.0625
-110.42,1778927456.078125
-119.07,1778927456.09375
-125.42,1778927456.109375
-127.75,1778927456.125
-125.04,1778927456.140625
-117.15,1778927456.15625
-104.69,1778927456.171875
-88.75,1778927456.1875
-70.73,1778927456.203125
-52.13,1778927456.21875
-34.46,1778927456.234375
-19.16,1778927456.25
-7.42,1778927456.265625
-0.03,1778927456.28125
2.82,1778927456.296875
1.6,1778927456.3125
-2.69,1778927456.328125
-8.7,1778927456.34375
-15.05,1778927456.359375
-20.71,1778927456.375
-25.11,1778927456.390625
-28.36,1778927456.40625
-30.98,1778927456.421875
-33.7,1778927456.4375
-37.1,1778927456.453125
-41.3,1778927456.46875
-45.89,1778927456.484375
-50.13,1778927456.5
-53.33,1778927456.515625
-55.18,1778927456.53125
-55.94,1778927456.546875
-56.34,1778927456.5625
-57.24,1778927456.578125
-59.19,1778927456.59375
-62.27,1778927456.609375
-66.14,1778927456.625
-70.35,1778927456.640625
-74.71,1778927456.65625
-79.41,1778927456.671875
-84.91,1778927456.6875
-91.57,1778927456.703125
-99.3,1778927456.71875
-107.4,1778927456.734375
-114.69,1778927456.75
-119.9,1778927456.765625
-122.11,1778927456.78125
-120.99,1778927456.796875
-116.89,1778927456.8125
-110.78,1778927456.828125
-103.88,1778927456.84375
-97.31,1778927456.859375
-91.76,1778927456.875
-87.22,1778927456.890625
-83.13,1778927456.90625
-78.38,1778927456.921875
-71.85,1778927456.9375
-62.74,1778927456.953125
-50.83,1778927456.96875
-36.66,1778927456.984375
-21.41,1778927457.0
-6.6,1778927457.015625
5.92,1778927457.03125
14.77,1778927457.046875
19.64,1778927457.0625
21.66,1778927457.078125
23.28,1778927457.09375
27.51,1778927457.109375
36.82,1778927457.125
51.83,1778927457.140625
70.67,1778927457.15625
89.0,1778927457.171875
101.97,1778927457.1875
106.45,1778927457.203125
102.52,1778927457.21875
93.39,1778927457.234375
83.68,1778927457.25
77.19,1778927457.265625
75.24,1778927457.28125
76.26,1778927457.296875
76.37,1778927457.3125
72.38,1778927457.328125
63.79,1778927457.34375
53.26,1778927457.359375
45.27,1778927457.375
44.53,1778927457.390625
54.83,1778927457.40625
78.44,1778927457.421875
115.32,1778927457.4375
160.74,1778927457.453125
207.85,1778927457.46875
249.73,1778927457.484375
280.93,1778927457.5
298.2,1778927457.515625
301.42,1778927457.53125
294.23,1778927457.546875
283.21,1778927457.5625
275.21,1778927457.578125
269.98,1778927457.59375
264.03,1778927457.609375
253.73,1778927457.625
237.52,1778927457.640625
215.63,1778927457.65625
189.75,1778927457.671875
163.15,1778927457.6875
140.02,1778927457.703125
123.34,1778927457.71875
106.67,1778927457.734375
82.54,1778927457.75
47.85,1778927457.765625
5.49,1778927457.78125
-39.53,1778927457.796875
-83.34,1778927457.8125
-124.06,1778927457.828125
-161.22,1778927457.84375
-196.36,1778927457.859375
-241.01,1778927457.875
-304.59,1778927457.890625
-387.91,1778927457.90625
-483.09,1778927457.921875
-580.49,1778927457.9375
-674.18,1778927457.953125
-762.71,1778927457.96875
-847.17,1778927457.984375
-873.33,1778927458.0
-809.57,1778927458.015625
-668.49,1778927458.03125
-498.68,1778927458.046875
-343.78,1778927458.0625
-221.6,1778927458.078125
-131.0,1778927458.09375
-64.22,1778927458.109375
-12.86,1778927458.125
28.38,1778927458.140625
53.97,1778927458.15625
59.49,1778927458.171875
47.62,1778927458.1875
28.19,1778927458.203125
11.08,1778927458.21875
1.74,1778927458.234375
-3.2,1778927458.25
-2.7,1778927458.265625
1.76,1778927458.28125
1.01,1778927458.296875
-11.89,1778927458.3125
-36.5,1778927458.328125
-64.84,1778927458.34375
-87.18,1778927458.359375
-96.77,1778927458.375
-91.41,1778927458.390625
-72.34,1778927458.40625
-44.58,1778927458.421875
-18.3,1778927458.4375
-1.28,1778927458.453125
5.04,1778927458.46875
5.62,1778927458.484375
6.51,1778927458.5
11.22,1778927458.515625
20.52,1778927458.53125
33.82,1778927458.546875
49.04,1778927458.5625
62.25,1778927458.578125
70.81,1778927458.59375
74.35,1778927458.609375
74.27,1778927458.625
71.84,1778927458.640625
67.57,1778927458.65625
61.56,1778927458.671875
54.31,1778927458.6875
46.36,1778927458.703125
37.52,1778927458.71875
27.6,1778927458.734375
16.76,1778927458.75
5.7,1778927458.765625
-4.55,1778927458.78125
-12.76,1778927458.796875
-17.75,1778927458.8125
-18.7,1778927458.828125
-15.87,1778927458.84375
-10.45,1778927458.859375
-4.03,1778927458.875
2.13,1778927458.890625
7.22,1778927458.90625
11.17,1778927458.921875
14.44,1778927458.9375
17.67,1778927458.953125
21.58,1778927458.96875
27.0,1778927458.984375
34.72,1778927459.0
44.95,1778927459.015625
56.46,1778927459.03125
66.22,1778927459.046875
70.15,1778927459.0625
64.89,1778927459.078125
49.71,1778927459.09375
27.44,1778927459.109375
3.53,1778927459.125
-16.2,1778927459.140625
-27.95,1778927459.15625
-31.25,1778927459.171875
-28.43,1778927459.1875
-22.8,1778927459.203125
-16.79,1778927459.21875
-11.2,1778927459.234375
-5.61,1778927459.25
0.48,1778927459.265625
6.84,1778927459.28125
12.49,1778927459.296875
16.43,1778927459.3125
18.42,1778927459.328125
19.33,1778927459.34375
20.66,1778927459.359375
23.82,1778927459.375
29.62,1778927459.390625
37.72,1778927459.40625
46.95,1778927459.421875
55.76,1778927459.4375
62.91,1778927459.453125
68.14,1778927459.46875
72.24,1778927459.484375
76.85,1778927459.5
83.77,1778927459.515625
94.08,1778927459.53125
107.7,1778927459.546875
123.47,1778927459.5625
139.74,1778927459.578125
155.02,1778927459.59375
168.62,1778927459.609375
180.61,1778927459.625
191.66,1778927459.640625
202.81,1778927459.65625
215.3,1778927459.671875
230.32,1778927459.6875
248.56,1778927459.703125
269.55,1778927459.71875
291.17,1778927459.734375
309.82,1778927459.75
321.47,1778927459.765625
323.16,1778927459.78125
314.26,1778927459.796875
296.71,1778927459.8125
274.14,1778927459.828125
250.27,1778927459.84375
227.6,1778927459.859375
206.94,1778927459.875
187.9,1778927459.890625
169.87,1778927459.90625
152.74,1778927459.921875
136.89,1778927459.9375
122.82,1778927459.953125
110.6,1778927459.96875
99.66,1778927459.984375
89.09,1778927460.0
78.13,1778927460.015625
66.58,1778927460.03125
54.83,1778927460.046875
43.67,1778927460.0625
33.86,1778927460.078125
25.72,1778927460.09375
19.13,1778927460.109375
13.58,1778927460.125
8.53,1778927460.140625
3.69,1778927460.15625
-0.83,1778927460.171875
-4.71,1778927460.1875
-7.49,1778927460.203125
-9.01,1778927460.21875
-9.45,1778927460.234375
-9.3,1778927460.25
-9.19,1778927460.265625
-9.64,1778927460.28125
-10.83,1778927460.296875
-12.63,1778927460.3125
-14.66,1778927460.328125
-16.49,1778927460.34375
-17.86,1778927460.359375
-18.77,1778927460.375
-19.4,1778927460.390625
-20.04,1778927460.40625
-20.85,1778927460.421875
-21.82,1778927460.4375
-22.77,1778927460.453125
-23.49,1778927460.46875
-23.85,1778927460.484375
-23.89,1778927460.5
-23.75,1778927460.515625
-23.56,1778927460.53125
-23.41,1778927460.546875
-23.31,1778927460.5625
-23.22,1778927460.578125
-23.12,1778927460.59375
-23.02,1778927460.609375
-22.93,1778927460.625
-22.82,1778927460.640625
-22.65,1778927460.65625
-22.37,1778927460.671875
-22.0,1778927460.6875
-21.59,1778927460.703125
-21.26,1778927460.71875
-21.1,1778927460.734375
-21.12,1778927460.75
-21.31,1778927460.765625
-21.56,1778927460.78125
-21.69,1778927460.796875
-21.56,1778927460.8125
-21.03,1778927460.828125
-20.07,1778927460.84375
-18.73,1778927460.859375
-17.18,1778927460.875
-15.63,1778927460.890625
-14.29,1778927460.90625
-13.29,1778927460.921875
-12.63,1778927460.9375
-12.24,1778927460.953125
-12.07,1778927460.96875
-12.09,1778927460.984375
-12.34,1778927461.0
-12.81,1778927461.015625
-13.47,1778927461.03125
-14.17,1778927461.046875
-14.74,1778927461.0625
-15.04,1778927461.078125
-15.05,1778927461.09375
-14.85,1778927461.109375
-14.62,1778927461.125
-14.48,1778927461.140625
-14.47,1778927461.15625
-14.51,1778927461.171875
-14.45,1778927461.1875
-14.14,1778927461.203125
-13.55,1778927461.21875
-12.8,1778927461.234375
-12.09,1778927461.25
-11.67,1778927461.265625
-11.68,1778927461.28125
-12.2,1778927461.296875
-13.18,1778927461.3125
-14.49,1778927461.328125
-16.02,1778927461.34375
-17.63,1778927461.359375
-19.21,1778927461.375
-20.63,1778927461.390625
-21.68,1778927461.40625
-22.15,1778927461.421875
-21.9,1778927461.4375
-20.89,1778927461.453125
-19.27,1778927461.46875
-17.27,1778927461.484375
-15.2,1778927461.5
-13.28,1778927461.515625
-11.71,1778927461.53125
-10.57,1778927461.546875
-9.92,1778927461.5625
-9.76,1778927461.578125
-10.05,1778927461.59375
-10.65,1778927461.609375
-11.4,1778927461.625
-12.07,1778927461.640625
-12.48,1778927461.65625
-12.56,1778927461.671875
-12.43,1778927461.6875
-12.31,1778927461.703125
-12.44,1778927461.71875
-12.97,1778927461.734375
-13.87,1778927461.75
-14.93,1778927461.765625
-15.89,1778927461.78125
-16.5,1778927461.796875
-16.69,1778927461.8125
-16.52,1778927461.828125
-16.2,1778927461.84375
-15.94,1778927461.859375
-15.93,1778927461.875
-16.23,1778927461.890625
-16.76,1778927461.90625
-17.34,1778927461.921875
-17.71,1778927461.9375
-17.59,1778927461.953125
-16.76,1778927461.96875
-15.13,1778927461.984375
-12.75,1778927462.0
-9.83,1778927462.015625
-6.67,1778927462.03125
-3.65,1778927462.046875
-1.07,1778927462.0625
0.84,1778927462.078125
1.96,1778927462.09375
2.32,1778927462.109375
2.03,1778927462.125
1.27,1778927462.140625
0.2,1778927462.15625
-1.06,1778927462.171875
-2.41,1778927462.1875
-3.79,1778927462.203125
-5.13,1778927462.21875
-6.33,1778927462.234375
-7.35,1778927462.25
-8.23,1778927462.265625
-9.06,1778927462.28125
-9.94,1778927462.296875
-10.89,1778927462.3125
-11.82,1778927462.328125
-12.54,1778927462.34375
-12.88,1778927462.359375
-12.8,1778927462.375
-12.46,1778927462.390625
-12.15,1778927462.40625
-12.16,1778927462.421875
-12.67,1778927462.4375
-13.61,1778927462.453125
-14.76,1778927462.46875
-15.78,1778927462.484375
-16.35,1778927462.5
-16.28,1778927462.515625
-15.46,1778927462.53125
-13.94,1778927462.546875
-11.84,1778927462.5625
-9.3,1778927462.578125
-6.52,1778927462.59375
-3.69,1778927462.609375
-1.04,1778927462.625
1.25,1778927462.640625
2.99,1778927462.65625
4.04,1778927462.671875
4.37,1778927462.6875
4.03,1778927462.703125
3.21,1778927462.71875
2.12,1778927462.734375
0.97,1778927462.75
-0.08,1778927462.765625
-0.98,1778927462.78125
-1.79,1778927462.796875
-2.62,1778927462.8125
-3.58,1778927462.828125
-4.7,1778927462.84375
-5.95,1778927462.859375
-7.21,1778927462.875
-8.35,1778927462.890625
-9.29,1778927462.90625
-9.95,1778927462.921875
-10.35,1778927462.9375
-10.55,1778927462.953125
-10.67,1778927462.96875
-10.89,1778927462.984375
-11.39,1778927463.0
-12.32,1778927463.015625
-13.73,1778927463.03125
-15.48,1778927463.046875
-17.25,1778927463.0625
-18.64,1778927463.078125
-19.19,1778927463.09375
-18.59,1778927463.109375
-16.69,1778927463.125
-13.63,1778927463.140625
-9.73,1778927463.15625
-5.52,1778927463.171875
-1.56,1778927463.1875
1.68,1778927463.203125
3.96,1778927463.21875
5.3,1778927463.234375
5.93,1778927463.25
6.12,1778927463.265625
6.06,1778927463.28125
5.77,1778927463.296875
5.14,1778927463.3125
4.06,1778927463.328125
2.55,1778927463.34375
0.75,1778927463.359375
-1.07,1778927463.375
-2.67,1778927463.390625
-3.95,1778927463.40625
-4.92,1778927463.421875
-5.72,1778927463.4375
-6.48,1778927463.453125
-7.29,1778927463.46875
-8.1,1778927463.484375
-8.85,1778927463.5
-9.45,1778927463.515625
-9.9,1778927463.53125
-10.28,1778927463.546875
-10.73,1778927463.5625
-11.38,1778927463.578125
-12.29,1778927463.59375
-13.45,1778927463.609375
-14.81,1778927463.625
-16.28,1778927463.640625
-17.74,1778927463.65625
-19.02,1778927463.671875
-19.84,1778927463.6875
-19.83,1778927463.703125
-18.67,1778927463.71875
-16.15,1778927463.734375
-12.37,1778927463.75
-7.68,1778927463.765625
-2.69,1778927463.78125
1.99,1778927463.796875
5.93,1778927463.8125
8.92,1778927463.828125
11.01,1778927463.84375
12.33,1778927463.859375
13.0,1778927463.875
13.08,1778927463.890625
12.55,1778927463.90625
11.43,1778927463.921875
9.84,1778927463.9375
7.97,1778927463.953125
6.03,1778927463.96875
4.23,1778927463.984375
2.63,1778927464.0
1.25,1778927464.015625
0.03,1778927464.03125
-1.04,1778927464.046875
-1.98,1778927464.0625
-2.77,1778927464.078125
-3.45,1778927464.09375
-4.16,1778927464.109375
-5.06,1778927464.125
-6.28,1778927464.140625
-7.82,1778927464.15625
-9.5,1778927464.171875
-11.1,1778927464.1875
-12.38,1778927464.203125
-13.26,1778927464.21875
-13.86,1778927464.234375
-14.44,1778927464.25
-15.27,1778927464.265625
-16.54,1778927464.28125
-18.28,1778927464.296875
-20.31,1778927464.3125
-22.29,1778927464.328125
-23.7,1778927464.34375
-23.95,1778927464.359375
-22.56,1778927464.375
-19.33,1778927464.390625
-14.46,1778927464.40625
-8.59,1778927464.421875
-2.52,1778927464.4375
2.99,1778927464.453125
7.51,1778927464.46875
10.93,1778927464.484375
13.4,1778927464.5
15.06,1778927464.515625
15.94,1778927464.53125
16.0,1778927464.546875
15.25,1778927464.5625
13.83,1778927464.578125
12.08,1778927464.59375
10.43,1778927464.609375
9.16,1778927464.625
8.27,1778927464.640625
7.53,1778927464.65625
6.64,1778927464.671875
5.36,1778927464.6875
3.71,1778927464.703125
1.94,1778927464.71875
0.41,1778927464.734375
-0.67,1778927464.75
-1.29,1778927464.765625
-1.69,1778927464.78125
-2.2,1778927464.796875
-3.07,1778927464.8125
-4.31,1778927464.828125
-5.76,1778927464.84375
-7.21,1778927464.859375
-8.51,1778927464.875
-9.7,1778927464.890625
-10.91,1778927464.90625
-12.28,1778927464.921875
-13.88,1778927464.9375
-15.75,1778927464.953125
-17.9,1778927464.96875
-20.37,1778927464.984375
-23.12,1778927465.0
-25.92,1778927465.015625
-28.29,1778927465.03125
-29.53,1778927465.046875
-29.0,1778927465.0625
-26.32,1778927465.078125
-21.6,1778927465.09375
-15.38,1778927465.109375
-8.52,1778927465.125
-1.86,1778927465.140625
3.98,1778927465.15625
8.69,1778927465.171875
12.3,1778927465.1875
14.99,1778927465.203125
16.97,1778927465.21875
18.34,1778927465.234375
19.09,1778927465.25
19.11,1778927465.265625
18.36,1778927465.28125
16.91,1778927465.296875
15.03,1778927465.3125
13.05,1778927465.328125
11.28,1778927465.34375
9.84,1778927465.359375
8.73,1778927465.375
7.84,1778927465.390625
7.06,1778927465.40625
6.34,1778927465.421875
5.66,1778927465.4375
5.03,1778927465.453125
4.39,1778927465.46875
3.72,1778927465.484375
2.96,1778927465.5
2.07,1778927465.515625
0.97,1778927465.53125
-0.42,1778927465.546875
-2.26,1778927465.5625
-4.66,1778927465.578125
-7.58,1778927465.59375
-10.77,1778927465.609375
-13.73,1778927465.625
-15.97,1778927465.640625
-17.12,1778927465.65625
-17.21,1778927465.671875
-16.62,1778927465.6875
-16.0,1778927465.703125
-15.99,1778927465.71875
-16.94,1778927465.734375
-18.86,1778927465.75
-21.35,1778927465.765625
-23.81,1778927465.78125
-25.54,1778927465.796875
-25.96,1778927465.8125
-24.62,1778927465.828125
-21.35,1778927465.84375
-16.27,1778927465.859375
-9.8,1778927465.875
-2.6,1778927465.890625
4.61,1778927465.90625
11.16,1778927465.921875
16.6,1778927465.9375
20.72,1778927465.953125
23.48,1778927465.96875
24.97,1778927465.984375
25.33,1778927466.0
24.75,1778927466.015625
23.43,1778927466.03125
21.64,1778927466.046875
19.69,1778927466.0625
17.82,1778927466.078125
16.21,1778927466.09375
14.87,1778927466.109375
13.73,1778927466.125
12.64,1778927466.140625
11.53,1778927466.15625
10.4,1778927466.171875
9.36,1778927466.1875
8.51,1778927466.203125
7.87,1778927466.21875
7.36,1778927466.234375
6.8,1778927466.25
6.06,1778927466.265625
5.09,1778927466.28125
3.95,1778927466.296875
2.72,1778927466.3125
1.41,1778927466.328125
-0.06,1778927466.34375
-1.78,1778927466.359375
-3.82,1778927466.375
-6.1,1778927466.390625
-8.41,1778927466.40625
-10.56,1778927466.421875
-12.4,1778927466.4375
-13.91,1778927466.453125
-15.27,1778927466.46875
-16.76,1778927466.484375
-18.64,1778927466.5
-21.02,1778927466.515625
-23.69,1778927466.53125
-26.13,1778927466.546875
-27.57,1778927466.5625
-27.3,1778927466.578125
-24.85,1778927466.59375
-20.28,1778927466.609375
-14.1,1778927466.625
-7.1,1778927466.640625
-0.13,1778927466.65625
6.2,1778927466.671875
11.55,1778927466.6875
15.81,1778927466.703125
18.99,1778927466.71875
21.11,1778927466.734375
22.16,1778927466.75
22.16,1778927466.765625
21.19,1778927466.78125
19.43,1778927466.796875
17.17,1778927466.8125
14.75,1778927466.828125
12.52,1778927466.84375
10.68,1778927466.859375
9.29,1778927466.875
8.2,1778927466.890625
7.22,1778927466.90625
6.16,1778927466.921875
5.0,1778927466.9375
3.83,1778927466.953125
2.79,1778927466.96875
1.96,1778927466.984375
1.25,1778927467.0
0.41,1778927467.015625
-0.8,1778927467.03125
-2.58,1778927467.046875
-4.9,1778927467.0625
-7.58,1778927467.078125
-10.29,1778927467.09375
-12.68,1778927467.109375
-14.57,1778927467.125
-15.92,1778927467.140625
-16.92,1778927467.15625
-17.94,1778927467.171875
-19.32,1778927467.1875
-21.36,1778927467.203125
-24.09,1778927467.21875
-27.24,1778927467.234375
-30.25,1778927467.25
-32.4,1778927467.265625
-32.97,1778927467.28125
-31.46,1778927467.296875
-27.74,1778927467.3125
-22.09,1778927467.328125
-15.13,1778927467.34375
-7.66,1778927467.359375
-0.41,1778927467.375
6.1,1778927467.390625
11.6,1778927467.40625
16.01,1778927467.421875
19.34,1778927467.4375
21.59,1778927467.453125
22.76,1778927467.46875
22.88,1778927467.484375
22.1,1778927467.5
20.69,1778927467.515625
18.97,1778927467.53125
17.25,1778927467.546875
15.7,1778927467.5625
14.28,1778927467.578125
12.84,1778927467.59375
11.21,1778927467.609375
9.35,1778927467.625
7.37,1778927467.640625
5.51,1778927467.65625
3.99,1778927467.671875
2.88,1778927467.6875
2.03,1778927467.703125
1.13,1778927467.71875
-0.12,1778927467.734375
-1.85,1778927467.75
-3.98,1778927467.765625
-6.27,1778927467.78125
-8.47,1778927467.796875
-10.49,1778927467.8125
-12.43,1778927467.828125
-14.49,1778927467.84375
-16.83,1778927467.859375
-19.49,1778927467.875
-22.38,1778927467.890625
-25.41,1778927467.90625
-28.51,1778927467.921875
-31.62,1778927467.9375
-34.59,1778927467.953125
-37.01,1778927467.96875
-38.22,1778927467.984375
-37.48,1778927468.0
-34.22,1778927468.015625
-28.38,1778927468.03125
-20.48,1778927468.046875
-11.43,1778927468.0625
-2.32,1778927468.078125
6.0,1778927468.09375
13.03,1778927468.109375
18.63,1778927468.125
22.87,1778927468.140625
25.88,1778927468.15625
27.71,1778927468.171875
28.39,1778927468.1875
28.0,1778927468.203125
26.75,1778927468.21875
24.89,1778927468.234375
22.75,1778927468.25
20.6,1778927468.265625
18.57,1778927468.28125
16.69,1778927468.296875
14.87,1778927468.3125
13.03,1778927468.328125
11.13,1778927468.34375
9.18,1778927468.359375
7.3,1778927468.375
5.61,1778927468.390625
4.22,1778927468.40625
3.11,1778927468.421875
2.15,1778927468.4375
1.06,1778927468.453125
-0.41,1778927468.46875
-2.42,1778927468.484375
-4.95,1778927468.5
-7.77,1778927468.515625
-10.59,1778927468.53125
-13.15,1778927468.546875
-15.37,1778927468.5625
-17.33,1778927468.578125
-19.25,1778927468.59375
-21.36,1778927468.609375
-23.86,1778927468.625
-26.82,1778927468.640625
-30.19,1778927468.65625
-33.7,1778927468.671875
-36.85,1778927468.6875
-38.9,1778927468.703125
-39.04,1778927468.71875
-36.62,1778927468.734375
-31.4,1778927468.75
-23.67,1778927468.765625
-14.29,1778927468.78125
-4.38,1778927468.796875
4.97,1778927468.8125
12.98,1778927468.828125
19.3,1778927468.84375
23.95,1778927468.859375
27.12,1778927468.875
29.05,1778927468.890625
29.93,1778927468.90625
29.93,1778927468.921875
29.21,1778927468.9375
27.97,1778927468.953125
26.44,1778927468.96875
24.88,1778927468.984375
23.42,1778927469.0
22.17,1778927469.015625
21.08,1778927469.03125
20.02,1778927469.046875
18.83,1778927469.0625
17.41,1778927469.078125
15.76,1778927469.09375
13.97,1778927469.109375
12.21,1778927469.125
10.59,1778927469.140625
9.12,1778927469.15625
7.66,1778927469.171875
6.03,1778927469.1875
4.05,1778927469.203125
1.67,1778927469.21875
-1.06,1778927469.234375
-4.01,1778927469.25
-7.02,1778927469.265625
-9.95,1778927469.28125
-12.7,1778927469.296875
-15.21,1778927469.3125
-17.5,1778927469.328125
-19.7,1778927469.34375
-22.0,1778927469.359375
-24.63,1778927469.375
-27.78,1778927469.390625
-31.42,1778927469.40625
-35.27,1778927469.421875
-38.78,1778927469.4375
-41.21,1778927469.453125
-41.8,1778927469.46875
-39.97,1778927469.484375
-35.48,1778927469.5
-28.5,1778927469.515625
-19.69,1778927469.53125
-9.93,1778927469.546875
-0.19,1778927469.5625
8.71,1778927469.578125
16.29,1778927469.59375
22.37,1778927469.609375
26.99,1778927469.625
30.28,1778927469.640625
32.3,1778927469.65625
33.1,1778927469.671875
32.76,1778927469.6875
31.47,1778927469.703125
29.61,1778927469.71875
27.58,1778927469.734375
25.75,1778927469.75
24.27,1778927469.765625
23.04,1778927469.78125
21.85,1778927469.796875
20.48,1778927469.8125
18.87,1778927469.828125
17.13,1778927469.84375
15.49,1778927469.859375
14.21,1778927469.875
13.38,1778927469.890625
12.86,1778927469.90625
12.37,1778927469.921875
11.56,1778927469.9375
10.14,1778927469.953125
8.02,1778927469.96875
5.29,1778927469.984375
2.16,1778927470.0
-1.06,1778927470.015625
-4.11,1778927470.03125
-6.85,1778927470.046875
-9.19,1778927470.0625
-11.19,1778927470.078125
-13.03,1778927470.09375
-14.95,1778927470.109375
-17.25,1778927470.125
-20.17,1778927470.140625
-23.83,1778927470.15625
-28.06,1778927470.171875
-32.4,1778927470.1875
-36.07,1778927470.203125
-38.16,1778927470.21875
-37.85,1778927470.234375
-34.69,1778927470.25
-28.7,1778927470.265625
-20.51,1778927470.28125
-11.11,1778927470.296875
-1.62,1778927470.3125
6.95,1778927470.328125
13.98,1778927470.34375
19.2,1778927470.359375
22.65,1778927470.375
24.55,1778927470.390625
25.14,1778927470.40625
24.66,1778927470.421875
23.35,1778927470.4375
21.49,1778927470.453125
19.37,1778927470.46875
17.28,1778927470.484375
15.38,1778927470.5
13.69,1778927470.515625
12.09,1778927470.53125
10.41,1778927470.546875
8.57,1778927470.5625
6.67,1778927470.578125
4.95,1778927470.59375
3.66,1778927470.609375
2.94,1778927470.625
2.67,1778927470.640625
2.49,1778927470.65625
1.96,1778927470.671875
0.73,1778927470.6875
-1.34,1778927470.703125
-4.09,1778927470.71875
-7.16,1778927470.734375
-10.14,1778927470.75
-12.72,1778927470.765625
-14.79,1778927470.78125
-16.44,1778927470.796875
-17.91,1778927470.8125
-19.45,1778927470.828125
-21.32,1778927470.84375
-23.69,1778927470.859375
-26.61,1778927470.875
-29.98,1778927470.890625
-33.41,1778927470.90625
-36.28,1778927470.921875
-37.75,1778927470.9375
-37.02,1778927470.953125
-33.58,1778927470.96875
-27.42,1778927470.984375
-19.07,1778927471.0
-9.44,1778927471.015625
0.41,1778927471.03125
9.52,1778927471.046875
17.25,1778927471.0625
23.27,1778927471.078125
27.58,1778927471.09375
30.39,1778927471.109375
31.99,1778927471.125
32.68,1778927471.140625
32.65,1778927471.15625
32.07,1778927471.171875
30.98,1778927471.1875
29.51,1778927471.203125
27.78,1778927471.21875
25.99,1778927471.234375
24.25,1778927471.25
22.56,1778927471.265625
20.86,1778927471.28125
19.02,1778927471.296875
17.04,1778927471.3125
14.98,1778927471.328125
13.03,1778927471.34375
11.32,1778927471.359375
9.9,1778927471.375
8.66,1778927471.390625
7.42,1778927471.40625
5.96,1778927471.421875
4.12,1778927471.4375
1.82,1778927471.453125
-0.89,1778927471.46875
-3.9,1778927471.484375
-6.98,1778927471.5
-9.93,1778927471.515625
-12.61,1778927471.53125
-15.02,1778927471.546875
-17.29,1778927471.5625
-19.68,1778927471.578125
-22.42,1778927471.59375
-25.67,1778927471.609375
-29.38,1778927471.625
-33.34,1778927471.640625
-37.09,1778927471.65625
-40.01,1778927471.671875
-41.38,1778927471.6875
-40.55,1778927471.703125
-37.09,1778927471.71875
-31.01,1778927471.734375
-22.75,1778927471.75
-13.17,1778927471.765625
-3.32,1778927471.78125
5.84,1778927471.796875
13.61,1778927471.8125
19.68,1778927471.828125
24.1,1778927471.84375
27.16,1778927471.859375
29.2,1778927471.875
30.47,1778927471.890625
31.09,1778927471.90625
31.04,1778927471.921875
30.28,1778927471.9375
28.85,1778927471.953125
26.88,1778927471.96875
24.66,1778927471.984375
22.46,1778927472.0
20.53,1778927472.015625
18.96,1778927472.03125
17.75,1778927472.046875
16.76,1778927472.0625
15.86,1778927472.078125
14.95,1778927472.09375
13.92,1778927472.109375
12.75,1778927472.125
11.43,1778927472.140625
10.0,1778927472.15625
8.43,1778927472.171875
6.72,1778927472.1875
4.83,1778927472.203125
2.71,1778927472.21875
0.29,1778927472.234375
-2.42,1778927472.25
-5.31,1778927472.265625
-8.22,1778927472.28125
-10.95,1778927472.296875
-13.36,1778927472.3125
-15.45,1778927472.328125
-17.32,1778927472.34375
-19.17,1778927472.359375
-21.23,1778927472.375
-23.69,1778927472.390625
-26.65,1778927472.40625
-30.06,1778927472.421875
-33.66,1778927472.4375
-36.92,1778927472.453125
-39.08,1778927472.46875
-39.29,1778927472.484375
-36.92,1778927472.5
-31.76,1778927472.515625
-24.22,1778927472.53125
-15.23,1778927472.546875
-5.91,1778927472.5625
2.74,1778927472.578125
10.13,1778927472.59375
16.02,1778927472.609375
20.48,1778927472.625
23.65,1778927472.640625
25.66,1778927472.65625
26.57,1778927472.671875
26.52,1778927472.6875
25.71,1778927472.703125
24.4,1778927472.71875
22.85,1778927472.734375
21.21,1778927472.75
19.54,1778927472.765625
17.88,1778927472.78125
16.25,1778927472.796875
14.73,1778927472.8125
13.44,1778927472.828125
12.44,1778927472.84375
11.77,1778927472.859375
11.35,1778927472.875
11.02,1778927472.890625
10.57,1778927472.90625
9.75,1778927472.921875
8.44,1778927472.9375
6.67,1778927472.953125
4.63,1778927472.96875
2.58,1778927472.984375
0.74,1778927473.0
-0.82,1778927473.015625
-2.24,1778927473.03125
-3.73,1778927473.046875
-5.48,1778927473.0625
-7.52,1778927473.078125
-9.68,1778927473.09375
-11.72,1778927473.109375
-13.44,1778927473.125
-14.83,1778927473.140625
-16.06,1778927473.15625
-17.46,1778927473.171875
-19.28,1778927473.1875
-21.61,1778927473.203125
-24.23,1778927473.21875
-26.59,1778927473.234375
-27.95,1778927473.25
-27.61,1778927473.265625
-25.16,1778927473.28125
-20.61,1778927473.296875
-14.42,1778927473.3125
-7.31,1778927473.328125
-0.07,1778927473.34375
6.64,1778927473.359375
12.43,1778927473.375
17.11,1778927473.390625
20.65,1778927473.40625
23.01,1778927473.421875
24.21,1778927473.4375
24.3,1778927473.453125
23.39,1778927473.46875
21.71,1778927473.484375
19.54,1778927473.5
17.14,1778927473.515625
14.74,1778927473.53125
12.49,1778927473.546875
10.42,1778927473.5625
8.55,1778927473.578125
6.78,1778927473.59375
5.08,1778927473.609375
3.46,1778927473.625
2.0,1778927473.640625
0.83,1778927473.65625
0.05,1778927473.671875
-0.33,1778927473.6875
-0.4,1778927473.703125
-0.42,1778927473.71875
-0.62,1778927473.734375
-1.23,1778927473.75
-2.35,1778927473.765625
-3.94,1778927473.78125
-5.85,1778927473.796875
-7.89,1778927473.8125
-9.85,1778927473.828125
-11.58,1778927473.84375
-13.04,1778927473.859375
-14.29,1778927473.875
-15.48,1778927473.890625
-16.85,1778927473.90625
-18.58,1778927473.921875
-20.76,1778927473.9375
-23.31,1778927473.953125
-25.94,1778927473.96875
-28.19,1778927473.984375
-29.44,1778927474.0
-29.13,1778927474.015625
-26.86,1778927474.03125
-22.59,1778927474.046875
-16.65,1778927474.0625
-9.69,1778927474.078125
-2.49,1778927474.09375
4.28,1778927474.109375
10.23,1778927474.125
15.21,1778927474.140625
19.23,1778927474.15625
22.31,1778927474.171875
24.38,1778927474.1875
25.32,1778927474.203125
25.11,1778927474.21875
23.86,1778927474.234375
21.9,1778927474.25
19.63,1778927474.265625
17.39,1778927474.28125
15.35,1778927474.296875
13.52,1778927474.3125
11.79,1778927474.328125
10.03,1778927474.34375
8.22,1778927474.359375
6.44,1778927474.375
4.83,1778927474.390625
3.51,1778927474.40625
2.55,1778927474.421875
1.89,1778927474.4375
1.4,1778927474.453125
0.92,1778927474.46875
0.3,1778927474.484375
-0.57,1778927474.5
-1.75,1778927474.515625
-3.24,1778927474.53125
-5.01,1778927474.546875
-6.95,1778927474.5625
-8.96,1778927474.578125
-10.91,1778927474.59375
-12.73,1778927474.609375
-14.38,1778927474.625
-15.89,1778927474.640625
-17.35,1778927474.65625
-18.91,1778927474.671875
-20.76,1778927474.6875
-22.99,1778927474.703125
-25.46,1778927474.71875
-27.77,1778927474.734375
-29.25,1778927474.75
-29.19,1778927474.765625
-27.05,1778927474.78125
-22.76,1778927474.796875
-16.71,1778927474.8125
-9.69,1778927474.828125
-2.58,1778927474.84375
3.95,1778927474.859375
9.54,1778927474.875
14.14,1778927474.890625
17.85,1778927474.90625
20.74,1778927474.921875
22.76,1778927474.9375
23.83,1778927474.953125
23.92,1778927474.96875
23.14,1778927474.984375
21.71,1778927475.0
19.93,1778927475.015625
18.05,1778927475.03125
16.19,1778927475.046875
14.44,1778927475.0625
12.79,1778927475.078125
11.22,1778927475.09375
9.72,1778927475.109375
8.34,1778927475.125
7.07,1778927475.140625
5.94,1778927475.15625
4.96,1778927475.171875
4.15,1778927475.1875
3.52,1778927475.203125
3.04,1778927475.21875
2.62,1778927475.234375
2.03,1778927475.25
1.07,1778927475.265625
-0.47,1778927475.28125
-2.58,1778927475.296875
-5.07,1778927475.3125
-7.63,1778927475.328125
-9.94,1778927475.34375
-11.81,1778927475.359375
-13.28,1778927475.375
-14.57,1778927475.390625
-15.96,1778927475.40625
-17.73,1778927475.421875
-20.02,1778927475.4375
-22.87,1778927475.453125
-26.04,1778927475.46875
-29.11,1778927475.484375
-31.41,1778927475.5
-32.17,1778927475.515625
-30.77,1778927475.53125
-26.95,1778927475.546875
-21.04,1778927475.5625
-13.74,1778927475.578125
-6.06,1778927475.59375
1.18,1778927475.609375
7.42,1778927475.625
12.5,1778927475.640625
16.46,1778927475.65625
19.38,1778927475.671875
21.3,1778927475.6875
22.2,1778927475.703125
22.12,1778927475.71875
21.26,1778927475.734375
19.94,1778927475.75
18.51,1778927475.765625
17.22,1778927475.78125
16.12,1778927475.796875
15.08,1778927475.8125
13.91,1778927475.828125
12.46,1778927475.84375
10.8,1778927475.859375
9.12,1778927475.875
7.65,1778927475.890625
6.59,1778927475.90625
5.92,1778927475.921875
5.43,1778927475.9375
4.85,1778927475.953125
3.97,1778927475.96875
2.66,1778927475.984375
0.95,1778927476.0
-1.05,1778927476.015625
-3.22,1778927476.03125
-5.46,1778927476.046875
-7.65,1778927476.0625
-9.68,1778927476.078125
-11.46,1778927476.09375
-12.95,1778927476.109375
-14.28,1778927476.125
-15.72,1778927476.140625
-17.55,1778927476.15625
-20.0,1778927476.171875
-22.96,1778927476.1875
-26.02,1778927476.203125
-28.47,1778927476.21875
-29.5,1778927476.234375
-28.52,1778927476.25
-25.28,1778927476.265625
-20.05,1778927476.28125
-13.5,1778927476.296875
-6.56,1778927476.3125
-0.05,1778927476.328125
5.47,1778927476.34375
9.82,1778927476.359375
13.07,1778927476.375
15.37,1778927476.390625
16.83,1778927476.40625
17.43,1778927476.421875
17.13,1778927476.4375
16.03,1778927476.453125
14.38,1778927476.46875
12.58,1778927476.484375
10.99,1778927476.5
9.82,1778927476.515625
9.02,1778927476.53125
8.36,1778927476.546875
7.57,1778927476.5625
6.54,1778927476.578125
5.29,1778927476.59375
4.06,1778927476.609375
3.05,1778927476.625
2.39,1778927476.640625
1.95,1778927476.65625
1.49,1778927476.671875
0.68,1778927476.6875
-0.68,1778927476.703125
-2.61,1778927476.71875
-4.96,1778927476.734375
-7.46,1778927476.75
-9.86,1778927476.765625
-11.99,1778927476.78125
-13.8,1778927476.796875
-15.32,1778927476.8125
-16.68,1778927476.828125
-18.07,1778927476.84375
-19.76,1778927476.859375
-21.95,1778927476.875
-24.64,1778927476.890625
-27.5,1778927476.90625
-29.85,1778927476.921875
-30.81,1778927476.9375
-29.68,1778927476.953125
-26.16,1778927476.96875
-20.47,1778927476.984375
-13.28,1778927477.0
-5.48,1778927477.015625
2.14,1778927477.03125
8.97,1778927477.046875
14.68,1778927477.0625
19.15,1778927477.078125
22.33,1778927477.09375
24.3,1778927477.109375
25.15,1778927477.125
25.06,1778927477.140625
24.23,1778927477.15625
22.92,1778927477.171875
21.3,1778927477.1875
19.56,1778927477.203125
17.87,1778927477.21875
16.31,1778927477.234375
14.92,1778927477.25
13.69,1778927477.265625
12.56,1778927477.28125
11.47,1778927477.296875
10.43,1778927477.3125
9.46,1778927477.328125
8.6,1778927477.34375
7.84,1778927477.359375
7.08,1778927477.375
6.17,1778927477.390625
4.93,1778927477.40625
3.24,1778927477.421875
1.07,1778927477.4375
-1.47,1778927477.453125
-4.18,1778927477.46875
-6.8,1778927477.484375
-9.19,1778927477.5
-11.3,1778927477.515625
-13.23,1778927477.53125
-15.23,1778927477.546875
-17.54,1778927477.5625
-20.42,1778927477.578125
-23.97,1778927477.59375
-28.06,1778927477.609375
-32.32,1778927477.625
-36.06,1778927477.640625
-38.47,1778927477.65625
-38.74,1778927477.671875
-36.4,1778927477.6875
-31.45,1778927477.703125
-24.34,1778927477.71875
-15.88,1778927477.734375
-6.95,1778927477.75
1.66,1778927477.765625
9.38,1778927477.78125
15.85,1778927477.796875
20.89,1778927477.8125
24.47,1778927477.828125
26.71,1778927477.84375
27.83,1778927477.859375
28.07,1778927477.875
27.68,1778927477.890625
26.81,1778927477.90625
25.51,1778927477.921875
23.87,1778927477.9375
22.02,1778927477.953125
20.11,1778927477.96875
18.33,1778927477.984375
16.73,1778927478.0
15.29,1778927478.015625
13.94,1778927478.03125
12.65,1778927478.046875
11.48,1778927478.0625
10.54,1778927478.078125
9.91,1778927478.09375
9.48,1778927478.109375
9.08,1778927478.125
8.44,1778927478.140625
7.37,1778927478.15625
5.83,1778927478.171875
3.89,1778927478.1875
1.73,1778927478.203125
-0.53,1778927478.21875
-2.83,1778927478.234375
-5.18,1778927478.25
-7.57,1778927478.265625
-9.95,1778927478.28125
-12.28,1778927478.296875
-14.5,1778927478.3125
-16.64,1778927478.328125
-18.84,1778927478.34375
-21.3,1778927478.359375
-24.19,1778927478.375
-27.45,1778927478.390625
-30.73,1778927478.40625
-33.39,1778927478.421875
-34.64,1778927478.4375
-33.73,1778927478.453125
-30.26,1778927478.46875
-24.35,1778927478.484375
-16.59,1778927478.5
-7.91,1778927478.515625
0.65,1778927478.53125
8.27,1778927478.546875
14.48,1778927478.5625
19.14,1778927478.578125
22.4,1778927478.59375
24.45,1778927478.609375
25.49,1778927478.625
25.65,1778927478.640625
25.04,1778927478.65625
23.82,1778927478.671875
22.25,1778927478.6875
20.63,1778927478.703125
19.23,1778927478.71875
18.18,1778927478.734375
17.45,1778927478.75
16.87,1778927478.765625
16.3,1778927478.78125
15.58,1778927478.796875
14.7,1778927478.8125
13.71,1778927478.828125
12.71,1778927478.84375
11.75,1778927478.859375
10.86,1778927478.875
9.98,1778927478.890625
9.05,1778927478.90625
8.0,1778927478.921875
6.76,1778927478.9375
5.28,1778927478.953125
3.52,1778927478.96875
1.51,1778927478.984375
-0.68,1778927479.0
-2.91,1778927479.015625
-5.06,1778927479.03125
-7.03,1778927479.046875
-8.83,1778927479.0625
-10.52,1778927479.078125
-12.22,1778927479.09375
-14.09,1778927479.109375
-16.29,1778927479.125
-18.93,1778927479.140625
-22.06,1778927479.15625
-25.49,1778927479.171875
-28.78,1778927479.1875
-31.23,1778927479.203125
-31.96,1778927479.21875
-30.29,1778927479.234375
-25.94,1778927479.25
-19.33,1778927479.265625
-11.38,1778927479.28125
-3.31,1778927479.296875
3.87,1778927479.3125
9.6,1778927479.328125
13.84,1778927479.34375
16.86,1778927479.359375
18.94,1778927479.375
20.19,1778927479.390625
20.61,1778927479.40625
20.17,1778927479.421875
19.05,1778927479.4375
17.56,1778927479.453125
16.09,1778927479.46875
14.85,1778927479.484375
13.83,1778927479.5
12.84,1778927479.515625
11.67,1778927479.53125
10.24,1778927479.546875
8.66,1778927479.5625
7.14,1778927479.578125
5.86,1778927479.59375
4.93,1778927479.609375
4.31,1778927479.625
3.9,1778927479.640625
3.6,1778927479.65625
3.26,1778927479.671875
2.75,1778927479.6875
1.92,1778927479.703125
0.67,1778927479.71875
-1.02,1778927479.734375
-3.03,1778927479.75
-5.15,1778927479.765625
-7.16,1778927479.78125
-8.94,1778927479.796875
-10.5,1778927479.8125
-12.0,1778927479.828125
-13.55,1778927479.84375
-15.33,1778927479.859375
-17.45,1778927479.875
-20.0,1778927479.890625
-23.04,1778927479.90625
-26.5,1778927479.921875
-30.03,1778927479.9375
-32.95,1778927479.953125
-34.4,1778927479.96875
-33.55,1778927479.984375
-29.97,1778927480.0
-23.84,1778927480.015625
-15.92,1778927480.03125
-7.32,1778927480.046875
0.89,1778927480.0625
7.92,1778927480.078125
13.47,1778927480.09375
17.56,1778927480.109375
20.46,1778927480.125
22.42,1778927480.140625
23.63,1778927480.15625
24.15,1778927480.171875
24.04,1778927480.1875
23.4,1778927480.203125
22.35,1778927480.21875
21.1,1778927480.234375
19.81,1778927480.25
18.62,1778927480.265625
17.58,1778927480.28125
16.67,1778927480.296875
15.77,1778927480.3125
14.73,1778927480.328125
13.47,1778927480.34375
12.0,1778927480.359375
10.45,1778927480.375
9.05,1778927480.390625
7.99,1778927480.40625
7.29,1778927480.421875
6.77,1778927480.4375
6.07,1778927480.453125
4.87,1778927480.46875
3.0,1778927480.484375
0.56,1778927480.5
-2.15,1778927480.515625
-4.77,1778927480.53125
-7.07,1778927480.546875
-8.98,1778927480.5625
-10.59,1778927480.578125
-12.07,1778927480.59375
-13.55,1778927480.609375
-15.18,1778927480.625
-17.05,1778927480.640625
-19.27,1778927480.65625
-21.93,1778927480.671875
-24.96,1778927480.6875
-28.07,1778927480.703125
-30.64,1778927480.71875
-31.87,1778927480.734375
-30.96,1778927480.75
-27.5,1778927480.765625
-21.62,1778927480.78125
-14.07,1778927480.796875
-5.93,1778927480.8125
1.74,1778927480.828125
8.19,1778927480.84375
13.18,1778927480.859375
16.82,1778927480.875
19.4,1778927480.890625
21.17,1778927480.90625
22.25,1778927480.921875
22.7,1778927480.9375
22.56,1778927480.953125
21.94,1778927480.96875
21.02,1778927480.984375
19.96,1778927481.0
18.92,1778927481.015625
17.91,1778927481.03125
16.89,1778927481.046875
15.8,1778927481.0625
14.59,1778927481.078125
13.22,1778927481.09375
11.75,1778927481.109375
10.29,1778927481.125
8.94,1778927481.140625
7.74,1778927481.15625
6.63,1778927481.171875
5.44,1778927481.1875
4.03,1778927481.203125
2.37,1778927481.21875
0.52,1778927481.234375
-1.33,1778927481.25
-3.07,1778927481.265625
-4.7,1778927481.28125
-6.34,1778927481.296875
-8.07,1778927481.3125
-9.9,1778927481.328125
-11.68,1778927481.34375
-13.25,1778927481.359375
-14.51,1778927481.375
-15.51,1778927481.390625
-16.48,1778927481.40625
-17.7,1778927481.421875
-19.34,1778927481.4375
-21.38,1778927481.453125
-23.59,1778927481.46875
-25.56,1778927481.484375
-26.74,1778927481.5
-26.61,1778927481.515625
-24.73,1778927481.53125
-20.96,1778927481.546875
-15.48,1778927481.5625
-8.84,1778927481.578125
-1.8,1778927481.59375
4.88,1778927481.609375
10.58,1778927481.625
15.04,1778927481.640625
18.21,1778927481.65625
20.23,1778927481.671875
21.24,1778927481.6875
21.35,1778927481.703125
20.68,1778927481.71875
19.39,1778927481.734375
17.75,1778927481.75
16.06,1778927481.765625
14.58,1778927481.78125
13.46,1778927481.796875
12.66,1778927481.8125
12.01,1778927481.828125
11.29,1778927481.84375
10.4,1778927481.859375
9.39,1778927481.875
8.41,1778927481.890625
7.66,1778927481.90625
7.19,1778927481.921875
6.92,1778927481.9375
6.65,1778927481.953125
6.19,1778927481.96875
5.39,1778927481.984375
4.26,1778927482.0
2.89,1778927482.015625
1.37,1778927482.03125
-0.24,1778927482.046875
-1.87,1778927482.0625
-3.51,1778927482.078125
-5.11,1778927482.09375
-6.65,1778927482.109375
-8.1,1778927482.125
-9.53,1778927482.140625
-11.07,1778927482.15625
-12.87,1778927482.171875
-15.07,1778927482.1875
-17.72,1778927482.203125
-20.72,1778927482.21875
-23.76,1778927482.234375
-26.29,1778927482.25
-27.59,1778927482.265625
-27.05,1778927482.28125
-24.33,1778927482.296875
-19.57,1778927482.3125
-13.38,1778927482.328125
-6.67,1778927482.34375
-0.31,1778927482.359375
5.1,1778927482.375
9.31,1778927482.390625
12.38,1778927482.40625
14.45,1778927482.421875
15.66,1778927482.4375
16.08,1778927482.453125
15.73,1778927482.46875
14.72,1778927482.484375
13.23,1778927482.5
11.52,1778927482.515625
9.81,1778927482.53125
8.27,1778927482.546875
6.9,1778927482.5625
5.61,1778927482.578125
4.29,1778927482.59375
2.94,1778927482.609375
1.65,1778927482.625
0.61,1778927482.640625
-0.04,1778927482.65625
-0.3,1778927482.671875
-0.35,1778927482.6875
-0.5,1778927482.703125
-1.02,1778927482.71875
-2.09,1778927482.734375
-3.64,1778927482.75
-5.47,1778927482.765625
-7.31,1778927482.78125
-8.97,1778927482.796875
-10.34,1778927482.8125
-11.4,1778927482.828125
-12.27,1778927482.84375
-13.09,1778927482.859375
-14.14,1778927482.875
-15.73,1778927482.890625
-18.03,1778927482.90625
-20.96,1778927482.921875
-24.05,1778927482.9375
-26.53,1778927482.953125
-27.52,1778927482.96875
-26.36,1778927482.984375
-22.84,1778927483.0
-17.35,1778927483.015625
-10.63,1778927483.03125
-3.54,1778927483.046875
3.17,1778927483.0625
9.1,1778927483.078125
13.98,1778927483.09375
17.73,1778927483.109375
20.26,1778927483.125
21.58,1778927483.140625
21.78,1778927483.15625
21.1,1778927483.171875
19.93,1778927483.1875
18.59,1778927483.203125
17.31,1778927483.21875
16.08,1778927483.234375
14.8,1778927483.25
13.36,1778927483.265625
11.74,1778927483.28125
10.06,1778927483.296875
8.47,1778927483.3125
7.09,1778927483.328125
5.92,1778927483.34375
4.89,1778927483.359375
3.84,1778927483.375
2.64,1778927483.390625
1.26,1778927483.40625
-0.29,1778927483.421875
-1.96,1778927483.4375
-3.72,1778927483.453125
-5.58,1778927483.46875
-7.53,1778927483.484375
-9.56,1778927483.5
-11.67,1778927483.515625
-13.8,1778927483.53125
-15.96,1778927483.546875
-18.21,1778927483.5625
-20.68,1778927483.578125
-23.45,1778927483.59375
-26.49,1778927483.609375
-29.51,1778927483.625
-31.96,1778927483.640625
-33.07,1778927483.65625
-32.13,1778927483.671875
-28.72,1778927483.6875
-22.91,1778927483.703125
-15.35,1778927483.71875
-7.03,1778927483.734375
1.04,1778927483.75
8.09,1778927483.765625
13.76,1778927483.78125
18.05,1778927483.796875
21.13,1778927483.8125
23.19,1778927483.828125
24.33,1778927483.84375
24.61,1778927483.859375
24.11,1778927483.875
23.03,1778927483.890625
21.6,1778927483.90625
20.01,1778927483.921875
18.35,1778927483.9375
16.62,1778927483.953125
14.77,1778927483.96875
12.82,1778927483.984375
10.88,1778927484.0
9.12,1778927484.015625
7.72,1778927484.03125
6.74,1778927484.046875
6.13,1778927484.0625
5.66,1778927484.078125
5.02,1778927484.09375
3.96,1778927484.109375
2.3,1778927484.125
0.1,1778927484.140625
-2.42,1778927484.15625
-4.95,1778927484.171875
-7.22,1778927484.1875
-9.08,1778927484.203125
-10.61,1778927484.21875
-12.03,1778927484.234375
-13.68,1778927484.25
-15.89,1778927484.265625
-18.87,1778927484.28125
-22.6,1778927484.296875
-26.7,1778927484.3125
-30.5,1778927484.328125
-33.11,1778927484.34375
-33.65,1778927484.359375
-31.62,1778927484.375
-26.99,1778927484.390625
-20.27,1778927484.40625
-12.36,1778927484.421875
-4.25,1778927484.4375
3.23,1778927484.453125
9.55,1778927484.46875
14.54,1778927484.484375
18.27,1778927484.5
20.92,1778927484.515625
22.72,1778927484.53125
23.82,1778927484.546875
24.37,1778927484.5625
24.44,1778927484.578125
24.07,1778927484.59375
23.31,1778927484.609375
22.19,1778927484.625
20.72,1778927484.640625
18.92,1778927484.65625
16.8,1778927484.671875
14.43,1778927484.6875
11.99,1778927484.703125
9.72,1778927484.71875
7.88,1778927484.734375
6.6,1778927484.75
5.81,1778927484.765625
5.21,1778927484.78125
4.42,1778927484.796875
3.1,1778927484.8125
1.1,1778927484.828125
-1.47,1778927484.84375
-4.36,1778927484.859375
-7.28,1778927484.875
-10.07,1778927484.890625
-12.71,1778927484.90625
-15.35,1778927484.921875
-18.14,1778927484.9375
-21.27,1778927484.953125
-24.83,1778927484.96875
-28.8,1778927484.984375
-32.93,1778927485.0
-36.74,1778927485.015625
-39.46,1778927485.03125
-40.18,1778927485.046875
-38.21,1778927485.0625
-33.24,1778927485.078125
-25.65,1778927485.09375
-16.33,1778927485.109375
-6.46,1778927485.125
2.85,1778927485.140625
10.9,1778927485.15625
17.36,1778927485.171875
22.26,1778927485.1875
25.72,1778927485.203125
27.85,1778927485.21875
28.78,1778927485.234375
28.64,1778927485.25
27.71,1778927485.265625
26.3,1778927485.28125
24.67,1778927485.296875
22.95,1778927485.3125
21.13,1778927485.328125
19.13,1778927485.34375
16.91,1778927485.359375
14.55,1778927485.375
12.22,1778927485.390625
10.16,1778927485.40625
8.45,1778927485.421875
7.1,1778927485.4375
5.93,1778927485.453125
4.72,1778927485.46875
3.24,1778927485.484375
1.37,1778927485.5
-0.96,1778927485.515625
-3.74,1778927485.53125
-6.85,1778927485.546875
-10.13,1778927485.5625
-13.34,1778927485.578125
-16.32,1778927485.59375
-18.99,1778927485.609375
-21.51,1778927485.625
-24.24,1778927485.640625
-27.53,1778927485.65625
-31.59,1778927485.671875
-36.23,1778927485.6875
-40.75,1778927485.703125
-44.12,1778927485.71875
-45.25,1778927485.734375
-43.36,1778927485.75
-38.25,1778927485.765625
-30.33,1778927485.78125
-20.49,1778927485.796875
-9.83,1778927485.8125
0.66,1778927485.828125
10.18,1778927485.84375
18.26,1778927485.859375
24.68,1778927485.875
29.41,1778927485.890625
32.58,1778927485.90625
34.36,1778927485.921875
34.98,1778927485.9375
34.67,1778927485.953125
33.67,1778927485.96875
32.18,1778927485.984375
30.43,1778927486.0
28.59,1778927486.015625
26.81,1778927486.03125
25.16,1778927486.046875
23.56,1778927486.0625
21.95,1778927486.078125
20.24,1778927486.09375
18.42,1778927486.109375
16.53,1778927486.125
14.61,1778927486.140625
12.66,1778927486.15625
10.57,1778927486.171875
8.21,1778927486.1875
5.47,1778927486.203125
2.36,1778927486.21875
-1.02,1778927486.234375
-4.46,1778927486.25
-7.79,1778927486.265625
-10.91,1778927486.28125
-13.82,1778927486.296875
-16.68,1778927486.3125
-19.73,1778927486.328125
-23.33,1778927486.34375
-27.7,1778927486.359375
-32.89,1778927486.375
-38.59,1778927486.390625
-44.07,1778927486.40625
-48.32,1778927486.421875
-50.25,1778927486.4375
-49.02,1778927486.453125
-44.31,1778927486.46875
-36.4,1778927486.484375
-26.12,1778927486.5
-14.56,1778927486.515625
-2.9,1778927486.53125
7.95,1778927486.546875
17.38,1778927486.5625
25.13,1778927486.578125
31.14,1778927486.59375
35.53,1778927486.609375
38.42,1778927486.625
39.95,1778927486.640625
40.23,1778927486.65625
39.41,1778927486.671875
37.74,1778927486.6875
35.53,1778927486.703125
33.12,1778927486.71875
30.81,1778927486.734375
28.75,1778927486.75
26.89,1778927486.765625
25.06,1778927486.78125
23.13,1778927486.796875
21.04,1778927486.8125
18.93,1778927486.828125
17.02,1778927486.84375
15.44,1778927486.859375
14.07,1778927486.875
12.6,1778927486.890625
10.57,1778927486.90625
7.66,1778927486.921875
3.84,1778927486.9375
-0.61,1778927486.953125
-5.19,1778927486.96875
-9.47,1778927486.984375
-13.2,1778927487.0
-16.4,1778927487.015625
-19.29,1778927487.03125
-22.21,1778927487.046875
-25.49,1778927487.0625
-29.38,1778927487.078125
-34.03,1778927487.09375
-39.27,1778927487.109375
-44.58,1778927487.125
-49.01,1778927487.140625
-51.38,1778927487.15625
-50.69,1778927487.171875
-46.41,1778927487.1875
-38.71,1778927487.203125
-28.42,1778927487.21875
-16.74,1778927487.234375
-4.85,1778927487.25
6.35,1778927487.265625
16.26,1778927487.28125
24.58,1778927487.296875
31.18,1778927487.3125
36.03,1778927487.328125
39.2,1778927487.34375
40.92,1778927487.359375
41.48,1778927487.375
41.19,1778927487.390625
40.28,1778927487.40625
38.87,1778927487.421875
37.07,1778927487.4375
34.98,1778927487.453125
32.79,1778927487.46875
30.66,1778927487.484375
28.73,1778927487.5
27.0,1778927487.515625
25.36,1778927487.53125
23.7,1778927487.546875
21.93,1778927487.5625
20.07,1778927487.578125
18.21,1778927487.59375
16.45,1778927487.609375
14.76,1778927487.625
13.01,1778927487.640625
10.99,1778927487.65625
8.52,1778927487.671875
5.51,1778927487.6875
2.06,1778927487.703125
-1.61,1778927487.71875
-5.28,1778927487.734375
-8.75,1778927487.75
-11.96,1778927487.765625
-14.99,1778927487.78125
-17.95,1778927487.796875
-21.05,1778927487.8125
-24.51,1778927487.828125
-28.54,1778927487.84375
-33.22,1778927487.859375
-38.45,1778927487.875
-43.7,1778927487.890625
-48.1,1778927487.90625
-50.52,1778927487.921875
-49.93,1778927487.9375
-45.76,1778927487.953125
-38.18,1778927487.96875
-28.01,1778927487.984375
-16.51,1778927488.0
-5.0,1778927488.015625
5.52,1778927488.03125
14.43,1778927488.046875
21.51,1778927488.0625
26.75,1778927488.078125
30.2,1778927488.09375
32.01,1778927488.109375
32.35,1778927488.125
31.54,1778927488.140625
29.94,1778927488.15625
27.94,1778927488.171875
25.86,1778927488.1875
23.94,1778927488.203125
22.29,1778927488.21875
20.97,1778927488.234375
19.93,1778927488.25
19.09,1778927488.265625
18.34,1778927488.28125
17.57,1778927488.296875
16.73,1778927488.3125
15.78,1778927488.328125
14.68,1778927488.34375
13.38,1778927488.359375
11.76,1778927488.375
9.75,1778927488.390625
7.35,1778927488.40625
4.62,1778927488.421875
1.69,1778927488.4375
-1.35,1778927488.453125
-4.46,1778927488.46875
-7.68,1778927488.484375
-11.0,1778927488.5
-14.37,1778927488.515625
-17.63,1778927488.53125
-20.68,1778927488.546875
-23.58,1778927488.5625
-26.55,1778927488.578125
-29.96,1778927488.59375
-34.06,1778927488.609375
-38.8,1778927488.625
-43.7,1778927488.640625
-47.88,1778927488.65625
-50.28,1778927488.671875
-50.02,1778927488.6875
-46.55,1778927488.703125
-39.87,1778927488.71875
-30.52,1778927488.734375
-19.45,1778927488.75
-7.77,1778927488.765625
3.42,1778927488.78125
13.27,1778927488.796875
21.28,1778927488.8125
27.33,1778927488.828125
31.57,1778927488.84375
34.27,1778927488.859375
35.73,1778927488.875
36.15,1778927488.890625
35.74,1778927488.90625
34.68,1778927488.921875
33.23,1778927488.9375
31.68,1778927488.953125
30.2,1778927488.96875
28.9,1778927488.984375
27.71,1778927489.0
26.51,1778927489.015625
25.21,1778927489.03125
23.84,1778927489.046875
22.49,1778927489.0625
21.28,1778927489.078125
20.25,1778927489.09375
19.28,1778927489.109375
18.18,1778927489.125
16.79,1778927489.140625
15.04,1778927489.15625
12.99,1778927489.171875
10.73,1778927489.1875
8.34,1778927489.203125
5.81,1778927489.21875
3.06,1778927489.234375
-0.01,1778927489.25
-3.44,1778927489.265625
-7.13,1778927489.28125
-10.86,1778927489.296875
-14.39,1778927489.3125
-17.54,1778927489.328125
-20.27,1778927489.34375
-22.67,1778927489.359375
-24.92,1778927489.375
-27.26,1778927489.390625
-29.96,1778927489.40625
-33.19,1778927489.421875
-36.91,1778927489.4375
-40.78,1778927489.453125
-44.11,1778927489.46875
-45.99,1778927489.484375
-45.54,1778927489.5
-42.25,1778927489.515625
-36.14,1778927489.53125
-27.82,1778927489.546875
-18.23,1778927489.5625
-8.35,1778927489.578125
1.04,1778927489.59375
9.44,1778927489.609375
16.6,1778927489.625
22.34,1778927489.640625
26.47,1778927489.65625
28.84,1778927489.671875
29.49,1778927489.6875
28.74,1778927489.703125
27.14,1778927489.71875
25.3,1778927489.734375
23.63,1778927489.75
22.28,1778927489.765625
21.09,1778927489.78125
19.77,1778927489.796875
18.13,1778927489.8125
16.15,1778927489.828125
14.02,1778927489.84375
12.04,1778927489.859375
10.43,1778927489.875
9.28,1778927489.890625
8.47,1778927489.90625
7.77,1778927489.921875
6.89,1778927489.9375
5.58,1778927489.953125
3.74,1778927489.96875
1.43,1778927489.984375
-1.16,1778927490.0
-3.8,1778927490.015625
-6.33,1778927490.03125
-8.73,1778927490.046875
-11.11,1778927490.0625
-13.67,1778927490.078125
-16.51,1778927490.09375
-19.61,1778927490.109375
-22.8,1778927490.125
-25.77,1778927490.140625
-28.19,1778927490.15625
-29.82,1778927490.171875
-30.57,1778927490.1875
-30.59,1778927490.203125
-30.26,1778927490.21875
-30.09,1778927490.234375
-30.55,1778927490.25
-31.8,1778927490.265625
-33.57,1778927490.28125
-35.19,1778927490.296875
-35.66,1778927490.3125
-34.08,1778927490.328125
-29.93,1778927490.34375
-23.22,1778927490.359375
-14.54,1778927490.375
-4.82,1778927490.390625
4.93,1778927490.40625
13.84,1778927490.421875
21.41,1778927490.4375
27.4,1778927490.453125
31.87,1778927490.46875
35.06,1778927490.484375
37.3,1778927490.5
39.05,1778927490.515625
40.77,1778927490.53125
42.78,1778927490.546875
45.17,1778927490.5625
47.55,1778927490.578125
49.2,1778927490.59375
49.23,1778927490.609375
46.97,1778927490.625
42.31,1778927490.640625
35.87,1778927490.65625
28.75,1778927490.671875
22.18,1778927490.6875
17.12,1778927490.703125
13.89,1778927490.71875
12.3,1778927490.734375
11.83,1778927490.75
11.97,1778927490.765625
12.36,1778927490.78125
12.8,1778927490.796875
13.1,1778927490.8125
12.99,1778927490.828125
12.19,1778927490.84375
10.46,1778927490.859375
7.83,1778927490.875
4.63,1778927490.890625
1.33,1778927490.90625
-1.69,1778927490.921875
-4.37,1778927490.9375
-6.92,1778927490.953125
-9.77,1778927490.96875
-13.14,1778927490.984375
-17.0,1778927491.0
-21.02,1778927491.015625
-24.85,1778927491.03125
-28.28,1778927491.046875
-31.29,1778927491.0625
-33.91,1778927491.078125
-35.99,1778927491.09375
-37.12,1778927491.109375
-36.72,1778927491.125
-34.33,1778927491.140625
-29.86,1778927491.15625
-23.69,1778927491.171875
-16.51,1778927491.1875
-9.09,1778927491.203125
-2.05,1778927491.21875
4.22,1778927491.234375
9.48,1778927491.25
13.55,1778927491.265625
16.29,1778927491.28125
17.68,1778927491.296875
17.83,1778927491.3125
17.01,1778927491.328125
15.57,1778927491.34375
13.76,1778927491.359375
11.77,1778927491.375
9.7,1778927491.390625
7.65,1778927491.40625
5.73,1778927491.421875
4.08,1778927491.4375
2.76,1778927491.453125
1.7,1778927491.46875
0.74,1778927491.484375
-0.32,1778927491.5
-1.55,1778927491.515625
-2.91,1778927491.53125
-4.24,1778927491.546875
-5.4,1778927491.5625
-6.27,1778927491.578125
-6.91,1778927491.59375
-7.45,1778927491.609375
-8.03,1778927491.625
-8.75,1778927491.640625
-9.67,1778927491.65625
-10.83,1778927491.671875
-12.21,1778927491.6875
-13.85,1778927491.703125
-15.7,1778927491.71875
-17.72,1778927491.734375
-19.82,1778927491.75
-21.97,1778927491.765625
-24.23,1778927491.78125
-26.66,1778927491.796875
-29.13,1778927491.8125
-31.23,1778927491.828125
-32.25,1778927491.84375
-31.44,1778927491.859375
-28.23,1778927491.875
-22.57,1778927491.890625
-14.98,1778927491.90625
-6.38,1778927491.921875
2.25,1778927491.9375
10.09,1778927491.953125
16.63,1778927491.96875
21.62,1778927491.984375
24.99,1778927492.0
26.74,1778927492.015625
26.99,1778927492.03125
26.02,1778927492.046875
24.23,1778927492.0625
22.08,1778927492.078125
19.87,1778927492.09375
17.71,1778927492.109375
15.52,1778927492.125
13.2,1778927492.140625
10.73,1778927492.15625
8.22,1778927492.171875
5.88,1778927492.1875
3.87,1778927492.203125
2.29,1778927492.21875
1.1,1778927492.234375
0.18,1778927492.25
-0.55,1778927492.265625
-1.19,1778927492.28125
-1.78,1778927492.296875
-2.37,1778927492.3125
-3.03,1778927492.328125
-3.8,1778927492.34375
-4.76,1778927492.359375
-5.95,1778927492.375
-7.35,1778927492.390625
-8.93,1778927492.40625
-10.61,1778927492.421875
-12.3,1778927492.4375
-13.96,1778927492.453125
-15.64,1778927492.46875
-17.49,1778927492.484375
-19.59,1778927492.5
-21.91,1778927492.515625
-24.09,1778927492.53125
-25.57,1778927492.546875
-25.63,1778927492.5625
-23.78,1778927492.578125
-19.89,1778927492.59375
-14.34,1778927492.609375
-7.89,1778927492.625
-1.46,1778927492.640625
4.21,1778927492.65625
8.68,1778927492.671875
11.86,1778927492.6875
13.82,1778927492.703125
14.75,1778927492.71875
14.82,1778927492.734375
14.14,1778927492.75
12.88,1778927492.765625
11.26,1778927492.78125
9.56,1778927492.796875
8.01,1778927492.8125
6.76,1778927492.828125
5.79,1778927492.84375
5.01,1778927492.859375
4.29,1778927492.875
3.57,1778927492.890625
2.94,1778927492.90625
2.49,1778927492.921875
2.27,1778927492.9375
2.24,1778927492.953125
2.19,1778927492.96875
1.88,1778927492.984375
1.13,1778927493.0
-0.14,1778927493.015625
-1.83,1778927493.03125
-3.81,1778927493.046875
-5.95,1778927493.0625
-8.12,1778927493.078125
-10.24,1778927493.09375
-12.28,1778927493.109375
-14.2,1778927493.125
-16.07,1778927493.140625
-17.98,1778927493.15625
-20.09,1778927493.171875
-22.46,1778927493.1875
-24.87,1778927493.203125
-26.84,1778927493.21875
-27.66,1778927493.234375
-26.67,1778927493.25
-23.56,1778927493.265625
-18.51,1778927493.28125
-12.15,1778927493.296875
-5.29,1778927493.3125
1.33,1778927493.328125
7.29,1778927493.34375
12.42,1778927493.359375
16.67,1778927493.375
19.91,1778927493.390625
21.96,1778927493.40625
22.69,1778927493.421875
22.12,1778927493.4375
20.52,1778927493.453125
18.28,1778927493.46875
15.77,1778927493.484375
13.28,1778927493.5
11.0,1778927493.515625
9.04,1778927493.53125
7.54,1778927493.546875
6.62,1778927493.5625
6.24,1778927493.578125
6.26,1778927493.59375
6.35,1778927493.609375
6.18,1778927493.625
5.52,1778927493.640625
4.31,1778927493.65625
2.65,1778927493.671875
0.7,1778927493.6875
-1.38,1778927493.703125
-3.49,1778927493.71875
-5.57,1778927493.734375
-7.59,1778927493.75
-9.58,1778927493.765625
-11.68,1778927493.78125
-14.0,1778927493.796875
-16.61,1778927493.8125
-19.35,1778927493.828125
-21.82,1778927493.84375
-23.38,1778927493.859375
-23.39,1778927493.875
-21.43,1778927493.890625
-17.44,1778927493.90625
-11.8,1778927493.921875
-5.19,1778927493.9375
1.59,1778927493.953125
7.82,1778927493.96875
13.04,1778927493.984375
16.98,1778927494.0
19.63,1778927494.015625
21.09,1778927494.03125
21.52,1778927494.046875
21.09,1778927494.0625
20.01,1778927494.078125
18.47,1778927494.09375
16.64,1778927494.109375
14.69,1778927494.125
12.73,1778927494.140625
10.85,1778927494.15625
9.12,1778927494.171875
7.5,1778927494.1875
5.91,1778927494.203125
4.29,1778927494.21875
2.57,1778927494.234375
0.82,1778927494.25
-0.84,1778927494.265625
-2.23,1778927494.28125
-3.28,1778927494.296875
-4.09,1778927494.3125
-4.92,1778927494.328125
-6.13,1778927494.34375
-7.96,1778927494.359375
-10.5,1778927494.375
-13.56,1778927494.390625
-16.85,1778927494.40625
-19.93,1778927494.421875
-22.34,1778927494.4375
-23.57,1778927494.453125
-23.17,1778927494.46875
-20.84,1778927494.484375
-16.58,1778927494.5
-10.81,1778927494.515625
-4.25,1778927494.53125
2.17,1778927494.546875
7.68,1778927494.5625
11.85,1778927494.578125
14.63,1778927494.59375
16.25,1778927494.609375
16.99,1778927494.625
17.04,1778927494.640625
16.49,1778927494.65625
15.38,1778927494.671875
13.8,1778927494.6875
11.94,1778927494.703125
10.02,1778927494.71875
8.21,1778927494.734375
6.57,1778927494.75
5.04,1778927494.765625
3.52,1778927494.78125
1.92,1778927494.796875
0.23,1778927494.8125
-1.49,1778927494.828125
-3.13,1778927494.84375
-4.63,1778927494.859375
-5.99,1778927494.875
-7.32,1778927494.890625
-8.7,1778927494.90625
-10.24,1778927494.921875
-12.01,1778927494.9375
-14.06,1778927494.953125
-16.44,1778927494.96875
-19.17,1778927494.984375
-22.08,1778927495.0
-24.82,1778927495.015625
-26.76,1778927495.03125
-27.17,1778927495.046875
-25.46,1778927495.0625
-21.41,1778927495.078125
-15.35,1778927495.09375
-8.06,1778927495.109375
-0.49,1778927495.125
6.49,1778927495.140625
12.29,1778927495.15625
16.76,1778927495.171875
19.96,1778927495.1875
22.03,1778927495.203125
23.1,1778927495.21875
23.21,1778927495.234375
22.47,1778927495.25
21.04,1778927495.265625
19.16,1778927495.28125
17.09,1778927495.296875
15.04,1778927495.3125
13.15,1778927495.328125
11.4,1778927495.34375
9.72,1778927495.359375
7.97,1778927495.375
6.09,1778927495.390625
4.08,1778927495.40625
2.05,1778927495.421875
0.18,1778927495.4375
-1.36,1778927495.453125
-2.47,1778927495.46875
-3.16,1778927495.484375
-3.64,1778927495.5
-4.2,1778927495.515625
-5.11,1778927495.53125
-6.62,1778927495.546875
-8.83,1778927495.5625
-11.73,1778927495.578125
-15.19,1778927495.59375
-18.87,1778927495.609375
-22.26,1778927495.625
-24.66,1778927495.640625
-25.34,1778927495.65625
-23.75,1778927495.671875
-19.73,1778927495.6875
-13.61,1778927495.703125
-6.2,1778927495.71875
1.48,1778927495.734375
8.48,1778927495.75
14.18,1778927495.765625
18.35,1778927495.78125
21.16,1778927495.796875
22.88,1778927495.8125
23.79,1778927495.828125
24.03,1778927495.84375
23.59,1778927495.859375
22.47,1778927495.875
20.73,1778927495.890625
18.58,1778927495.90625
16.27,1778927495.921875
14.06,1778927495.9375
12.08,1778927495.953125
10.3,1778927495.96875
8.6,1778927495.984375
6.78,1778927496.0
4.72,1778927496.015625
2.39,1778927496.03125
-0.12,1778927496.046875
-2.66,1778927496.0625
-5.06,1778927496.078125
-7.2,1778927496.09375
-9.03,1778927496.109375
-10.67,1778927496.125
-12.3,1778927496.140625
-14.18,1778927496.15625
-16.54,1778927496.171875
-19.5,1778927496.1875
-23.01,1778927496.203125
-26.8,1778927496.21875
-30.38,1778927496.234375
-33.05,1778927496.25
-34.08,1778927496.265625
-32.86,1778927496.28125
-29.09,1778927496.296875
-22.91,1778927496.3125
-14.9,1778927496.328125
-5.91,1778927496.34375
3.09,1778927496.359375
11.26,1778927496.375
18.1,1778927496.390625
23.38,1778927496.40625
27.16,1778927496.421875
29.61,1778927496.4375
30.88,1778927496.453125
31.1,1778927496.46875
30.32,1778927496.484375
28.7,1778927496.5
26.48,1778927496.515625
24.06,1778927496.53125
21.81,1778927496.546875
19.93,1778927496.5625
18.39,1778927496.578125
16.96,1778927496.59375
15.34,1778927496.609375
13.35,1778927496.625
11.08,1778927496.640625
8.83,1778927496.65625
6.94,1778927496.671875
5.59,1778927496.6875
4.72,1778927496.703125
4.0,1778927496.71875
3.07,1778927496.734375
1.63,1778927496.75
-0.4,1778927496.765625
-2.88,1778927496.78125
-5.55,1778927496.796875
-8.17,1778927496.8125
-10.56,1778927496.828125
-12.68,1778927496.84375
-14.59,1778927496.859375
-16.44,1778927496.875
-18.44,1778927496.890625
-20.83,1778927496.90625
-23.78,1778927496.921875
-27.34,1778927496.9375
-31.22,1778927496.953125
-34.76,1778927496.96875
-37.07,1778927496.984375
-37.2,1778927497.0
-34.46,1778927497.015625
-28.73,1778927497.03125
-20.56,1778927497.046875
-10.95,1778927497.0625
-1.17,1778927497.078125
7.71,1778927497.09375
15.06,1778927497.109375
20.68,1778927497.125
24.74,1778927497.140625
27.53,1778927497.15625
29.27,1778927497.171875
30.07,1778927497.1875
29.96,1778927497.203125
29.01,1778927497.21875
27.35,1778927497.234375
25.21,1778927497.25
22.89,1778927497.265625
20.67,1778927497.28125
18.72,1778927497.296875
17.09,1778927497.3125
15.72,1778927497.328125
14.44,1778927497.34375
13.1,1778927497.359375
11.59,1778927497.375
9.99,1778927497.390625
8.41,1778927497.40625
6.99,1778927497.421875
5.76,1778927497.4375
4.57,1778927497.453125
3.21,1778927497.46875
1.44,1778927497.484375
-0.78,1778927497.5
-3.35,1778927497.515625
-6.04,1778927497.53125
-8.63,1778927497.546875
-11.01,1778927497.5625
-13.17,1778927497.578125
-15.17,1778927497.59375
-17.09,1778927497.609375
-19.03,1778927497.625
-21.1,1778927497.640625
-23.46,1778927497.65625
-26.23,1778927497.671875
-29.34,1778927497.6875
-32.44,1778927497.703125
-34.82,1778927497.71875
-35.63,1778927497.734375
-34.09,1778927497.75
-29.87,1778927497.765625
-23.25,1778927497.78125
-15.0,1778927497.796875
-6.11,1778927497.8125
2.47,1778927497.828125
10.14,1778927497.84375
16.63,1778927497.859375
21.81,1778927497.875
25.68,1778927497.890625
28.1,1778927497.90625
29.03,1778927497.921875
28.55,1778927497.9375
26.92,1778927497.953125
24.56,1778927497.96875
21.9,1778927497.984375
19.3,1778927498.0
16.99,1778927498.015625
15.1,1778927498.03125
13.66,1778927498.046875
12.63,1778927498.0625
11.9,1778927498.078125
11.26,1778927498.09375
10.48,1778927498.109375
9.41,1778927498.125
8.04,1778927498.140625
6.51,1778927498.15625
5.03,1778927498.171875
3.71,1778927498.1875
2.55,1778927498.203125
1.37,1778927498.21875
0.01,1778927498.234375
-1.62,1778927498.25
-3.42,1778927498.265625
-5.25,1778927498.28125
-6.94,1778927498.296875
-8.45,1778927498.3125
-9.86,1778927498.328125
-11.3,1778927498.34375
-12.92,1778927498.359375
-14.87,1778927498.375
-17.26,1778927498.390625
-20.18,1778927498.40625
-23.53,1778927498.421875
-27.03,1778927498.4375
-30.04,1778927498.453125
-31.76,1778927498.46875
-31.38,1778927498.484375
-28.39,1778927498.5
-22.86,1778927498.515625
-15.38,1778927498.53125
-6.98,1778927498.546875
1.3,1778927498.5625
8.68,1778927498.578125
14.76,1778927498.59375
19.43,1778927498.609375
22.72,1778927498.625
24.7,1778927498.640625
25.37,1778927498.65625
24.88,1778927498.671875
23.47,1778927498.6875
21.54,1778927498.703125
19.53,1778927498.71875
17.78,1778927498.734375
16.37,1778927498.75
15.13,1778927498.765625
13.82,1778927498.78125
12.21,1778927498.796875
10.27,1778927498.8125
8.15,1778927498.828125
6.13,1778927498.84375
4.42,1778927498.859375
3.14,1778927498.875
2.21,1778927498.890625
1.39,1778927498.90625
0.41,1778927498.921875
-1.03,1778927498.9375
-3.01,1778927498.953125
-5.47,1778927498.96875
-8.14,1778927498.984375
-10.75,1778927499.0
-13.01,1778927499.015625
-14.81,1778927499.03125
-16.2,1778927499.046875
-17.33,1778927499.0625
-18.5,1778927499.078125
-20.01,1778927499.09375
-22.17,1778927499.109375
-25.13,1778927499.125
-28.71,1778927499.140625
-32.34,1778927499.15625
-35.07,1778927499.171875
-35.83,1778927499.1875
-33.82,1778927499.203125
-28.84,1778927499.21875
-21.37,1778927499.234375
-12.42,1778927499.25
-3.23,1778927499.265625
5.18,1778927499.28125
12.24,1778927499.296875
17.78,1778927499.3125
21.91,1778927499.328125
24.82,1778927499.34375
26.65,1778927499.359375
27.48,1778927499.375
27.41,1778927499.390625
26.6,1778927499.40625
25.27,1778927499.421875
23.69,1778927499.4375
22.05,1778927499.453125
20.39,1778927499.46875
18.68,1778927499.484375
16.74,1778927499.5
14.5,1778927499.515625
12.02,1778927499.53125
9.55,1778927499.546875
7.45,1778927499.5625
6.01,1778927499.578125
5.27,1778927499.59375
4.96,1778927499.609375
4.61,1778927499.625
3.71,1778927499.640625
1.94,1778927499.65625
-0.69,1778927499.671875
-3.88,1778927499.6875
-7.14,1778927499.703125
-10.04,1778927499.71875
-12.34,1778927499.734375
-14.03,1778927499.75
-15.38,1778927499.765625
-16.78,1778927499.78125
-18.66,1778927499.796875
-21.34,1778927499.8125
-24.95,1778927499.828125
-29.23,1778927499.84375
-33.5,1778927499.859375
-36.77,1778927499.875
-37.96,1778927499.890625
-36.28,1778927499.90625
-31.53,1778927499.921875
-24.15,1778927499.9375
-15.17,1778927499.953125
-5.8,1778927499.96875
2.86,1778927499.984375
10.19,1778927500.0
15.98,1778927500.015625
20.34,1778927500.03125
23.44,1778927500.046875
25.4,1778927500.0625
26.24,1778927500.078125
25.99,1778927500.09375
24.79,1778927500.109375
22.92,1778927500.125
20.75,1778927500.140625
18.63,1778927500.15625
16.77,1778927500.171875
15.19,1778927500.1875
13.79,1778927500.203125
12.4,1778927500.21875
10.95,1778927500.234375
9.42,1778927500.25
7.85,1778927500.265625
6.33,1778927500.28125
4.87,1778927500.296875
3.44,1778927500.3125
1.89,1778927500.328125
0.07,1778927500.34375
-2.19,1778927500.359375
-4.96,1778927500.375
-8.15,1778927500.390625
-11.54,1778927500.40625
-14.82,1778927500.421875
-17.76,1778927500.4375
-20.23,1778927500.453125
-22.3,1778927500.46875
-24.13,1778927500.484375
-25.92,1778927500.5
-27.8,1778927500.515625
-29.84,1778927500.53125
-32.06,1778927500.546875
-34.31,1778927500.5625
-36.24,1778927500.578125
-37.23,1778927500.59375
-36.54,1778927500.609375
-33.54,1778927500.625
-28.05,1778927500.640625
-20.48,1778927500.65625
-11.73,1778927500.671875
-2.89,1778927500.6875
5.15,1778927500.703125
11.97,1778927500.71875
17.51,1778927500.734375
21.89,1778927500.75
25.14,1778927500.765625
27.15,1778927500.78125
27.78,1778927500.796875
27.08,1778927500.8125
25.36,1778927500.828125
23.18,1778927500.84375
21.1,1778927500.859375
19.44,1778927500.875
18.22,1778927500.890625
17.19,1778927500.90625
16.09,1778927500.921875
14.75,1778927500.9375
13.19,1778927500.953125
11.63,1778927500.96875
10.32,1778927500.984375
9.37,1778927501.0
8.68,1778927501.015625
8.01,1778927501.03125
6.99,1778927501.046875
5.35,1778927501.0625
3.06,1778927501.078125
0.31,1778927501.09375
-2.54,1778927501.109375
-5.12,1778927501.125
-7.17,1778927501.140625
-8.67,1778927501.15625
-9.79,1778927501.171875
-10.86,1778927501.1875
-12.21,1778927501.203125
-14.09,1778927501.21875
-16.6,1778927501.234375
-19.65,1778927501.25
-22.83,1778927501.265625
-25.47,1778927501.28125
-26.73,1778927501.296875
-25.76,1778927501.3125
-22.06,1778927501.328125
-15.6,1778927501.34375
-6.97,1778927501.359375
2.83,1778927501.375
12.64,1778927501.390625
21.51,1778927501.40625
28.83,1778927501.421875
34.35,1778927501.4375
38.1,1778927501.453125
40.24,1778927501.46875
40.99,1778927501.484375
40.67,1778927501.5
39.65,1778927501.515625
38.32,1778927501.53125
37.0,1778927501.546875
35.8,1778927501.5625
34.65,1778927501.578125
33.29,1778927501.59375
31.47,1778927501.609375
29.05,1778927501.625
26.02,1778927501.640625
22.54,1778927501.65625
18.8,1778927501.671875
14.92,1778927501.6875
10.98,1778927501.703125
6.98,1778927501.71875
2.81,1778927501.734375
-1.56,1778927501.75
-6.17,1778927501.765625
-10.92,1778927501.78125
-15.6,1778927501.796875
-19.93,1778927501.8125
-23.63,1778927501.828125
-26.6,1778927501.84375
-28.95,1778927501.859375
-31.09,1778927501.875
-33.53,1778927501.890625
-36.69,1778927501.90625
-40.67,1778927501.921875
-45.12,1778927501.9375
-49.23,1778927501.953125
-51.87,1778927501.96875
-51.94,1778927501.984375
-48.67,1778927502.0
-41.91,1778927502.015625
-32.22,1778927502.03125
-20.72,1778927502.046875
-8.77,1778927502.0625
2.38,1778927502.078125
11.89,1778927502.09375
19.4,1778927502.109375
24.9,1778927502.125
28.57,1778927502.140625
30.61,1778927502.15625
31.22,1778927502.171875
30.63,1778927502.1875
29.16,1778927502.203125
27.21,1778927502.21875
25.09,1778927502.234375
22.98,1778927502.25
20.87,1778927502.265625
18.68,1778927502.28125
16.36,1778927502.296875
14.02,1778927502.3125
11.87,1778927502.328125
10.11,1778927502.34375
8.8,1778927502.359375
7.78,1778927502.375
6.76,1778927502.390625
5.35,1778927502.40625
3.37,1778927502.421875
0.78,1778927502.4375
-2.27,1778927502.453125
-5.48,1778927502.46875
-8.6,1778927502.484375
-11.43,1778927502.5
-14.03,1778927502.515625
-16.54,1778927502.53125
-19.27,1778927502.546875
-22.52,1778927502.5625
-26.54,1778927502.578125
-31.42,1778927502.59375
-36.95,1778927502.609375
-42.54,1778927502.625
-47.24,1778927502.640625
-49.9,1778927502.65625
-49.44,1778927502.671875
-45.35,1778927502.6875
-37.78,1778927502.703125
-27.63,1778927502.71875
-16.22,1778927502.734375
-4.89,1778927502.75
5.34,1778927502.765625
13.92,1778927502.78125
20.71,1778927502.796875
25.81,1778927502.8125
29.34,1778927502.828125
31.48,1778927502.84375
32.35,1778927502.859375
32.16,1778927502.875
31.14,1778927502.890625
29.58,1778927502.90625
27.73,1778927502.921875
25.82,1778927502.9375
24.01,1778927502.953125
22.4,1778927502.96875
20.94,1778927502.984375
19.51,1778927503.0
17.97,1778927503.015625
16.2,1778927503.03125
14.23,1778927503.046875
12.21,1778927503.0625
10.35,1778927503.078125
8.72,1778927503.09375
7.19,1778927503.109375
5.49,1778927503.125
3.26,1778927503.140625
0.27,1778927503.15625
-3.4,1778927503.171875
-7.46,1778927503.1875
-11.43,1778927503.203125
-14.97,1778927503.21875
-17.93,1778927503.234375
-20.47,1778927503.25
-22.96,1778927503.265625
-25.79,1778927503.28125
-29.25,1778927503.296875
-33.42,1778927503.3125
-38.17,1778927503.328125
-43.09,1778927503.34375
-47.49,1778927503.359375
-50.45,1778927503.375
-50.95,1778927503.390625
-48.15,1778927503.40625
-41.76,1778927503.421875
-32.14,1778927503.4375
-20.35,1778927503.453125
-7.83,1778927503.46875
4.07,1778927503.484375
14.35,1778927503.5
22.6,1778927503.515625
28.81,1778927503.53125
33.24,1778927503.546875
36.16,1778927503.5625
37.77,1778927503.578125
38.23,1778927503.59375
37.74,1778927503.609375
36.54,1778927503.625
34.89,1778927503.640625
33.05,1778927503.65625
31.24,1778927503.671875
29.57,1778927503.6875
28.08,1778927503.703125
26.78,1778927503.71875
25.57,1778927503.734375
24.34,1778927503.75
22.98,1778927503.765625
21.5,1778927503.78125
20.02,1778927503.796875
18.77,1778927503.8125
17.91,1778927503.828125
17.42,1778927503.84375
17.02,1778927503.859375
16.26,1778927503.875
14.77,1778927503.890625
12.42,1778927503.90625
9.41,1778927503.921875
6.22,1778927503.9375
3.29,1778927503.953125
0.84,1778927503.96875
-1.16,1778927503.984375
-3.05,1778927504.0
-5.18,1778927504.015625
-7.81,1778927504.03125
-11.08,1778927504.046875
-14.96,1778927504.0625
-19.33,1778927504.078125
-23.83,1778927504.09375
-27.83,1778927504.109375
-30.47,1778927504.125
-30.79,1778927504.140625
-28.16,1778927504.15625
-22.49,1778927504.171875
-14.36,1778927504.1875
-4.89,1778927504.203125
4.63,1778927504.21875
13.09,1778927504.234375
19.77,1778927504.25
24.37,1778927504.265625
26.87,1778927504.28125
27.42,1778927504.296875
26.2,1778927504.3125
23.45,1778927504.328125
19.49,1778927504.34375
14.79,1778927504.359375
9.87,1778927504.375
5.22,1778927504.390625
1.16,1778927504.40625
-2.2,1778927504.421875
-4.96,1778927504.4375
-7.3,1778927504.453125
-9.37,1778927504.46875
-11.18,1778927504.484375
-12.58,1778927504.5
-13.34,1778927504.515625
-13.3,1778927504.53125
-12.48,1778927504.546875
-11.07,1778927504.5625
-9.45,1778927504.578125
-7.98,1778927504.59375
-6.95,1778927504.609375
-6.49,1778927504.625
-6.56,1778927504.640625
-6.96,1778927504.65625
-7.46,1778927504.671875
-7.9,1778927504.6875
-8.24,1778927504.703125
-8.59,1778927504.71875
-9.28,1778927504.734375
-10.6,1778927504.75
-12.83,1778927504.765625
-15.93,1778927504.78125
-19.56,1778927504.796875
-23.0,1778927504.8125
-25.28,1778927504.828125
-25.44,1778927504.84375
-22.77,1778927504.859375
-17.1,1778927504.875
-8.8,1778927504.890625
1.18,1778927504.90625
11.69,1778927504.921875
21.59,1778927504.9375
30.04,1778927504.953125
36.62,1778927504.96875
41.22,1778927504.984375
43.97,1778927505.0
44.98,1778927505.015625
44.34,1778927505.03125
42.1,1778927505.046875
38.43,1778927505.0625
33.69,1778927505.078125
28.33,1778927505.09375
22.84,1778927505.109375
17.61,1778927505.125
12.82,1778927505.140625
8.5,1778927505.15625
4.59,1778927505.171875
1.11,1778927505.1875
-1.91,1778927505.203125
-4.4,1778927505.21875
-6.45,1778927505.234375
-8.25,1778927505.25
-10.13,1778927505.265625
-12.39,1778927505.28125
-15.2,1778927505.296875
-18.52,1778927505.3125
-22.1,1778927505.328125
-25.67,1778927505.34375
-29.04,1778927505.359375
-32.26,1778927505.375
-35.59,1778927505.390625
-39.41,1778927505.40625
-44.05,1778927505.421875
-49.56,1778927505.4375
-55.56,1778927505.453125
-61.2,1778927505.46875
-65.26,1778927505.484375
-66.46,1778927505.5
-63.91,1778927505.515625
-57.33,1778927505.53125
-47.29,1778927505.546875
-35.04,1778927505.5625
-22.13,1778927505.578125
-9.99,1778927505.59375
0.43,1778927505.609375
8.81,1778927505.625
15.27,1778927505.640625
20.18,1778927505.65625
23.82,1778927505.671875
26.31,1778927505.6875
27.61,1778927505.703125
27.74,1778927505.71875
26.81,1778927505.734375
25.11,1778927505.75
23.04,1778927505.765625
20.91,1778927505.78125
18.89,1778927505.796875
16.96,1778927505.8125
15.07,1778927505.828125
13.1,1778927505.84375
11.06,1778927505.859375
8.91,1778927505.875
6.63,1778927505.890625
4.14,1778927505.90625
1.36,1778927505.921875
-1.76,1778927505.9375
-5.18,1778927505.953125
-8.78,1778927505.96875
-12.46,1778927505.984375
-16.18,1778927506.0
-20.08,1778927506.015625
-24.42,1778927506.03125
-29.47,1778927506.046875
-35.32,1778927506.0625
-41.74,1778927506.078125
-48.11,1778927506.09375
-53.35,1778927506.109375
-56.26,1778927506.125
-55.69,1778927506.140625
-51.04,1778927506.15625
-42.38,1778927506.171875
-30.52,1778927506.1875
-16.77,1778927506.203125
-2.61,1778927506.21875
10.7,1778927506.234375
22.28,1778927506.25
31.72,1778927506.265625
38.95,1778927506.28125
44.15,1778927506.296875
47.54,1778927506.3125
49.41,1778927506.328125
49.99,1778927506.34375
49.52,1778927506.359375
48.19,1778927506.375
46.13,1778927506.390625
43.42,1778927506.40625
40.14,1778927506.421875
36.39,1778927506.4375
32.35,1778927506.453125
28.28,1778927506.46875
24.46,1778927506.484375
21.16,1778927506.5
18.51,1778927506.515625
16.48,1778927506.53125
14.79,1778927506.546875
13.02,1778927506.5625
10.75,1778927506.578125
7.64,1778927506.59375
3.62,1778927506.609375
-1.08,1778927506.625
-6.01,1778927506.640625
-10.63,1778927506.65625
-14.53,1778927506.671875
-17.53,1778927506.6875
-19.79,1778927506.703125
-21.76,1778927506.71875
-24.05,1778927506.734375
-27.25,1778927506.75
-31.64,1778927506.765625
-37.01,1778927506.78125
-42.62,1778927506.796875
-47.2,1778927506.8125
-49.32,1778927506.828125
-47.79,1778927506.84375
-42.05,1778927506.859375
-32.43,1778927506.875
-20.02,1778927506.890625
-6.39,1778927506.90625
6.93,1778927506.921875
18.75,1778927506.9375
28.48,1778927506.953125
36.04,1778927506.96875
41.67,1778927506.984375
45.6,1778927507.0
47.97,1778927507.015625
48.88,1778927507.03125
48.41,1778927507.046875
46.77,1778927507.0625
44.26,1778927507.078125
41.25,1778927507.09375
38.03,1778927507.109375
34.82,1778927507.125
31.7,1778927507.140625
28.72,1778927507.15625
25.96,1778927507.171875
23.51,1778927507.1875
21.43,1778927507.203125
19.66,1778927507.21875
18.07,1778927507.234375
16.52,1778927507.25
14.88,1778927507.265625
13.13,1778927507.28125
11.24,1778927507.296875
9.13,1778927507.3125
6.7,1778927507.328125
3.85,1778927507.34375
0.62,1778927507.359375
-2.77,1778927507.375
-6.06,1778927507.390625
-9.01,1778927507.40625
-11.52,1778927507.421875
-13.76,1778927507.4375
-15.95,1778927507.453125
-18.38,1778927507.46875
-21.21,1778927507.484375
-24.52,1778927507.5
-28.27,1778927507.515625
-32.33,1778927507.53125
-36.36,1778927507.546875
-39.8,1778927507.5625
-41.86,1778927507.578125
-41.65,1778927507.59375
-38.5,1778927507.609375
-32.24,1778927507.625
-23.28,1778927507.640625
-12.6,1778927507.65625
-1.38,1778927507.671875
9.28,1778927507.6875
18.62,1778927507.703125
26.31,1778927507.71875
32.27,1778927507.734375
36.58,1778927507.75
39.28,1778927507.765625
40.41,1778927507.78125
40.11,1778927507.796875
38.67,1778927507.8125
36.5,1778927507.828125
34.05,1778927507.84375
31.62,1778927507.859375
29.31,1778927507.875
27.03,1778927507.890625
24.62,1778927507.90625
22.03,1778927507.921875
19.38,1778927507.9375
16.9,1778927507.953125
14.77,1778927507.96875
13.06,1778927507.984375
11.6,1778927508.0
10.04,1778927508.015625
7.98,1778927508.03125
5.09,1778927508.046875
1.17,1778927508.0625
-3.71,1778927508.078125
-9.36,1778927508.09375
-15.41,1778927508.109375
-21.44,1778927508.125
-27.13,1778927508.140625
-32.32,1778927508.15625
-37.03,1778927508.171875
-41.44,1778927508.1875
-45.69,1778927508.203125
-49.83,1778927508.21875
-53.8,1778927508.234375
-57.57,1778927508.25
-61.21,1778927508.265625
-65.04,1778927508.28125
-69.36,1778927508.296875
-74.31,1778927508.3125
-79.54,1778927508.328125
-84.24,1778927508.34375
-87.4,1778927508.359375
-88.24,1778927508.375
-86.59,1778927508.390625
-82.96,1778927508.40625
-78.33,1778927508.421875
-73.94,1778927508.4375
-71.04,1778927508.453125
-70.97,1778927508.46875
-75.08,1778927508.484375
-84.64,1778927508.5
-100.24,1778927508.515625
-121.36,1778927508.53125
-145.81,1778927508.546875
-170.09,1778927508.5625
-189.95,1778927508.578125
-201.45,1778927508.59375
-201.8,1778927508.609375
-189.8,1778927508.625
-165.91,1778927508.640625
-132.07,1778927508.65625
-91.4,1778927508.671875
-47.8,1778927508.6875
-5.37,1778927508.703125
32.12,1778927508.71875
61.95,1778927508.734375
82.95,1778927508.75
95.71,1778927508.765625
102.46,1778927508.78125
106.67,1778927508.796875
112.49,1778927508.8125
123.89,1778927508.828125
143.6,1778927508.84375
171.89,1778927508.859375
205.89,1778927508.875
239.79,1778927508.890625
266.34,1778927508.90625
279.02,1778927508.921875
274.24,1778927508.9375
252.33,1778927508.953125
217.15,1778927508.96875
174.67,1778927508.984375
131.2,1778927509.0
92.23,1778927509.015625
61.84,1778927509.03125
42.52,1778927509.046875
34.74,1778927509.0625
36.3,1778927509.078125
42.14,1778927509.09375
45.03,1778927509.109375
37.88,1778927509.125
16.49,1778927509.140625
-18.13,1778927509.15625
-59.64,1778927509.171875
-98.49,1778927509.1875
-125.33,1778927509.203125
-134.39,1778927509.21875
-125.15,1778927509.234375
-101.88,1778927509.25
-71.61,1778927509.265625
-41.61,1778927509.28125
-17.46,1778927509.296875
-2.16,1778927509.3125
3.87,1778927509.328125
2.15,1778927509.34375
-4.61,1778927509.359375
-13.36,1778927509.375
-21.45,1778927509.390625
-27.08,1778927509.40625
-29.55,1778927509.421875
-29.07,1778927509.4375
-26.37,1778927509.453125
-22.34,1778927509.46875
-17.72,1778927509.484375
-13.12,1778927509.5
-9.01,1778927509.515625
-5.7,1778927509.53125
-3.2,1778927509.546875
-1.25,1778927509.5625
0.62,1778927509.578125
2.85,1778927509.59375
5.62,1778927509.609375
8.7,1778927509.625
11.63,1778927509.640625
13.89,1778927509.65625
15.15,1778927509.671875
15.37,1778927509.6875
14.71,1778927509.703125
13.42,1778927509.71875
11.62,1778927509.734375
9.25,1778927509.75
6.2,1778927509.765625
2.46,1778927509.78125
-1.7,1778927509.796875
-5.73,1778927509.8125
-8.93,1778927509.828125
-10.82,1778927509.84375
-11.35,1778927509.859375
-10.98,1778927509.875
-10.49,1778927509.890625
-10.57,1778927509.90625
-11.62,1778927509.921875
-13.56,1778927509.9375
-15.88,1778927509.953125
-17.78,1778927509.96875
-18.37,1778927509.984375
-16.84,1778927510.0
-12.66,1778927510.015625
-5.8,1778927510.03125
3.14,1778927510.046875
12.99,1778927510.0625
22.22,1778927510.078125
29.46,1778927510.09375
33.82,1778927510.109375
35.17,1778927510.125
34.06,1778927510.140625
31.48,1778927510.15625
28.43,1778927510.171875
25.68,1778927510.1875
23.61,1778927510.203125
22.18,1778927510.21875
21.01,1778927510.234375
19.58,1778927510.25
17.43,1778927510.265625
14.43,1778927510.28125
10.87,1778927510.296875
7.38,1778927510.3125
4.65,1778927510.328125
3.15,1778927510.34375
3.02,1778927510.359375
4.02,1778927510.375
5.73,1778927510.390625
7.72,1778927510.40625
9.62,1778927510.421875
11.16,1778927510.4375
12.08,1778927510.453125
12.24,1778927510.46875
11.51,1778927510.484375
9.91,1778927510.5
7.59,1778927510.515625
4.8,1778927510.53125
1.83,1778927510.546875
-1.13,1778927510.5625
-4.03,1778927510.578125
-6.97,1778927510.59375
-10.15,1778927510.609375
-13.7,1778927510.625
-17.52,1778927510.640625
-21.15,1778927510.65625
-23.74,1778927510.671875
-24.33,1778927510.6875
-22.19,1778927510.703125
-17.18,1778927510.71875
-9.83,1778927510.734375
-1.2,1778927510.75
7.56,1778927510.765625
15.59,1778927510.78125
22.49,1778927510.796875
28.24,1778927510.8125
32.83,1778927510.828125
35.96,1778927510.84375
36.9,1778927510.859375
34.65,1778927510.875
28.44,1778927510.890625
18.16,1778927510.90625
4.71,1778927510.921875
-10.16,1778927510.9375
-24.27,1778927510.953125
-35.5,1778927510.96875
-42.16,1778927510.984375
-42.98,1778927511.0
-37.02,1778927511.015625
-23.76,1778927511.03125
-3.61,1778927511.046875
21.48,1778927511.0625
47.88,1778927511.078125
70.87,1778927511.09375
86.25,1778927511.109375
91.93,1778927511.125
88.98,1778927511.140625
81.23,1778927511.15625
73.73,1778927511.171875
70.71,1778927511.1875
74.1,1778927511.203125
83.35,1778927511.21875
96.21,1778927511.234375
110.04,1778927511.25
122.68,1778927511.265625
132.75,1778927511.28125
139.44,1778927511.296875
142.26,1778927511.3125
141.15,1778927511.328125
136.85,1778927511.34375
131.08,1778927511.359375
126.42,1778927511.375
125.51,1778927511.390625
129.97,1778927511.40625
139.63,1778927511.421875
152.21,1778927511.4375
163.98,1778927511.453125
170.96,1778927511.46875
170.33,1778927511.484375
161.29,1778927511.5
145.21,1778927511.515625
125.06,1778927511.53125
104.23,1778927511.546875
85.59,1778927511.5625
70.69,1778927511.578125
59.77,1778927511.59375
52.22,1778927511.609375
47.12,1778927511.625
43.8,1778927511.640625
41.99,1778927511.65625
41.77,1778927511.671875
43.2,1778927511.6875
46.09,1778927511.703125
49.87,1778927511.71875
53.75,1778927511.734375
56.96,1778927511.75
59.05,1778927511.765625
59.98,1778927511.78125
60.19,1778927511.796875
60.27,1778927511.8125
60.64,1778927511.828125
61.26,1778927511.84375
61.56,1778927511.859375
60.46,1778927511.875
56.79,1778927511.890625
49.57,1778927511.90625
38.44,1778927511.921875
23.69,1778927511.9375
6.18,1778927511.953125
-12.89,1778927511.96875
-32.3,1778927511.984375
-51.13,1778927512.0
-68.76,1778927512.015625
-84.82,1778927512.03125
-98.98,1778927512.046875
-110.73,1778927512.0625
-119.4,1778927512.078125
-124.3,1778927512.09375
-125.09,1778927512.109375
-122.06,1778927512.125
-116.21,1778927512.140625
-108.94,1778927512.15625
-101.52,1778927512.171875
-94.55,1778927512.1875
-87.71,1778927512.203125
-80.06,1778927512.21875
-70.8,1778927512.234375
-59.88,1778927512.25
-48.55,1778927512.265625
-39.07,1778927512.28125
-33.95,1778927512.296875
-34.96,1778927512.3125
-42.49,1778927512.328125
-55.33,1778927512.34375
-71.29,1778927512.359375
-87.91,1778927512.375
-103.33,1778927512.390625
-116.52,1778927512.40625
-127.17,1778927512.421875
-135.37,1778927512.4375
-141.21,1778927512.453125
-144.76,1778927512.46875
-146.21,1778927512.484375
-146.12,1778927512.5
-145.59,1778927512.515625
-145.95,1778927512.53125
-148.4,1778927512.546875
-153.47,1778927512.5625
-160.72,1778927512.578125
-168.85,1778927512.59375
-176.06,1778927512.609375
-180.77,1778927512.625
-182.14,1778927512.640625
-180.36,1778927512.65625
-176.44,1778927512.671875
-171.66,1778927512.6875
-166.84,1778927512.703125
-161.8,1778927512.71875
-155.3,1778927512.734375
-145.47,1778927512.75
-130.72,1778927512.765625
-110.54,1778927512.78125
-86.05,1778927512.796875
-59.73,1778927512.8125
-34.68,1778927512.828125
-13.6,1778927512.84375
2.23,1778927512.859375
13.25,1778927512.875
21.47,1778927512.890625
29.78,1778927512.90625
41.09,1778927512.921875
57.49,1778927512.9375
79.52,1778927512.953125
105.97,1778927512.96875
133.84,1778927512.984375
158.96,1778927513.0
176.81,1778927513.015625
183.61,1778927513.03125
177.29,1778927513.046875
158.06,1778927513.0625
128.35,1778927513.078125
92.27,1778927513.09375
54.76,1778927513.109375
20.54,1778927513.125
-6.57,1778927513.140625
-24.03,1778927513.15625
-30.78,1778927513.171875
-27.09,1778927513.1875
-14.43,1778927513.203125
4.65,1778927513.21875
26.74,1778927513.234375
47.85,1778927513.25
64.01,1778927513.265625
72.02,1778927513.28125
70.19,1778927513.296875
58.71,1778927513.3125
39.32,1778927513.328125
14.56,1778927513.34375
-13.22,1778927513.359375
-42.45,1778927513.375
-72.2,1778927513.390625
-101.64,1778927513.40625
-129.37,1778927513.421875
-153.26,1778927513.4375
-170.89,1778927513.453125
-180.48,1778927513.46875
-181.65,1778927513.484375
-175.6,1778927513.5
-164.56,1778927513.515625
-150.89,1778927513.53125
-136.28,1778927513.546875
-121.51,1778927513.5625
-106.77,1778927513.578125
-92.15,1778927513.59375
-78.06,1778927513.609375
-65.25,1778927513.625
-54.5,1778927513.640625
-46.31,1778927513.65625
-40.69,1778927513.671875
-37.21,1778927513.6875
-35.28,1778927513.703125
-34.29,1778927513.71875
-33.89,1778927513.734375
-33.92,1778927513.75
-34.28,1778927513.765625
-34.85,1778927513.78125
-35.38,1778927513.796875
-35.56,1778927513.8125
-35.12,1778927513.828125
-33.98,1778927513.84375
-32.36,1778927513.859375
-30.73,1778927513.875
-29.69,1778927513.890625
-29.72,1778927513.90625
-30.98,1778927513.921875
-33.21,1778927513.9375
-35.79,1778927513.953125
-37.99,1778927513.96875
-39.2,1778927513.984375
-39.22,1778927514.0
-38.29,1778927514.015625
-37.06,1778927514.03125
-36.26,1778927514.046875
-36.3,1778927514.0625
-37.09,1778927514.078125
-37.91,1778927514.09375
-37.73,1778927514.109375
-35.61,1778927514.125
-31.07,1778927514.140625
-24.21,1778927514.15625
-15.62,1778927514.171875
-6.02,1778927514.1875
4.03,1778927514.203125
14.13,1778927514.21875
24.0,1778927514.234375
33.26,1778927514.25
41.37,1778927514.265625
47.74,1778927514.28125
52.03,1778927514.296875
54.3,1778927514.3125
55.01,1778927514.328125
54.82,1778927514.34375
54.15,1778927514.359375
53.07,1778927514.375
51.3,1778927514.390625
48.54,1778927514.40625
44.84,1778927514.421875
40.72,1778927514.4375
37.06,1778927514.453125
34.66,1778927514.46875
33.91,1778927514.484375
34.55,1778927514.5
35.84,1778927514.515625
36.97,1778927514.53125
37.48,1778927514.546875
37.36,1778927514.5625
37.02,1778927514.578125
36.91,1778927514.59375
37.2,1778927514.609375
37.72,1778927514.625
38.05,1778927514.640625
37.83,1778927514.65625
36.8,1778927514.671875
35.02,1778927514.6875
32.86,1778927514.703125
30.89,1778927514.71875
29.8,1778927514.734375
30.37,1778927514.75
33.21,1778927514.765625
38.55,1778927514.78125
46.18,1778927514.796875
55.45,1778927514.8125
65.63,1778927514.828125
76.14,1778927514.84375
86.81,1778927514.859375
97.69,1778927514.875
108.79,1778927514.890625
119.74,1778927514.90625
129.81,1778927514.921875
138.11,1778927514.9375
144.11,1778927514.953125
147.86,1778927514.96875
149.97,1778927514.984375
151.29,1778927515.0
152.53,1778927515.015625
154.05,1778927515.03125
155.84,1778927515.046875
157.55,1778927515.0625
158.63,1778927515.078125
158.19,1778927515.09375
155.02,1778927515.109375
147.78,1778927515.125
135.31,1778927515.140625
117.01,1778927515.15625
93.07,1778927515.171875
64.39,1778927515.1875
32.36,1778927515.203125
-1.44,1778927515.21875
-35.47,1778927515.234375
-68.24,1778927515.25
-98.42,1778927515.265625
-124.86,1778927515.28125
-146.86,1778927515.296875
-164.16,1778927515.3125
-177.02,1778927515.328125
-186.0,1778927515.34375
-191.73,1778927515.359375
-194.66,1778927515.375
-194.96,1778927515.390625
-192.56,1778927515.40625
-187.19,1778927515.421875
-178.62,1778927515.4375
-166.72,1778927515.453125
-151.63,1778927515.46875
-133.81,1778927515.484375
-113.94,1778927515.5
-92.94,1778927515.515625
-71.78,1778927515.53125
-51.52,1778927515.546875
-33.21,1778927515.5625
-17.86,1778927515.578125
-6.22,1778927515.59375
1.44,1778927515.609375
5.49,1778927515.625
6.82,1778927515.640625
6.58,1778927515.65625
5.74,1778927515.671875
4.88,1778927515.6875
4.11,1778927515.703125
3.3,1778927515.71875
2.38,1778927515.734375
1.48,1778927515.75
0.81,1778927515.765625
0.53,1778927515.78125
0.49,1778927515.796875
0.27,1778927515.8125
-0.62,1778927515.828125
-2.46,1778927515.84375
-5.18,1778927515.859375
-8.37,1778927515.875
-11.52,1778927515.890625
-14.19,1778927515.90625
-16.25,1778927515.921875
-17.78,1778927515.9375
-19.07,1778927515.953125
-20.36,1778927515.96875
-21.77,1778927515.984375
-23.25,1778927516.0
-24.62,1778927516.015625
-25.69,1778927516.03125
-26.28,1778927516.046875
-26.21,1778927516.0625
-25.27,1778927516.078125
-23.09,1778927516.09375
-19.19,1778927516.109375
-13.01,1778927516.125
-4.16,1778927516.140625
7.42,1778927516.15625
21.4,1778927516.171875
37.02,1778927516.1875
53.37,1778927516.203125
69.44,1778927516.21875
84.16,1778927516.234375
96.34,1778927516.25
104.64,1778927516.265625
107.74,1778927516.28125
104.77,1778927516.296875
95.73,1778927516.3125
81.71,1778927516.328125
64.72,1778927516.34375
47.08,1778927516.359375
30.77,1778927516.375
16.8,1778927516.390625
5.19,1778927516.40625
-4.82,1778927516.421875
-14.15,1778927516.4375
-23.46,1778927516.453125
-32.87,1778927516.46875
-41.99,1778927516.484375
-50.24,1778927516.5
-57.1,1778927516.515625
-62.31,1778927516.53125
-65.82,1778927516.546875
-67.73,1778927516.5625
-68.12,1778927516.578125
-66.99,1778927516.59375
-64.35,1778927516.609375
-60.31,1778927516.625
-55.25,1778927516.640625
-49.76,1778927516.65625
-44.62,1778927516.671875
-40.58,1778927516.6875
-38.2,1778927516.703125
-37.73,1778927516.71875
-39.08,1778927516.734375
-41.8,1778927516.75
-45.02,1778927516.765625
-47.62,1778927516.78125
-48.37,1778927516.796875
-46.2,1778927516.8125
-40.51,1778927516.828125
-31.23,1778927516.84375
-18.8,1778927516.859375
-3.88,1778927516.875
12.83,1778927516.890625
30.72,1778927516.90625
49.16,1778927516.921875
67.5,1778927516.9375
84.9,1778927516.953125
100.59,1778927516.96875
114.05,1778927516.984375
125.29,1778927517.0
134.85,1778927517.015625
143.59,1778927517.03125
152.28,1778927517.046875
161.24,1778927517.0625
170.23,1778927517.078125
178.61,1778927517.09375
185.72,1778927517.109375
191.26,1778927517.125
195.53,1778927517.140625
199.48,1778927517.15625
204.45,1778927517.171875
211.89,1778927517.1875
222.79,1778927517.203125
237.2,1778927517.21875
253.69,1778927517.234375
269.15,1778927517.25
279.23,1778927517.265625
279.39,1778927517.28125
266.26,1778927517.296875
238.77,1778927517.3125
198.53,1778927517.328125
149.17,1778927517.34375
95.0,1778927517.359375
39.56,1778927517.375
-15.28,1778927517.390625
-69.45,1778927517.40625
-124.08,1778927517.421875
-180.44,1778927517.4375
-238.88,1778927517.453125
-298.14,1778927517.46875
-355.15,1778927517.484375
-405.58,1778927517.5
-444.83,1778927517.515625
-469.19,1778927517.53125
-476.79,1778927517.546875
-467.87,1778927517.5625
-444.36,1778927517.578125
-409.13,1778927517.59375
-365.41,1778927517.609375
-316.4,1778927517.625
-265.39,1778927517.640625
-215.63,1778927517.65625
-170.15,1778927517.671875
-131.12,1778927517.6875
-99.26,1778927517.703125
-73.75,1778927517.71875
-52.63,1778927517.734375
-33.75,1778927517.75
-15.5,1778927517.765625
2.66,1778927517.78125
20.29,1778927517.796875
36.43,1778927517.8125
50.17,1778927517.828125
61.1,1778927517.84375
69.48,1778927517.859375
76.08,1778927517.875
81.83,1778927517.890625
87.48,1778927517.90625
93.28,1778927517.921875
99.01,1778927517.9375
104.12,1778927517.953125
107.96,1778927517.96875
110.16,1778927517.984375
110.67,1778927518.0
109.8,1778927518.015625
108.04,1778927518.03125
105.82,1778927518.046875
103.44,1778927518.0625
100.97,1778927518.078125
98.39,1778927518.09375
95.64,1778927518.109375
92.79,1778927518.125
90.0,1778927518.140625
87.63,1778927518.15625
86.15,1778927518.171875
86.1,1778927518.1875
88.04,1778927518.203125
92.34,1778927518.21875
99.0,1778927518.234375
107.61,1778927518.25
117.28,1778927518.265625
126.9,1778927518.28125
135.35,1778927518.296875
141.85,1778927518.3125
146.04,1778927518.328125
147.94,1778927518.34375
147.68,1778927518.359375
145.36,1778927518.375
140.92,1778927518.390625
134.29,1778927518.40625
125.53,1778927518.421875
114.94,1778927518.4375
103.08,1778927518.453125
90.6,1778927518.46875
78.04,1778927518.484375
65.75,1778927518.5
53.87,1778927518.515625
42.53,1778927518.53125
31.96,1778927518.546875
22.55,1778927518.5625
14.79,1778927518.578125
9.02,1778927518.59375
5.21,1778927518.609375
2.86,1778927518.625
1.09,1778927518.640625
-1.06,1778927518.65625
-4.35,1778927518.671875
-9.04,1778927518.6875
-14.86,1778927518.703125
-21.21,1778927518.71875
-27.4,1778927518.734375
-32.96,1778927518.75
-37.79,1778927518.765625
-42.12,1778927518.78125
-46.37,1778927518.796875
-51.1,1778927518.8125
-56.77,1778927518.828125
-63.67,1778927518.84375
-71.72,1778927518.859375
-80.32,1778927518.875
-88.24,1778927518.890625
-93.85,1778927518.90625
-95.5,1778927518.921875
-92.05,1778927518.9375
-83.34,1778927518.953125
-70.25,1778927518.96875
-54.46,1778927518.984375
-37.93,1778927519.0
-22.33,1778927519.015625
-8.74,1778927519.03125
2.27,1778927519.046875
10.52,1778927519.0625
15.9,1778927519.078125
18.31,1778927519.09375
17.68,1778927519.109375
14.21,1778927519.125
8.38,1778927519.140625
0.9,1778927519.15625
-7.45,1778927519.171875
-16.13,1778927519.1875
-24.89,1778927519.203125
-33.86,1778927519.21875
-43.34,1778927519.234375
-53.6,1778927519.25
-64.61,1778927519.265625
-75.91,1778927519.28125
-86.51,1778927519.296875
-95.05,1778927519.3125
-100.25,1778927519.328125
-101.35,1778927519.34375
-98.41,1778927519.359375
-92.35,1778927519.375
-84.64,1778927519.390625
-76.68,1778927519.40625
-69.38,1778927519.421875
-62.94,1778927519.4375
-57.01,1778927519.453125
-51.12,1778927519.46875
-45.07,1778927519.484375
-39.21,1778927519.5
-34.53,1778927519.515625
-32.4,1778927519.53125
-34.21,1778927519.546875
-40.79,1778927519.5625
-51.85,1778927519.578125
-65.59,1778927519.59375
-78.89,1778927519.609375
-87.93,1778927519.625
-89.35,1778927519.640625
-81.3,1778927519.65625
-63.97,1778927519.671875
-39.32,1778927519.6875
-10.25,1778927519.703125
20.48,1778927519.71875
50.71,1778927519.734375
78.81,1778927519.75
103.29,1778927519.765625
122.5,1778927519.78125
134.8,1778927519.796875
139.33,1778927519.8125
136.69,1778927519.828125
129.21,1778927519.84375
120.38,1778927519.859375
113.47,1778927519.875
110.0,1778927519.890625
108.98,1778927519.90625
107.33,1778927519.921875
101.52,1778927519.9375
89.69,1778927519.953125
73.2,1778927519.96875
56.81,1778927519.984375
47.16,1778927520.0
50.34,1778927520.015625
69.5,1778927520.03125
103.52,1778927520.046875
147.15,1778927520.0625
192.48,1778927520.078125
231.01,1778927520.09375
255.68,1778927520.109375
262.28,1778927520.125
249.94,1778927520.140625
220.84,1778927520.15625
179.04,1778927520.171875
129.11,1778927520.1875
74.81,1778927520.203125
18.33,1778927520.21875
-39.88,1778927520.234375
-100.35,1778927520.25
-163.32,1778927520.265625
-227.18,1778927520.28125
-287.56,1778927520.296875
-337.43,1778927520.3125
-368.82,1778927520.328125
-375.54,1778927520.34375
-356.19,1778927520.359375
-315.83,1778927520.375
-265.21,1778927520.390625
-217.72,1778927520.40625
-184.99,1778927520.421875
-173.33,1778927520.4375
-182.51,1778927520.453125
-207.13,1778927520.46875
-239.81,1778927520.484375
-274.01,1778927520.5
-305.35,1778927520.515625
-331.24,1778927520.53125
-349.38,1778927520.546875
-356.79,1778927520.5625
-350.1,1778927520.578125
-326.77,1778927520.59375
-286.46,1778927520.609375
-231.69,1778927520.625
-167.54,1778927520.640625
-100.26,1778927520.65625
-35.53,1778927520.671875
22.99,1778927520.6875
74.18,1778927520.703125
118.71,1778927520.71875
157.33,1778927520.734375
189.1,1778927520.75
210.56,1778927520.765625
216.57,1778927520.78125
202.49,1778927520.796875
166.72,1778927520.8125
112.22,1778927520.828125
46.06,1778927520.84375
-22.75,1778927520.859375
-86.32,1778927520.875
-139.9,1778927520.890625
-182.1,1778927520.90625
-213.4,1778927520.921875
-234.04,1778927520.9375
-242.85,1778927520.953125
-237.68,1778927520.96875
-216.78,1778927520.984375
-180.42,1778927521.0
-131.51,1778927521.015625
-75.09,1778927521.03125
-17.19,1778927521.046875
36.69,1778927521.0625
82.54,1778927521.078125
118.28,1778927521.09375
143.4,1778927521.109375
158.46,1778927521.125
164.57,1778927521.140625
163.01,1778927521.15625
155.23,1778927521.171875
143.01,1778927521.1875
128.8,1778927521.203125
115.69,1778927521.21875
107.12,1778927521.234375
106.09,1778927521.25
114.28,1778927521.265625
131.47,1778927521.28125
155.46,1778927521.296875
182.5,1778927521.3125
208.02,1778927521.328125
227.45,1778927521.34375
236.98,1778927521.359375
234.28,1778927521.375
219.08,1778927521.390625
193.3,1778927521.40625
160.65,1778927521.421875
125.57,1778927521.4375
91.95,1778927521.453125
62.2,1778927521.46875
37.2,1778927521.484375
16.92,1778927521.5
1.35,1778927521.515625
-9.02,1778927521.53125
-13.31,1778927521.546875
-11.09,1778927521.5625
-3.07,1778927521.578125
8.68,1778927521.59375
21.31,1778927521.609375
32.11,1778927521.625
39.43,1778927521.640625
42.94,1778927521.65625
43.32,1778927521.671875
41.53,1778927521.6875
38.28,1778927521.703125
33.7,1778927521.71875
27.69,1778927521.734375
20.36,1778927521.75
12.34,1778927521.765625
4.78,1778927521.78125
-0.97,1778927521.796875
-3.93,1778927521.8125
-3.79,1778927521.828125
-1.07,1778927521.84375
3.08,1778927521.859375
7.17,1778927521.875
9.69,1778927521.890625
9.34,1778927521.90625
5.3,1778927521.921875
-2.61,1778927521.9375
-13.91,1778927521.953125
-27.48,1778927521.96875
-41.92,1778927521.984375
-55.93,1778927522.0
-68.67,1778927522.015625
-79.87,1778927522.03125
-89.71,1778927522.046875
-98.55,1778927522.0625
-106.62,1778927522.078125
-113.96,1778927522.09375
-120.41,1778927522.109375
-125.8,1778927522.125
-129.93,1778927522.140625
-132.56,1778927522.15625
-133.32,1778927522.171875
-131.83,1778927522.1875
-127.63,1778927522.203125
-120.54,1778927522.21875
-110.6,1778927522.234375
-98.12,1778927522.25
-83.51,1778927522.265625
-67.11,1778927522.28125
-49.16,1778927522.296875
-29.87,1778927522.3125
-9.63,1778927522.328125
10.69,1778927522.34375
29.83,1778927522.359375
46.35,1778927522.375
58.99,1778927522.390625
67.15,1778927522.40625
70.97,1778927522.421875
71.25,1778927522.4375
69.16,1778927522.453125
65.85,1778927522.46875
62.3,1778927522.484375
59.23,1778927522.5
57.18,1778927522.515625
56.53,1778927522.53125
57.41,1778927522.546875
59.6,1778927522.5625
62.39,1778927522.578125
64.73,1778927522.59375
65.5,1778927522.609375
63.88,1778927522.625
59.64,1778927522.640625
53.14,1778927522.65625
45.13,1778927522.671875
36.49,1778927522.6875
27.92,1778927522.703125
19.73,1778927522.71875
11.81,1778927522.734375
3.6,1778927522.75
-5.75,1778927522.765625
-17.12,1778927522.78125
-30.95,1778927522.796875
-46.88,1778927522.8125
-63.4,1778927522.828125
-77.97,1778927522.84375
-87.58,1778927522.859375
-89.58,1778927522.875
-82.52,1778927522.890625
-66.48,1778927522.90625
-43.05,1778927522.921875
-14.65,1778927522.9375
16.21,1778927522.953125
47.45,1778927522.96875
77.66,1778927522.984375
105.98,1778927523.0
131.76,1778927523.015625
154.34,1778927523.03125
173.07,1778927523.046875
187.4,1778927523.0625
197.19,1778927523.078125
202.89,1778927523.09375
205.62,1778927523.109375
206.94,1778927523.125
208.45,1778927523.140625
211.22,1778927523.15625
215.26,1778927523.171875
219.34,1778927523.1875
221.24,1778927523.203125
218.5,1778927523.21875
209.28,1778927523.234375
193.09,1778927523.25
170.94,1778927523.265625
144.94,1778927523.28125
117.67,1778927523.296875
91.44,1778927523.3125
67.7,1778927523.328125
46.84,1778927523.34375
28.23,1778927523.359375
10.59,1778927523.375
-7.39,1778927523.390625
-26.29,1778927523.40625
-45.54,1778927523.421875
-63.56,1778927523.4375
-78.48,1778927523.453125
-88.99,1778927523.46875
-94.97,1778927523.484375
-97.24,1778927523.5
-96.95,1778927523.515625
-94.71,1778927523.53125
-90.35,1778927523.546875
-83.18,1778927523.5625
-72.71,1778927523.578125
-59.21,1778927523.59375
-43.76,1778927523.609375
-28.1,1778927523.625
-14.13,1778927523.640625
-3.8,1778927523.65625
1.14,1778927523.671875
-0.63,1778927523.6875
-9.33,1778927523.703125
-23.37,1778927523.71875
-39.04,1778927523.734375
-51.1,1778927523.75
-54.37,1778927523.765625
-45.53,1778927523.78125
-24.47,1778927523.796875
5.7,1778927523.8125
39.79,1778927523.828125
72.51,1778927523.84375
100.13,1778927523.859375
121.16,1778927523.875
135.92,1778927523.890625
145.3,1778927523.90625
149.77,1778927523.921875
149.04,1778927523.9375
142.56,1778927523.953125
130.52,1778927523.96875
114.26,1778927523.984375
96.12,1778927524.0
78.5,1778927524.015625
62.91,1778927524.03125
49.51,1778927524.046875
37.43,1778927524.0625
25.66,1778927524.078125
13.85,1778927524.09375
2.63,1778927524.109375
-6.78,1778927524.125
-13.36,1778927524.140625
-17.11,1778927524.15625
-19.23,1778927524.171875
-21.8,1778927524.1875
-26.82,1778927524.203125
-35.41,1778927524.21875
-47.39,1778927524.234375
-61.47,1778927524.25
-76.09,1778927524.265625
-90.27,1778927524.28125
-104.25,1778927524.296875
-119.37,1778927524.3125
-137.36,1778927524.328125
-159.44,1778927524.34375
-185.58,1778927524.359375
-214.27,1778927524.375
-242.84,1778927524.390625
-268.09,1778927524.40625
-287.06,1778927524.421875
-297.54,1778927524.4375
-298.34,1778927524.453125
-289.49,1778927524.46875
-272.12,1778927524.484375
-248.41,1778927524.5
-221.24,1778927524.515625
-193.82,1778927524.53125
-168.98,1778927524.546875
-148.63,1778927524.5625
-133.26,1778927524.578125
-121.89,1778927524.59375
-112.42,1778927524.609375
-102.38,1778927524.625
-89.71,1778927524.640625
-73.45,1778927524.65625
-53.91,1778927524.671875
-32.5,1778927524.6875
-11.19,1778927524.703125
8.15,1778927524.71875
24.22,1778927524.734375
36.47,1778927524.75
45.05,1778927524.765625
50.59,1778927524.78125
53.92,1778927524.796875
55.84,1778927524.8125
57.01,1778927524.828125
57.88,1778927524.84375
58.61,1778927524.859375
59.13,1778927524.875
59.09,1778927524.890625
57.95,1778927524.90625
55.2,1778927524.921875
50.51,1778927524.9375
44.04,1778927524.953125
36.5,1778927524.96875
29.11,1778927524.984375
23.27,1778927525.0
20.12,1778927525.015625
20.21,1778927525.03125
23.17,1778927525.046875
27.79,1778927525.0625
32.41,1778927525.078125
35.7,1778927525.09375
37.08,1778927525.109375
36.99,1778927525.125
36.75,1778927525.140625
38.18,1778927525.15625
43.16,1778927525.171875
52.99,1778927525.1875
68.05,1778927525.203125
87.75,1778927525.21875
110.96,1778927525.234375
136.35,1778927525.25
162.71,1778927525.265625
189.0,1778927525.28125
214.42,1778927525.296875
238.43,1778927525.3125
260.31,1778927525.328125
279.14,1778927525.34375
293.81,1778927525.359375
303.65,1778927525.375
308.49,1778927525.390625
308.62,1778927525.40625
304.58,1778927525.421875
297.05,1778927525.4375
287.4,1778927525.453125
276.71,1778927525.46875
265.57,1778927525.484375
253.56,1778927525.5
240.54,1778927525.515625
226.22,1778927525.53125
210.15,1778927525.546875
191.45,1778927525.5625
169.04,1778927525.578125
142.96,1778927525.59375
113.04,1778927525.609375
78.94,1778927525.625
39.83,1778927525.640625
-2.59,1778927525.65625
-44.94,1778927525.671875
-83.19,1778927525.6875
-114.02,1778927525.703125
-135.27,1778927525.71875
-144.14,1778927525.734375
-139.61,1778927525.75
-122.63,1778927525.765625
-97.19,1778927525.78125
-65.93,1778927525.796875
-31.18,1778927525.8125
4.68,1778927525.828125
38.83,1778927525.84375
68.91,1778927525.859375
95.74,1778927525.875
119.83,1778927525.890625
140.38,1778927525.90625
153.58,1778927525.921875
158.63,1778927525.9375
156.88,1778927525.953125
151.23,1778927525.96875
144.48,1778927525.984375
123.59,1778927526.0
83.57,1778927526.015625
27.57,1778927526.03125
-23.7,1778927526.046875
-69.6,1778927526.0625
-113.76,1778927526.078125
-160.7,1778927526.09375
-208.67,1778927526.109375
-253.57,1778927526.125
-290.99,1778927526.140625
-315.45,1778927526.15625
-324.7,1778927526.171875
-320.34,1778927526.1875
-308.66,1778927526.203125
-293.9,1778927526.21875
-278.78,1778927526.234375
-264.75,1778927526.25
-253.04,1778927526.265625
-244.34,1778927526.28125
-236.76,1778927526.296875
-228.51,1778927526.3125
-218.59,1778927526.328125
-208.42,1778927526.34375
-197.88,1778927526.359375
-186.74,1778927526.375
-175.22,1778927526.390625
-164.76,1778927526.40625
-157.11,1778927526.421875
-152.45,1778927526.4375
-150.43,1778927526.453125
-150.53,1778927526.46875
-153.15,1778927526.484375
-157.46,1778927526.5
-162.55,1778927526.515625
-167.86,1778927526.53125
-173.51,1778927526.546875
-179.58,1778927526.5625
-185.18,1778927526.578125
-189.23,1778927526.59375
-191.01,1778927526.609375
-190.97,1778927526.625
-189.78,1778927526.640625
-188.42,1778927526.65625
-187.93,1778927526.671875
-189.05,1778927526.6875
-191.67,1778927526.703125
-194.43,1778927526.71875
-195.15,1778927526.734375
-191.49,1778927526.75
-181.66,1778927526.765625
-164.6,1778927526.78125
-140.42,1778927526.796875
-110.52,1778927526.8125
-77.29,1778927526.828125
-43.62,1778927526.84375
-12.13,1778927526.859375
15.26,1778927526.875
37.6,1778927526.890625
54.73,1778927526.90625
67.04,1778927526.921875
75.08,1778927526.9375
79.41,1778927526.953125
80.72,1778927526.96875
79.96,1778927526.984375
78.34,1778927527.0
77.21,1778927527.015625
77.59,1778927527.03125
79.86,1778927527.046875
83.72,1778927527.0625
88.47,1778927527.078125
93.42,1778927527.09375
98.21,1778927527.109375
102.85,1778927527.125
107.37,1778927527.140625
111.57,1778927527.15625
114.89,1778927527.171875
116.64,1778927527.1875
116.29,1778927527.203125
113.73,1778927527.21875
109.23,1778927527.234375
103.18,1778927527.25
95.8,1778927527.265625
87.06,1778927527.28125
76.83,1778927527.296875
65.2,1778927527.3125
52.61,1778927527.328125
39.87,1778927527.34375
27.83,1778927527.359375
17.11,1778927527.375
7.88,1778927527.390625
-0.08,1778927527.40625
-7.27,1778927527.421875
-14.22,1778927527.4375
-21.26,1778927527.453125
-28.37,1778927527.46875
-35.04,1778927527.484375
-40.3,1778927527.5
-42.85,1778927527.515625
-41.35,1778927527.53125
-34.8,1778927527.546875
-22.92,1778927527.5625
-6.25,1778927527.578125
13.98,1778927527.59375
36.22,1778927527.609375
58.99,1778927527.625
81.12,1778927527.640625
101.69,1778927527.65625
120.03,1778927527.671875
135.52,1778927527.6875
147.69,1778927527.703125
156.49,1778927527.71875
162.39,1778927527.734375
166.44,1778927527.75
169.93,1778927527.765625
174.02,1778927527.78125
179.26,1778927527.796875
185.45,1778927527.8125
191.76,1778927527.828125
197.24,1778927527.84375
201.29,1778927527.859375
203.99,1778927527.875
206.13,1778927527.890625
208.77,1778927527.90625
212.84,1778927527.921875
218.62,1778927527.9375
225.67,1778927527.953125
233.02,1778927527.96875
239.64,1778927527.984375
244.83,1778927528.0
248.46,1778927528.015625
251.02,1778927528.03125
253.4,1778927528.046875
256.81,1778927528.0625
262.3,1778927528.078125
270.42,1778927528.09375
280.66,1778927528.109375
291.16,1778927528.125
298.93,1778927528.140625
300.65,1778927528.15625
293.79,1778927528.171875
277.66,1778927528.1875
253.77,1778927528.203125
225.35,1778927528.21875
196.26,1778927528.234375
169.71,1778927528.25
147.39,1778927528.265625
129.24,1778927528.28125
113.93,1778927528.296875
99.69,1778927528.3125
85.06,1778927528.328125
69.35,1778927528.34375
52.67,1778927528.359375
35.58,1778927528.375
18.69,1778927528.390625
