PPG GREEN,time
1783547.0,1778927451.589
1784299.0,1778927451.629
1773944.0,1778927451.309
1778244.0,1778927451.349
1781905.0,1778927451.389
1784023.0,1778927451.429
1784265.0,1778927451.469
1785528.0,1778927451.669
1783308.0,1778927451.549
1783781.0,1778927451.509
1786754.0,1778927451.709
1788169.0,1778927451.749
1787622.0,1778927451.789
1785098.0,1778927451.829
1780483.0,1778927451.989
1780811.0,1778927451.909
1781960.0,1778927452.069
1781303.0,1778927452.029
1780113.0,1778927451.949
1782631.0,1778927451.869
1782824.0,1778927452.109
1783713.0,1778927452.149
1784712.0,1778927452.189
1785977.0,1778927452.229
1787867.0,1778927452.269
1789753.0,1778927452.309
1791790.0,1778927452.349
1793636.0,1778927452.389
1795866.0,1778927452.429
1797860.0,1778927452.469
1798138.0,1778927452.509
1796149.0,1778927452.549
1793964.0,1778927452.589
1792989.0,1778927452.629
1792401.0,1778927452.669
1792629.0,1778927452.709
1793366.0,1778927452.749
1794362.0,1778927452.789
1795105.0,1778927452.829
1796403.0,1778927452.869
1797121.0,1778927452.909
1798619.0,1778927452.949
1800220.0,1778927452.989
1802562.0,1778927453.029
1805348.0,1778927453.069
1808019.0,1778927453.109
1810590.0,1778927453.149
1815311.0,1778927453.189
1818415.0,1778927453.229
1817577.0,1778927453.269
1811524.0,1778927453.309
1807014.0,1778927453.349
1803001.0,1778927453.389
1805271.0,1778927453.429
1811192.0,1778927453.469
1821728.0,1778927453.509
1832073.0,1778927453.549
1841392.0,1778927453.589
1847706.0,1778927453.629
1854432.0,1778927453.669
1853755.0,1778927453.709
1849607.0,1778927453.749
1844165.0,1778927453.789
1841624.0,1778927453.829
1844792.0,1778927453.869
1848195.0,1778927453.909
1849759.0,1778927453.949
1850064.0,1778927453.989
1851018.0,1778927454.029
1852175.0,1778927454.069
1853991.0,1778927454.109
1856752.0,1778927454.149
1859794.0,1778927454.189
1863374.0,1778927454.229
1867582.0,1778927454.269
1870700.0,1778927454.309
1874546.0,1778927454.349
1878364.0,1778927454.389
1882493.0,1778927454.429
1887949.0,1778927454.469
1892626.0,1778927454.509
1896854.0,1778927454.549
1900077.0,1778927454.589
1902703.0,1778927454.629
1903737.0,1778927454.669
1904615.0,1778927454.709
1906415.0,1778927454.749
1909212.0,1778927454.789
1912458.0,1778927454.829
1916868.0,1778927454.869
1921980.0,1778927454.909
1926442.0,1778927454.949
1931136.0,1778927454.989
1935803.0,1778927455.029
1940678.0,1778927455.069
1944787.0,1778927455.109
1948255.0,1778927455.149
1949777.0,1778927455.189
1951576.0,1778927455.229
1954076.0,1778927455.269
1956799.0,1778927455.309
1961021.0,1778927455.349
1964485.0,1778927455.389
1967497.0,1778927455.429
1970282.0,1778927455.469
1968149.0,1778927455.509
1969432.0,1778927455.549
1970850.0,1778927455.589
1973647.0,1778927455.629
1976796.0,1778927455.669
1981068.0,1778927455.709
1984131.0,1778927455.749
1990695.0,1778927455.789
1998068.0,1778927455.829
2001311.0,1778927455.869
2015163.0,1778927455.909
2018065.0,1778927455.949
2025533.0,1778927455.989
2028412.0,1778927456.029
2025030.0,1778927456.069
2029412.0,1778927456.109
2041715.0,1778927456.149
2042782.0,1778927456.189
2039500.0,1778927456.229
2039895.0,1778927456.269
2043485.0,1778927456.309
2046682.0,1778927456.349
2049405.0,1778927456.389
2052893.0,1778927456.429
2056218.0,1778927456.469
2058637.0,1778927456.509
2061039.0,1778927456.549
2063060.0,1778927456.589
2065556.0,1778927456.629
2068687.0,1778927456.669
2069672.0,1778927456.709
2069170.0,1778927456.749
2069344.0,1778927456.789
2070308.0,1778927456.829
2070313.0,1778927456.869
2069104.0,1778927456.909
2071034.0,1778927456.949
2076736.0,1778927456.989
2082332.0,1778927457.029
2081809.0,1778927457.069
2078900.0,1778927457.109
2076961.0,1778927457.149
2075104.0,1778927457.189
2071762.0,1778927457.229
2060847.0,1778927457.269
2051664.0,1778927457.309
2046315.0,1778927457.349
2040753.0,1778927457.389
2046606.0,1778927457.429
2047635.0,1778927457.469
2052261.0,1778927457.509
2061675.0,1778927457.549
2077871.0,1778927457.589
2080816.0,1778927457.629
2084088.0,1778927457.669
2084524.0,1778927457.709
2084126.0,1778927457.749
2081091.0,1778927457.789
2077346.0,1778927457.829
2074424.0,1778927457.869
2071420.0,1778927457.909
2068329.0,1778927457.949
2067624.0,1778927457.989
2066917.0,1778927458.029
2067436.0,1778927458.069
2067907.0,1778927458.109
2070037.0,1778927458.149
2080965.0,1778927458.189
2089705.0,1778927458.229
2091366.0,1778927458.269
2087438.0,1778927458.309
2083549.0,1778927458.349
2083432.0,1778927458.389
2082816.0,1778927458.429
2082686.0,1778927458.469
2083159.0,1778927458.509
2084844.0,1778927458.549
2086819.0,1778927458.589
2087135.0,1778927458.629
2087369.0,1778927458.669
2087322.0,1778927458.709
2085742.0,1778927458.749
2083822.0,1778927458.789
2081555.0,1778927458.829
2079593.0,1778927458.869
2078165.0,1778927458.909
2077134.0,1778927458.949
2077230.0,1778927458.989
2077866.0,1778927459.029
2079107.0,1778927459.069
2080525.0,1778927459.109
2082848.0,1778927459.149
2086269.0,1778927459.189
2091066.0,1778927459.229
2095968.0,1778927459.269
2099592.0,1778927459.309
2102505.0,1778927459.349
2104836.0,1778927459.389
2106172.0,1778927459.429
2105933.0,1778927459.469
2106000.0,1778927459.509
2105874.0,1778927459.549
2106589.0,1778927459.589
2107315.0,1778927459.629
2108525.0,1778927459.669
2109447.0,1778927459.709
2110894.0,1778927459.749
2111469.0,1778927459.789
2112350.0,1778927459.829
2113112.0,1778927459.869
2114134.0,1778927459.909
2115272.0,1778927459.949
2116558.0,1778927459.989
2117585.0,1778927460.029
2117824.0,1778927460.069
2116582.0,1778927460.109
2115180.0,1778927460.149
2114401.0,1778927460.189
2114142.0,1778927460.229
2114336.0,1778927460.269
2114630.0,1778927460.309
2115144.0,1778927460.349
2115841.0,1778927460.389
2116403.0,1778927460.429
2116641.0,1778927460.469
2117155.0,1778927460.509
2116632.0,1778927460.549
2116458.0,1778927460.589
2115850.0,1778927460.629
2115758.0,1778927460.669
2115123.0,1778927460.709
2113284.0,1778927460.749
2111066.0,1778927460.789
2109734.0,1778927460.829
2108688.0,1778927460.869
2108414.0,1778927460.909
2108458.0,1778927460.949
2108621.0,1778927460.989
2108722.0,1778927461.029
2108936.0,1778927461.069
2108916.0,1778927461.109
2108943.0,1778927461.149
2109244.0,1778927461.189
2109255.0,1778927461.274
2109837.0,1778927461.315
2108992.0,1778927461.354
2107064.0,1778927461.395
2104762.0,1778927461.436
2103077.0,1778927461.475
2101956.0,1778927461.515
2101611.0,1778927461.556
2101559.0,1778927461.596
2101599.0,1778927461.635
2101546.0,1778927461.676
2101364.0,1778927461.715
2101298.0,1778927461.755
2101536.0,1778927461.798
2101711.0,1778927461.836
2101653.0,1778927461.876
2101035.0,1778927461.917
2098028.0,1778927461.956
2094443.0,1778927461.997
2091105.0,1778927462.037
2088875.0,1778927462.076
2087256.0,1778927462.116
2086093.0,1778927462.158
2085284.0,1778927462.198
2084733.0,1778927462.237
2083941.0,1778927462.278
2083167.0,1778927462.317
2082753.0,1778927462.357
2082094.0,1778927462.399
2081605.0,1778927462.437
2081253.0,1778927462.477
2077503.0,1778927462.518
2072523.0,1778927462.557
2067645.0,1778927462.599
2063721.0,1778927462.639
2060667.0,1778927462.678
2058626.0,1778927462.718
2057237.0,1778927462.759
2055781.0,1778927462.799
2054472.0,1778927462.838
2052949.0,1778927462.879
2051796.0,1778927462.918
2050811.0,1778927462.958
2050210.0,1778927463.001
2041199.0,1778927463.12
2046815.0,1778927463.079
2049600.0,1778927463.039
2035602.0,1778927463.159
2030408.0,1778927463.2
2026899.0,1778927463.24
2023947.0,1778927463.279
2022097.0,1778927463.319
2020620.0,1778927463.361
2019132.0,1778927463.401
2017784.0,1778927463.44
2016299.0,1778927463.481
2015000.0,1778927463.52
2013977.0,1778927463.56
2013730.0,1778927463.602
2013441.0,1778927463.641
2011086.0,1778927463.681
2005651.0,1778927463.722
1999536.0,1778927463.761
1994645.0,1778927463.802
1990814.0,1778927463.842
1988013.0,1778927463.881
1984934.0,1778927463.962
1983476.0,1778927464.003
1986291.0,1778927463.921
1980817.0,1778927464.083
1979190.0,1778927464.162
1979001.0,1778927464.204
1979090.0,1778927464.242
1979165.0,1778927464.282
1978883.0,1778927464.323
1979831.0,1778927464.122
1982146.0,1778927464.042
1969794.0,1778927464.404
1962067.0,1778927464.483
1965284.0,1778927464.444
1960045.0,1778927464.523
1975155.0,1778927464.363
1958680.0,1778927464.564
1957438.0,1778927464.643
1956266.0,1778927464.724
1955905.0,1778927464.764
1956053.0,1778927464.844
1956806.0,1778927464.685
1955980.0,1778927464.806
1958053.0,1778927464.604
1957205.0,1778927464.925
1956478.0,1778927464.884
1958716.0,1778927465.005
1952280.0,1778927465.085
1947802.0,1778927465.125
1944332.0,1778927465.166
1956908.0,1778927465.046
1941911.0,1778927465.206
1958300.0,1778927464.964
1940365.0,1778927465.245
1939921.0,1778927465.287
1938855.0,1778927465.408
1939682.0,1778927465.326
1938833.0,1778927465.486
1938697.0,1778927465.446
1939311.0,1778927465.366
1939078.0,1778927465.527
1939766.0,1778927465.567
1940662.0,1778927465.607
1941668.0,1778927465.648
1942869.0,1778927465.687
1943809.0,1778927465.727
1944867.0,1778927465.768
1939015.0,1778927465.848
1932671.0,1778927465.928
1935480.0,1778927465.889
1931367.0,1778927465.968
1930459.0,1778927466.009
1930228.0,1778927466.049
1930462.0,1778927466.089
1930624.0,1778927466.13
1930459.0,1778927466.17
1942748.0,1778927465.808
1930508.0,1778927466.211
1930785.0,1778927466.251
1931436.0,1778927466.29
1932349.0,1778927466.331
1933341.0,1778927466.372
1934391.0,1778927466.412
1935818.0,1778927466.451
1936853.0,1778927466.492
1936274.0,1778927466.572
1938176.0,1778927466.532
1933321.0,1778927466.614
1930240.0,1778927466.65
1928071.0,1778927466.69
1926932.0,1778927466.732
1926661.0,1778927466.771
1926618.0,1778927466.812
1926834.0,1778927466.852
1927203.0,1778927466.892
1927237.0,1778927466.928
1927369.0,1778927466.97
1927970.0,1778927467.01
1928863.0,1778927467.05
1929901.0,1778927467.091
1930961.0,1778927467.131
1932264.0,1778927467.171
1934451.0,1778927467.251
1929765.0,1778927467.333
1927268.0,1778927467.372
1925560.0,1778927467.413
1933521.0,1778927467.213
1932877.0,1778927467.291
1924399.0,1778927467.453
1924241.0,1778927467.492
1925097.0,1778927467.533
1925256.0,1778927467.572
1925678.0,1778927467.612
1925791.0,1778927467.651
1926280.0,1778927467.692
1926846.0,1778927467.732
1927876.0,1778927467.772
1929057.0,1778927467.814
1930160.0,1778927467.852
1931331.0,1778927467.893
1933009.0,1778927467.934
1932838.0,1778927467.971
1930235.0,1778927468.012
1926756.0,1778927468.052
1923716.0,1778927468.091
1921846.0,1778927468.132
1920560.0,1778927468.173
1920018.0,1778927468.213
1919915.0,1778927468.252
1920468.0,1778927468.294
1920277.0,1778927468.333
1920332.0,1778927468.373
1920711.0,1778927468.413
1921336.0,1778927468.451
1922084.0,1778927468.491
1924030.0,1778927468.572
1926808.0,1778927468.654
1925297.0,1778927468.613
1926898.0,1778927468.693
1923233.0,1778927468.533
1924067.0,1778927468.733
1920359.0,1778927468.774
1917466.0,1778927468.812
1915449.0,1778927468.851
1914008.0,1778927468.893
1913809.0,1778927468.932
1913606.0,1778927468.972
1913836.0,1778927469.014
1914077.0,1778927469.053
1913967.0,1778927469.093
1914053.0,1778927469.134
1915622.0,1778927469.214
1914928.0,1778927469.173
1916768.0,1778927469.252
1917793.0,1778927469.292
1919212.0,1778927469.332
1920313.0,1778927469.373
1921894.0,1778927469.413
1921590.0,1778927469.453
1919166.0,1778927469.491
1915918.0,1778927469.53
1913583.0,1778927469.57
1910944.0,1778927469.651
1911989.0,1778927469.613
1910758.0,1778927469.691
1911679.0,1778927469.772
1911531.0,1778927469.813
1911013.0,1778927469.733
1912237.0,1778927469.893
1912198.0,1778927469.853
1913262.0,1778927469.933
1914127.0,1778927469.974
1915209.0,1778927470.014
1916740.0,1778927470.053
1917898.0,1778927470.095
1919416.0,1778927470.132
1920759.0,1778927470.172
1920669.0,1778927470.214
1918523.0,1778927470.253
1916495.0,1778927470.293
1914653.0,1778927470.334
1914269.0,1778927470.373
1914282.0,1778927470.414
1915045.0,1778927470.455
1916000.0,1778927470.494
1918352.0,1778927470.613
1917458.0,1778927470.573
1916618.0,1778927470.534
1920464.0,1778927470.694
1919435.0,1778927470.653
1922367.0,1778927470.733
1923765.0,1778927470.773
1925403.0,1778927470.815
1929197.0,1778927470.894
1927250.0,1778927470.854
1927802.0,1778927470.972
1926173.0,1778927471.013
1925029.0,1778927471.054
1929540.0,1778927470.935
1925108.0,1778927471.133
1925918.0,1778927471.174
1927062.0,1778927471.214
1927818.0,1778927471.254
1924912.0,1778927471.093
1929889.0,1778927471.334
1929085.0,1778927471.295
1932429.0,1778927471.414
1933972.0,1778927471.453
1935546.0,1778927471.493
1931142.0,1778927471.374
1937240.0,1778927471.534
1939015.0,1778927471.573
1940698.0,1778927471.614
1942300.0,1778927471.655
1942368.0,1778927471.694
1939716.0,1778927471.776
1940932.0,1778927471.734
1939290.0,1778927471.814
1939892.0,1778927471.894
1942165.0,1778927471.974
1943058.0,1778927472.015
1939472.0,1778927471.853
1940984.0,1778927471.933
1945343.0,1778927472.091
1944373.0,1778927472.051
1946575.0,1778927472.132
1948274.0,1778927472.172
1954943.0,1778927472.333
1951487.0,1778927472.254
1949641.0,1778927472.213
1953018.0,1778927472.293
1956828.0,1778927472.374
1959555.0,1778927472.454
1958432.0,1778927472.414
1958863.0,1778927472.495
1957862.0,1778927472.534
1957270.0,1778927472.574
1957277.0,1778927472.616
1958049.0,1778927472.655
1958901.0,1778927472.693
1960090.0,1778927472.734
1962552.0,1778927472.815
1961365.0,1778927472.774
1963866.0,1778927472.855
1965378.0,1778927472.894
1967265.0,1778927472.934
1969425.0,1778927472.976
1970916.0,1778927473.016
1973037.0,1778927473.055
1974947.0,1778927473.094
1977102.0,1778927473.134
1979154.0,1778927473.174
1981422.0,1778927473.216
1983233.0,1778927473.254
1984076.0,1778927473.293
1984560.0,1778927473.332
1985751.0,1778927473.371
1987032.0,1778927473.41
1987874.0,1778927473.449
1988987.0,1778927473.488
1990316.0,1778927473.527
1990990.0,1778927473.566
1991874.0,1778927473.605
1992799.0,1778927473.644
1994042.0,1778927473.683
1994913.0,1778927473.722
1996527.0,1778927473.761
1999187.0,1778927473.839
2000754.0,1778927473.878
2002371.0,1778927473.917
2004021.0,1778927473.956
1997897.0,1778927473.8
2003652.0,1778927473.995
2002642.0,1778927474.034
2002092.0,1778927474.073
2001907.0,1778927474.112
2002092.0,1778927474.151
2002723.0,1778927474.19
2005025.0,1778927474.268
2004045.0,1778927474.229
2005793.0,1778927474.307
2006748.0,1778927474.346
2009129.0,1778927474.424
2008050.0,1778927474.385
2010136.0,1778927474.463
2011316.0,1778927474.502
2014058.0,1778927474.58
2012783.0,1778927474.541
2015570.0,1778927474.619
2017125.0,1778927474.658
2017890.0,1778927474.697
2016900.0,1778927474.736
2015993.0,1778927474.775
2015009.0,1778927474.814
2014460.0,1778927474.853
2014372.0,1778927474.892
2015101.0,1778927474.931
2015873.0,1778927474.97
2016616.0,1778927475.009
2017342.0,1778927475.048
2018085.0,1778927475.087
2018821.0,1778927475.126
2019570.0,1778927475.165
2020426.0,1778927475.204
2023615.0,1778927475.324
2022740.0,1778927475.284
2021718.0,1778927475.244
2025864.0,1778927475.404
2025022.0,1778927475.364
2026344.0,1778927475.444
2024667.0,1778927475.484
2023002.0,1778927475.524
2021898.0,1778927475.564
2020974.0,1778927475.604
2020924.0,1778927475.644
2021031.0,1778927475.684
2021125.0,1778927475.724
2021712.0,1778927475.764
2021681.0,1778927475.804
2022069.0,1778927475.844
2022535.0,1778927475.924
2023106.0,1778927475.964
2022239.0,1778927475.884
2024513.0,1778927476.044
2023777.0,1778927476.004
2025360.0,1778927476.084
2026341.0,1778927476.164
2025970.0,1778927476.124
2024333.0,1778927476.204
2022070.0,1778927476.244
2020026.0,1778927476.284
2018478.0,1778927476.324
2017508.0,1778927476.364
2017477.0,1778927476.404
2017252.0,1778927476.444
2017644.0,1778927476.484
2017368.0,1778927476.524
2017135.0,1778927476.564
2017270.0,1778927476.604
2017314.0,1778927476.644
2017457.0,1778927476.684
2018113.0,1778927476.724
2018670.0,1778927476.764
2019446.0,1778927476.804
2019964.0,1778927476.844
2018586.0,1778927476.884
2012153.0,1778927476.964
2015371.0,1778927476.924
2009804.0,1778927477.004
2007761.0,1778927477.044
2005901.0,1778927477.124
2005002.0,1778927477.204
2003815.0,1778927477.324
2005402.0,1778927477.164
2004339.0,1778927477.244
2003603.0,1778927477.364
2003887.0,1778927477.404
2006293.0,1778927477.084
2004056.0,1778927477.284
2004234.0,1778927477.444
2005368.0,1778927477.524
2005727.0,1778927477.564
2005011.0,1778927477.604
2004566.0,1778927477.484
1997094.0,1778927477.684
2001361.0,1778927477.644
1993910.0,1778927477.724
1990872.0,1778927477.764
1987905.0,1778927477.844
1988972.0,1778927477.804
1987009.0,1778927477.884
1986539.0,1778927477.924
1985650.0,1778927477.964
1985117.0,1778927478.004
1984517.0,1778927478.044
1984361.0,1778927478.084
1984396.0,1778927478.124
1984762.0,1778927478.164
1985129.0,1778927478.204
1985797.0,1778927478.244
1986514.0,1778927478.284
1987058.0,1778927478.324
1987222.0,1778927478.364
1984153.0,1778927478.404
1980008.0,1778927478.444
1976075.0,1778927478.484
1973494.0,1778927478.524
1971438.0,1778927478.564
1970333.0,1778927478.604
1969546.0,1778927478.644
1968990.0,1778927478.684
1968444.0,1778927478.724
1967823.0,1778927478.764
1967224.0,1778927478.804
1967087.0,1778927478.844
1967234.0,1778927478.884
1967534.0,1778927478.924
1968110.0,1778927478.964
1968919.0,1778927479.004
1969394.0,1778927479.044
1970394.0,1778927479.084
1970784.0,1778927479.124
1969368.0,1778927479.164
1965947.0,1778927479.204
1962595.0,1778927479.244
1960234.0,1778927479.284
1958586.0,1778927479.324
1957995.0,1778927479.364
1957668.0,1778927479.404
1957754.0,1778927479.444
1957659.0,1778927479.484
1957529.0,1778927479.524
1957607.0,1778927479.564
1957690.0,1778927479.604
1958017.0,1778927479.644
1958922.0,1778927479.684
1959724.0,1778927479.724
1960740.0,1778927479.764
1961702.0,1778927479.804
1963004.0,1778927479.844
1963738.0,1778927479.884
1961871.0,1778927479.924
1958761.0,1778927479.964
1955251.0,1778927480.004
1953148.0,1778927480.044
1951370.0,1778927480.084
1950884.0,1778927480.124
1950529.0,1778927480.164
1950561.0,1778927480.204
1950483.0,1778927480.244
1950446.0,1778927480.284
1950532.0,1778927480.324
1951077.0,1778927480.364
1951431.0,1778927480.404
1952219.0,1778927480.444
1953121.0,1778927480.484
1953984.0,1778927480.524
1955096.0,1778927480.564
1956299.0,1778927480.604
1957484.0,1778927480.644
1956337.0,1778927480.684
1952734.0,1778927480.724
1949617.0,1778927480.764
1947181.0,1778927480.804
1945720.0,1778927480.844
1944754.0,1778927480.884
1944662.0,1778927480.924
1944931.0,1778927480.964
1945013.0,1778927481.004
1944764.0,1778927481.044
1944883.0,1778927481.084
1945431.0,1778927481.124
1945994.0,1778927481.164
1946731.0,1778927481.204
1947515.0,1778927481.244
1948937.0,1778927481.284
1950058.0,1778927481.324
1951419.0,1778927481.364
1952474.0,1778927481.404
1952346.0,1778927481.444
1949803.0,1778927481.484
1943770.0,1778927481.564
1940954.0,1778927481.644
1941920.0,1778927481.604
1946148.0,1778927481.524
1940583.0,1778927481.684
1940779.0,1778927481.724
1940796.0,1778927481.764
1940495.0,1778927481.804
1940582.0,1778927481.884
1940628.0,1778927481.844
1941420.0,1778927481.964
1942546.0,1778927482.004
1941121.0,1778927481.924
1943218.0,1778927482.044
1944466.0,1778927482.084
1945347.0,1778927482.124
1946521.0,1778927482.164
1945752.0,1778927482.204
1942856.0,1778927482.244
1939263.0,1778927482.284
1936797.0,1778927482.324
1934926.0,1778927482.364
1934607.0,1778927482.404
1934190.0,1778927482.444
1934142.0,1778927482.484
1934070.0,1778927482.524
1933812.0,1778927482.564
1934300.0,1778927482.604
1934146.0,1778927482.644
1934628.0,1778927482.684
1935050.0,1778927482.724
1936199.0,1778927482.764
1937255.0,1778927482.804
1938186.0,1778927482.844
1939007.0,1778927482.884
1936632.0,1778927482.924
1932342.0,1778927482.964
1928674.0,1778927483.004
1925728.0,1778927483.044
1923762.0,1778927483.084
1922764.0,1778927483.124
1922322.0,1778927483.164
1922204.0,1778927483.204
1921629.0,1778927483.244
1921469.0,1778927483.284
1921175.0,1778927483.324
1921285.0,1778927483.364
1921806.0,1778927483.404
1922442.0,1778927483.444
1922999.0,1778927483.484
1924041.0,1778927483.524
1924693.0,1778927483.564
1922770.0,1778927483.604
1918618.0,1778927483.644
1913958.0,1778927483.684
1909979.0,1778927483.724
1907238.0,1778927483.764
1905374.0,1778927483.804
1904572.0,1778927483.844
1903897.0,1778927483.884
1903389.0,1778927483.924
1902623.0,1778927483.964
1902422.0,1778927484.004
1901996.0,1778927484.044
1902397.0,1778927484.084
1902822.0,1778927484.124
1903351.0,1778927484.164
1904479.0,1778927484.204
1905454.0,1778927484.244
1904512.0,1778927484.284
1899873.0,1778927484.324
1894561.0,1778927484.364
1889811.0,1778927484.404
1886369.0,1778927484.444
1883965.0,1778927484.484
1882427.0,1778927484.524
1881350.0,1778927484.564
1880549.0,1778927484.604
1879561.0,1778927484.644
1879124.0,1778927484.684
1878557.0,1778927484.724
1878280.0,1778927484.764
1878939.0,1778927484.804
1879254.0,1778927484.844
1879920.0,1778927484.884
1880726.0,1778927484.924
1880765.0,1778927484.964
1876734.0,1778927485.004
1870925.0,1778927485.044
1865636.0,1778927485.084
1861856.0,1778927485.124
1859327.0,1778927485.164
1857844.0,1778927485.204
1856996.0,1778927485.292
1856486.0,1778927485.333
1855576.0,1778927485.372
1854671.0,1778927485.413
1854323.0,1778927485.454
1854011.0,1778927485.493
1854370.0,1778927485.533
1854953.0,1778927485.574
1855881.0,1778927485.614
1857078.0,1778927485.653
1857722.0,1778927485.694
1854420.0,1778927485.733
1848736.0,1778927485.773
1843352.0,1778927485.815
1839204.0,1778927485.854
1836422.0,1778927485.894
1834622.0,1778927485.935
1833905.0,1778927485.974
1833588.0,1778927486.015
1832840.0,1778927486.055
1832321.0,1778927486.094
1832088.0,1778927486.135
1832280.0,1778927486.176
1832832.0,1778927486.215
1833789.0,1778927486.255
1834894.0,1778927486.296
1836241.0,1778927486.335
1837570.0,1778927486.375
1837700.0,1778927486.417
1833377.0,1778927486.455
1827507.0,1778927486.495
1822635.0,1778927486.536
1819027.0,1778927486.575
1816674.0,1778927486.616
1815410.0,1778927486.657
1815268.0,1778927486.696
1815199.0,1778927486.736
1814811.0,1778927486.777
1814964.0,1778927486.817
1815131.0,1778927486.856
1816018.0,1778927486.897
1817050.0,1778927486.936
1818358.0,1778927486.976
1819725.0,1778927487.018
1821563.0,1778927487.056
1823413.0,1778927487.096
1824386.0,1778927487.137
1821109.0,1778927487.176
1816430.0,1778927487.217
1812444.0,1778927487.258
1809752.0,1778927487.297
1808057.0,1778927487.337
1807462.0,1778927487.378
1807819.0,1778927487.418
1808279.0,1778927487.457
1808751.0,1778927487.498
1809075.0,1778927487.537
1809814.0,1778927487.577
1810712.0,1778927487.619
1812264.0,1778927487.657
1814031.0,1778927487.698
1815836.0,1778927487.739
1817810.0,1778927487.779
1820091.0,1778927487.82
1822206.0,1778927487.86
1823972.0,1778927487.899
1818289.0,1778927487.979
1815313.0,1778927488.019
1821702.0,1778927487.94
1813817.0,1778927488.058
1813097.0,1778927488.1
1813757.0,1778927488.139
1814699.0,1778927488.179
1815907.0,1778927488.221
1816998.0,1778927488.26
1817944.0,1778927488.3
1819168.0,1778927488.339
1820832.0,1778927488.378
1822643.0,1778927488.419
1825047.0,1778927488.46
1827260.0,1778927488.499
1829612.0,1778927488.539
1832155.0,1778927488.58
1834596.0,1778927488.62
1836199.0,1778927488.66
1834587.0,1778927488.699
1831757.0,1778927488.739
1829635.0,1778927488.779
1828952.0,1778927488.821
1828859.0,1778927488.859
1830077.0,1778927488.899
1831939.0,1778927488.941
1834505.0,1778927488.98
1836857.0,1778927489.021
1839096.0,1778927489.059
1841461.0,1778927489.099
1843786.0,1778927489.139
1846059.0,1778927489.18
1848638.0,1778927489.22
1851605.0,1778927489.26
1854490.0,1778927489.301
1857220.0,1778927489.34
1860415.0,1778927489.38
1862885.0,1778927489.42
1864962.0,1778927489.459
1863828.0,1778927489.499
1861763.0,1778927489.54
1860038.0,1778927489.58
1859524.0,1778927489.621
1859816.0,1778927489.661
1860842.0,1778927489.7
1862649.0,1778927489.739
1865012.0,1778927489.78
1867242.0,1778927489.82
1869584.0,1778927489.859
1872207.0,1778927489.901
1877118.0,1778927489.939
1887620.0,1778927489.977
1900556.0,1778927490.02
1912757.0,1778927490.058
1921438.0,1778927490.099
1927606.0,1778927490.14
1931701.0,1778927490.179
1934143.0,1778927490.22
1935759.0,1778927490.261
1936392.0,1778927490.3
1935147.0,1778927490.34
1934479.0,1778927490.382
1935102.0,1778927490.422
1935736.0,1778927490.461
1936620.0,1778927490.5
1937521.0,1778927490.539
1938290.0,1778927490.58
1938944.0,1778927490.622
1940382.0,1778927490.66
1941962.0,1778927490.701
1943828.0,1778927490.742
1945946.0,1778927490.781
1947850.0,1778927490.82
1949927.0,1778927490.861
1951416.0,1778927490.9
1952655.0,1778927490.94
1953802.0,1778927490.981
1955226.0,1778927491.021
1956344.0,1778927491.061
1956713.0,1778927491.102
1955617.0,1778927491.141
1954129.0,1778927491.18
1953861.0,1778927491.222
1953849.0,1778927491.26
1955017.0,1778927491.3
1956160.0,1778927491.342
1957054.0,1778927491.381
1958127.0,1778927491.422
1959018.0,1778927491.462
1960042.0,1778927491.502
1961099.0,1778927491.54
1962588.0,1778927491.581
1963852.0,1778927491.621
1965790.0,1778927491.661
1967215.0,1778927491.702
1968795.0,1778927491.741
1970180.0,1778927491.782
1971242.0,1778927491.823
1970446.0,1778927491.86
1969033.0,1778927491.9
1968305.0,1778927491.941
1968102.0,1778927491.981
1968795.0,1778927492.022
1969346.0,1778927492.062
1970577.0,1778927492.101
1971448.0,1778927492.142
1972403.0,1778927492.183
1973357.0,1778927492.221
1974474.0,1778927492.26
1975563.0,1778927492.302
1976927.0,1778927492.341
1978223.0,1778927492.381
1979564.0,1778927492.423
1981153.0,1778927492.462
1982212.0,1778927492.501
1982227.0,1778927492.539
1980820.0,1778927492.578
1979520.0,1778927492.619
1978409.0,1778927492.66
1978183.0,1778927492.7
1978373.0,1778927492.74
1979152.0,1778927492.781
1979885.0,1778927492.821
1980814.0,1778927492.861
1981301.0,1778927492.902
1981956.0,1778927492.941
1982931.0,1778927492.982
1983994.0,1778927493.024
1984982.0,1778927493.062
1986120.0,1778927493.102
1987263.0,1778927493.142
1987986.0,1778927493.181
1987706.0,1778927493.222
1985758.0,1778927493.262
1983909.0,1778927493.301
1982369.0,1778927493.342
1982239.0,1778927493.383
1982224.0,1778927493.462
1981763.0,1778927493.423
1983131.0,1778927493.541
1982600.0,1778927493.502
1984313.0,1778927493.623
1983755.0,1778927493.581
1984653.0,1778927493.662
1986559.0,1778927493.743
1987954.0,1778927493.822
1986699.0,1778927493.862
1986949.0,1778927493.783
1985504.0,1778927493.702
1981736.0,1778927493.942
1984026.0,1778927493.901
1979865.0,1778927493.983
1978266.0,1778927494.104
1978451.0,1778927494.023
1978190.0,1778927494.062
1978369.0,1778927494.143
1978754.0,1778927494.181
1978900.0,1778927494.223
1979021.0,1778927494.261
1979264.0,1778927494.302
1979696.0,1778927494.343
1980336.0,1778927494.382
1980935.0,1778927494.423
1979363.0,1778927494.464
1976220.0,1778927494.503
1973202.0,1778927494.541
1971219.0,1778927494.583
1970163.0,1778927494.622
1969685.0,1778927494.662
1969356.0,1778927494.703
1969576.0,1778927494.743
1969240.0,1778927494.783
1969058.0,1778927494.825
1969286.0,1778927494.861
1969302.0,1778927494.902
1969637.0,1778927494.943
1970445.0,1778927494.982
1970312.0,1778927495.023
1967294.0,1778927495.063
1963749.0,1778927495.1
1960277.0,1778927495.141
1958220.0,1778927495.182
1957035.0,1778927495.222
1956399.0,1778927495.262
1956137.0,1778927495.303
1955980.0,1778927495.342
1955532.0,1778927495.382
1955190.0,1778927495.424
1954995.0,1778927495.463
1954910.0,1778927495.503
1955194.0,1778927495.544
1955816.0,1778927495.584
1955500.0,1778927495.622
1952424.0,1778927495.663
1947801.0,1778927495.702
1941362.0,1778927495.784
1944072.0,1778927495.743
1940013.0,1778927495.824
1938968.0,1778927495.863
1938664.0,1778927495.905
1938294.0,1778927495.942
1938030.0,1778927495.982
1937524.0,1778927496.024
1937312.0,1778927496.063
1937410.0,1778927496.103
1937616.0,1778927496.144
1938179.0,1778927496.183
1938321.0,1778927496.224
1935914.0,1778927496.265
1931384.0,1778927496.302
1923089.0,1778927496.384
1926480.0,1778927496.342
1920339.0,1778927496.424
1918769.0,1778927496.463
1917945.0,1778927496.504
1917602.0,1778927496.544
1916679.0,1778927496.584
1916248.0,1778927496.626
1915865.0,1778927496.662
1915683.0,1778927496.702
1916077.0,1778927496.744
1916593.0,1778927496.783
1916966.0,1778927496.824
1917743.0,1778927496.864
1918807.0,1778927496.904
1919513.0,1778927496.944
1917773.0,1778927496.985
1913165.0,1778927497.023
1908186.0,1778927497.063
1904637.0,1778927497.104
1902260.0,1778927497.143
1900651.0,1778927497.183
1900211.0,1778927497.225
1899401.0,1778927497.308
1899167.0,1778927497.349
1899759.0,1778927497.264
1898769.0,1778927497.429
1898619.0,1778927497.388
1899812.0,1778927497.509
1900425.0,1778927497.549
1899178.0,1778927497.47
1902700.0,1778927497.629
1903807.0,1778927497.669
1901560.0,1778927497.59
1904310.0,1778927497.71
1901510.0,1778927497.749
1897259.0,1778927497.788
1893278.0,1778927497.83
1890622.0,1778927497.868
1889230.0,1778927497.908
1888718.0,1778927497.95
1888449.0,1778927497.989
1888437.0,1778927498.03
1888735.0,1778927498.07
1888425.0,1778927498.11
1888508.0,1778927498.148
1888850.0,1778927498.189
1889580.0,1778927498.229
1890435.0,1778927498.269
1891825.0,1778927498.31
1892897.0,1778927498.349
1894195.0,1778927498.389
1895578.0,1778927498.431
1894301.0,1778927498.47
1890593.0,1778927498.508
1886862.0,1778927498.549
1884241.0,1778927498.589
1883090.0,1778927498.63
1882579.0,1778927498.67
1882498.0,1778927498.709
1883049.0,1778927498.75
1883128.0,1778927498.791
1883279.0,1778927498.831
1883549.0,1778927498.868
1884031.0,1778927498.909
1884780.0,1778927498.949
1885981.0,1778927498.989
1887226.0,1778927499.031
1888446.0,1778927499.069
1889816.0,1778927499.11
1890965.0,1778927499.151
1884352.0,1778927499.229
1888256.0,1778927499.19
1880139.0,1778927499.27
1877542.0,1778927499.309
1875735.0,1778927499.349
1875167.0,1778927499.39
1875098.0,1778927499.43
1874939.0,1778927499.47
1875072.0,1778927499.511
1875142.0,1778927499.55
1875214.0,1778927499.589
1875543.0,1778927499.631
1876217.0,1778927499.669
1877370.0,1778927499.709
1878229.0,1778927499.751
1879082.0,1778927499.79
1879865.0,1778927499.831
1879011.0,1778927499.871
1875136.0,1778927499.911
1869825.0,1778927499.949
1865287.0,1778927499.99
1862126.0,1778927500.03
1860195.0,1778927500.069
1858983.0,1778927500.111
1858477.0,1778927500.15
1858342.0,1778927500.189
1857845.0,1778927500.229
1857365.0,1778927500.268
1857371.0,1778927500.35
1857396.0,1778927500.308
1858972.0,1778927500.43
1858082.0,1778927500.389
1860229.0,1778927500.47
1862351.0,1778927500.51
1865225.0,1778927500.55
1866667.0,1778927500.591
1864677.0,1778927500.631
1860810.0,1778927500.671
1857437.0,1778927500.712
1854921.0,1778927500.748
1853185.0,1778927500.789
1852406.0,1778927500.831
1851075.0,1778927500.909
1849597.0,1778927500.99
1849436.0,1778927501.031
1851816.0,1778927500.869
1850039.0,1778927500.951
1849399.0,1778927501.071
1850005.0,1778927501.111
1850735.0,1778927501.151
1851874.0,1778927501.192
1852984.0,1778927501.232
1853800.0,1778927501.269
1851464.0,1778927501.311
1846593.0,1778927501.35
1841835.0,1778927501.39
1838512.0,1778927501.432
1836440.0,1778927501.471
1835809.0,1778927501.511
1835947.0,1778927501.552
1836423.0,1778927501.592
1836307.0,1778927501.63
1836421.0,1778927501.671
1836573.0,1778927501.71
1837354.0,1778927501.751
1837928.0,1778927501.792
1839105.0,1778927501.832
1840188.0,1778927501.871
1841590.0,1778927501.913
1841555.0,1778927501.95
1837756.0,1778927501.99
1832375.0,1778927502.032
1828294.0,1778927502.071
1825120.0,1778927502.111
1822708.0,1778927502.152
1821534.0,1778927502.191
1820860.0,1778927502.232
1820461.0,1778927502.273
1819991.0,1778927502.31
1819285.0,1778927502.35
1818770.0,1778927502.392
1819266.0,1778927502.432
1819700.0,1778927502.471
1820430.0,1778927502.512
1821389.0,1778927502.552
1822743.0,1778927502.592
1823166.0,1778927502.634
1818747.0,1778927502.67
1812611.0,1778927502.711
1807036.0,1778927502.751
1802877.0,1778927502.79
1800094.0,1778927502.832
1798445.0,1778927502.872
1797739.0,1778927502.911
1797299.0,1778927502.952
1796971.0,1778927502.993
1796340.0,1778927503.033
1795751.0,1778927503.072
1796341.0,1778927503.111
1796909.0,1778927503.151
1797936.0,1778927503.191
1799126.0,1778927503.233
1800378.0,1778927503.272
1801908.0,1778927503.312
1802746.0,1778927503.353
1799475.0,1778927503.392
1793661.0,1778927503.433
1788169.0,1778927503.472
1783999.0,1778927503.511
1781361.0,1778927503.551
1780262.0,1778927503.593
1779478.0,1778927503.672
1778714.0,1778927503.753
1779124.0,1778927503.713
1779674.0,1778927503.632
1779138.0,1778927503.833
1778589.0,1778927503.791
1779888.0,1778927503.871
1781356.0,1778927503.912
1782864.0,1778927503.953
1784724.0,1778927503.992
1786415.0,1778927504.033
1788490.0,1778927504.074
1789615.0,1778927504.113
1786599.0,1778927504.151
1782566.0,1778927504.192
1779201.0,1778927504.232
1777375.0,1778927504.272
1776865.0,1778927504.313
1777431.0,1778927504.352
1778338.0,1778927504.393
1779205.0,1778927504.435
1779538.0,1778927504.473
1779970.0,1778927504.511
1780835.0,1778927504.553
1782392.0,1778927504.592
1783804.0,1778927504.633
1785783.0,1778927504.673
1787646.0,1778927504.713
1789080.0,1778927504.753
1790781.0,1778927504.794
1789172.0,1778927504.832
1784391.0,1778927504.872
1779039.0,1778927504.913
1775202.0,1778927504.952
1772347.0,1778927504.992
1770830.0,1778927505.034
1770253.0,1778927505.073
1770124.0,1778927505.113
1770305.0,1778927505.154
1770205.0,1778927505.192
1770455.0,1778927505.233
1771156.0,1778927505.273
1771973.0,1778927505.311
1773234.0,1778927505.352
1774825.0,1778927505.394
1777131.0,1778927505.434
1778531.0,1778927505.473
1776763.0,1778927505.514
1773770.0,1778927505.554
1771720.0,1778927505.592
1771772.0,1778927505.634
1772320.0,1778927505.672
1774162.0,1778927505.713
1776361.0,1778927505.754
1777966.0,1778927505.793
1779179.0,1778927505.834
1779974.0,1778927505.875
1781222.0,1778927505.912
1782318.0,1778927505.952
1783952.0,1778927505.993
1786059.0,1778927506.033
1788439.0,1778927506.073
1790835.0,1778927506.114
1790353.0,1778927506.153
1789483.0,1778927506.194
1789206.0,1778927506.236
1789605.0,1778927506.272
1790468.0,1778927506.312
1791488.0,1778927506.354
1793286.0,1778927506.393
1795316.0,1778927506.434
1797568.0,1778927506.474
1799913.0,1778927506.513
1802351.0,1778927506.554
1805103.0,1778927506.595
1808089.0,1778927506.633
1811259.0,1778927506.673
1814548.0,1778927506.714
1818366.0,1778927506.753
1821687.0,1778927506.793
1822523.0,1778927506.835
1821606.0,1778927506.874
1820897.0,1778927506.914
1820932.0,1778927506.955
1821835.0,1778927506.992
1822877.0,1778927507.033
1824685.0,1778927507.074
1827063.0,1778927507.113
1829051.0,1778927507.153
1831166.0,1778927507.195
1833653.0,1778927507.235
1835915.0,1778927507.274
1838807.0,1778927507.315
1841736.0,1778927507.353
1844688.0,1778927507.393
1847891.0,1778927507.435
1851035.0,1778927507.473
1854271.0,1778927507.513
1856829.0,1778927507.555
1857840.0,1778927507.594
1857413.0,1778927507.635
1857514.0,1778927507.676
1858094.0,1778927507.713
1859860.0,1778927507.753
1861584.0,1778927507.794
1863804.0,1778927507.834
1866411.0,1778927507.873
1868888.0,1778927507.914
1872007.0,1778927507.954
1876116.0,1778927507.994
1882890.0,1778927508.036
1902822.0,1778927508.075
1938645.0,1778927508.115
1967970.0,1778927508.154
1989860.0,1778927508.193
2008658.0,1778927508.234
2028654.0,1778927508.275
2048374.0,1778927508.314
2071564.0,1778927508.354
2093437.0,1778927508.396
2108432.0,1778927508.436
2120887.0,1778927508.475
2128381.0,1778927508.514
2132084.0,1778927508.553
2135374.0,1778927508.594
2145769.0,1778927508.636
2153406.0,1778927508.674
2159481.0,1778927508.715
2150151.0,1778927508.756
2137496.0,1778927508.795
2128282.0,1778927508.834
2127186.0,1778927508.875
2134214.0,1778927508.914
2140396.0,1778927508.954
2137911.0,1778927508.995
2129871.0,1778927509.035
2116609.0,1778927509.075
2106718.0,1778927509.116
2092550.0,1778927509.156
2081724.0,1778927509.194
2075025.0,1778927509.236
2069673.0,1778927509.274
2067029.0,1778927509.313
2066295.0,1778927509.352
2065731.0,1778927509.391
2065147.0,1778927509.43
2063892.0,1778927509.469
2062638.0,1778927509.508
2059428.0,1778927509.547
2058042.0,1778927509.625
2056339.0,1778927509.664
2057559.0,1778927509.586
2056717.0,1778927509.703
2061657.0,1778927509.742
2062906.0,1778927509.781
2066032.0,1778927509.82
2072413.0,1778927509.859
2076814.0,1778927509.898
2077766.0,1778927509.937
2079035.0,1778927509.976
2081652.0,1778927510.015
2085490.0,1778927510.054
2089682.0,1778927510.093
2089749.0,1778927510.132
2089160.0,1778927510.171
2088089.0,1778927510.21
2093552.0,1778927510.249
2098211.0,1778927510.288
2105605.0,1778927510.366
2118107.0,1778927510.405
2122675.0,1778927510.444
2127696.0,1778927510.483
2097421.0,1778927510.327
2130369.0,1778927510.522
2134381.0,1778927510.561
2138274.0,1778927510.6
2138411.0,1778927510.64
2136238.0,1778927510.68
2135699.0,1778927510.72
2134007.0,1778927510.76
2131838.0,1778927510.8
2130319.0,1778927510.84
2127549.0,1778927510.92
2126005.0,1778927510.96
2129108.0,1778927510.88
2125211.0,1778927511.0
2125214.0,1778927511.04
2123777.0,1778927511.16
2121832.0,1778927511.2
2123797.0,1778927511.24
2127023.0,1778927511.28
2131912.0,1778927511.32
2138798.0,1778927511.36
2149288.0,1778927511.4
2150137.0,1778927511.48
2152418.0,1778927511.44
2125946.0,1778927511.08
2144221.0,1778927511.52
2141669.0,1778927511.56
2140529.0,1778927511.6
2138326.0,1778927511.64
2137913.0,1778927511.68
2140072.0,1778927511.72
2144522.0,1778927511.76
2151367.0,1778927511.8
2160665.0,1778927511.84
2168343.0,1778927511.88
2124868.0,1778927511.12
2175085.0,1778927511.92
2180959.0,1778927511.96
2186765.0,1778927512.0
2207412.0,1778927512.16
2199958.0,1778927512.08
2208766.0,1778927512.2
2205094.0,1778927512.12
2192839.0,1778927512.04
2210367.0,1778927512.28
2214079.0,1778927512.36
2212396.0,1778927512.32
2216571.0,1778927512.4
2218371.0,1778927512.44
2221483.0,1778927512.48
2209384.0,1778927512.24
2224437.0,1778927512.52
2226403.0,1778927512.56
2226405.0,1778927512.6
2228236.0,1778927512.64
2229816.0,1778927512.68
2230564.0,1778927512.72
2228743.0,1778927512.76
2226061.0,1778927512.8
2223728.0,1778927512.84
2221395.0,1778927512.88
2223659.0,1778927512.92
2231295.0,1778927512.96
2235567.0,1778927513.0
2240247.0,1778927513.04
2244808.0,1778927513.08
2249226.0,1778927513.12
2255446.0,1778927513.16
2258154.0,1778927513.2
2252424.0,1778927513.24
2245622.0,1778927513.28
2239866.0,1778927513.32
2234103.0,1778927513.36
2229033.0,1778927513.4
2223941.0,1778927513.44
2220370.0,1778927513.48
2217164.0,1778927513.52
2214612.0,1778927513.56
2214261.0,1778927513.6
2213336.0,1778927513.64
2213322.0,1778927513.68
2213023.0,1778927513.72
2212583.0,1778927513.76
2212604.0,1778927513.8
2212676.0,1778927513.84
2212880.0,1778927513.88
2213039.0,1778927513.92
2212624.0,1778927513.96
2212141.0,1778927514.0
2211866.0,1778927514.04
2210478.0,1778927514.08
2207036.0,1778927514.12
2203998.0,1778927514.16
2201164.0,1778927514.2
2199327.0,1778927514.24
2198452.0,1778927514.28
2197081.0,1778927514.32
2196058.0,1778927514.36
2195233.0,1778927514.4
2194429.0,1778927514.44
2193031.0,1778927514.48
2192735.0,1778927514.52
2192226.0,1778927514.56
2191370.0,1778927514.6
2190863.0,1778927514.64
2190666.0,1778927514.68
2189923.0,1778927514.72
2186957.0,1778927514.76
2182409.0,1778927514.8
2178146.0,1778927514.84
2173960.0,1778927514.88
2170410.0,1778927514.92
2168175.0,1778927514.96
2166133.0,1778927515.0
2164079.0,1778927515.04
2163355.0,1778927515.08
2161983.0,1778927515.12
2160822.0,1778927515.16
2160643.0,1778927515.2
2160767.0,1778927515.24
2160101.0,1778927515.28
2159408.0,1778927515.32
2158535.0,1778927515.36
2156431.0,1778927515.4
2153626.0,1778927515.44
2150734.0,1778927515.48
2148640.0,1778927515.52
2148232.0,1778927515.56
2149931.0,1778927515.6
2152012.0,1778927515.64
2152377.0,1778927515.68
2152057.0,1778927515.72
2150421.0,1778927515.76
2148790.0,1778927515.8
2147811.0,1778927515.84
2146893.0,1778927515.88
2146340.0,1778927515.92
2146197.0,1778927515.96
2145452.0,1778927516.0
2144740.0,1778927516.04
2142401.0,1778927516.08
2136593.0,1778927516.12
2131107.0,1778927516.16
2127787.0,1778927516.2
2124678.0,1778927516.24
2122722.0,1778927516.28
2121451.0,1778927516.32
2119589.0,1778927516.36
2117994.0,1778927516.4
2116375.0,1778927516.44
2114602.0,1778927516.48
2113767.0,1778927516.52
2113717.0,1778927516.56
2114436.0,1778927516.6
2115704.0,1778927516.64
2116283.0,1778927516.68
2116963.0,1778927516.72
2115988.0,1778927516.76
2111338.0,1778927516.8
2103749.0,1778927516.84
2095135.0,1778927516.88
2089575.0,1778927516.92
2086929.0,1778927516.96
2084982.0,1778927517.0
2083832.0,1778927517.04
2082884.0,1778927517.08
2081397.0,1778927517.12
2080449.0,1778927517.16
2078563.0,1778927517.2
2076758.0,1778927517.24
2075927.0,1778927517.28
2076150.0,1778927517.32
2077004.0,1778927517.36
2077764.0,1778927517.4
2078834.0,1778927517.44
2078662.0,1778927517.48
2075023.0,1778927517.52
2071670.0,1778927517.56
2069396.0,1778927517.6
2068935.0,1778927517.64
2070802.0,1778927517.68
2073021.0,1778927517.72
2075125.0,1778927517.76
2076612.0,1778927517.8
2078412.0,1778927517.84
2079570.0,1778927517.88
2080480.0,1778927517.92
2081278.0,1778927517.96
2081285.0,1778927518.0
2081587.0,1778927518.04
2081531.0,1778927518.08
2081838.0,1778927518.12
2082221.0,1778927518.16
2081026.0,1778927518.2
2077946.0,1778927518.24
2073725.0,1778927518.28
2070082.0,1778927518.32
2067168.0,1778927518.36
2065804.0,1778927518.4
2065688.0,1778927518.44
2065373.0,1778927518.48
2065074.0,1778927518.52
2065647.0,1778927518.56
2065389.0,1778927518.6
2065633.0,1778927518.64
2065804.0,1778927518.68
2066089.0,1778927518.72
2066259.0,1778927518.76
2066347.0,1778927518.8
2066424.0,1778927518.84
2066169.0,1778927518.88
2063549.0,1778927518.92
2059030.0,1778927518.96
2055054.0,1778927519.0
2052871.0,1778927519.04
2051967.0,1778927519.08
2050734.0,1778927519.12
2051407.0,1778927519.16
2052427.0,1778927519.2
2052586.0,1778927519.24
2052830.0,1778927519.28
2054197.0,1778927519.32
2055353.0,1778927519.36
2061542.0,1778927519.4
2070666.0,1778927519.44
2078959.0,1778927519.48
2080806.0,1778927519.52
2078958.0,1778927519.56
2072039.0,1778927519.6
2062776.0,1778927519.64
2055000.0,1778927519.68
2048375.0,1778927519.72
2043640.0,1778927519.76
2038847.0,1778927519.8
2035489.0,1778927519.84
2030039.0,1778927519.88
2025922.0,1778927519.92
2022964.0,1778927519.96
2019737.0,1778927520.0
2017704.0,1778927520.04
2013899.0,1778927520.08
2011062.0,1778927520.12
2007712.0,1778927520.16
2006202.0,1778927520.2
2005120.0,1778927520.24
2003814.0,1778927520.28
2002891.0,1778927520.32
2002447.0,1778927520.36
2002014.0,1778927520.4
2002286.0,1778927520.44
2002383.0,1778927520.48
2003286.0,1778927520.52
2003598.0,1778927520.56
2003870.0,1778927520.6
2004316.0,1778927520.64
2003269.0,1778927520.68
2002574.0,1778927520.72
2003288.0,1778927520.76
2002869.0,1778927520.8
2002227.0,1778927520.84
1999773.0,1778927520.88
1994532.0,1778927520.92
1987763.0,1778927520.96
1982966.0,1778927521.0
1979214.0,1778927521.04
1976843.0,1778927521.08
1975308.0,1778927521.12
1973246.0,1778927521.16
1969300.0,1778927521.2
1964602.0,1778927521.24
1961377.0,1778927521.279
1960483.0,1778927521.32
1963363.0,1778927521.359
1966364.0,1778927521.4
1965456.0,1778927521.441
1961099.0,1778927521.48
1954977.0,1778927521.52
1951303.0,1778927521.561
1948802.0,1778927521.601
1945911.0,1778927521.64
1940547.0,1778927521.72
1939468.0,1778927521.761
1942400.0,1778927521.681
1938532.0,1778927521.802
1938042.0,1778927521.841
1938574.0,1778927521.881
1939546.0,1778927521.922
1942506.0,1778927521.961
1944214.0,1778927522.002
1944921.0,1778927522.042
1945176.0,1778927522.081
1943741.0,1778927522.121
1940912.0,1778927522.163
1937483.0,1778927522.202
1934603.0,1778927522.242
1933453.0,1778927522.283
1932855.0,1778927522.322
1931849.0,1778927522.362
1930068.0,1778927522.404
1927891.0,1778927522.442
1926619.0,1778927522.482
1923959.0,1778927522.524
1922165.0,1778927522.563
1920543.0,1778927522.603
1918112.0,1778927522.644
1916855.0,1778927522.683
1916530.0,1778927522.723
1916468.0,1778927522.764
1916699.0,1778927522.804
1914464.0,1778927522.844
1908055.0,1778927522.885
1900256.0,1778927522.924
1892173.0,1778927522.964
1885467.0,1778927523.006
1880059.0,1778927523.044
1876501.0,1778927523.084
1872493.0,1778927523.164
1873619.0,1778927523.246
1872618.0,1778927523.205
1874646.0,1778927523.285
1874043.0,1778927523.125
1875711.0,1778927523.325
1877591.0,1778927523.366
1880262.0,1778927523.406
1883215.0,1778927523.445
1888081.0,1778927523.486
1893491.0,1778927523.526
1899178.0,1778927523.566
1900488.0,1778927523.608
1897841.0,1778927523.646
1893094.0,1778927523.727
1892815.0,1778927523.766
1892933.0,1778927523.807
1893620.0,1778927523.847
1893414.0,1778927523.887
1893276.0,1778927523.927
1894574.0,1778927523.686
1893747.0,1778927523.968
1897050.0,1778927524.047
1901496.0,1778927524.127
1905548.0,1778927524.209
1905912.0,1778927524.248
1906648.0,1778927524.288
1906371.0,1778927524.329
1904550.0,1778927524.368
1903855.0,1778927524.167
1899343.0,1778927524.088
1895252.0,1778927524.008
1898802.0,1778927524.409
1894911.0,1778927524.449
1895758.0,1778927524.529
1895036.0,1778927524.488
1899860.0,1778927524.609
1895999.0,1778927524.57
1903702.0,1778927524.649
1908180.0,1778927524.69
1913223.0,1778927524.729
1916606.0,1778927524.769
1923051.0,1778927524.849
1920310.0,1778927524.811
1924270.0,1778927524.89
1927363.0,1778927524.931
1929664.0,1778927524.97
1932766.0,1778927525.011
1935237.0,1778927525.051
1936641.0,1778927525.09
1936108.0,1778927525.13
1933143.0,1778927525.172
1928964.0,1778927525.211
1926219.0,1778927525.25
1924386.0,1778927525.292
1921694.0,1778927525.331
1918185.0,1778927525.37
1916051.0,1778927525.412
1913868.0,1778927525.451
1912749.0,1778927525.491
1913259.0,1778927525.532
1913616.0,1778927525.571
1911333.0,1778927525.612
1909713.0,1778927525.652
1907237.0,1778927525.691
1903552.0,1778927525.731
1899867.0,1778927525.772
1891259.0,1778927525.812
1886883.0,1778927525.851
1884103.0,1778927525.892
1886523.0,1778927525.932
1892129.0,1778927525.972
1891115.0,1778927526.013
1889730.0,1778927526.052
1885726.0,1778927526.092
1893134.0,1778927526.133
1901640.0,1778927526.172
1912349.0,1778927526.213
1915077.0,1778927526.253
1903848.0,1778927526.292
1891637.0,1778927526.332
1881456.0,1778927526.374
1871423.0,1778927526.413
1861838.0,1778927526.453
1854464.0,1778927526.494
1844130.0,1778927526.533
1834367.0,1778927526.573
1825324.0,1778927526.615
1816404.0,1778927526.653
1805286.0,1778927526.693
1792905.0,1778927526.734
1781680.0,1778927526.774
1771819.0,1778927526.814
1764138.0,1778927526.855
1759012.0,1778927526.894
1755605.0,1778927526.934
1752499.0,1778927526.975
1749794.0,1778927527.015
1747215.0,1778927527.054
1745474.0,1778927527.095
1743914.0,1778927527.134
1742624.0,1778927527.174
1742213.0,1778927527.216
1741949.0,1778927527.255
1741552.0,1778927527.295
1741601.0,1778927527.336
1741676.0,1778927527.375
1742040.0,1778927527.416
1741492.0,1778927527.456
1738400.0,1778927527.495
1734798.0,1778927527.535
1731870.0,1778927527.576
1730021.0,1778927527.616
1729028.0,1778927527.656
1727577.0,1778927527.697
1726734.0,1778927527.736
1726608.0,1778927527.776
1726449.0,1778927527.818
1726206.0,1778927527.856
1726292.0,1778927527.896
1726484.0,1778927527.937
1726624.0,1778927527.976
1726650.0,1778927528.017
1726127.0,1778927528.058
1727737.0,1778927528.097
1729187.0,1778927528.137
1729497.0,1778927528.178
1729017.0,1778927528.218
1728867.0,1778927528.257
1728507.0,1778927528.298
1728976.0,1778927528.337
1730042.0,1778927528.377
1731488.0,1778927528.419
1733162.0,1778927528.458
1734164.0,1778927528.498
1735985.0,1778927528.539
1737645.0,1778927528.578
1738382.0,1778927528.619
1737988.0,1778927528.659
1737788.0,1778927528.698
1737361.0,1778927528.738
1737270.0,1778927528.779
1737152.0,1778927528.819
1737086.0,1778927528.859
1735586.0,1778927528.9
1737206.0,1778927528.939
1743410.0,1778927528.979
1749582.0,1778927529.021
1756166.0,1778927529.059
1763959.0,1778927529.099
1772424.0,1778927529.14
1779386.0,1778927529.179
1784819.0,1778927529.22
1789351.0,1778927529.261
1793662.0,1778927529.3
1797975.0,1778927529.34
1801518.0,1778927529.381
1804937.0,1778927529.421
1808074.0,1778927529.46
1810768.0,1778927529.501
1810118.0,1778927529.54
1805480.0,1778927529.58
1798842.0,1778927529.622
1792860.0,1778927529.661
1787746.0,1778927529.701
1783641.0,1778927529.742
1780410.0,1778927529.781
1777407.0,1778927529.822
1774268.0,1778927529.862
1770991.0,1778927529.901
1768354.0,1778927529.941
1766882.0,1778927529.983
1766036.0,1778927530.022
1766512.0,1778927530.062
1767754.0,1778927530.103
1769789.0,1778927530.142
1771013.0,1778927530.182
1768109.0,1778927530.224
1764283.0,1778927530.262
1761374.0,1778927530.302
1759706.0,1778927530.344
1759126.0,1778927530.383
1759601.0,1778927530.423
1760177.0,1778927530.464
1761218.0,1778927530.503
1762235.0,1778927530.543
1763379.0,1778927530.584
1765148.0,1778927530.624
1767043.0,1778927530.663
1769572.0,1778927530.704
1772447.0,1778927530.744
1775601.0,1778927530.784
1778082.0,1778927530.825
1776147.0,1778927530.864
1772093.0,1778927530.904
1769388.0,1778927530.945
1769065.0,1778927530.984
1769965.0,1778927531.025
1772772.0,1778927531.065
1775643.0,1778927531.104
1777975.0,1778927531.145
1779359.0,1778927531.186
1780218.0,1778927531.225
1778936.0,1778927531.265
1777602.0,1778927531.306
1777285.0,1778927531.345
1775480.0,1778927531.385
1774528.0,1778927531.427
1774175.0,1778927531.465
1773278.0,1778927531.505
1768731.0,1778927531.547
1762902.0,1778927531.586
1758060.0,1778927531.626
1754374.0,1778927531.667
1752025.0,1778927531.706
1751032.0,1778927531.746
1750503.0,1778927531.787
1750387.0,1778927531.827
1750201.0,1778927531.866
1749007.0,1778927531.907
1748472.0,1778927531.947
1748818.0,1778927531.987
1749969.0,1778927532.028
1751484.0,1778927532.067
1754527.0,1778927532.107
1760654.0,1778927532.148
1773169.0,1778927532.187
1787388.0,1778927532.228
1792577.0,1778927532.268
1789873.0,1778927532.307
1789714.0,1778927532.348
1796352.0,1778927532.389
1802543.0,1778927532.428
1805607.0,1778927532.468
1802846.0,1778927532.509
1801570.0,1778927532.548
1799983.0,1778927532.588
1800145.0,1778927532.63
1799028.0,1778927532.668
1796391.0,1778927532.708
1789671.0,1778927532.75
1779230.0,1778927532.789
1766939.0,1778927532.829
1756700.0,1778927532.87
1749586.0,1778927532.909
1749854.0,1778927532.949
1758500.0,1778927532.99
1768587.0,1778927533.03
1778664.0,1778927533.069
1787032.0,1778927533.111
1774575.0,1778927533.15
1761242.0,1778927533.19
1748306.0,1778927533.232
1737941.0,1778927533.27
1731984.0,1778927533.35
1726966.0,1778927533.391
1725468.0,1778927533.43
1720110.0,1778927533.471
1712078.0,1778927533.511
1706949.0,1778927533.55
1700265.0,1778927533.591
1696775.0,1778927533.632
1697110.0,1778927533.671
1697251.0,1778927533.711
1699956.0,1778927533.752
1704652.0,1778927533.791
1707294.0,1778927533.831
1706672.0,1778927533.873
1707275.0,1778927533.911
1713974.0,1778927533.952
1722085.0,1778927533.993
1740427.0,1778927534.032
1754361.0,1778927534.073
1760154.0,1778927534.113
1760469.0,1778927534.192
1759955.0,1778927534.152
1772031.0,1778927534.233
1779082.0,1778927534.273
1775322.0,1778927534.313
1771869.0,1778927534.354
1766720.0,1778927534.393
1766770.0,1778927534.433
1771021.0,1778927534.475
1778154.0,1778927534.513
1787776.0,1778927534.553
1795110.0,1778927534.594
1800009.0,1778927534.634
1801548.0,1778927534.674
1796532.0,1778927534.715
1787890.0,1778927534.754
1779731.0,1778927534.794
1771179.0,1778927534.835
1764194.0,1778927534.875
1759106.0,1778927534.914
1755029.0,1778927534.956
1751043.0,1778927534.995
1753068.0,1778927535.035
1758323.0,1778927535.077
1762313.0,1778927535.115
1765540.0,1778927535.155
1766828.0,1778927535.196
1766021.0,1778927535.235
1761101.0,1778927535.318
1762410.0,1778927535.276
1759895.0,1778927535.357
1759066.0,1778927535.397
1763852.0,1778927535.439
1773684.0,1778927535.479
1775901.0,1778927535.518
1775872.0,1778927535.559
1774773.0,1778927535.599
1777347.0,1778927535.639
1785912.0,1778927535.681
1793598.0,1778927535.72
1801017.0,1778927535.76
1811748.0,1778927535.799
1819933.0,1778927535.838
1824665.0,1778927535.879
1828180.0,1778927535.92
1830438.0,1778927535.959
1833443.0,1778927535.999
1837283.0,1778927536.078
1838282.0,1778927536.118
1835308.0,1778927536.037
1835768.0,1778927536.159
1830931.0,1778927536.198
1825768.0,1778927536.239
1820813.0,1778927536.281
1815783.0,1778927536.319
1811869.0,1778927536.359
1803650.0,1778927536.44
1807542.0,1778927536.401
1799745.0,1778927536.481
1796403.0,1778927536.521
1793513.0,1778927536.558
1791267.0,1778927536.599
1789538.0,1778927536.64
1787495.0,1778927536.68
1786436.0,1778927536.72
1785870.0,1778927536.761
1784683.0,1778927536.8
1780075.0,1778927536.841
1773573.0,1778927536.88
1766939.0,1778927536.919
1760301.0,1778927536.959
1755486.0,1778927537.001
1750382.0,1778927537.04
1756532.0,1778927537.081
1774557.0,1778927537.121
1791047.0,1778927537.16
1802995.0,1778927537.201
1806363.0,1778927537.24
1804904.0,1778927537.28
1807434.0,1778927537.319
1816069.0,1778927537.361
1821744.0,1778927537.4
1830233.0,1778927537.44
1838811.0,1778927537.482
1842221.0,1778927537.521
1844024.0,1778927537.561
1848600.0,1778927537.6
1854131.0,1778927537.639
1857399.0,1778927537.68
1862032.0,1778927537.721
1864095.0,1778927537.76
1864276.0,1778927537.801
1864251.0,1778927537.842
1863262.0,1778927537.882
1863524.0,1778927537.919
1863828.0,1778927537.961
1865215.0,1778927538.0
1865357.0,1778927538.161
1859912.0,1778927538.202
1866489.0,1778927538.12
1866366.0,1778927538.082
1866313.0,1778927538.04
1853527.0,1778927538.241
1847729.0,1778927538.28
1842184.0,1778927538.321
1836342.0,1778927538.36
1829546.0,1778927538.4
1814353.0,1778927538.481
1821947.0,1778927538.442
1807589.0,1778927538.521
1800944.0,1778927538.562
1791164.0,1778927538.641
1795710.0,1778927538.6
1787727.0,1778927538.683
1787786.0,1778927538.721
1799625.0,1778927538.761
1823985.0,1778927538.801
1840089.0,1778927538.84
1848688.0,1778927538.881
1857447.0,1778927538.921
1862917.0,1778927538.961
1866185.0,1778927539.001
1865324.0,1778927539.042
1860203.0,1778927539.082
1851383.0,1778927539.122
1838931.0,1778927539.161
1827144.0,1778927539.2
1816657.0,1778927539.24
1808947.0,1778927539.282
1802998.0,1778927539.321
1797594.0,1778927539.361
1791391.0,1778927539.402
1782094.0,1778927539.442
1772170.0,1778927539.483
1763637.0,1778927539.521
1756273.0,1778927539.56
1749630.0,1778927539.601
1744931.0,1778927539.642
1740781.0,1778927539.682
1736706.0,1778927539.722
1733235.0,1778927539.763
1729777.0,1778927539.802
1726816.0,1778927539.84
1724212.0,1778927539.882
1723553.0,1778927539.921
1724761.0,1778927539.961
1725808.0,1778927540.002
1725535.0,1778927540.042
1725724.0,1778927540.082
1726415.0,1778927540.123
1726003.0,1778927540.162
1726827.0,1778927540.2
1728616.0,1778927540.242
1731433.0,1778927540.282
1733131.0,1778927540.321
1732748.0,1778927540.363
1730004.0,1778927540.402
1727603.0,1778927540.442
1725607.0,1778927540.484
1724766.0,1778927540.522
1726040.0,1778927540.561
1726668.0,1778927540.602
1723575.0,1778927540.641
1718636.0,1778927540.682
1714036.0,1778927540.723
1713728.0,1778927540.762
1732934.0,1778927540.802
1764609.0,1778927540.844
1798789.0,1778927540.882
1834016.0,1778927540.921
1862074.0,1778927540.962
1888184.0,1778927541.002
1911334.0,1778927541.042
1913564.0,1778927541.084
1892820.0,1778927541.122
1875089.0,1778927541.159
1864069.0,1778927541.201
1857652.0,1778927541.24
1851782.0,1778927541.281
1847237.0,1778927541.322
1844232.0,1778927541.361
1840867.0,1778927541.402
1837264.0,1778927541.443
1834243.0,1778927541.483
1832890.0,1778927541.522
1832649.0,1778927541.563
1835017.0,1778927541.603
1843984.0,1778927541.643
1854699.0,1778927541.683
1868019.0,1778927541.722
1881073.0,1778927541.762
1891056.0,1778927541.803
1905981.0,1778927541.842
1927820.0,1778927541.883
1951679.0,1778927541.924
1971773.0,1778927541.963
1986907.0,1778927542.001
2001246.0,1778927542.043
2018428.0,1778927542.083
2031176.0,1778927542.122
2047314.0,1778927542.163
2066710.0,1778927542.203
2085813.0,1778927542.243
2104055.0,1778927542.285
2121852.0,1778927542.323
2138842.0,1778927542.362
2153237.0,1778927542.403
2163451.0,1778927542.442
2165272.0,1778927542.483
2154814.0,1778927542.524
2133002.0,1778927542.563
2117220.0,1778927542.603
2111436.0,1778927542.644
2102111.0,1778927542.684
2097698.0,1778927542.722
2091854.0,1778927542.763
2081904.0,1778927542.802
2077188.0,1778927542.843
2073770.0,1778927542.885
2069842.0,1778927542.923
2066030.0,1778927542.963
2062643.0,1778927543.005
2062439.0,1778927543.044
2061696.0,1778927543.083
2056146.0,1778927543.123
2048937.0,1778927543.162
2042020.0,1778927543.203
2035204.0,1778927543.244
2029479.0,1778927543.284
2026214.0,1778927543.323
2023916.0,1778927543.365
2022343.0,1778927543.404
2021573.0,1778927543.442
2021477.0,1778927543.484
2021386.0,1778927543.523
2023002.0,1778927543.563
2025176.0,1778927543.604
2028088.0,1778927543.643
2032164.0,1778927543.684
2036939.0,1778927543.724
2044087.0,1778927543.804
2040454.0,1778927543.764
2050480.0,1778927543.843
2055967.0,1778927543.883
2055283.0,1778927543.923
2048858.0,1778927543.964
2025485.0,1778927544.003
2021021.0,1778927544.086
2023801.0,1778927544.044
2019442.0,1778927544.124
2016288.0,1778927544.164
2017350.0,1778927544.204
2024320.0,1778927544.243
2030388.0,1778927544.284
2042961.0,1778927544.324
2052028.0,1778927544.363
2050417.0,1778927544.404
2030155.0,1778927544.525
2038547.0,1778927544.485
2045296.0,1778927544.445
2021486.0,1778927544.564
2014192.0,1778927544.603
2007940.0,1778927544.643
2005366.0,1778927544.685
2003488.0,1778927544.724
2002091.0,1778927544.764
2000843.0,1778927544.806
1999383.0,1778927544.845
1997608.0,1778927544.884
1996659.0,1778927544.924
1995821.0,1778927544.963
1994672.0,1778927545.004
1991992.0,1778927545.085
1992753.0,1778927545.045
1990530.0,1778927545.124
1988105.0,1778927545.166
1983759.0,1778927545.205
1978546.0,1778927545.243
1972596.0,1778927545.285
1967137.0,1778927545.324
1962743.0,1778927545.363
1959422.0,1778927545.402
1957527.0,1778927545.441
1955537.0,1778927545.48
1952785.0,1778927545.519
1948859.0,1778927545.597
1950889.0,1778927545.558
1947624.0,1778927545.636
1945072.0,1778927545.792
1941358.0,1778927546.26
1946320.0,1778927545.87
1942947.0,1778927545.909
1936617.0,1778927545.987
1939051.0,1778927545.948
1945420.0,1778927546.143
1934898.0,1778927546.026
1945861.0,1778927545.714
1937975.0,1778927546.104
1945911.0,1778927545.831
1948787.0,1778927546.182
1948586.0,1778927546.221
1945399.0,1778927545.753
1934075.0,1778927546.065
1946493.0,1778927545.675
1930722.0,1778927546.299
1928007.0,1778927546.338
1926141.0,1778927546.377
1925939.0,1778927546.416
1928343.0,1778927546.455
1932328.0,1778927546.495
1940987.0,1778927546.535
1951425.0,1778927546.575
1953409.0,1778927546.615
1949596.0,1778927546.655
1947627.0,1778927546.695
1945387.0,1778927546.735
1945743.0,1778927546.775
1947777.0,1778927546.815
1950521.0,1778927546.855
1951852.0,1778927546.895
1951128.0,1778927546.935
1952510.0,1778927546.975
1956070.0,1778927547.015
1959915.0,1778927547.055
1963995.0,1778927547.095
1966235.0,1778927547.135
1967701.0,1778927547.175
1969412.0,1778927547.215
1969985.0,1778927547.255
1970144.0,1778927547.295
1968852.0,1778927547.335
1962618.0,1778927547.375
1954999.0,1778927547.415
1941182.0,1778927547.535
1939181.0,1778927547.575
1937168.0,1778927547.615
1934648.0,1778927547.655
1931417.0,1778927547.695
1942011.0,1778927547.495
1947579.0,1778927547.455
1929689.0,1778927547.735
1928434.0,1778927547.775
1926651.0,1778927547.815
1925324.0,1778927547.855
1930860.0,1778927547.935
1934712.0,1778927547.975
1926760.0,1778927547.895
1936836.0,1778927548.015
1938203.0,1778927548.055
1941778.0,1778927548.095
1936765.0,1778927548.135
1927734.0,1778927548.175
1927554.0,1778927548.215
1947895.0,1778927548.255
1995818.0,1778927548.335
1975664.0,1778927548.295
2010642.0,1778927548.375
2011115.0,1778927548.415
2011517.0,1778927548.455
2016142.0,1778927548.495
2017216.0,1778927548.575
2007015.0,1778927548.655
2000101.0,1778927548.695
2018398.0,1778927548.535
2012292.0,1778927548.615
1987332.0,1778927548.775
1993472.0,1778927548.735
1993462.0,1778927548.855
1984381.0,1778927548.815
2005375.0,1778927548.895
2018302.0,1778927548.935
2028561.0,1778927548.975
2038375.0,1778927549.015
2046917.0,1778927549.055
2057274.0,1778927549.135
2052826.0,1778927549.095
2061741.0,1778927549.175
2063756.0,1778927549.215
2066792.0,1778927549.255
2068596.0,1778927549.295
2070506.0,1778927549.335
2073171.0,1778927549.375
2076209.0,1778927549.415
2079355.0,1778927549.455
2079955.0,1778927549.495
2073857.0,1778927549.535
2069669.0,1778927549.575
2066020.0,1778927549.615
2062581.0,1778927549.655
2059297.0,1778927549.695
2056773.0,1778927549.735
2053654.0,1778927549.775
2051746.0,1778927549.815
2050417.0,1778927549.855
2048076.0,1778927549.895
2045844.0,1778927549.935
2044117.0,1778927549.975
2040427.0,1778927550.015
2037698.0,1778927550.055
2041531.0,1778927550.095
2034741.0,1778927550.135
2016616.0,1778927550.175
2026479.0,1778927550.215
2036767.0,1778927550.255
2047801.0,1778927550.295
2052515.0,1778927550.335
2047204.0,1778927550.375
2041399.0,1778927550.415
2035400.0,1778927550.455
2030891.0,1778927550.495
2028090.0,1778927550.535
2022644.0,1778927550.575
2010924.0,1778927550.615
2000708.0,1778927550.655
1999600.0,1778927550.695
2000286.0,1778927550.735
2004345.0,1778927550.775
2007568.0,1778927550.815
2008230.0,1778927550.855
2012110.0,1778927550.895
2017196.0,1778927550.935
2012623.0,1778927550.975
2013932.0,1778927551.015
2018399.0,1778927551.055
2018789.0,1778927551.095
2015099.0,1778927551.135
2007755.0,1778927551.175
1999625.0,1778927551.215
1990430.0,1778927551.255
1982055.0,1778927551.295
1976489.0,1778927551.335
1971564.0,1778927551.375
1967754.0,1778927551.415
1964108.0,1778927551.455
1959325.0,1778927551.495
1953862.0,1778927551.535
1950164.0,1778927551.575
1946756.0,1778927551.615
1946078.0,1778927551.655
1946229.0,1778927551.695
1943628.0,1778927551.735
1945115.0,1778927551.775
1944905.0,1778927551.815
1943197.0,1778927551.855
1941528.0,1778927551.895
1939743.0,1778927551.935
1937880.0,1778927551.975
1940152.0,1778927552.015
1940375.0,1778927552.055
1941091.0,1778927552.095
1943332.0,1778927552.135
1947068.0,1778927552.175
1948614.0,1778927552.215
1949669.0,1778927552.255
1948452.0,1778927552.295
1942349.0,1778927552.335
1934693.0,1778927552.375
1932772.0,1778927552.415
1933047.0,1778927552.455
1933258.0,1778927552.495
1940567.0,1778927552.535
1950262.0,1778927552.575
1952989.0,1778927552.615
1952890.0,1778927552.655
1945568.0,1778927552.695
1940054.0,1778927552.735
1935369.0,1778927552.775
1938393.0,1778927552.815
1946924.0,1778927552.855
1953873.0,1778927552.895
1958853.0,1778927552.935
1953433.0,1778927552.975
1947761.0,1778927553.015
1932682.0,1778927553.055
1918800.0,1778927553.095
1915577.0,1778927553.135
1903507.0,1778927553.175
1890242.0,1778927553.215
1873164.0,1778927553.255
1858581.0,1778927553.295
1849494.0,1778927553.335
1845379.0,1778927553.375
1844445.0,1778927553.415
1840838.0,1778927553.455
1839242.0,1778927553.495
1841988.0,1778927553.535
1843128.0,1778927553.575
1836696.0,1778927553.615
1831020.0,1778927553.655
1824407.0,1778927553.695
1815281.0,1778927553.735
1808160.0,1778927553.775
1807377.0,1778927553.815
1806503.0,1778927553.855
1803372.0,1778927553.895
1801231.0,1778927553.935
1799570.0,1778927553.975
1799197.0,1778927554.015
1800397.0,1778927554.055
1802554.0,1778927554.095
1801411.0,1778927554.135
1800007.0,1778927554.175
1798331.0,1778927554.215
1795502.0,1778927554.255
1789426.0,1778927554.295
1781523.0,1778927554.335
1773760.0,1778927554.375
1768355.0,1778927554.415
1767499.0,1778927554.455
1771170.0,1778927554.495
1777296.0,1778927554.535
1781105.0,1778927554.575
1782325.0,1778927554.615
1782119.0,1778927554.655
1781849.0,1778927554.695
1783119.0,1778927554.735
1781045.0,1778927554.775
1773054.0,1778927554.815
1765828.0,1778927554.855
1757688.0,1778927554.895
1760071.0,1778927554.935
1770929.0,1778927554.975
1776689.0,1778927555.015
1780714.0,1778927555.055
1791189.0,1778927555.095
1807036.0,1778927555.135
1816526.0,1778927555.175
1820433.0,1778927555.215
1832475.0,1778927555.255
1848560.0,1778927555.335
1842861.0,1778927555.295
1860544.0,1778927555.375
1870080.0,1778927555.415
1876493.0,1778927555.455
1884235.0,1778927555.495
1889833.0,1778927555.535
1892229.0,1778927555.575
1894824.0,1778927555.615
1896900.0,1778927555.655
1898200.0,1778927555.695
1900196.0,1778927555.735
1900734.0,1778927555.775
1900885.0,1778927555.815
1902839.0,1778927555.855
1902628.0,1778927555.895
1901456.0,1778927555.935
1900029.0,1778927555.975
1904459.0,1778927556.015
1902102.0,1778927556.055
1902862.0,1778927556.095
1904456.0,1778927556.135
1907871.0,1778927556.175
1906625.0,1778927556.215
1903560.0,1778927556.255
1900961.0,1778927556.295
1899788.0,1778927556.335
1900682.0,1778927556.375
1902519.0,1778927556.415
1902215.0,1778927556.455
1901535.0,1778927556.495
1902963.0,1778927556.535
1902817.0,1778927556.575
1901127.0,1778927556.615
1899023.0,1778927556.655
1896878.0,1778927556.695
1895318.0,1778927556.735
1894224.0,1778927556.775
1892510.0,1778927556.815
1891153.0,1778927556.855
1889255.0,1778927556.895
1887565.0,1778927556.935
1886483.0,1778927556.975
1885425.0,1778927557.015
1886094.0,1778927557.055
1887258.0,1778927557.095
1887141.0,1778927557.135
1888037.0,1778927557.175
1887390.0,1778927557.215
1886144.0,1778927557.255
1886761.0,1778927557.295
1887914.0,1778927557.372
1887217.0,1778927557.413
1885434.0,1778927557.452
1883010.0,1778927557.493
1881450.0,1778927557.534
1881047.0,1778927557.573
1881854.0,1778927557.613
1883598.0,1778927557.654
1885525.0,1778927557.694
1887844.0,1778927557.733
1889733.0,1778927557.774
1891486.0,1778927557.813
1894270.0,1778927557.853
1896959.0,1778927557.895
1899757.0,1778927557.934
1903321.0,1778927557.974
1909022.0,1778927558.015
1914513.0,1778927558.054
1919999.0,1778927558.095
1923790.0,1778927558.135
1926462.0,1778927558.174
1929285.0,1778927558.214
1929915.0,1778927558.255
1929459.0,1778927558.295
1928814.0,1778927558.335
1930515.0,1778927558.376
1934209.0,1778927558.415
1938262.0,1778927558.455
1942720.0,1778927558.497
1946664.0,1778927558.535
1950034.0,1778927558.575
1952571.0,1778927558.616
1953963.0,1778927558.655
1955193.0,1778927558.696
1957029.0,1778927558.737
1959173.0,1778927558.776
1962000.0,1778927558.816
1968549.0,1778927558.857
1974806.0,1778927558.897
1980060.0,1778927558.936
1985085.0,1778927558.977
1989971.0,1778927559.016
1992497.0,1778927559.056
1993091.0,1778927559.098
1992145.0,1778927559.136
1991552.0,1778927559.177
1993050.0,1778927559.218
1996666.0,1778927559.257
2001395.0,1778927559.297
2003820.0,1778927559.338
2004525.0,1778927559.377
2006342.0,1778927559.417
2006895.0,1778927559.458
2007480.0,1778927559.498
2007299.0,1778927559.537
2007546.0,1778927559.579
2007380.0,1778927559.618
2007303.0,1778927559.658
2007288.0,1778927559.7
2007578.0,1778927559.738
2007896.0,1778927559.778
2007645.0,1778927559.819
2006308.0,1778927559.858
2005580.0,1778927559.899
2006222.0,1778927559.939
2007706.0,1778927559.978
2009838.0,1778927560.018
2011605.0,1778927560.06
2012954.0,1778927560.099
2014307.0,1778927560.139
2015340.0,1778927560.18
2015497.0,1778927560.219
2014304.0,1778927560.259
2012988.0,1778927560.301
2012265.0,1778927560.339
2011981.0,1778927560.379
2011159.0,1778927560.42
2010212.0,1778927560.459
2009589.0,1778927560.5
2008175.0,1778927560.541
2004970.0,1778927560.58
2002828.0,1778927560.62
2001131.0,1778927560.661
2000366.0,1778927560.701
1999717.0,1778927560.74
1999669.0,1778927560.82
1998421.0,1778927560.902
1997707.0,1778927560.941
1997615.0,1778927560.981
1999378.0,1778927560.86
1999459.0,1778927560.781
1998598.0,1778927561.061
1998915.0,1778927561.102
1998216.0,1778927561.022
1999030.0,1778927561.142
1999325.0,1778927561.181
1998350.0,1778927561.221
1994829.0,1778927561.262
1990263.0,1778927561.302
1986396.0,1778927561.342
1983586.0,1778927561.383
1981273.0,1778927561.416
1979662.0,1778927561.451
1978225.0,1778927561.491
1976822.0,1778927561.53
1975091.0,1778927561.57
1973112.0,1778927561.611
1971037.0,1778927561.65
1969792.0,1778927561.691
1968586.0,1778927561.732
1967708.0,1778927561.771
1966833.0,1778927561.812
1963074.0,1778927561.851
1957069.0,1778927561.891
1951022.0,1778927561.93
1945920.0,1778927561.972
1941411.0,1778927562.011
1938491.0,1778927562.051
1935666.0,1778927562.093
1933326.0,1778927562.131
1930581.0,1778927562.172
1928238.0,1778927562.211
1925426.0,1778927562.25
1923113.0,1778927562.291
1921377.0,1778927562.332
1919722.0,1778927562.371
1918243.0,1778927562.411
1915325.0,1778927562.453
1908184.0,1778927562.492
1899969.0,1778927562.532
1892287.0,1778927562.571
1885650.0,1778927562.61
1880507.0,1778927562.651
1876595.0,1778927562.693
1873086.0,1778927562.731
1869641.0,1778927562.772
1866480.0,1778927562.813
1862951.0,1778927562.852
1860351.0,1778927562.891
1857673.0,1778927562.932
1855851.0,1778927562.971
1854209.0,1778927563.011
1852681.0,1778927563.052
1850036.0,1778927563.092
1842634.0,1778927563.132
1833543.0,1778927563.173
1824883.0,1778927563.212
1818019.0,1778927563.25
1812745.0,1778927563.292
1808860.0,1778927563.331
1805846.0,1778927563.371
1803142.0,1778927563.413
1800398.0,1778927563.452
1797666.0,1778927563.493
1795164.0,1778927563.533
1793177.0,1778927563.572
1792072.0,1778927563.611
1791064.0,1778927563.652
1791077.0,1778927563.692
1791238.0,1778927563.731
1793204.0,1778927563.773
1795624.0,1778927563.812
1793825.0,1778927563.852
1788335.0,1778927563.894
1782364.0,1778927563.931
1777573.0,1778927563.971
1774150.0,1778927564.012
1771995.0,1778927564.051
1770472.0,1778927564.092
1768352.0,1778927564.133
1765939.0,1778927564.173
1763174.0,1778927564.209
1760536.0,1778927564.251
1759053.0,1778927564.291
1758199.0,1778927564.331
1757806.0,1778927564.372
1758193.0,1778927564.411
1759964.0,1778927564.452
1763196.0,1778927564.494
1767213.0,1778927564.532
1770371.0,1778927564.572
1769240.0,1778927564.614
1766150.0,1778927564.653
1764457.0,1778927564.692
1763598.0,1778927564.733
1764246.0,1778927564.772
1765573.0,1778927564.812
1765614.0,1778927564.853
1763895.0,1778927564.893
1761022.0,1778927564.933
1759657.0,1778927564.974
1758969.0,1778927565.011
1758498.0,1778927565.052
1757817.0,1778927565.094
1758408.0,1778927565.132
1761433.0,1778927565.172
1765896.0,1778927565.214
1772752.0,1778927565.253
1777966.0,1778927565.294
1779739.0,1778927565.334
1776713.0,1778927565.371
1772535.0,1778927565.412
1768658.0,1778927565.453
1764186.0,1778927565.493
1759843.0,1778927565.532
1756646.0,1778927565.574
1755609.0,1778927565.613
1758574.0,1778927565.653
1762039.0,1778927565.695
1766848.0,1778927565.732
1771257.0,1778927565.772
1776036.0,1778927565.813
1782545.0,1778927565.852
1789115.0,1778927565.893
1798420.0,1778927565.934
1810536.0,1778927565.973
1824223.0,1778927566.013
1838274.0,1778927566.055
1850474.0,1778927566.093
1859535.0,1778927566.132
1865950.0,1778927566.173
1872416.0,1778927566.213
1878906.0,1778927566.253
1886115.0,1778927566.295
1894294.0,1778927566.333
1901614.0,1778927566.374
1910012.0,1778927566.415
1918201.0,1778927566.452
1925581.0,1778927566.493
1931587.0,1778927566.534
1939909.0,1778927566.573
1947089.0,1778927566.613
1953808.0,1778927566.654
1962272.0,1778927566.694
1971154.0,1778927566.737
1980600.0,1778927566.778
1988972.0,1778927566.818
1999656.0,1778927566.854
2002138.0,1778927566.894
2022429.0,1778927566.932
2040002.0,1778927566.973
2048180.0,1778927567.014
2054285.0,1778927567.053
2061540.0,1778927567.094
2068268.0,1778927567.135
2073029.0,1778927567.174
2075347.0,1778927567.214
2075984.0,1778927567.253
2075242.0,1778927567.293
2071425.0,1778927567.333
2068312.0,1778927567.374
2062400.0,1778927567.414
2058978.0,1778927567.454
2061154.0,1778927567.496
2066097.0,1778927567.534
2071701.0,1778927567.575
2076344.0,1778927567.614
2081274.0,1778927567.653
2085559.0,1778927567.694
2088424.0,1778927567.735
2090557.0,1778927567.774
2093475.0,1778927567.814
2098838.0,1778927567.855
2105054.0,1778927567.895
2111880.0,1778927567.933
2121134.0,1778927567.974
2133383.0,1778927568.013
2145592.0,1778927568.054
2158924.0,1778927568.096
2169613.0,1778927568.134
2176467.0,1778927568.174
2181530.0,1778927568.216
2185549.0,1778927568.255
2183814.0,1778927568.294
2175135.0,1778927568.334
2156537.0,1778927568.373
2148888.0,1778927568.414
2139580.0,1778927568.455
2131971.0,1778927568.495
2127202.0,1778927568.534
2124283.0,1778927568.576
2122761.0,1778927568.615
2121637.0,1778927568.653
2120124.0,1778927568.695
2116739.0,1778927568.734
2113677.0,1778927568.774
2125045.0,1778927568.815
2134309.0,1778927568.855
2136888.0,1778927568.895
2140721.0,1778927568.936
2142011.0,1778927568.973
2148317.0,1778927569.014
2146114.0,1778927569.055
2143916.0,1778927569.095
2145410.0,1778927569.134
2142758.0,1778927569.175
2140069.0,1778927569.215
2135401.0,1778927569.255
2129017.0,1778927569.297
2128821.0,1778927569.332
2125475.0,1778927569.377
2123545.0,1778927569.418
2119754.0,1778927569.457
2114735.0,1778927569.498
2110114.0,1778927569.538
2106712.0,1778927569.577
2103914.0,1778927569.617
2101407.0,1778927569.659
2099610.0,1778927569.698
2098148.0,1778927569.738
2094936.0,1778927569.779
2088320.0,1778927569.818
2080245.0,1778927569.859
2072062.0,1778927569.901
2065070.0,1778927569.939
2059478.0,1778927569.98
2055231.0,1778927570.021
2051929.0,1778927570.06
2047930.0,1778927570.101
2043815.0,1778927570.142
2039132.0,1778927570.179
2035253.0,1778927570.219
2031250.0,1778927570.26
2027869.0,1778927570.3
2024648.0,1778927570.34
2021847.0,1778927570.381
2019246.0,1778927570.42
2013206.0,1778927570.461
2002869.0,1778927570.503
1991732.0,1778927570.539
1981751.0,1778927570.579
1973361.0,1778927570.621
1966415.0,1778927570.66
1960529.0,1778927570.701
1955557.0,1778927570.742
1950482.0,1778927570.781
1944932.0,1778927570.821
1939708.0,1778927570.86
1934579.0,1778927570.9
1926618.0,1778927570.981
1930596.0,1778927570.94
1923198.0,1778927571.02
1920224.0,1778927571.061
1913710.0,1778927571.103
1902162.0,1778927571.141
1890198.0,1778927571.181
1870787.0,1778927571.26
1879812.0,1778927571.22
1857637.0,1778927571.341
1853033.0,1778927571.38
1843735.0,1778927571.462
1848453.0,1778927571.421
1863597.0,1778927571.301
1839607.0,1778927571.502
1835454.0,1778927571.542
1832459.0,1778927571.581
1829561.0,1778927571.62
1827858.0,1778927571.66
1826070.0,1778927571.702
1823674.0,1778927571.741
1815819.0,1778927571.781
1805098.0,1778927571.822
1794868.0,1778927571.861
1786703.0,1778927571.901
1780111.0,1778927571.943
1775414.0,1778927571.98
1772134.0,1778927572.02
1769116.0,1778927572.061
1766471.0,1778927572.101
1763555.0,1778927572.141
1761186.0,1778927572.182
1759813.0,1778927572.221
1758745.0,1778927572.262
1758064.0,1778927572.304
1758294.0,1778927572.38
1758005.0,1778927572.34
1758513.0,1778927572.422
1755600.0,1778927572.461
1748019.0,1778927572.502
1739902.0,1778927572.542
1733429.0,1778927572.582
1728509.0,1778927572.622
1725417.0,1778927572.663
1723815.0,1778927572.701
1722880.0,1778927572.741
1722222.0,1778927572.782
1721632.0,1778927572.821
1721148.0,1778927572.861
1721007.0,1778927572.903
1721690.0,1778927572.942
1722806.0,1778927572.982
1724283.0,1778927573.021
1726227.0,1778927573.06
1728142.0,1778927573.101
1730138.0,1778927573.142
1730105.0,1778927573.181
1725419.0,1778927573.221
1719808.0,1778927573.263
1715821.0,1778927573.303
1713281.0,1778927573.342
1712518.0,1778927573.381
1712628.0,1778927573.421
1713767.0,1778927573.461
1714699.0,1778927573.503
1715743.0,1778927573.541
1716543.0,1778927573.582
1718220.0,1778927573.622
1720342.0,1778927573.661
1722794.0,1778927573.702
1725516.0,1778927573.743
1728218.0,1778927573.782
1731435.0,1778927573.822
1734430.0,1778927573.862
1737477.0,1778927573.902
1740108.0,1778927573.941
1739180.0,1778927573.982
1735940.0,1778927574.022
1733875.0,1778927574.062
1732727.0,1778927574.104
1732929.0,1778927574.142
1734382.0,1778927574.183
1736416.0,1778927574.222
1738137.0,1778927574.261
1740120.0,1778927574.302
1741741.0,1778927574.342
1743746.0,1778927574.382
1746162.0,1778927574.421
1748927.0,1778927574.46
1751728.0,1778927574.5
1754876.0,1778927574.539
1758235.0,1778927574.58
1761398.0,1778927574.62
1764632.0,1778927574.66
1767709.0,1778927574.702
1769998.0,1778927574.741
1768629.0,1778927574.781
1766098.0,1778927574.823
1764413.0,1778927574.862
1763732.0,1778927574.903
1763749.0,1778927574.943
1764874.0,1778927574.983
1766644.0,1778927575.023
1768368.0,1778927575.064
1769998.0,1778927575.102
1771541.0,1778927575.141
1773685.0,1778927575.183
1775808.0,1778927575.222
1778099.0,1778927575.262
1780758.0,1778927575.304
1783858.0,1778927575.343
1786555.0,1778927575.383
1789738.0,1778927575.423
1792660.0,1778927575.463
1795783.0,1778927575.503
1798280.0,1778927575.544
1798203.0,1778927575.583
1796488.0,1778927575.621
1795160.0,1778927575.663
1794787.0,1778927575.703
1795171.0,1778927575.742
1796258.0,1778927575.784
1797604.0,1778927575.823
1800946.0,1778927575.905
1802321.0,1778927575.942
1803948.0,1778927575.982
1805550.0,1778927576.023
1807714.0,1778927576.062
1799564.0,1778927575.863
1809907.0,1778927576.103
1812134.0,1778927576.144
1814689.0,1778927576.183
1817099.0,1778927576.223
1819824.0,1778927576.265
1822223.0,1778927576.303
1826629.0,1778927576.383
1827008.0,1778927576.423
1824645.0,1778927576.342
1825543.0,1778927576.463
1824353.0,1778927576.505
1823738.0,1778927576.543
1824219.0,1778927576.583
1825297.0,1778927576.624
1826383.0,1778927576.663
1827606.0,1778927576.704
1828852.0,1778927576.745
1830817.0,1778927576.822
1832347.0,1778927576.864
1829851.0,1778927576.782
1833665.0,1778927576.904
1835133.0,1778927576.943
1837004.0,1778927576.983
1838420.0,1778927577.02
1840348.0,1778927577.061
1841905.0,1778927577.103
1843352.0,1778927577.142
1845096.0,1778927577.182
1844967.0,1778927577.263
1846394.0,1778927577.223
1843009.0,1778927577.304
1841192.0,1778927577.344
1840475.0,1778927577.383
1840290.0,1778927577.424
1840945.0,1778927577.465
1841090.0,1778927577.505
1841600.0,1778927577.542
1842081.0,1778927577.584
1842691.0,1778927577.663
1842397.0,1778927577.623
1843244.0,1778927577.705
1843732.0,1778927577.744
1845228.0,1778927577.825
1844490.0,1778927577.784
1845934.0,1778927577.863
1847144.0,1778927577.904
1848353.0,1778927577.944
1849682.0,1778927577.983
1849272.0,1778927578.065
1844649.0,1778927578.144
1843191.0,1778927578.186
1842834.0,1778927578.223
1842859.0,1778927578.263
1846719.0,1778927578.105
1850474.0,1778927578.023
1842997.0,1778927578.305
1843635.0,1778927578.343
1843891.0,1778927578.384
1844380.0,1778927578.424
1844521.0,1778927578.463
1844938.0,1778927578.504
1845187.0,1778927578.545
1846382.0,1778927578.584
1847570.0,1778927578.624
1849589.0,1778927578.665
1850844.0,1778927578.706
1857611.0,1778927578.784
1859166.0,1778927578.824
1853957.0,1778927578.743
1858965.0,1778927578.864
1858654.0,1778927578.906
1857614.0,1778927578.944
1855705.0,1778927578.985
1853391.0,1778927579.026
1850892.0,1778927579.065
1849402.0,1778927579.104
1848357.0,1778927579.145
1847712.0,1778927579.184
1846362.0,1778927579.224
1845067.0,1778927579.305
1845713.0,1778927579.265
1844661.0,1778927579.345
1844139.0,1778927579.386
1843566.0,1778927579.425
1843136.0,1778927579.464
1842535.0,1778927579.505
1840336.0,1778927579.543
1827150.0,1778927579.705
1836241.0,1778927579.583
1832078.0,1778927579.625
1829321.0,1778927579.664
1825932.0,1778927579.746
1825297.0,1778927579.785
1824488.0,1778927579.826
1823290.0,1778927579.865
1821944.0,1778927579.905
1820616.0,1778927579.944
1819450.0,1778927579.986
1818501.0,1778927580.025
1823238.0,1778927580.107
1819219.0,1778927580.065
1827279.0,1778927580.146
1830368.0,1778927580.186
1831126.0,1778927580.225
1827672.0,1778927580.263
1817593.0,1778927580.346
1808903.0,1778927580.425
1805909.0,1778927580.466
1812933.0,1778927580.385
1822492.0,1778927580.305
1800859.0,1778927580.546
1799278.0,1778927580.585
1797753.0,1778927580.624
1797375.0,1778927580.665
1797976.0,1778927580.707
1799334.0,1778927580.745
1801089.0,1778927580.785
1803149.0,1778927580.827
1805070.0,1778927580.866
1805237.0,1778927580.905
1803076.0,1778927580.946
1802760.0,1778927580.506
1800325.0,1778927580.985
1798259.0,1778927581.025
1797330.0,1778927581.066
1796805.0,1778927581.106
1796621.0,1778927581.146
1796507.0,1778927581.187
1795742.0,1778927581.306
1795289.0,1778927581.345
1795752.0,1778927581.264
1796113.0,1778927581.226
1795205.0,1778927581.386
1794949.0,1778927581.427
1794967.0,1778927581.466
1795150.0,1778927581.507
1788805.0,1778927581.627
1795134.0,1778927581.548
1793103.0,1778927581.587
1780680.0,1778927581.708
1784187.0,1778927581.668
1778624.0,1778927581.747
1778521.0,1778927581.788
1779750.0,1778927581.827
1781707.0,1778927581.867
1782482.0,1778927581.909
1780578.0,1778927582.029
1781804.0,1778927581.948
1780719.0,1778927582.107
1780734.0,1778927582.069
1780890.0,1778927581.988
1780301.0,1778927582.147
1773520.0,1778927582.227
1778331.0,1778927582.187
1767361.0,1778927582.269
1761690.0,1778927582.308
1758008.0,1778927582.348
1755973.0,1778927582.389
1753911.0,1778927582.429
1752083.0,1778927582.469
1750345.0,1778927582.509
1748020.0,1778927582.547
1746443.0,1778927582.588
1744954.0,1778927582.629
1743971.0,1778927582.668
1743354.0,1778927582.709
1743726.0,1778927582.75
1744161.0,1778927582.789
1742729.0,1778927582.827
1732723.0,1778927582.908
1728289.0,1778927582.948
1724754.0,1778927582.989
1737851.0,1778927582.869
1721965.0,1778927583.029
1719870.0,1778927583.069
1714336.0,1778927583.187
1712630.0,1778927583.229
1711368.0,1778927583.268
1710311.0,1778927583.309
1709958.0,1778927583.349
1709661.0,1778927583.389
1709669.0,1778927583.429
1709801.0,1778927583.47
1708997.0,1778927583.51
1704885.0,1778927583.548
1699316.0,1778927583.589
1694408.0,1778927583.628
1718028.0,1778927583.111
1716418.0,1778927583.149
1690781.0,1778927583.668
1687859.0,1778927583.71
1686059.0,1778927583.749
1685410.0,1778927583.789
1684749.0,1778927583.831
1683792.0,1778927583.868
1683091.0,1778927583.909
1682815.0,1778927583.949
1683085.0,1778927583.989
1683443.0,1778927584.029
1684265.0,1778927584.07
1685134.0,1778927584.11
1686267.0,1778927584.15
1687063.0,1778927584.191
1688083.0,1778927584.228
1688842.0,1778927584.31
1685596.0,1778927584.349
1689238.0,1778927584.268
1681978.0,1778927584.389
1679169.0,1778927584.43
1677352.0,1778927584.47
1676452.0,1778927584.51
1676365.0,1778927584.551
1677697.0,1778927584.709
1678589.0,1778927584.749
1676968.0,1778927584.628
1676698.0,1778927584.588
1677446.0,1778927584.669
1679569.0,1778927584.79
1680743.0,1778927584.83
1681994.0,1778927584.87
1683250.0,1778927584.912
1686160.0,1778927584.989
1688975.0,1778927585.069
1684766.0,1778927584.948
1687540.0,1778927585.03
1690668.0,1778927585.11
1692277.0,1778927585.151
1692303.0,1778927585.19
1690429.0,1778927585.23
1688316.0,1778927585.271
1687036.0,1778927585.309
1686809.0,1778927585.349
1686595.0,1778927585.39
1687343.0,1778927585.429
1688322.0,1778927585.469
1688710.0,1778927585.511
1689654.0,1778927585.55
1690165.0,1778927585.59
1691051.0,1778927585.631
1692154.0,1778927585.669
1693433.0,1778927585.71
1695038.0,1778927585.75
1696214.0,1778927585.789
1697990.0,1778927585.83
1699292.0,1778927585.871
1700826.0,1778927585.911
1702320.0,1778927585.95
1703794.0,1778927585.99
1703155.0,1778927586.029
1701330.0,1778927586.069
1699730.0,1778927586.111
1698900.0,1778927586.15
1698612.0,1778927586.19
1699049.0,1778927586.231
1699594.0,1778927586.27
1700186.0,1778927586.311
1701027.0,1778927586.352
1701542.0,1778927586.389
1702393.0,1778927586.429
1704460.0,1778927586.51
1703236.0,1778927586.47
1705503.0,1778927586.55
1706951.0,1778927586.591
1708069.0,1778927586.63
1709757.0,1778927586.671
1710851.0,1778927586.713
1712442.0,1778927586.749
1713430.0,1778927586.789
1714872.0,1778927586.831
1714999.0,1778927586.87
1713227.0,1778927586.911
1711739.0,1778927586.951
1709971.0,1778927587.072
1710393.0,1778927587.031
1710624.0,1778927586.991
1710554.0,1778927587.11
1711006.0,1778927587.15
1711734.0,1778927587.191
1712223.0,1778927587.229
1712673.0,1778927587.269
1713284.0,1778927587.312
1714406.0,1778927587.35
1715361.0,1778927587.391
1716219.0,1778927587.432
1717630.0,1778927587.471
1718630.0,1778927587.512
1719768.0,1778927587.55
1721033.0,1778927587.59
1721803.0,1778927587.63
1723331.0,1778927587.671
1724199.0,1778927587.711
1723504.0,1778927587.751
1721613.0,1778927587.792
1720393.0,1778927587.831
1719392.0,1778927587.87
1719145.0,1778927587.912
1719032.0,1778927587.95
1719315.0,1778927587.99
1719757.0,1778927588.032
1720352.0,1778927588.071
1720726.0,1778927588.112
1721215.0,1778927588.152
1721791.0,1778927588.192
1722248.0,1778927588.23
1723055.0,1778927588.271
1724104.0,1778927588.311
1725048.0,1778927588.351
1726162.0,1778927588.392
1727231.0,1778927588.431
1728433.0,1778927588.471
1729606.0,1778927588.513
1730283.0,1778927588.552
1730034.0,1778927588.59
1726931.0,1778927588.671
1728357.0,1778927588.631
1725799.0,1778927588.712
1725134.0,1778927588.752
1724937.0,1778927588.832
1724866.0,1778927588.791
1724780.0,1778927588.873
1725127.0,1778927588.911
1725347.0,1778927588.951
1725277.0,1778927588.992
1725711.0,1778927589.031
1725954.0,1778927589.071
1726523.0,1778927589.113
1727069.0,1778927589.152
1727451.0,1778927589.192
1728062.0,1778927589.233
1728515.0,1778927589.272
1729289.0,1778927589.311
1729228.0,1778927589.352
1727167.0,1778927589.391
1725121.0,1778927589.431
1723075.0,1778927589.472
1722054.0,1778927589.512
1721073.0,1778927589.552
1720738.0,1778927589.593
1720623.0,1778927589.632
1720234.0,1778927589.671
1719981.0,1778927589.713
1719504.0,1778927589.751
1719246.0,1778927589.791
1719233.0,1778927589.832
1719039.0,1778927589.871
1719280.0,1778927589.911
1719503.0,1778927589.953
1719788.0,1778927589.992
1720138.0,1778927590.032
1720036.0,1778927590.073
1717833.0,1778927590.113
1714741.0,1778927590.151
1711941.0,1778927590.192
1709869.0,1778927590.231
1707865.0,1778927590.272
1706677.0,1778927590.314
1705647.0,1778927590.352
1704838.0,1778927590.392
1704164.0,1778927590.434
1703312.0,1778927590.473
1702797.0,1778927590.514
1702172.0,1778927590.552
1701807.0,1778927590.591
1701849.0,1778927590.632
1701770.0,1778927590.673
1701747.0,1778927590.713
1701935.0,1778927590.753
1700911.0,1778927590.794
1698009.0,1778927590.833
1694471.0,1778927590.871
1691389.0,1778927590.913
1688984.0,1778927590.952
1687227.0,1778927590.992
1686297.0,1778927591.033
1685101.0,1778927591.072
1684436.0,1778927591.114
1683637.0,1778927591.154
1682685.0,1778927591.193
1682005.0,1778927591.232
1681696.0,1778927591.273
1681343.0,1778927591.313
1681463.0,1778927591.352
1681432.0,1778927591.393
1681639.0,1778927591.433
1681478.0,1778927591.473
1679397.0,1778927591.515
1675804.0,1778927591.553
1672460.0,1778927591.592
1670042.0,1778927591.633
1668041.0,1778927591.672
1667130.0,1778927591.713
1666288.0,1778927591.754
1665477.0,1778927591.793
1664912.0,1778927591.833
1664108.0,1778927591.875
1663294.0,1778927591.913
1662880.0,1778927591.952
1662844.0,1778927591.993
1662678.0,1778927592.032
1662754.0,1778927592.073
1663031.0,1778927592.115
1662581.0,1778927592.153
1660303.0,1778927592.193
1657070.0,1778927592.235
1652163.0,1778927592.313
1654279.0,1778927592.272
1650847.0,1778927592.353
1650114.0,1778927592.392
1649901.0,1778927592.432
1649683.0,1778927592.473
1649832.0,1778927592.513
1649927.0,1778927592.553
1650571.0,1778927592.594
1651210.0,1778927592.633
1651939.0,1778927592.674
1652806.0,1778927592.716
1653718.0,1778927592.754
1654631.0,1778927592.792
1655075.0,1778927592.834
1653413.0,1778927592.873
1650875.0,1778927592.914
1648761.0,1778927592.954
1647257.0,1778927592.993
1646238.0,1778927593.034
1645996.0,1778927593.075
1645833.0,1778927593.115
1645826.0,1778927593.152
1646268.0,1778927593.194
1646582.0,1778927593.233
1647520.0,1778927593.273
1648334.0,1778927593.315
1649223.0,1778927593.354
1650448.0,1778927593.388
1651761.0,1778927593.429
1653131.0,1778927593.468
1654143.0,1778927593.509
1653282.0,1778927593.549
1651641.0,1778927593.588
1650232.0,1778927593.629
1648988.0,1778927593.709
1649570.0,1778927593.67
1649136.0,1778927593.749
1649817.0,1778927593.79
1650289.0,1778927593.83
1650678.0,1778927593.868
1651344.0,1778927593.91
1652024.0,1778927593.948
1654368.0,1778927594.03
1653311.0,1778927593.989
1655497.0,1778927594.069
1656913.0,1778927594.11
1658081.0,1778927594.15
1659100.0,1778927594.19
1659862.0,1778927594.228
1659003.0,1778927594.269
1657611.0,1778927594.309
1656546.0,1778927594.349
1655916.0,1778927594.39
1655736.0,1778927594.429
1655930.0,1778927594.47
1655966.0,1778927594.511
1656742.0,1778927594.55
1657113.0,1778927594.588
1657695.0,1778927594.629
1659189.0,1778927594.669
1660614.0,1778927594.71
1661824.0,1778927594.75
1662663.0,1778927594.79
1663830.0,1778927594.83
1664609.0,1778927594.871
1665364.0,1778927594.908
1665655.0,1778927594.948
1664748.0,1778927594.989
1663158.0,1778927595.028
1662164.0,1778927595.069
1661499.0,1778927595.111
1661160.0,1778927595.149
1661293.0,1778927595.189
1661508.0,1778927595.231
1661442.0,1778927595.27
1661481.0,1778927595.311
1661761.0,1778927595.351
1662089.0,1778927595.389
1663027.0,1778927595.429
1664062.0,1778927595.47
1665309.0,1778927595.51
1666926.0,1778927595.55
1668493.0,1778927595.591
1669889.0,1778927595.63
1670898.0,1778927595.67
1670743.0,1778927595.712
1670473.0,1778927595.749
1669824.0,1778927595.789
1669730.0,1778927595.83
1669595.0,1778927595.869
1669941.0,1778927595.911
1670736.0,1778927595.951
1671327.0,1778927595.99
1671983.0,1778927596.031
1672666.0,1778927596.072
1673571.0,1778927596.11
1674773.0,1778927596.149
1675879.0,1778927596.19
1676947.0,1778927596.23
1678122.0,1778927596.27
1679463.0,1778927596.312
1680955.0,1778927596.35
1681936.0,1778927596.391
1682774.0,1778927596.432
1682219.0,1778927596.469
1681597.0,1778927596.51
1680960.0,1778927596.551
1680699.0,1778927596.59
1680016.0,1778927596.63
1679526.0,1778927596.671
1679477.0,1778927596.711
1679890.0,1778927596.751
1680019.0,1778927596.79
1680786.0,1778927596.83
1681403.0,1778927596.87
1682334.0,1778927596.912
1683332.0,1778927596.95
1684773.0,1778927596.991
1685922.0,1778927597.032
1687546.0,1778927597.071
1688925.0,1778927597.112
1690411.0,1778927597.151
1691173.0,1778927597.19
1691354.0,1778927597.23
1690816.0,1778927597.271
1690359.0,1778927597.311
1691536.0,1778927597.351
1692063.0,1778927597.392
1691659.0,1778927597.431
1691889.0,1778927597.471
1692197.0,1778927597.512
1692160.0,1778927597.551
1692235.0,1778927597.592
1691960.0,1778927597.631
1691432.0,1778927597.67
1691165.0,1778927597.711
1690466.0,1778927597.752
1690173.0,1778927597.791
1689659.0,1778927597.831
1689342.0,1778927597.872
1689989.0,1778927597.913
1690213.0,1778927597.95
1689900.0,1778927597.991
1688712.0,1778927598.031
1687650.0,1778927598.071
1687121.0,1778927598.113
1686722.0,1778927598.151
1686361.0,1778927598.191
1685962.0,1778927598.233
1685849.0,1778927598.272
1685412.0,1778927598.311
1685014.0,1778927598.351
1685096.0,1778927598.391
1684858.0,1778927598.431
1685020.0,1778927598.472
1684800.0,1778927598.512
1684835.0,1778927598.552
1684841.0,1778927598.593
1684851.0,1778927598.632
1684656.0,1778927598.67
1683393.0,1778927598.712
1681978.0,1778927598.751
1680953.0,1778927598.791
1679867.0,1778927598.833
1678984.0,1778927598.872
1678758.0,1778927598.913
1678278.0,1778927598.953
1677754.0,1778927598.991
1677664.0,1778927599.031
1677246.0,1778927599.072
1677511.0,1778927599.112
1678732.0,1778927599.151
1681523.0,1778927599.193
1685197.0,1778927599.232
1689475.0,1778927599.272
1694552.0,1778927599.314
1699393.0,1778927599.351
1704071.0,1778927599.391
1707704.0,1778927599.431
1710671.0,1778927599.471
1713777.0,1778927599.511
1717087.0,1778927599.552
1719977.0,1778927599.591
1722662.0,1778927599.631
1724673.0,1778927599.673
1725830.0,1778927599.713
1726071.0,1778927599.752
1726661.0,1778927599.794
1727013.0,1778927599.831
1727572.0,1778927599.871
1727696.0,1778927599.913
1728210.0,1778927599.952
1728585.0,1778927599.992
1729302.0,1778927600.035
1729836.0,1778927600.07
1730389.0,1778927600.112
1729867.0,1778927600.152
1728486.0,1778927600.191
1726971.0,1778927600.232
1726106.0,1778927600.273
1725433.0,1778927600.313
1724946.0,1778927600.352
1725084.0,1778927600.394
1725062.0,1778927600.433
1725072.0,1778927600.473
1725049.0,1778927600.513
1724935.0,1778927600.552
1724619.0,1778927600.592
1724674.0,1778927600.632
1724741.0,1778927600.671
1724897.0,1778927600.712
1725077.0,1778927600.753
1725073.0,1778927600.792
1725232.0,1778927600.833
1724893.0,1778927600.874
1723954.0,1778927600.914
1722410.0,1778927600.953
1720703.0,1778927600.993
1719801.0,1778927601.032
1718943.0,1778927601.072
1718400.0,1778927601.114
1717951.0,1778927601.153
1717707.0,1778927601.193
1717037.0,1778927601.233
1717076.0,1778927601.272
1716679.0,1778927601.313
1716390.0,1778927601.354
1716527.0,1778927601.393
1716346.0,1778927601.433
1716361.0,1778927601.475
1716407.0,1778927601.515
1716522.0,1778927601.552
1715718.0,1778927601.593
1713952.0,1778927601.632
1712456.0,1778927601.673
1710984.0,1778927601.715
1710176.0,1778927601.753
1709428.0,1778927601.794
1708748.0,1778927601.834
1708247.0,1778927601.873
1707807.0,1778927601.914
1707263.0,1778927601.955
1706754.0,1778927601.994
1706693.0,1778927602.032
1706554.0,1778927602.073
1706340.0,1778927602.113
1706486.0,1778927602.153
1706532.0,1778927602.194
1706678.0,1778927602.233
1706885.0,1778927602.274
1705636.0,1778927602.316
1704020.0,1778927602.354
1702093.0,1778927602.392
1700525.0,1778927602.433
1699328.0,1778927602.472
1698183.0,1778927602.513
1697730.0,1778927602.553
1697027.0,1778927602.592
1696573.0,1778927602.632
1695918.0,1778927602.673
1695668.0,1778927602.713
1695534.0,1778927602.753
1695312.0,1778927602.794
1695620.0,1778927602.834
1695716.0,1778927602.874
1695964.0,1778927602.916
1696468.0,1778927602.954
1696655.0,1778927602.993
1695589.0,1778927603.034
1693604.0,1778927603.073
1691944.0,1778927603.114
1690398.0,1778927603.155
1688986.0,1778927603.194
1687651.0,1778927603.234
1687018.0,1778927603.275
1686143.0,1778927603.315
1685417.0,1778927603.353
1684695.0,1778927603.394
1684042.0,1778927603.433
1683679.0,1778927603.474
1683047.0,1778927603.516
1682755.0,1778927603.554
1682334.0,1778927603.594
1682357.0,1778927603.636
1682090.0,1778927603.675
1681389.0,1778927603.714
1679747.0,1778927603.754
1677239.0,1778927603.794
1674440.0,1778927603.834
1672412.0,1778927603.875
1670434.0,1778927603.915
1668991.0,1778927603.955
1668010.0,1778927603.996
1666926.0,1778927604.033
1666061.0,1778927604.073
1665179.0,1778927604.115
1664477.0,1778927604.154
1664349.0,1778927604.194
1663878.0,1778927604.235
1664115.0,1778927604.275
1664193.0,1778927604.316
1664535.0,1778927604.356
1664627.0,1778927604.393
1664414.0,1778927604.434
1662660.0,1778927604.475
1660100.0,1778927604.515
1657862.0,1778927604.554
1656032.0,1778927604.596
1654966.0,1778927604.635
1653926.0,1778927604.675
1653290.0,1778927604.717
1652675.0,1778927604.754
1652555.0,1778927604.794
1652030.0,1778927604.834
1651865.0,1778927604.873
1652016.0,1778927604.914
1651933.0,1778927604.955
1652409.0,1778927604.994
1652843.0,1778927605.034
1653249.0,1778927605.076
1653931.0,1778927605.116
1653871.0,1778927605.155
1652109.0,1778927605.194
1649220.0,1778927605.234
1646218.0,1778927605.274
1643430.0,1778927605.316
1641525.0,1778927605.354
1639886.0,1778927605.396
1639019.0,1778927605.437
1638375.0,1778927605.476
1637515.0,1778927605.517
1637260.0,1778927605.557
1636615.0,1778927605.596
1636377.0,1778927605.636
1636535.0,1778927605.677
1636964.0,1778927605.717
1637127.0,1778927605.756
1637452.0,1778927605.797
1638196.0,1778927605.836
1638511.0,1778927605.877
1638140.0,1778927605.919
1636002.0,1778927605.958
1632155.0,1778927605.998
1628999.0,1778927606.037
1626097.0,1778927606.076
1623809.0,1778927606.117
1622168.0,1778927606.158
1621086.0,1778927606.197
1620290.0,1778927606.237
1619128.0,1778927606.279
1618099.0,1778927606.319
1617302.0,1778927606.358
1616881.0,1778927606.397
1616288.0,1778927606.437
1616041.0,1778927606.477
1615929.0,1778927606.519
1615901.0,1778927606.557
1615675.0,1778927606.598
1615797.0,1778927606.638
1614838.0,1778927606.677
1611949.0,1778927606.718
1608062.0,1778927606.759
1604460.0,1778927606.798
1601871.0,1778927606.838
1600009.0,1778927606.88
1598988.0,1778927606.917
1598363.0,1778927606.957
1597993.0,1778927606.998
1597283.0,1778927607.037
1596891.0,1778927607.078
1596971.0,1778927607.12
1596954.0,1778927607.158
1597425.0,1778927607.198
1597953.0,1778927607.24
1598469.0,1778927607.277
1599539.0,1778927607.318
1600275.0,1778927607.358
1600200.0,1778927607.398
1597992.0,1778927607.438
1594547.0,1778927607.479
1591120.0,1778927607.519
1588707.0,1778927607.559
1586544.0,1778927607.6
1585469.0,1778927607.637
1584767.0,1778927607.677
1584571.0,1778927607.718
1584158.0,1778927607.757
1583863.0,1778927607.797
1584086.0,1778927607.838
1584082.0,1778927607.878
1584555.0,1778927607.919
1585432.0,1778927607.959
1586034.0,1778927607.998
1586725.0,1778927608.039
1587964.0,1778927608.08
1588947.0,1778927608.12
1587529.0,1778927608.157
1584565.0,1778927608.199
1581436.0,1778927608.238
1578608.0,1778927608.278
1576306.0,1778927608.32
1574814.0,1778927608.359
1573934.0,1778927608.399
1573323.0,1778927608.44
1572873.0,1778927608.479
1572304.0,1778927608.518
1572144.0,1778927608.559
1571910.0,1778927608.598
1572072.0,1778927608.638
1572458.0,1778927608.68
1573238.0,1778927608.72
1573831.0,1778927608.759
1574491.0,1778927608.8
1574682.0,1778927608.838
1572181.0,1778927608.878
1567848.0,1778927608.92
1563375.0,1778927608.958
1560046.0,1778927608.999
1557372.0,1778927609.04
1554511.0,1778927609.12
1555456.0,1778927609.079
1553984.0,1778927609.161
1553241.0,1778927609.198
1552709.0,1778927609.238
1552300.0,1778927609.279
1551960.0,1778927609.319
1552118.0,1778927609.359
1552404.0,1778927609.4
1552957.0,1778927609.439
1553446.0,1778927609.48
1554265.0,1778927609.522
1553172.0,1778927609.558
1549972.0,1778927609.598
1545959.0,1778927609.64
1542767.0,1778927609.679
1540444.0,1778927609.72
1539417.0,1778927609.76
1538945.0,1778927609.8
1539151.0,1778927609.84
1539300.0,1778927609.879
1539621.0,1778927609.919
1539981.0,1778927609.959
1540294.0,1778927610.0
1541386.0,1778927610.039
1542397.0,1778927610.079
1543658.0,1778927610.121
1544907.0,1778927610.16
1546362.0,1778927610.2
1546493.0,1778927610.239
1544046.0,1778927610.279
1540144.0,1778927610.317
1536430.0,1778927610.358
1533736.0,1778927610.398
1532016.0,1778927610.438
1531201.0,1778927610.479
1531012.0,1778927610.519
1531231.0,1778927610.559
1531122.0,1778927610.6
1531340.0,1778927610.639
1531784.0,1778927610.68
1532430.0,1778927610.722
1533473.0,1778927610.76
1534717.0,1778927610.8
1536160.0,1778927610.84
1537567.0,1778927610.879
1538986.0,1778927610.92
1539492.0,1778927610.96
1537370.0,1778927611.0
1533656.0,1778927611.04
1529930.0,1778927611.081
1527405.0,1778927611.121
1525970.0,1778927611.161
1525071.0,1778927611.2
1525191.0,1778927611.239
1525255.0,1778927611.279
1525671.0,1778927611.322
1525799.0,1778927611.36
1526351.0,1778927611.4
1526973.0,1778927611.442
1528255.0,1778927611.481
1529251.0,1778927611.522
1530809.0,1778927611.56
1532141.0,1778927611.599
1533810.0,1778927611.64
1535296.0,1778927611.681
1536061.0,1778927611.721
1534304.0,1778927611.761
1530910.0,1778927611.802
1528011.0,1778927611.841
1525668.0,1778927611.879
1524155.0,1778927611.921
1523282.0,1778927611.96
1523781.0,1778927612.0
1524299.0,1778927612.041
1524794.0,1778927612.081
1525024.0,1778927612.122
1525653.0,1778927612.162
1526307.0,1778927612.201
1527305.0,1778927612.24
1528243.0,1778927612.281
1529710.0,1778927612.321
1531316.0,1778927612.36
1533292.0,1778927612.402
1535136.0,1778927612.441
1536916.0,1778927612.481
1536774.0,1778927612.523
1534761.0,1778927612.562
1532996.0,1778927612.6
1531827.0,1778927612.64
1532004.0,1778927612.72
1531721.0,1778927612.679
1534499.0,1778927612.804
1535751.0,1778927612.838
1532952.0,1778927612.761
1536991.0,1778927612.879
1538429.0,1778927612.919
1540255.0,1778927612.959
1542012.0,1778927613.001
1544275.0,1778927613.04
1546367.0,1778927613.08
1550964.0,1778927613.161
1548726.0,1778927613.122
1553312.0,1778927613.201
1555357.0,1778927613.241
1556799.0,1778927613.28
1556052.0,1778927613.321
1553955.0,1778927613.362
1552210.0,1778927613.401
1551340.0,1778927613.441
1550953.0,1778927613.483
1551412.0,1778927613.523
1552026.0,1778927613.562
1553237.0,1778927613.601
1554194.0,1778927613.641
1555339.0,1778927613.681
1556570.0,1778927613.723
1558114.0,1778927613.761
1559954.0,1778927613.802
1561859.0,1778927613.842
1563969.0,1778927613.881
1565914.0,1778927613.922
1567819.0,1778927613.963
1569905.0,1778927614.002
1571848.0,1778927614.042
1573367.0,1778927614.083
1572781.0,1778927614.121
1570825.0,1778927614.161
1569313.0,1778927614.202
1568395.0,1778927614.241
1567757.0,1778927614.282
1567846.0,1778927614.324
1568181.0,1778927614.362
1568803.0,1778927614.402
1569499.0,1778927614.444
1570132.0,1778927614.481
1570913.0,1778927614.522
1571811.0,1778927614.562
1572854.0,1778927614.601
1574242.0,1778927614.642
1575586.0,1778927614.683
1576929.0,1778927614.723
1578328.0,1778927614.763
1579910.0,1778927614.802
1581300.0,1778927614.841
1582026.0,1778927614.881
1580846.0,1778927614.923
1579435.0,1778927614.962
1578000.0,1778927615.002
1577445.0,1778927615.043
1577265.0,1778927615.083
1577784.0,1778927615.124
1578763.0,1778927615.162
1579974.0,1778927615.201
1581201.0,1778927615.242
1582328.0,1778927615.283
1583931.0,1778927615.323
1585490.0,1778927615.362
1587116.0,1778927615.403
1588982.0,1778927615.44
1591053.0,1778927615.481
1592858.0,1778927615.523
1595021.0,1778927615.561
1596916.0,1778927615.602
1598297.0,1778927615.642
1597839.0,1778927615.681
1596250.0,1778927615.722
1594892.0,1778927615.763
1594041.0,1778927615.802
1593581.0,1778927615.842
1593459.0,1778927615.884
1594017.0,1778927615.924
1594793.0,1778927615.963
1595438.0,1778927616.004
1596155.0,1778927616.042
1597334.0,1778927616.082
1598118.0,1778927616.124
1599597.0,1778927616.162
1600900.0,1778927616.202
1602198.0,1778927616.244
1603962.0,1778927616.283
1605425.0,1778927616.324
1606835.0,1778927616.364
1608196.0,1778927616.402
1608144.0,1778927616.442
1606379.0,1778927616.483
1604266.0,1778927616.523
1602591.0,1778927616.563
1601687.0,1778927616.604
1600702.0,1778927616.643
1600653.0,1778927616.684
1601167.0,1778927616.726
1601189.0,1778927616.762
1601589.0,1778927616.802
1601964.0,1778927616.843
1602450.0,1778927616.883
1602960.0,1778927616.924
1604066.0,1778927616.964
1604948.0,1778927617.003
1605809.0,1778927617.044
1607069.0,1778927617.085
1608116.0,1778927617.123
1608812.0,1778927617.162
1609329.0,1778927617.204
1608082.0,1778927617.243
1605587.0,1778927617.283
1603050.0,1778927617.325
1601289.0,1778927617.364
1599728.0,1778927617.409
1598774.0,1778927617.45
1598322.0,1778927617.489
1598323.0,1778927617.53
1598415.0,1778927617.57
1598300.0,1778927617.609
1598098.0,1778927617.649
1598278.0,1778927617.691
1598752.0,1778927617.73
1598870.0,1778927617.77
1599663.0,1778927617.811
1600272.0,1778927617.85
1601209.0,1778927617.888
1602194.0,1778927617.93
1602312.0,1778927617.968
1600865.0,1778927618.009
1598669.0,1778927618.05
1596935.0,1778927618.089
1595797.0,1778927618.13
1595171.0,1778927618.17
1595214.0,1778927618.21
1595692.0,1778927618.25
1596296.0,1778927618.291
1596624.0,1778927618.331
1597355.0,1778927618.369
1597861.0,1778927618.41
1599068.0,1778927618.449
1599982.0,1778927618.49
1601282.0,1778927618.532
1602493.0,1778927618.57
1603835.0,1778927618.61
1605131.0,1778927618.652
1606266.0,1778927618.691
1605470.0,1778927618.73
1602839.0,1778927618.77
1600320.0,1778927618.81
1598186.0,1778927618.85
1596489.0,1778927618.891
1595647.0,1778927618.931
1595196.0,1778927618.971
1595037.0,1778927619.012
1595113.0,1778927619.049
1595018.0,1778927619.089
1595355.0,1778927619.131
1595501.0,1778927619.17
1595989.0,1778927619.21
1596593.0,1778927619.25
1597441.0,1778927619.29
1598584.0,1778927619.33
1599346.0,1778927619.371
1600511.0,1778927619.41
1600791.0,1778927619.45
1598515.0,1778927619.492
1595404.0,1778927619.532
1592327.0,1778927619.571
1589844.0,1778927619.61
1588192.0,1778927619.65
1586943.0,1778927619.69
1586344.0,1778927619.732
1586065.0,1778927619.771
1585525.0,1778927619.811
1585260.0,1778927619.851
1585328.0,1778927619.89
1585337.0,1778927619.931
1585569.0,1778927619.972
1586436.0,1778927620.011
1586927.0,1778927620.051
1587752.0,1778927620.093
1588296.0,1778927620.13
1589183.0,1778927620.17
1589028.0,1778927620.211
1586422.0,1778927620.251
1582698.0,1778927620.291
1579119.0,1778927620.333
1576734.0,1778927620.371
1574867.0,1778927620.411
1573697.0,1778927620.453
1573257.0,1778927620.49
1572923.0,1778927620.53
1572678.0,1778927620.571
1572262.0,1778927620.61
1572148.0,1778927620.651
1572593.0,1778927620.692
1572954.0,1778927620.732
1573685.0,1778927620.771
1574439.0,1778927620.813
1575320.0,1778927620.85
1576337.0,1778927620.89
1577340.0,1778927620.932
1576553.0,1778927620.971
1574398.0,1778927621.011
1571520.0,1778927621.052
1569333.0,1778927621.092
1568134.0,1778927621.132
1567313.0,1778927621.173
1567546.0,1778927621.21
1568075.0,1778927621.25
1568519.0,1778927621.292
1569477.0,1778927621.332
1569913.0,1778927621.371
1571146.0,1778927621.412
1572146.0,1778927621.452
1573694.0,1778927621.492
1575206.0,1778927621.534
1576943.0,1778927621.57
1578529.0,1778927621.611
1580065.0,1778927621.651
1580770.0,1778927621.69
1579317.0,1778927621.731
1576715.0,1778927621.772
1574572.0,1778927621.811
1572797.0,1778927621.851
1571994.0,1778927621.893
1571802.0,1778927621.933
1571890.0,1778927621.972
1572432.0,1778927622.013
1572901.0,1778927622.051
1573451.0,1778927622.091
1574469.0,1778927622.133
1575357.0,1778927622.171
1576698.0,1778927622.212
1578096.0,1778927622.252
1579701.0,1778927622.291
1581699.0,1778927622.332
1583279.0,1778927622.373
1584981.0,1778927622.412
1586071.0,1778927622.452
1585061.0,1778927622.493
1583284.0,1778927622.533
1581497.0,1778927622.573
1580519.0,1778927622.612
1579532.0,1778927622.651
1579407.0,1778927622.691
1580107.0,1778927622.733
1580732.0,1778927622.772
1581234.0,1778927622.812
1582029.0,1778927622.854
1582699.0,1778927622.893
1583379.0,1778927622.932
1584498.0,1778927622.972
1585955.0,1778927623.012
1587124.0,1778927623.052
1588400.0,1778927623.092
1589821.0,1778927623.132
1591135.0,1778927623.171
1592366.0,1778927623.213
1592840.0,1778927623.253
1591731.0,1778927623.293
1590156.0,1778927623.335
1588770.0,1778927623.373
1588210.0,1778927623.411
1587917.0,1778927623.452
1588131.0,1778927623.491
1588531.0,1778927623.532
1589224.0,1778927623.572
1590101.0,1778927623.612
1590997.0,1778927623.652
1592003.0,1778927623.693
1593356.0,1778927623.733
1594860.0,1778927623.773
1596295.0,1778927623.814
1598299.0,1778927623.854
1599850.0,1778927623.892
1601850.0,1778927623.934
1603418.0,1778927623.972
1605179.0,1778927624.012
1605553.0,1778927624.054
1604995.0,1778927624.093
1604758.0,1778927624.134
1604861.0,1778927624.174
1605231.0,1778927624.214
1606133.0,1778927624.252
1606888.0,1778927624.293
1608267.0,1778927624.333
1609397.0,1778927624.373
1610596.0,1778927624.414
1612202.0,1778927624.453
1613440.0,1778927624.493
1615270.0,1778927624.535
1616993.0,1778927624.574
1618594.0,1778927624.612
1620395.0,1778927624.652
1622291.0,1778927624.692
1624052.0,1778927624.733
1626241.0,1778927624.773
1627619.0,1778927624.813
1627893.0,1778927624.853
1627565.0,1778927624.894
1627495.0,1778927624.934
1627705.0,1778927624.974
1627905.0,1778927625.015
1628285.0,1778927625.054
1628979.0,1778927625.092
1629766.0,1778927625.134
1630577.0,1778927625.173
1630420.0,1778927625.213
1630534.0,1778927625.253
1630863.0,1778927625.293
1631616.0,1778927625.333
1632627.0,1778927625.374
1633961.0,1778927625.413
1634887.0,1778927625.453
1636301.0,1778927625.495
1637910.0,1778927625.535
1639467.0,1778927625.574
1640585.0,1778927625.613
1641466.0,1778927625.652
1641403.0,1778927625.692
1641222.0,1778927625.734
1640871.0,1778927625.773
1640966.0,1778927625.813
1641024.0,1778927625.854
1641064.0,1778927625.894
1641727.0,1778927625.935
1642142.0,1778927625.975
1642356.0,1778927626.014
1642981.0,1778927626.055
1643521.0,1778927626.094
1644264.0,1778927626.134
1644877.0,1778927626.173
1645596.0,1778927626.215
1646492.0,1778927626.254
1647389.0,1778927626.294
1647830.0,1778927626.336
1648804.0,1778927626.375
1650320.0,1778927626.415
1651080.0,1778927626.454
1651597.0,1778927626.493
1651167.0,1778927626.534
1650843.0,1778927626.575
1650979.0,1778927626.614
1651310.0,1778927626.654
1651682.0,1778927626.695
1652080.0,1778927626.735
1652645.0,1778927626.773
1653822.0,1778927626.814
1654456.0,1778927626.854
1655679.0,1778927626.894
1656570.0,1778927626.936
1657497.0,1778927626.974
1658951.0,1778927627.015
1660070.0,1778927627.056
1661371.0,1778927627.095
1662337.0,1778927627.134
1663587.0,1778927627.175
1664616.0,1778927627.214
1664856.0,1778927627.254
1664257.0,1778927627.295
1663867.0,1778927627.335
1663668.0,1778927627.375
1663425.0,1778927627.416
1663385.0,1778927627.455
1663744.0,1778927627.493
1664149.0,1778927627.535
1664706.0,1778927627.574
1665098.0,1778927627.614
1665595.0,1778927627.656
1666305.0,1778927627.695
1667067.0,1778927627.736
1667770.0,1778927627.776
1668467.0,1778927627.814
1669382.0,1778927627.854
1670107.0,1778927627.895
1671111.0,1778927627.935
1671680.0,1778927627.975
1671909.0,1778927628.016
1671094.0,1778927628.055
1669802.0,1778927628.095
1669013.0,1778927628.137
1668281.0,1778927628.174
1667633.0,1778927628.213
1667266.0,1778927628.254
1667354.0,1778927628.293
1667003.0,1778927628.335
1667128.0,1778927628.375
1666987.0,1778927628.415
1666944.0,1778927628.455
1666813.0,1778927628.496
1666927.0,1778927628.536
1666977.0,1778927628.576
1667521.0,1778927628.617
1667529.0,1778927628.654
1667532.0,1778927628.694
1667648.0,1778927628.736
1666998.0,1778927628.775
1665482.0,1778927628.815
1663267.0,1778927628.856
1661218.0,1778927628.896
1659599.0,1778927628.937
1657914.0,1778927628.977
1657112.0,1778927629.014
1656152.0,1778927629.054
1655610.0,1778927629.096
1654450.0,1778927629.136
1653654.0,1778927629.175
1653021.0,1778927629.216
1652467.0,1778927629.256
1652005.0,1778927629.296
1651703.0,1778927629.338
1651563.0,1778927629.374
1651642.0,1778927629.413
1651635.0,1778927629.452
1651463.0,1778927629.491
1649854.0,1778927629.53
1647777.0,1778927629.569
1645489.0,1778927629.608
1643848.0,1778927629.647
1642976.0,1778927629.686
1642103.0,1778927629.725
1641746.0,1778927629.764
1641573.0,1778927629.803
1641402.0,1778927629.842
1641307.0,1778927629.881
1641207.0,1778927629.92
1641189.0,1778927629.959
1641662.0,1778927629.998
1641879.0,1778927630.037
1642837.0,1778927630.076
1643022.0,1778927630.115
1643542.0,1778927630.154
1643190.0,1778927630.193
1640751.0,1778927630.232
1637778.0,1778927630.271
1634490.0,1778927630.31
1629657.0,1778927630.388
1628427.0,1778927630.427
1631652.0,1778927630.349
1627205.0,1778927630.466
1626512.0,1778927630.505
1625672.0,1778927630.544
1624961.0,1778927630.583
1624522.0,1778927630.622
1624114.0,1778927630.7
1624283.0,1778927630.661
1624808.0,1778927630.778
1624444.0,1778927630.739
1624970.0,1778927630.856
1624845.0,1778927630.817
1623287.0,1778927630.895
1619567.0,1778927630.934
1615493.0,1778927630.973
1612275.0,1778927631.012
1609525.0,1778927631.051
1607302.0,1778927631.09
1605983.0,1778927631.129
1604830.0,1778927631.168
1603983.0,1778927631.208
1602904.0,1778927631.248
1602021.0,1778927631.288
1601570.0,1778927631.328
1601251.0,1778927631.368
1601030.0,1778927631.408
1601093.0,1778927631.448
1601316.0,1778927631.488
1601517.0,1778927631.528
1601124.0,1778927631.568
1598666.0,1778927631.608
1594308.0,1778927631.648
1589821.0,1778927631.688
1586272.0,1778927631.728
1583267.0,1778927631.768
1581209.0,1778927631.808
1580021.0,1778927631.848
1578853.0,1778927631.888
1577557.0,1778927631.928
1576774.0,1778927631.968
1575607.0,1778927632.008
1575012.0,1778927632.048
1574708.0,1778927632.088
1574809.0,1778927632.128
1574952.0,1778927632.168
1575395.0,1778927632.208
1575667.0,1778927632.248
1574349.0,1778927632.288
1571149.0,1778927632.328
1567170.0,1778927632.368
1564304.0,1778927632.408
1562093.0,1778927632.448
1560918.0,1778927632.488
1560764.0,1778927632.528
1560599.0,1778927632.568
1560757.0,1778927632.608
1560607.0,1778927632.648
1561091.0,1778927632.688
1561179.0,1778927632.728
1562089.0,1778927632.768
1563012.0,1778927632.808
1564119.0,1778927632.848
1565226.0,1778927632.888
1566442.0,1778927632.928
1566201.0,1778927632.968
1563604.0,1778927633.008
1559793.0,1778927633.048
1556391.0,1778927633.088
1554203.0,1778927633.128
1552541.0,1778927633.168
1551625.0,1778927633.208
1551729.0,1778927633.248
1551864.0,1778927633.288
1551956.0,1778927633.328
1552098.0,1778927633.368
1552611.0,1778927633.408
1553375.0,1778927633.448
1554276.0,1778927633.488
1555601.0,1778927633.528
1556877.0,1778927633.568
1558221.0,1778927633.608
1559503.0,1778927633.648
1559839.0,1778927633.688
1557666.0,1778927633.728
1554572.0,1778927633.768
1552433.0,1778927633.808
1550622.0,1778927633.848
1549649.0,1778927633.888
1549084.0,1778927633.928
1549186.0,1778927633.968
1549589.0,1778927634.008
1549524.0,1778927634.048
1549968.0,1778927634.088
1550573.0,1778927634.128
1551277.0,1778927634.168
1552473.0,1778927634.208
1553713.0,1778927634.248
1554978.0,1778927634.288
1556210.0,1778927634.328
1557814.0,1778927634.368
1559261.0,1778927634.408
1560154.0,1778927634.448
1559177.0,1778927634.488
1557094.0,1778927634.528
1555212.0,1778927634.568
1553799.0,1778927634.608
1553070.0,1778927634.648
1552976.0,1778927634.688
1553661.0,1778927634.728
1554633.0,1778927634.768
1555564.0,1778927634.808
1556472.0,1778927634.848
1557846.0,1778927634.888
1559553.0,1778927634.928
1561159.0,1778927634.968
