bvp,time
9.36,1534404559.5625
9.46,1534404559.578125
6.4,1534404559.59375
1.09,1534404559.609375
-5.02,1534404559.625
-10.47,1534404559.640625
-14.13,1534404559.65625
-15.33,1534404559.671875
-13.78,1534404559.6875
-9.54,1534404559.703125
-2.99,1534404559.71875
5.04,1534404559.734375
13.28,1534404559.75
20.17,1534404559.765625
24.21,1534404559.78125
24.33,1534404559.796875
20.27,1534404559.8125
12.73,1534404559.828125
3.17,1534404559.84375
-6.43,1534404559.859375
-14.15,1534404559.875
-18.58,1534404559.890625
-19.17,1534404559.90625
-16.33,1534404559.921875
-11.29,1534404559.9375
-5.75,1534404559.953125
-1.54,1534404559.96875
-0.17,1534404559.984375
-2.53,1534404560.0
-8.53,1534404560.015625
-17.15,1534404560.03125
-26.57,1534404560.046875
-34.77,1534404560.0625
-40.22,1534404560.078125
-42.44,1534404560.09375
-42.1,1534404560.109375
-40.59,1534404560.125
-39.32,1534404560.140625
-39.03,1534404560.15625
-39.79,1534404560.171875
-41.15,1534404560.1875
-42.68,1534404560.203125
-44.3,1534404560.21875
-46.17,1534404560.234375
-48.38,1534404560.25
-50.67,1534404560.265625
-52.33,1534404560.28125
-52.65,1534404560.296875
-51.23,1534404560.3125
-48.32,1534404560.328125
-44.8,1534404560.34375
-41.88,1534404560.359375
-40.73,1534404560.375
-42.0,1534404560.390625
-45.63,1534404560.40625
-50.75,1534404560.421875
-55.85,1534404560.4375
-59.38,1534404560.453125
-60.18,1534404560.46875
-58.08,1534404560.484375
-53.92,1534404560.5
-49.08,1534404560.515625
-44.73,1534404560.53125
-41.07,1534404560.546875
-37.0,1534404560.5625
-30.48,1534404560.578125
-19.18,1534404560.59375
-1.33,1534404560.609375
23.69,1534404560.625
55.36,1534404560.640625
92.29,1534404560.65625
132.59,1534404560.671875
174.45,1534404560.6875
216.38,1534404560.703125
257.43,1534404560.71875
297.03,1534404560.734375
334.86,1534404560.75
370.47,1534404560.765625
402.83,1534404560.78125
430.0,1534404560.796875
448.95,1534404560.8125
455.78,1534404560.828125
446.41,1534404560.84375
417.99,1534404560.859375
370.4,1534404560.875
307.09,1534404560.890625
234.66,1534404560.90625
160.96,1534404560.921875
92.53,1534404560.9375
32.6,1534404560.953125
-19.07,1534404560.96875
-64.64,1534404560.984375
-105.75,1534404561.0
-141.78,1534404561.015625
-170.0,1534404561.03125
-187.34,1534404561.046875
-192.7,1534404561.0625
-188.11,1534404561.078125
-178.02,1534404561.09375
-167.13,1534404561.109375
-158.21,1534404561.125
-151.14,1534404561.140625
-143.64,1534404561.15625
-133.27,1534404561.171875
-119.08,1534404561.1875
-102.26,1534404561.203125
-85.38,1534404561.21875
-71.08,1534404561.234375
-60.67,1534404561.25
-53.68,1534404561.265625
-48.53,1534404561.28125
-43.62,1534404561.296875
-38.29,1534404561.3125
-33.08,1534404561.328125
-29.19,1534404561.34375
-27.53,1534404561.359375
-28.02,1534404561.375
-29.48,1534404561.390625
-30.09,1534404561.40625
-28.23,1534404561.421875
-23.02,1534404561.4375
-14.63,1534404561.453125
-4.04,1534404561.46875
7.36,1534404561.484375
18.21,1534404561.5
27.33,1534404561.515625
33.74,1534404561.53125
36.56,1534404561.546875
34.96,1534404561.5625
28.45,1534404561.578125
17.23,1534404561.59375
2.39,1534404561.609375
-14.2,1534404561.625
-30.33,1534404561.640625
-44.02,1534404561.65625
-54.07,1534404561.671875
-60.12,1534404561.6875
-62.48,1534404561.703125
-61.8,1534404561.71875
-58.84,1534404561.734375
-54.41,1534404561.75
-49.47,1534404561.765625
-45.04,1534404561.78125
-42.1,1534404561.796875
-41.34,1534404561.8125
-43.02,1534404561.828125
-46.96,1534404561.84375
-52.7,1534404561.859375
-59.59,1534404561.875
-66.8,1534404561.890625
-73.28,1534404561.90625
-77.92,1534404561.921875
-79.76,1534404561.9375
-78.32,1534404561.953125
-73.79,1534404561.96875
-66.94,1534404561.984375
-58.77,1534404562.0
-50.08,1534404562.015625
-41.25,1534404562.03125
-32.23,1534404562.046875
-22.9,1534404562.0625
-13.35,1534404562.078125
-3.98,1534404562.09375
4.63,1534404562.109375
12.03,1534404562.125
18.04,1534404562.140625
22.8,1534404562.15625
26.45,1534404562.171875
28.98,1534404562.1875
30.11,1534404562.203125
29.5,1534404562.21875
27.02,1534404562.234375
22.98,1534404562.25
18.04,1534404562.265625
12.97,1534404562.28125
8.35,1534404562.296875
4.36,1534404562.3125
0.85,1534404562.328125
-2.5,1534404562.34375
-5.95,1534404562.359375
-9.64,1534404562.375
-13.5,1534404562.390625
-17.35,1534404562.40625
-20.89,1534404562.421875
-23.76,1534404562.4375
-25.72,1534404562.453125
-26.72,1534404562.46875
-26.78,1534404562.484375
-25.7,1534404562.5
-22.79,1534404562.515625
-17.1,1534404562.53125
-7.9,1534404562.546875
4.54,1534404562.5625
18.66,1534404562.578125
31.96,1534404562.59375
42.08,1534404562.609375
48.0,1534404562.625
50.45,1534404562.640625
51.49,1534404562.65625
53.21,1534404562.671875
56.52,1534404562.6875
60.74,1534404562.703125
64.19,1534404562.71875
65.3,1534404562.734375
63.59,1534404562.75
59.79,1534404562.765625
55.25,1534404562.78125
51.07,1534404562.796875
47.49,1534404562.8125
43.87,1534404562.828125
39.24,1534404562.84375
32.89,1534404562.859375
24.82,1534404562.875
15.76,1534404562.890625
6.85,1534404562.90625
-0.97,1534404562.921875
-7.28,1534404562.9375
-12.41,1534404562.953125
-17.11,1534404562.96875
-22.15,1534404562.984375
-27.8,1534404563.0
-33.65,1534404563.015625
-38.86,1534404563.03125
-42.62,1534404563.046875
-44.65,1534404563.0625
-45.37,1534404563.078125
-45.69,1534404563.09375
-46.47,1534404563.109375
-48.0,1534404563.125
-49.83,1534404563.140625
-50.98,1534404563.15625
-50.39,1534404563.171875
-47.5,1534404563.1875
-42.5,1534404563.203125
-36.18,1534404563.21875
-29.62,1534404563.234375
-23.64,1534404563.25
-18.65,1534404563.265625
-14.6,1534404563.28125
-11.27,1534404563.296875
-8.53,1534404563.3125
-6.47,1534404563.328125
-5.38,1534404563.34375
-5.43,1534404563.359375
-6.61,1534404563.375
-8.58,1534404563.390625
-10.85,1534404563.40625
-12.89,1534404563.421875
-14.36,1534404563.4375
-15.12,1534404563.453125
-15.23,1534404563.46875
-14.9,1534404563.484375
-14.37,1534404563.5
-13.91,1534404563.515625
-13.74,1534404563.53125
-14.01,1534404563.546875
-14.76,1534404563.5625
-15.9,1534404563.578125
-17.29,1534404563.59375
-18.74,1534404563.609375
-19.99,1534404563.625
-20.74,1534404563.640625
-20.71,1534404563.65625
-19.68,1534404563.671875
-17.62,1534404563.6875
-14.73,1534404563.703125
-11.38,1534404563.71875
-7.97,1534404563.734375
-4.75,1534404563.75
-1.75,1534404563.765625
1.15,1534404563.78125
4.05,1534404563.796875
6.94,1534404563.8125
9.59,1534404563.828125
11.74,1534404563.84375
13.19,1534404563.859375
13.91,1534404563.875
14.08,1534404563.890625
13.9,1534404563.90625
13.51,1534404563.921875
12.95,1534404563.9375
12.12,1534404563.953125
10.99,1534404563.96875
9.61,1534404563.984375
8.2,1534404564.0
6.97,1534404564.015625
6.14,1534404564.03125
5.73,1534404564.046875
5.61,1534404564.0625
5.54,1534404564.078125
5.23,1534404564.09375
4.42,1534404564.109375
2.99,1534404564.125
0.96,1534404564.140625
-1.43,1534404564.15625
-3.75,1534404564.171875
-5.43,1534404564.1875
-5.97,1534404564.203125
-5.08,1534404564.21875
-2.85,1534404564.234375
0.31,1534404564.25
3.83,1534404564.265625
7.33,1534404564.28125
10.8,1534404564.296875
14.63,1534404564.3125
19.41,1534404564.328125
25.49,1534404564.34375
32.71,1534404564.359375
40.29,1534404564.375
47.09,1534404564.390625
52.0,1534404564.40625
54.44,1534404564.421875
54.57,1534404564.4375
53.11,1534404564.453125
51.02,1534404564.46875
48.98,1534404564.484375
47.17,1534404564.5
45.24,1534404564.515625
42.53,1534404564.53125
38.37,1534404564.546875
32.37,1534404564.5625
24.47,1534404564.578125
15.01,1534404564.59375
4.76,1534404564.609375
-5.26,1534404564.625
-13.95,1534404564.640625
-20.44,1534404564.65625
-24.33,1534404564.671875
-25.83,1534404564.6875
-25.65,1534404564.703125
-24.65,1534404564.71875
-23.52,1534404564.734375
-22.61,1534404564.75
-21.93,1534404564.765625
-21.35,1534404564.78125
-20.82,1534404564.796875
-20.42,1534404564.8125
-20.36,1534404564.828125
-20.82,1534404564.84375
-21.85,1534404564.859375
-23.23,1534404564.875
-24.54,1534404564.890625
-25.24,1534404564.90625
-24.87,1534404564.921875
-23.24,1534404564.9375
-20.65,1534404564.953125
-17.86,1534404564.96875
-15.83,1534404564.984375
-15.42,1534404565.0
-16.97,1534404565.015625
-20.18,1534404565.03125
-24.15,1534404565.046875
-27.71,1534404565.0625
-29.8,1534404565.078125
-29.78,1534404565.09375
-27.64,1534404565.109375
-23.98,1534404565.125
-19.72,1534404565.140625
-15.62,1534404565.15625
-11.88,1534404565.171875
-7.94,1534404565.1875
-2.77,1534404565.203125
4.23,1534404565.21875
12.59,1534404565.234375
20.57,1534404565.25
25.78,1534404565.265625
26.42,1534404565.28125
22.35,1534404565.296875
15.37,1534404565.3125
8.41,1534404565.328125
4.05,1534404565.34375
3.53,1534404565.359375
6.53,1534404565.375
11.82,1534404565.390625
18.17,1534404565.40625
24.83,1534404565.421875
31.29,1534404565.4375
36.85,1534404565.453125
40.52,1534404565.46875
41.43,1534404565.484375
39.52,1534404565.5
35.87,1534404565.515625
32.3,1534404565.53125
30.37,1534404565.546875
30.39,1534404565.5625
31.2,1534404565.578125
30.8,1534404565.59375
27.48,1534404565.609375
20.76,1534404565.625
11.6,1534404565.640625
1.85,1534404565.65625
-6.58,1534404565.671875
-12.49,1534404565.6875
-15.56,1534404565.703125
-16.12,1534404565.71875
-14.88,1534404565.734375
-12.59,1534404565.75
-9.98,1534404565.765625
-7.69,1534404565.78125
-6.39,1534404565.796875
-6.6,1534404565.8125
-8.49,1534404565.828125
-11.78,1534404565.84375
-15.72,1534404565.859375
-19.31,1534404565.875
-21.66,1534404565.890625
-22.33,1534404565.90625
-21.54,1534404565.921875
-20.01,1534404565.9375
-18.64,1534404565.953125
-18.07,1534404565.96875
-18.38,1534404565.984375
-19.08,1534404566.0
-19.34,1534404566.015625
-18.43,1534404566.03125
-16.06,1534404566.046875
-12.47,1534404566.0625
-8.29,1534404566.078125
-4.27,1534404566.09375
-0.95,1534404566.109375
1.44,1534404566.125
3.04,1534404566.140625
4.11,1534404566.15625
4.9,1534404566.171875
5.51,1534404566.1875
5.85,1534404566.203125
5.77,1534404566.21875
5.1,1534404566.234375
3.81,1534404566.25
2.01,1534404566.265625
-0.1,1534404566.28125
-2.28,1534404566.296875
-4.33,1534404566.3125
-6.05,1534404566.328125
-7.29,1534404566.34375
-7.85,1534404566.359375
-7.58,1534404566.375
-6.44,1534404566.390625
-4.66,1534404566.40625
-2.7,1534404566.421875
-1.16,1534404566.4375
-0.62,1534404566.453125
-1.4,1534404566.46875
-3.5,1534404566.484375
-6.62,1534404566.5
-10.27,1534404566.515625
-13.89,1534404566.53125
-16.92,1534404566.546875
-18.93,1534404566.5625
-19.62,1534404566.578125
-18.9,1534404566.59375
-16.92,1534404566.609375
-14.06,1534404566.625
-10.73,1534404566.640625
-7.27,1534404566.65625
-3.85,1534404566.671875
-0.44,1534404566.6875
2.99,1534404566.703125
6.44,1534404566.71875
9.74,1534404566.734375
12.58,1534404566.75
14.64,1534404566.765625
15.72,1534404566.78125
15.73,1534404566.796875
14.77,1534404566.8125
13.1,1534404566.828125
11.07,1534404566.84375
9.09,1534404566.859375
7.55,1534404566.875
6.79,1534404566.890625
6.89,1534404566.90625
7.73,1534404566.921875
8.92,1534404566.9375
9.99,1534404566.953125
10.56,1534404566.96875
10.46,1534404566.984375
9.84,1534404567.0
9.03,1534404567.015625
8.41,1534404567.03125
8.21,1534404567.046875
8.5,1534404567.0625
9.15,1534404567.078125
9.96,1534404567.09375
10.71,1534404567.109375
11.3,1534404567.125
11.69,1534404567.140625
11.91,1534404567.15625
12.09,1534404567.171875
12.45,1534404567.1875
13.32,1534404567.203125
15.07,1534404567.21875
17.94,1534404567.234375
21.94,1534404567.25
26.7,1534404567.265625
31.54,1534404567.28125
35.72,1534404567.296875
38.56,1534404567.3125
39.66,1534404567.328125
38.82,1534404567.34375
35.98,1534404567.359375
31.07,1534404567.375
24.17,1534404567.390625
15.67,1534404567.40625
6.41,1534404567.421875
-2.38,1534404567.4375
-9.47,1534404567.453125
-14.05,1534404567.46875
-16.17,1534404567.484375
-16.57,1534404567.5
-16.38,1534404567.515625
-16.58,1534404567.53125
-17.6,1534404567.546875
-19.39,1534404567.5625
-21.69,1534404567.578125
-24.36,1534404567.59375
-27.43,1534404567.609375
-30.93,1534404567.625
-34.53,1534404567.640625
-37.49,1534404567.65625
-39.02,1534404567.671875
-38.71,1534404567.6875
-36.94,1534404567.703125
-34.77,1534404567.71875
-33.41,1534404567.734375
-33.41,1534404567.75
-34.25,1534404567.765625
-34.49,1534404567.78125
-32.36,1534404567.796875
-26.78,1534404567.8125
-17.92,1534404567.828125
-7.13,1534404567.84375
3.62,1534404567.859375
12.73,1534404567.875
19.44,1534404567.890625
23.97,1534404567.90625
26.87,1534404567.921875
28.49,1534404567.9375
28.75,1534404567.953125
27.5,1534404567.96875
24.96,1534404567.984375
22.06,1534404568.0
20.12,1534404568.015625
20.15,1534404568.03125
22.17,1534404568.046875
25.13,1534404568.0625
27.44,1534404568.078125
27.85,1534404568.09375
26.14,1534404568.109375
23.1,1534404568.125
19.94,1534404568.140625
17.48,1534404568.15625
15.77,1534404568.171875
14.13,1534404568.1875
11.73,1534404568.203125
8.06,1534404568.21875
3.16,1534404568.234375
-2.56,1534404568.25
-8.6,1534404568.265625
-14.57,1534404568.28125
-20.16,1534404568.296875
-25.12,1534404568.3125
-29.09,1534404568.328125
-31.72,1534404568.34375
-32.71,1534404568.359375
-32.01,1534404568.375
-29.86,1534404568.390625
-26.76,1534404568.40625
-23.3,1534404568.421875
-20.01,1534404568.4375
-17.19,1534404568.453125
-14.9,1534404568.46875
-13.06,1534404568.484375
-11.54,1534404568.5
-10.24,1534404568.515625
-9.18,1534404568.53125
-8.32,1534404568.546875
-7.64,1534404568.5625
-7.07,1534404568.578125
-6.53,1534404568.59375
-5.96,1534404568.609375
-5.37,1534404568.625
-4.81,1534404568.640625
-4.37,1534404568.65625
-4.14,1534404568.671875
-4.21,1534404568.6875
-4.6,1534404568.703125
-5.29,1534404568.71875
-6.2,1534404568.734375
-7.18,1534404568.75
-8.08,1534404568.765625
-8.8,1534404568.78125
-9.29,1534404568.796875
-9.59,1534404568.8125
-9.75,1534404568.828125
-9.82,1534404568.84375
-9.78,1534404568.859375
-9.55,1534404568.875
-8.98,1534404568.890625
-7.96,1534404568.90625
-6.44,1534404568.921875
-4.5,1534404568.9375
-2.31,1534404568.953125
-0.1,1534404568.96875
1.96,1534404568.984375
3.79,1534404569.0
5.4,1534404569.015625
6.82,1534404569.03125
8.0,1534404569.046875
8.82,1534404569.0625
9.08,1534404569.078125
8.71,1534404569.09375
7.79,1534404569.109375
6.64,1534404569.125
5.61,1534404569.140625
5.02,1534404569.15625
4.91,1534404569.171875
5.16,1534404569.1875
5.45,1534404569.203125
5.58,1534404569.21875
5.43,1534404569.234375
5.1,1534404569.25
4.7,1534404569.265625
4.32,1534404569.28125
3.91,1534404569.296875
3.39,1534404569.3125
2.63,1534404569.328125
1.62,1534404569.34375
0.38,1534404569.359375
-1.03,1534404569.375
-2.53,1534404569.390625
-3.98,1534404569.40625
-5.21,1534404569.421875
-5.92,1534404569.4375
-5.84,1534404569.453125
-4.8,1534404569.46875
-2.88,1534404569.484375
-0.4,1534404569.5
2.19,1534404569.515625
4.53,1534404569.53125
6.49,1534404569.546875
8.17,1534404569.5625
9.77,1534404569.578125
11.38,1534404569.59375
12.88,1534404569.609375
13.91,1534404569.625
14.13,1534404569.640625
13.38,1534404569.65625
11.84,1534404569.671875
9.97,1534404569.6875
8.32,1534404569.703125
7.33,1534404569.71875
7.15,1534404569.734375
7.59,1534404569.75
8.25,1534404569.765625
8.69,1534404569.78125
8.6,1534404569.796875
7.9,1534404569.8125
6.62,1534404569.828125
4.94,1534404569.84375
2.94,1534404569.859375
0.62,1534404569.875
-2.01,1534404569.890625
-4.98,1534404569.90625
-8.22,1534404569.921875
-11.62,1534404569.9375
-14.88,1534404569.953125
-17.64,1534404569.96875
-19.41,1534404569.984375
-19.67,1534404570.0
-18.08,1534404570.015625
-14.65,1534404570.03125
-9.84,1534404570.046875
-4.56,1534404570.0625
0.17,1534404570.078125
3.49,1534404570.09375
5.01,1534404570.109375
4.87,1534404570.125
3.52,1534404570.140625
1.44,1534404570.15625
-0.98,1534404570.171875
-3.48,1534404570.1875
-5.83,1534404570.203125
-7.82,1534404570.21875
-9.42,1534404570.234375
-10.98,1534404570.25
-13.2,1534404570.265625
-16.71,1534404570.28125
-21.46,1534404570.296875
-26.2,1534404570.3125
-28.7,1534404570.328125
-26.71,1534404570.34375
-19.15,1534404570.359375
-6.88,1534404570.375
7.55,1534404570.390625
21.1,1534404570.40625
31.64,1534404570.421875
38.67,1534404570.4375
42.99,1534404570.453125
45.75,1534404570.46875
47.36,1534404570.484375
47.42,1534404570.5
45.14,1534404570.515625
40.23,1534404570.53125
33.27,1534404570.546875
25.55,1534404570.5625
18.42,1534404570.578125
12.68,1534404570.59375
8.42,1534404570.609375
5.36,1534404570.625
3.26,1534404570.640625
2.06,1534404570.65625
1.8,1534404570.671875
2.37,1534404570.6875
3.38,1534404570.703125
4.33,1534404570.71875
4.73,1534404570.734375
4.38,1534404570.75
3.29,1534404570.765625
1.54,1534404570.78125
-0.73,1534404570.796875
-3.42,1534404570.8125
-6.39,1534404570.828125
-9.43,1534404570.84375
-12.3,1534404570.859375
-14.75,1534404570.875
-16.63,1534404570.890625
-17.95,1534404570.90625
-18.78,1534404570.921875
-19.25,1534404570.9375
-19.46,1534404570.953125
-19.49,1534404570.96875
-19.44,1534404570.984375
-19.42,1534404571.0
-19.55,1534404571.015625
-19.9,1534404571.03125
-20.44,1534404571.046875
-21.03,1534404571.0625
-21.42,1534404571.078125
-21.35,1534404571.09375
-20.56,1534404571.109375
-18.93,1534404571.125
-16.45,1534404571.140625
-13.24,1534404571.15625
-9.54,1534404571.171875
-5.63,1534404571.1875
-1.77,1534404571.203125
1.84,1534404571.21875
5.03,1534404571.234375
7.63,1534404571.25
9.48,1534404571.265625
10.45,1534404571.28125
10.52,1534404571.296875
9.82,1534404571.3125
8.6,1534404571.328125
7.14,1534404571.34375
5.69,1534404571.359375
4.33,1534404571.375
3.1,1534404571.390625
1.93,1534404571.40625
0.85,1534404571.421875
-0.03,1534404571.4375
-0.6,1534404571.453125
-0.72,1534404571.46875
-0.31,1534404571.484375
0.59,1534404571.5
1.77,1534404571.515625
2.89,1534404571.53125
3.53,1534404571.546875
3.32,1534404571.5625
2.09,1534404571.578125
-0.02,1534404571.59375
-2.61,1534404571.609375
-5.08,1534404571.625
-6.87,1534404571.640625
-7.61,1534404571.65625
-7.24,1534404571.671875
-5.93,1534404571.6875
-3.98,1534404571.703125
-1.69,1534404571.71875
0.75,1534404571.734375
3.21,1534404571.75
5.59,1534404571.765625
7.73,1534404571.78125
9.43,1534404571.796875
10.54,1534404571.8125
11.04,1534404571.828125
11.04,1534404571.84375
10.78,1534404571.859375
10.47,1534404571.875
10.17,1534404571.890625
9.78,1534404571.90625
9.14,1534404571.921875
8.14,1534404571.9375
6.82,1534404571.953125
5.39,1534404571.96875
4.13,1534404571.984375
3.27,1534404572.0
2.92,1534404572.015625
3.1,1534404572.03125
3.67,1534404572.046875
4.44,1534404572.0625
5.26,1534404572.078125
5.99,1534404572.09375
6.5,1534404572.109375
6.7,1534404572.125
6.55,1534404572.140625
5.98,1534404572.15625
5.06,1534404572.171875
3.94,1534404572.1875
2.92,1534404572.203125
2.41,1534404572.21875
2.77,1534404572.234375
4.18,1534404572.25
6.63,1534404572.265625
9.85,1534404572.28125
13.48,1534404572.296875
17.17,1534404572.3125
20.68,1534404572.328125
23.86,1534404572.34375
26.52,1534404572.359375
28.49,1534404572.375
29.52,1534404572.390625
29.41,1534404572.40625
28.18,1534404572.421875
25.98,1534404572.4375
23.1,1534404572.453125
19.79,1534404572.46875
16.18,1534404572.484375
12.27,1534404572.5
8.08,1534404572.515625
3.75,1534404572.53125
-0.42,1534404572.546875
-4.0,1534404572.5625
-6.69,1534404572.578125
-8.38,1534404572.59375
-9.2,1534404572.609375
-9.45,1534404572.625
-9.48,1534404572.640625
-9.6,1534404572.65625
-10.05,1534404572.671875
-10.98,1534404572.6875
-12.45,1534404572.703125
-14.33,1534404572.71875
-16.28,1534404572.734375
-17.77,1534404572.75
-18.35,1534404572.765625
-17.87,1534404572.78125
-16.67,1534404572.796875
-15.39,1534404572.8125
-14.67,1534404572.828125
-14.78,1534404572.84375
-15.38,1534404572.859375
-15.76,1534404572.875
-15.28,1534404572.890625
-13.73,1534404572.90625
-11.5,1534404572.921875
-9.44,1534404572.9375
-8.39,1534404572.953125
-8.66,1534404572.96875
-10.01,1534404572.984375
-11.66,1534404573.0
-12.85,1534404573.015625
-13.23,1534404573.03125
-13.12,1534404573.046875
-13.43,1534404573.0625
-15.21,1534404573.078125
-19.08,1534404573.09375
-24.84,1534404573.109375
-31.37,1534404573.125
-36.99,1534404573.140625
-40.1,1534404573.15625
-39.7,1534404573.171875
-35.77,1534404573.1875
-29.17,1534404573.203125
-21.34,1534404573.21875
-13.81,1534404573.234375
-7.84,1534404573.25
-4.19,1534404573.265625
-3.0,1534404573.28125
-3.82,1534404573.296875
-5.65,1534404573.3125
-7.06,1534404573.328125
-6.44,1534404573.34375
-2.49,1534404573.359375
5.19,1534404573.375
15.79,1534404573.390625
27.39,1534404573.40625
37.62,1534404573.421875
44.65,1534404573.4375
47.9,1534404573.453125
48.24,1534404573.46875
47.4,1534404573.484375
47.0,1534404573.5
47.72,1534404573.515625
49.11,1534404573.53125
50.08,1534404573.546875
49.79,1534404573.5625
48.12,1534404573.578125
45.82,1534404573.59375
43.81,1534404573.609375
42.53,1534404573.625
41.63,1534404573.640625
40.12,1534404573.65625
36.93,1534404573.671875
31.58,1534404573.6875
24.33,1534404573.703125
16.1,1534404573.71875
7.96,1534404573.734375
0.71,1534404573.75
-5.41,1534404573.765625
-10.62,1534404573.78125
-15.39,1534404573.796875
-20.09,1534404573.8125
-24.77,1534404573.828125
-29.13,1534404573.84375
-32.63,1534404573.859375
-34.75,1534404573.875
-35.18,1534404573.890625
-33.99,1534404573.90625
-31.6,1534404573.921875
-28.62,1534404573.9375
-25.64,1534404573.953125
-23.02,1534404573.96875
-20.82,1534404573.984375
-18.88,1534404574.0
-16.94,1534404574.015625
-14.88,1534404574.03125
-12.82,1534404574.046875
-11.04,1534404574.0625
-9.85,1534404574.078125
-9.34,1534404574.09375
-9.33,1534404574.109375
-9.43,1534404574.125
-9.23,1534404574.140625
-8.47,1534404574.15625
-7.16,1534404574.171875
-5.56,1534404574.1875
-3.98,1534404574.203125
-2.7,1534404574.21875
-1.89,1534404574.234375
-1.56,1534404574.25
-1.63,1534404574.265625
-1.84,1534404574.28125
-1.95,1534404574.296875
-1.72,1534404574.3125
-1.1,1534404574.328125
-0.31,1534404574.34375
0.28,1534404574.359375
0.24,1534404574.375
-0.62,1534404574.390625
-2.15,1534404574.40625
-3.89,1534404574.421875
-5.25,1534404574.4375
-5.75,1534404574.453125
-5.27,1534404574.46875
-4.0,1534404574.484375
-2.34,1534404574.5
-0.66,1534404574.515625
0.84,1534404574.53125
2.19,1534404574.546875
3.49,1534404574.5625
4.84,1534404574.578125
6.21,1534404574.59375
7.41,1534404574.609375
8.24,1534404574.625
8.59,1534404574.640625
8.51,1534404574.65625
8.2,1534404574.671875
7.84,1534404574.6875
7.52,1534404574.703125
7.22,1534404574.71875
6.81,1534404574.734375
6.2,1534404574.75
5.38,1534404574.765625
4.47,1534404574.78125
3.61,1534404574.796875
2.92,1534404574.8125
2.44,1534404574.828125
2.12,1534404574.84375
1.93,1534404574.859375
1.79,1534404574.875
1.61,1534404574.890625
1.26,1534404574.90625
0.6,1534404574.921875
-0.42,1534404574.9375
-1.72,1534404574.953125
-3.01,1534404574.96875
-3.89,1534404574.984375
-4.0,1534404575.0
-3.19,1534404575.015625
-1.59,1534404575.03125
0.45,1534404575.046875
2.55,1534404575.0625
4.46,1534404575.078125
6.15,1534404575.09375
7.74,1534404575.109375
9.38,1534404575.125
11.13,1534404575.140625
12.88,1534404575.15625
14.49,1534404575.171875
15.73,1534404575.1875
16.5,1534404575.203125
16.76,1534404575.21875
16.55,1534404575.234375
15.93,1534404575.25
14.9,1534404575.265625
13.49,1534404575.28125
11.78,1534404575.296875
9.85,1534404575.3125
7.84,1534404575.328125
5.84,1534404575.34375
3.88,1534404575.359375
1.95,1534404575.375
0.04,1534404575.390625
-1.86,1534404575.40625
-3.66,1534404575.421875
-5.21,1534404575.4375
-6.42,1534404575.453125
-7.32,1534404575.46875
-8.14,1534404575.484375
-9.19,1534404575.5
-10.72,1534404575.515625
-12.76,1534404575.53125
-15.03,1534404575.546875
-16.99,1534404575.5625
-18.06,1534404575.578125
-17.83,1534404575.59375
-16.2,1534404575.609375
-13.29,1534404575.625
-9.29,1534404575.640625
-4.09,1534404575.65625
2.6,1534404575.671875
11.1,1534404575.6875
21.32,1534404575.703125
32.49,1534404575.71875
43.22,1534404575.734375
51.8,1534404575.75
56.93,1534404575.765625
58.16,1534404575.78125
56.06,1534404575.796875
51.84,1534404575.8125
46.7,1534404575.828125
41.3,1534404575.84375
35.59,1534404575.859375
29.17,1534404575.875
21.78,1534404575.890625
13.74,1534404575.90625
5.9,1534404575.921875
-0.73,1534404575.9375
-5.6,1534404575.953125
-8.79,1534404575.96875
-11.04,1534404575.984375
-13.29,1534404576.0
-16.26,1534404576.015625
-20.14,1534404576.03125
-24.64,1534404576.046875
-29.23,1534404576.0625
-33.41,1534404576.078125
-36.92,1534404576.09375
-39.62,1534404576.109375
-41.41,1534404576.125
-42.21,1534404576.140625
-41.89,1534404576.15625
-40.34,1534404576.171875
-37.67,1534404576.1875
-34.13,1534404576.203125
-30.15,1534404576.21875
-26.2,1534404576.234375
-22.7,1534404576.25
-19.94,1534404576.265625
-18.0,1534404576.28125
-16.8,1534404576.296875
-16.08,1534404576.3125
-15.62,1534404576.328125
-15.26,1534404576.34375
-14.95,1534404576.359375
-14.78,1534404576.375
-14.81,1534404576.390625
-15.06,1534404576.40625
-15.48,1534404576.421875
-15.88,1534404576.4375
-15.97,1534404576.453125
-15.48,1534404576.46875
-14.18,1534404576.484375
-11.96,1534404576.5
-8.91,1534404576.515625
-5.31,1534404576.53125
-1.59,1534404576.546875
1.83,1534404576.5625
4.55,1534404576.578125
6.34,1534404576.59375
7.12,1534404576.609375
6.89,1534404576.625
5.74,1534404576.640625
3.88,1534404576.65625
1.71,1534404576.671875
-0.25,1534404576.6875
-1.42,1534404576.703125
-1.45,1534404576.71875
-0.29,1534404576.734375
1.7,1534404576.75
3.95,1534404576.765625
5.96,1534404576.78125
7.49,1534404576.796875
8.64,1534404576.8125
9.63,1534404576.828125
10.68,1534404576.84375
11.77,1534404576.859375
12.71,1534404576.875
13.18,1534404576.890625
13.04,1534404576.90625
12.28,1534404576.921875
11.11,1534404576.9375
9.77,1534404576.953125
8.41,1534404576.96875
7.05,1534404576.984375
5.62,1534404577.0
4.12,1534404577.015625
2.6,1534404577.03125
1.21,1534404577.046875
0.1,1534404577.0625
-0.62,1534404577.078125
-0.97,1534404577.09375
-1.03,1534404577.109375
-0.95,1534404577.125
-0.88,1534404577.140625
-1.02,1534404577.15625
-1.51,1534404577.171875
-2.47,1534404577.1875
-3.86,1534404577.203125
-5.47,1534404577.21875
-6.91,1534404577.234375
-7.71,1534404577.25
-7.56,1534404577.265625
-6.43,1534404577.28125
-4.59,1534404577.296875
-2.5,1534404577.3125
-0.5,1534404577.328125
1.28,1534404577.34375
2.97,1534404577.359375
4.82,1534404577.375
6.97,1534404577.390625
9.3,1534404577.40625
11.51,1534404577.421875
13.22,1534404577.4375
14.2,1534404577.453125
14.47,1534404577.46875
14.27,1534404577.484375
13.88,1534404577.5
13.51,1534404577.515625
13.17,1534404577.53125
12.73,1534404577.546875
12.0,1534404577.5625
10.82,1534404577.578125
9.15,1534404577.59375
7.08,1534404577.609375
4.77,1534404577.625
2.41,1534404577.640625
0.17,1534404577.65625
-1.87,1534404577.671875
-3.71,1534404577.6875
-5.44,1534404577.703125
-7.12,1534404577.71875
-8.79,1534404577.734375
-10.36,1534404577.75
-11.59,1534404577.765625
-12.24,1534404577.78125
-12.09,1534404577.796875
-11.08,1534404577.8125
-9.34,1534404577.828125
-7.2,1534404577.84375
-5.04,1534404577.859375
-3.23,1534404577.875
-2.02,1534404577.890625
-1.5,1534404577.90625
-1.48,1534404577.921875
-1.37,1534404577.9375
-0.29,1534404577.953125
2.64,1534404577.96875
7.76,1534404577.984375
14.45,1534404578.0
21.03,1534404578.015625
25.33,1534404578.03125
25.59,1534404578.046875
21.4,1534404578.0625
13.96,1534404578.078125
5.65,1534404578.09375
-1.08,1534404578.109375
-4.69,1534404578.125
-5.04,1534404578.140625
-3.17,1534404578.15625
-0.41,1534404578.171875
2.27,1534404578.1875
4.58,1534404578.203125
6.63,1534404578.21875
8.48,1534404578.234375
9.84,1534404578.25
10.19,1534404578.265625
9.12,1534404578.28125
6.69,1534404578.296875
3.47,1534404578.3125
0.35,1534404578.328125
-2.02,1534404578.34375
-3.39,1534404578.359375
-4.0,1534404578.375
-4.37,1534404578.390625
-4.86,1534404578.40625
-5.56,1534404578.421875
-6.25,1534404578.4375
-6.6,1534404578.453125
-6.37,1534404578.46875
-5.55,1534404578.484375
-4.31,1534404578.5
-2.95,1534404578.515625
-1.81,1534404578.53125
-1.17,1534404578.546875
-1.25,1534404578.5625
-2.1,1534404578.578125
-3.55,1534404578.59375
-5.29,1534404578.609375
-6.88,1534404578.625
-7.97,1534404578.640625
-8.39,1534404578.65625
-8.27,1534404578.671875
-7.98,1534404578.6875
-7.94,1534404578.703125
-8.44,1534404578.71875
-9.5,1534404578.734375
-10.85,1534404578.75
-11.98,1534404578.765625
-12.45,1534404578.78125
-12.02,1534404578.796875
-10.8,1534404578.8125
-9.17,1534404578.828125
-7.61,1534404578.84375
-6.48,1534404578.859375
-5.96,1534404578.875
-5.99,1534404578.890625
-6.4,1534404578.90625
-6.92,1534404578.921875
-7.26,1534404578.9375
-7.14,1534404578.953125
-6.36,1534404578.96875
-4.84,1534404578.984375
-2.74,1534404579.0
-0.38,1534404579.015625
1.81,1534404579.03125
3.51,1534404579.046875
4.61,1534404579.0625
5.2,1534404579.078125
5.48,1534404579.09375
5.6,1534404579.109375
5.6,1534404579.125
5.39,1534404579.140625
4.88,1534404579.15625
4.1,1534404579.171875
3.2,1534404579.1875
2.36,1534404579.203125
1.72,1534404579.21875
1.27,1534404579.234375
0.93,1534404579.25
0.5,1534404579.265625
-0.08,1534404579.28125
-0.77,1534404579.296875
-1.41,1534404579.3125
-1.82,1534404579.328125
-1.94,1534404579.34375
-1.79,1534404579.359375
-1.55,1534404579.375
-1.35,1534404579.390625
-1.38,1534404579.40625
-1.7,1534404579.421875
-2.33,1534404579.4375
-3.23,1534404579.453125
-4.22,1534404579.46875
-5.04,1534404579.484375
-5.34,1534404579.5
-4.83,1534404579.515625
-3.37,1534404579.53125
-1.07,1534404579.546875
1.79,1534404579.5625
4.84,1534404579.578125
7.81,1534404579.59375
10.56,1534404579.609375
13.04,1534404579.625
15.15,1534404579.640625
16.71,1534404579.65625
17.5,1534404579.671875
17.38,1534404579.6875
16.44,1534404579.703125
15.04,1534404579.71875
13.67,1534404579.734375
12.77,1534404579.75
12.47,1534404579.765625
12.59,1534404579.78125
12.74,1534404579.796875
12.51,1534404579.8125
11.72,1534404579.828125
10.43,1534404579.84375
8.97,1534404579.859375
7.73,1534404579.875
7.0,1534404579.890625
6.84,1534404579.90625
7.08,1534404579.921875
7.39,1534404579.9375
7.45,1534404579.953125
7.08,1534404579.96875
6.24,1534404579.984375
5.05,1534404580.0
3.66,1534404580.015625
2.24,1534404580.03125
0.95,1534404580.046875
-0.02,1534404580.0625
-0.5,1534404580.078125
-0.37,1534404580.09375
0.3,1534404580.109375
1.19,1534404580.125
1.76,1534404580.140625
1.47,1534404580.15625
0.04,1534404580.171875
-2.46,1534404580.1875
-5.52,1534404580.203125
-8.51,1534404580.21875
-10.87,1534404580.234375
-12.33,1534404580.25
-12.92,1534404580.265625
-12.91,1534404580.28125
-12.63,1534404580.296875
-12.42,1534404580.3125
-12.56,1534404580.328125
-13.25,1534404580.34375
-14.59,1534404580.359375
-16.48,1534404580.375
-18.59,1534404580.390625
-20.36,1534404580.40625
-21.2,1534404580.421875
-20.75,1534404580.4375
-18.96,1534404580.453125
-16.24,1534404580.46875
-13.25,1534404580.484375
-10.65,1534404580.5
-8.9,1534404580.515625
-8.12,1534404580.53125
-8.09,1534404580.546875
-8.36,1534404580.5625
-8.41,1534404580.578125
-7.77,1534404580.59375
-6.19,1534404580.609375
-3.72,1534404580.625
-0.78,1534404580.640625
2.02,1534404580.65625
4.13,1534404580.671875
5.27,1534404580.6875
5.65,1534404580.703125
5.78,1534404580.71875
6.33,1534404580.734375
7.77,1534404580.75
10.26,1534404580.765625
13.59,1534404580.78125
17.38,1534404580.796875
21.15,1534404580.8125
24.37,1534404580.828125
26.52,1534404580.84375
27.08,1534404580.859375
25.69,1534404580.875
22.25,1534404580.890625
17.05,1534404580.90625
10.63,1534404580.921875
3.67,1534404580.9375
-3.19,1534404580.953125
-9.48,1534404580.96875
-14.88,1534404580.984375
-19.16,1534404581.0
-22.2,1534404581.015625
-23.96,1534404581.03125
-24.57,1534404581.046875
-24.35,1534404581.0625
-23.73,1534404581.078125
-23.19,1534404581.09375
-23.06,1534404581.109375
-23.38,1534404581.125
-23.93,1534404581.140625
-24.22,1534404581.15625
-23.81,1534404581.171875
-22.42,1534404581.1875
-20.08,1534404581.203125
-17.08,1534404581.21875
-13.83,1534404581.234375
-10.68,1534404581.25
-7.72,1534404581.265625
-4.85,1534404581.28125
-1.91,1534404581.296875
1.17,1534404581.3125
4.28,1534404581.328125
7.09,1534404581.34375
9.24,1534404581.359375
10.52,1534404581.375
10.96,1534404581.390625
10.81,1534404581.40625
10.41,1534404581.421875
10.08,1534404581.4375
9.92,1534404581.453125
9.86,1534404581.46875
9.7,1534404581.484375
9.25,1534404581.5
8.44,1534404581.515625
7.36,1534404581.53125
6.18,1534404581.546875
5.12,1534404581.5625
4.28,1534404581.578125
3.65,1534404581.59375
3.2,1534404581.609375
2.82,1534404581.625
2.46,1534404581.640625
2.08,1534404581.65625
1.55,1534404581.671875
0.76,1534404581.6875
-0.42,1534404581.703125
-1.96,1534404581.71875
-3.62,1534404581.734375
-4.97,1534404581.75
-5.57,1534404581.765625
-5.14,1534404581.78125
-3.73,1534404581.796875
-1.66,1534404581.8125
0.61,1534404581.828125
2.78,1534404581.84375
4.75,1534404581.859375
6.6,1534404581.875
8.5,1534404581.890625
10.45,1534404581.90625
12.23,1534404581.921875
13.47,1534404581.9375
13.84,1534404581.953125
13.19,1534404581.96875
11.68,1534404581.984375
9.65,1534404582.0
7.47,1534404582.015625
5.41,1534404582.03125
3.53,1534404582.046875
1.75,1534404582.0625
0.06,1534404582.078125
-1.48,1534404582.09375
-2.67,1534404582.109375
-3.28,1534404582.125
-3.25,1534404582.140625
-2.71,1534404582.15625
-1.95,1534404582.171875
-1.23,1534404582.1875
-0.7,1534404582.203125
-0.3,1534404582.21875
0.09,1534404582.234375
0.57,1534404582.25
1.16,1534404582.265625
1.77,1534404582.28125
2.41,1534404582.296875
3.16,1534404582.3125
4.23,1534404582.328125
5.82,1534404582.34375
8.03,1534404582.359375
10.74,1534404582.375
13.73,1534404582.390625
16.72,1534404582.40625
19.53,1534404582.421875
22.08,1534404582.4375
24.36,1534404582.453125
26.39,1534404582.46875
28.11,1534404582.484375
29.45,1534404582.5
30.31,1534404582.515625
30.61,1534404582.53125
30.29,1534404582.546875
29.29,1534404582.5625
27.54,1534404582.578125
24.95,1534404582.59375
21.53,1534404582.609375
17.35,1534404582.625
12.61,1534404582.640625
7.45,1534404582.65625
2.06,1534404582.671875
-3.41,1534404582.6875
-8.69,1534404582.703125
-13.31,1534404582.71875
-16.66,1534404582.734375
-18.14,1534404582.75
-17.49,1534404582.765625
-14.91,1534404582.78125
-11.17,1534404582.796875
-7.32,1534404582.8125
-4.33,1534404582.828125
-2.79,1534404582.84375
-2.77,1534404582.859375
-3.92,1534404582.875
-5.71,1534404582.890625
-7.72,1534404582.90625
-9.69,1534404582.921875
-11.5,1534404582.9375
-13.03,1534404582.953125
-14.09,1534404582.96875
-14.41,1534404582.984375
-13.86,1534404583.0
-12.49,1534404583.015625
-10.62,1534404583.03125
-8.71,1534404583.046875
-7.15,1534404583.0625
-6.16,1534404583.078125
-5.76,1534404583.09375
-5.79,1534404583.109375
-6.14,1534404583.125
-6.74,1534404583.140625
-7.67,1534404583.15625
-8.95,1534404583.171875
-10.58,1534404583.1875
-12.36,1534404583.203125
-14.04,1534404583.21875
-15.32,1534404583.234375
-16.06,1534404583.25
-16.23,1534404583.265625
-15.91,1534404583.28125
-15.24,1534404583.296875
-14.31,1534404583.3125
-13.18,1534404583.328125
-11.88,1534404583.34375
-10.52,1534404583.359375
-9.25,1534404583.375
-8.26,1534404583.390625
-7.71,1534404583.40625
-7.63,1534404583.421875
-7.9,1534404583.4375
-8.26,1534404583.453125
-8.41,1534404583.46875
-8.16,1534404583.484375
-7.41,1534404583.5
-6.22,1534404583.515625
-4.72,1534404583.53125
-3.02,1534404583.546875
-1.21,1534404583.5625
0.73,1534404583.578125
2.81,1534404583.59375
5.04,1534404583.609375
7.3,1534404583.625
9.35,1534404583.640625
10.84,1534404583.65625
11.46,1534404583.671875
11.1,1534404583.6875
9.91,1534404583.703125
8.27,1534404583.71875
6.69,1534404583.734375
5.52,1534404583.75
4.84,1534404583.765625
4.47,1534404583.78125
4.07,1534404583.796875
3.34,1534404583.8125
2.22,1534404583.828125
0.88,1534404583.84375
-0.39,1534404583.859375
-1.37,1534404583.875
-2.0,1534404583.890625
-2.42,1534404583.90625
-2.85,1534404583.921875
-3.51,1534404583.9375
-4.48,1534404583.953125
-5.71,1534404583.96875
-7.05,1534404583.984375
-8.3,1534404584.0
-9.29,1534404584.015625
-9.81,1534404584.03125
-9.72,1534404584.046875
-8.94,1534404584.0625
-7.53,1534404584.078125
-5.69,1534404584.09375
-3.67,1534404584.109375
-1.71,1534404584.125
0.05,1534404584.140625
1.56,1534404584.15625
2.89,1534404584.171875
4.11,1534404584.1875
5.25,1534404584.203125
6.3,1534404584.21875
7.19,1534404584.234375
7.83,1534404584.25
8.16,1534404584.265625
8.14,1534404584.28125
7.84,1534404584.296875
7.38,1534404584.3125
6.92,1534404584.328125
6.61,1534404584.34375
6.52,1534404584.359375
6.59,1534404584.375
6.69,1534404584.390625
6.65,1534404584.40625
6.35,1534404584.421875
5.77,1534404584.4375
5.02,1534404584.453125
4.25,1534404584.46875
3.65,1534404584.484375
3.26,1534404584.5
3.07,1534404584.515625
2.97,1534404584.53125
2.84,1534404584.546875
2.57,1534404584.5625
2.13,1534404584.578125
1.61,1534404584.59375
1.26,1534404584.609375
1.39,1534404584.625
2.31,1534404584.640625
4.18,1534404584.65625
6.93,1534404584.671875
10.2,1534404584.6875
13.41,1534404584.703125
16.06,1534404584.71875
17.87,1534404584.734375
18.95,1534404584.75
19.66,1534404584.765625
20.36,1534404584.78125
21.13,1534404584.796875
21.68,1534404584.8125
21.55,1534404584.828125
20.43,1534404584.84375
18.32,1534404584.859375
15.61,1534404584.875
12.8,1534404584.890625
10.21,1534404584.90625
7.91,1534404584.921875
5.76,1534404584.9375
3.62,1534404584.953125
1.65,1534404584.96875
0.16,1534404584.984375
-0.57,1534404585.0
-0.56,1534404585.015625
-0.24,1534404585.03125
-0.29,1534404585.046875
-1.22,1534404585.0625
-3.1,1534404585.078125
-5.45,1534404585.09375
-7.51,1534404585.109375
-8.58,1534404585.125
-8.38,1534404585.140625
-7.15,1534404585.15625
-5.36,1534404585.171875
-3.55,1534404585.1875
-2.04,1534404585.203125
-0.92,1534404585.21875
-0.2,1534404585.234375
0.05,1534404585.25
-0.32,1534404585.265625
-1.43,1534404585.28125
-3.2,1534404585.296875
-5.27,1534404585.3125
-7.1,1534404585.328125
-8.2,1534404585.34375
-8.4,1534404585.359375
-7.92,1534404585.375
-7.24,1534404585.390625
-6.94,1534404585.40625
-7.34,1534404585.421875
-8.48,1534404585.4375
-10.11,1534404585.453125
-11.8,1534404585.46875
-13.22,1534404585.484375
-14.15,1534404585.5
-14.63,1534404585.515625
-14.76,1534404585.53125
-14.74,1534404585.546875
-14.77,1534404585.5625
-15.04,1534404585.578125
-15.63,1534404585.59375
-16.5,1534404585.609375
-17.41,1534404585.625
-18.01,1534404585.640625
-17.94,1534404585.65625
-17.0,1534404585.671875
-15.34,1534404585.6875
-13.3,1534404585.703125
-11.36,1534404585.71875
-9.91,1534404585.734375
-9.09,1534404585.75
-8.79,1534404585.765625
-8.77,1534404585.78125
-8.8,1534404585.796875
-8.78,1534404585.8125
-8.66,1534404585.828125
-8.37,1534404585.84375
-7.74,1534404585.859375
-6.64,1534404585.875
-4.99,1534404585.890625
-2.93,1534404585.90625
-0.76,1534404585.921875
1.13,1534404585.9375
2.49,1534404585.953125
3.3,1534404585.96875
3.74,1534404585.984375
4.1,1534404586.0
4.55,1534404586.015625
5.09,1534404586.03125
5.54,1534404586.046875
5.68,1534404586.0625
5.37,1534404586.078125
4.62,1534404586.09375
3.65,1534404586.109375
2.66,1534404586.125
1.93,1534404586.140625
1.56,1534404586.15625
1.62,1534404586.171875
2.1,1534404586.1875
2.93,1534404586.203125
3.97,1534404586.21875
5.0,1534404586.234375
5.8,1534404586.25
6.06,1534404586.265625
5.59,1534404586.28125
4.3,1534404586.296875
2.26,1534404586.3125
-0.27,1534404586.328125
-2.94,1534404586.34375
-5.33,1534404586.359375
-7.09,1534404586.375
-7.97,1534404586.390625
-7.92,1534404586.40625
-6.98,1534404586.421875
-5.33,1534404586.4375
-3.23,1534404586.453125
-0.92,1534404586.46875
1.41,1534404586.484375
3.57,1534404586.5
5.49,1534404586.515625
7.06,1534404586.53125
8.22,1534404586.546875
8.9,1534404586.5625
9.16,1534404586.578125
9.09,1534404586.59375
8.87,1534404586.609375
8.7,1534404586.625
8.7,1534404586.640625
8.85,1534404586.65625
8.99,1534404586.671875
8.92,1534404586.6875
8.48,1534404586.703125
7.68,1534404586.71875
6.73,1534404586.734375
5.87,1534404586.75
5.29,1534404586.765625
5.06,1534404586.78125
4.98,1534404586.796875
4.79,1534404586.8125
4.24,1534404586.828125
3.22,1534404586.84375
1.82,1534404586.859375
0.29,1534404586.875
-1.02,1534404586.890625
-1.77,1534404586.90625
-1.68,1534404586.921875
-0.63,1534404586.9375
1.32,1534404586.953125
3.88,1534404586.96875
6.66,1534404586.984375
9.28,1534404587.0
11.61,1534404587.015625
13.75,1534404587.03125
15.98,1534404587.046875
18.57,1534404587.0625
21.54,1534404587.078125
24.52,1534404587.09375
26.99,1534404587.109375
28.42,1534404587.125
28.51,1534404587.140625
27.2,1534404587.15625
24.64,1534404587.171875
21.04,1534404587.1875
16.69,1534404587.203125
12.08,1534404587.21875
7.9,1534404587.234375
4.92,1534404587.25
3.68,1534404587.265625
4.14,1534404587.28125
5.56,1534404587.296875
6.72,1534404587.3125
6.43,1534404587.328125
4.1,1534404587.34375
0.0,1534404587.359375
-4.91,1534404587.375
-9.59,1534404587.390625
-13.43,1534404587.40625
-16.55,1534404587.421875
-19.54,1534404587.4375
-22.99,1534404587.453125
-27.08,1534404587.46875
-31.31,1534404587.484375
-34.87,1534404587.5
-36.96,1534404587.515625
-37.28,1534404587.53125
-36.04,1534404587.546875
-33.87,1534404587.5625
-31.39,1534404587.578125
-28.92,1534404587.59375
-26.44,1534404587.609375
-23.74,1534404587.625
-20.68,1534404587.640625
-17.37,1534404587.65625
-14.17,1534404587.671875
-11.55,1534404587.6875
-9.9,1534404587.703125
-9.31,1534404587.71875
-9.53,1534404587.734375
-9.97,1534404587.75
-10.02,1534404587.765625
-9.23,1534404587.78125
-7.57,1534404587.796875
-5.41,1534404587.8125
-3.37,1534404587.828125
-2.02,1534404587.84375
-1.57,1534404587.859375
-1.94,1534404587.875
-2.66,1534404587.890625
-3.28,1534404587.90625
-3.46,1534404587.921875
-3.14,1534404587.9375
-2.5,1534404587.953125
-1.77,1534404587.96875
-1.13,1534404587.984375
-0.61,1534404588.0
-0.18,1534404588.015625
0.16,1534404588.03125
0.31,1534404588.046875
0.07,1534404588.0625
-0.7,1534404588.078125
-1.86,1534404588.09375
-2.98,1534404588.109375
-3.42,1534404588.125
-2.67,1534404588.140625
-0.64,1534404588.15625
2.29,1534404588.171875
5.39,1534404588.1875
8.01,1534404588.203125
9.83,1534404588.21875
10.98,1534404588.234375
11.85,1534404588.25
12.8,1534404588.265625
13.86,1534404588.28125
14.84,1534404588.296875
15.46,1534404588.3125
15.53,1534404588.328125
15.11,1534404588.34375
14.38,1534404588.359375
13.5,1534404588.375
12.46,1534404588.390625
11.16,1534404588.40625
9.46,1534404588.421875
7.43,1534404588.4375
5.29,1534404588.453125
3.41,1534404588.46875
2.07,1534404588.484375
1.39,1534404588.5
1.24,1534404588.515625
1.3,1534404588.53125
1.24,1534404588.546875
0.86,1534404588.5625
0.19,1534404588.578125
-0.64,1534404588.59375
-1.51,1534404588.609375
-2.4,1534404588.625
-3.4,1534404588.640625
-4.63,1534404588.65625
-6.04,1534404588.671875
-7.42,1534404588.6875
-8.39,1534404588.703125
-8.55,1534404588.71875
-7.69,1534404588.734375
-5.81,1534404588.75
-3.1,1534404588.765625
0.13,1534404588.78125
3.53,1534404588.796875
6.76,1534404588.8125
9.5,1534404588.828125
11.49,1534404588.84375
12.56,1534404588.859375
12.76,1534404588.875
12.29,1534404588.890625
11.54,1534404588.90625
10.84,1534404588.921875
10.41,1534404588.9375
10.26,1534404588.953125
10.24,1534404588.96875
10.16,1534404588.984375
9.9,1534404589.0
9.47,1534404589.015625
9.01,1534404589.03125
8.78,1534404589.046875
9.02,1534404589.0625
9.88,1534404589.078125
11.33,1534404589.09375
13.04,1534404589.109375
14.51,1534404589.125
15.08,1534404589.140625
14.23,1534404589.15625
11.86,1534404589.171875
8.4,1534404589.1875
4.75,1534404589.203125
1.96,1534404589.21875
0.75,1534404589.234375
1.19,1534404589.25
2.75,1534404589.265625
4.48,1534404589.28125
5.6,1534404589.296875
5.69,1534404589.3125
4.85,1534404589.328125
3.43,1534404589.34375
1.81,1534404589.359375
0.19,1534404589.375
-1.33,1534404589.390625
-2.69,1534404589.40625
-3.72,1534404589.421875
-4.24,1534404589.4375
-4.15,1534404589.453125
-3.61,1534404589.46875
-2.97,1534404589.484375
-2.59,1534404589.5
-2.73,1534404589.515625
-3.29,1534404589.53125
-4.04,1534404589.546875
-4.64,1534404589.5625
-4.89,1534404589.578125
-4.83,1534404589.59375
-4.69,1534404589.609375
-4.82,1534404589.625
-5.43,1534404589.640625
-6.5,1534404589.65625
-7.87,1534404589.671875
-9.29,1534404589.6875
-10.59,1534404589.703125
-11.82,1534404589.71875
-13.25,1534404589.734375
-15.15,1534404589.75
-17.71,1534404589.765625
-20.71,1534404589.78125
-23.58,1534404589.796875
-25.52,1534404589.8125
-25.8,1534404589.828125
-24.1,1534404589.84375
-20.69,1534404589.859375
-16.37,1534404589.875
-12.08,1534404589.890625
-8.52,1534404589.90625
-5.86,1534404589.921875
-3.74,1534404589.9375
-1.59,1534404589.953125
0.98,1534404589.96875
3.89,1534404589.984375
6.69,1534404590.0
8.81,1534404590.015625
9.95,1534404590.03125
10.22,1534404590.046875
10.02,1534404590.0625
9.76,1534404590.078125
9.58,1534404590.09375
9.34,1534404590.109375
8.7,1534404590.125
7.41,1534404590.140625
5.32,1534404590.15625
2.35,1534404590.171875
-1.52,1534404590.1875
-6.35,1534404590.203125
-11.98,1534404590.21875
-17.91,1534404590.234375
-23.2,1534404590.25
-26.78,1534404590.265625
-27.71,1534404590.28125
-25.74,1534404590.296875
-21.41,1534404590.3125
-15.97,1534404590.328125
-10.88,1534404590.34375
-7.29,1534404590.359375
-5.72,1534404590.375
-6.01,1534404590.390625
-7.5,1534404590.40625
-9.43,1534404590.421875
-11.11,1534404590.4375
-12.06,1534404590.453125
-11.97,1534404590.46875
-10.65,1534404590.484375
-8.01,1534404590.5
-4.2,1534404590.515625
0.33,1534404590.53125
4.88,1534404590.546875
8.65,1534404590.5625
11.06,1534404590.578125
11.92,1534404590.59375
11.55,1534404590.609375
10.48,1534404590.625
9.35,1534404590.640625
8.56,1534404590.65625
8.25,1534404590.671875
8.27,1534404590.6875
8.39,1534404590.703125
8.38,1534404590.71875
8.12,1534404590.734375
7.64,1534404590.75
7.0,1534404590.765625
6.3,1534404590.78125
5.58,1534404590.796875
4.84,1534404590.8125
4.08,1534404590.828125
3.31,1534404590.84375
2.54,1534404590.859375
1.78,1534404590.875
0.95,1534404590.890625
-0.09,1534404590.90625
-1.48,1534404590.921875
-3.27,1534404590.9375
-5.31,1534404590.953125
-7.24,1534404590.96875
-8.63,1534404590.984375
-9.1,1534404591.0
-8.52,1534404591.015625
-6.97,1534404591.03125
-4.74,1534404591.046875
-2.14,1534404591.0625
0.61,1534404591.078125
3.38,1534404591.09375
6.15,1534404591.109375
8.81,1534404591.125
11.19,1534404591.140625
13.08,1534404591.15625
14.26,1534404591.171875
14.68,1534404591.1875
14.44,1534404591.203125
13.78,1534404591.21875
13.01,1534404591.234375
12.4,1534404591.25
12.03,1534404591.265625
11.87,1534404591.28125
11.75,1534404591.296875
11.47,1534404591.3125
10.9,1534404591.328125
10.0,1534404591.34375
8.88,1534404591.359375
7.71,1534404591.375
6.67,1534404591.390625
5.82,1534404591.40625
5.1,1534404591.421875
4.33,1534404591.4375
3.26,1534404591.453125
1.76,1534404591.46875
-0.13,1534404591.484375
-2.2,1534404591.5
-4.1,1534404591.515625
-5.63,1534404591.53125
-6.71,1534404591.546875
-7.37,1534404591.5625
-7.68,1534404591.578125
-7.59,1534404591.59375
-6.92,1534404591.609375
-5.44,1534404591.625
-3.08,1534404591.640625
0.0,1534404591.65625
3.44,1534404591.671875
6.84,1534404591.6875
9.96,1534404591.703125
12.81,1534404591.71875
15.54,1534404591.734375
18.27,1534404591.75
20.93,1534404591.765625
23.25,1534404591.78125
24.88,1534404591.796875
25.61,1534404591.8125
25.53,1534404591.828125
25.04,1534404591.84375
24.79,1534404591.859375
25.33,1534404591.875
27.0,1534404591.890625
29.7,1534404591.90625
32.92,1534404591.921875
35.94,1534404591.9375
38.07,1534404591.953125
38.83,1534404591.96875
38.16,1534404591.984375
36.32,1534404592.0
33.78,1534404592.015625
31.02,1534404592.03125
28.33,1534404592.046875
25.77,1534404592.0625
23.22,1534404592.078125
20.5,1534404592.09375
17.46,1534404592.109375
13.97,1534404592.125
10.03,1534404592.140625
5.78,1534404592.15625
1.54,1534404592.171875
-2.22,1534404592.1875
-4.94,1534404592.203125
-6.27,1534404592.21875
-6.28,1534404592.234375
-5.52,1534404592.25
-4.92,1534404592.265625
-5.3,1534404592.28125
-6.99,1534404592.296875
-9.5,1534404592.3125
-11.73,1534404592.328125
-12.47,1534404592.34375
-11.11,1534404592.359375
-8.02,1534404592.375
-4.43,1534404592.390625
-1.87,1534404592.40625
-1.44,1534404592.421875
-3.35,1534404592.4375
-6.93,1534404592.453125
-11.11,1534404592.46875
-15.07,1534404592.484375
-18.62,1534404592.5
-22.11,1534404592.515625
-26.05,1534404592.53125
-30.57,1534404592.546875
-35.19,1534404592.5625
-39.08,1534404592.578125
-41.45,1534404592.59375
-42.04,1534404592.609375
-41.26,1534404592.625
-39.95,1534404592.640625
-39.01,1534404592.65625
-38.92,1534404592.671875
-39.61,1534404592.6875
-40.57,1534404592.703125
-41.15,1534404592.71875
-40.89,1534404592.734375
-39.63,1534404592.75
-37.59,1534404592.765625
-35.15,1534404592.78125
-32.62,1534404592.796875
-30.18,1534404592.8125
-27.68,1534404592.828125
-24.77,1534404592.84375
-21.1,1534404592.859375
-16.52,1534404592.875
-11.27,1534404592.890625
-5.92,1534404592.90625
-1.22,1534404592.921875
2.24,1534404592.9375
4.21,1534404592.953125
4.96,1534404592.96875
5.03,1534404592.984375
5.11,1534404593.0
5.66,1534404593.015625
6.79,1534404593.03125
8.28,1534404593.046875
9.68,1534404593.0625
10.56,1534404593.078125
10.71,1534404593.09375
10.24,1534404593.109375
9.41,1534404593.125
8.52,1534404593.140625
7.69,1534404593.15625
6.8,1534404593.171875
5.62,1534404593.1875
3.99,1534404593.203125
1.91,1534404593.21875
-0.4,1534404593.234375
-2.63,1534404593.25
-4.46,1534404593.265625
-5.78,1534404593.28125
-6.51,1534404593.296875
-6.62,1534404593.3125
-6.15,1534404593.328125
-5.09,1534404593.34375
-3.53,1534404593.359375
-1.57,1534404593.375
0.67,1534404593.390625
3.12,1534404593.40625
5.73,1534404593.421875
8.38,1534404593.4375
10.86,1534404593.453125
12.88,1534404593.46875
14.14,1534404593.484375
14.49,1534404593.5
14.02,1534404593.515625
13.01,1534404593.53125
11.83,1534404593.546875
10.76,1534404593.5625
9.93,1534404593.578125
9.32,1534404593.59375
8.8,1534404593.609375
8.24,1534404593.625
7.54,1534404593.640625
6.68,1534404593.65625
5.7,1534404593.671875
4.69,1534404593.6875
3.71,1534404593.703125
2.84,1534404593.71875
2.02,1534404593.734375
1.16,1534404593.75
0.13,1534404593.765625
-1.17,1534404593.78125
-2.76,1534404593.796875
-4.56,1534404593.8125
-6.44,1534404593.828125
-8.23,1534404593.84375
-9.76,1534404593.859375
-10.93,1534404593.875
-11.63,1534404593.890625
-11.83,1534404593.90625
-11.47,1534404593.921875
-10.52,1534404593.9375
-9.03,1534404593.953125
-7.05,1534404593.96875
-4.7,1534404593.984375
-2.09,1534404594.0
0.64,1534404594.015625
3.35,1534404594.03125
5.87,1534404594.046875
8.01,1534404594.0625
9.63,1534404594.078125
10.74,1534404594.09375
11.46,1534404594.109375
12.05,1534404594.125
12.75,1534404594.140625
13.71,1534404594.15625
14.89,1534404594.171875
16.09,1534404594.1875
17.01,1534404594.203125
17.41,1534404594.21875
17.1,1534404594.234375
16.05,1534404594.25
14.33,1534404594.265625
12.17,1534404594.28125
9.88,1534404594.296875
7.78,1534404594.3125
6.14,1534404594.328125
5.02,1534404594.34375
4.25,1534404594.359375
3.48,1534404594.375
2.45,1534404594.390625
1.1,1534404594.40625
-0.23,1534404594.421875
-0.97,1534404594.4375
-0.59,1534404594.453125
1.07,1534404594.46875
3.66,1534404594.484375
6.42,1534404594.5
8.55,1534404594.515625
9.62,1534404594.53125
9.77,1534404594.546875
9.7,1534404594.5625
10.2,1534404594.578125
11.81,1534404594.59375
14.53,1534404594.609375
17.95,1534404594.625
21.44,1534404594.640625
24.4,1534404594.65625
26.35,1534404594.671875
26.85,1534404594.6875
25.43,1534404594.703125
21.7,1534404594.71875
15.64,1534404594.734375
7.91,1534404594.75
-0.22,1534404594.765625
-7.17,1534404594.78125
-11.65,1534404594.796875
-13.2,1534404594.8125
-12.31,1534404594.828125
-10.12,1534404594.84375
-7.86,1534404594.859375
-6.34,1534404594.875
-5.85,1534404594.890625
-6.29,1534404594.90625
-7.55,1534404594.921875
-9.62,1534404594.9375
-12.62,1534404594.953125
-16.55,1534404594.96875
-21.12,1534404594.984375
-25.74,1534404595.0
-29.72,1534404595.015625
-32.44,1534404595.03125
-33.61,1534404595.046875
-33.26,1534404595.0625
-31.58,1534404595.078125
-28.83,1534404595.09375
-25.28,1534404595.109375
-21.11,1534404595.125
-16.52,1534404595.140625
-11.71,1534404595.15625
-7.0,1534404595.171875
-2.74,1534404595.1875
0.7,1534404595.203125
3.01,1534404595.21875
4.09,1534404595.234375
4.11,1534404595.25
3.47,1534404595.265625
2.7,1534404595.28125
2.29,1534404595.296875
2.45,1534404595.3125
3.12,1534404595.328125
3.98,1534404595.34375
4.72,1534404595.359375
5.09,1534404595.375
5.04,1534404595.390625
4.61,1534404595.40625
3.94,1534404595.421875
3.12,1534404595.4375
2.18,1534404595.453125
1.17,1534404595.46875
0.06,1534404595.484375
-1.14,1534404595.5
-2.48,1534404595.515625
-3.99,1534404595.53125
-5.7,1534404595.546875
-7.65,1534404595.5625
-9.81,1534404595.578125
-12.01,1534404595.59375
-13.98,1534404595.609375
-15.35,1534404595.625
-15.78,1534404595.640625
-15.04,1534404595.65625
-13.14,1534404595.671875
-10.39,1534404595.6875
-7.26,1534404595.703125
-4.23,1534404595.71875
-1.63,1534404595.734375
0.49,1534404595.75
2.26,1534404595.765625
3.84,1534404595.78125
5.33,1534404595.796875
6.63,1534404595.8125
7.53,1534404595.828125
7.88,1534404595.84375
7.64,1534404595.859375
6.94,1534404595.875
6.05,1534404595.890625
5.21,1534404595.90625
4.61,1534404595.921875
4.28,1534404595.9375
4.2,1534404595.953125
4.23,1534404595.96875
4.26,1534404595.984375
4.2,1534404596.0
3.97,1534404596.015625
3.61,1534404596.03125
3.16,1534404596.046875
2.64,1534404596.0625
2.06,1534404596.078125
1.33,1534404596.09375
0.33,1534404596.109375
-1.06,1534404596.125
-2.95,1534404596.140625
-5.24,1534404596.15625
-7.74,1534404596.171875
-10.16,1534404596.1875
-12.1,1534404596.203125
-13.22,1534404596.21875
-13.31,1534404596.234375
-12.33,1534404596.25
-10.45,1534404596.265625
-7.97,1534404596.28125
-5.14,1534404596.296875
-2.15,1534404596.3125
0.9,1534404596.328125
3.93,1534404596.34375
6.84,1534404596.359375
9.49,1534404596.375
11.77,1534404596.390625
13.64,1534404596.40625
15.1,1534404596.421875
16.24,1534404596.4375
17.13,1534404596.453125
17.83,1534404596.46875
18.43,1534404596.484375
19.01,1534404596.5
19.63,1534404596.515625
20.29,1534404596.53125
20.87,1534404596.546875
21.12,1534404596.5625
20.84,1534404596.578125
19.87,1534404596.59375
18.28,1534404596.609375
16.34,1534404596.625
14.36,1534404596.640625
12.65,1534404596.65625
11.36,1534404596.671875
10.45,1534404596.6875
9.65,1534404596.703125
8.6,1534404596.71875
6.92,1534404596.734375
4.45,1534404596.75
1.32,1534404596.765625
-1.9,1534404596.78125
-4.36,1534404596.796875
-5.15,1534404596.8125
-3.71,1534404596.828125
0.04,1534404596.84375
5.54,1534404596.859375
11.91,1534404596.875
18.17,1534404596.890625
23.58,1534404596.90625
27.87,1534404596.921875
31.07,1534404596.9375
33.43,1534404596.953125
35.15,1534404596.96875
36.21,1534404596.984375
36.44,1534404597.0
35.55,1534404597.015625
33.28,1534404597.03125
29.42,1534404597.046875
23.91,1534404597.0625
16.79,1534404597.078125
8.36,1534404597.09375
-0.77,1534404597.109375
-9.73,1534404597.125
-17.63,1534404597.140625
-23.85,1534404597.15625
-28.23,1534404597.171875
-31.06,1534404597.1875
-32.81,1534404597.203125
-33.84,1534404597.21875
-34.16,1534404597.234375
-33.61,1534404597.25
-32.15,1534404597.265625
-30.07,1534404597.28125
-28.11,1534404597.296875
-27.13,1534404597.3125
-27.7,1534404597.328125
-29.84,1534404597.34375
-33.01,1534404597.359375
-36.42,1534404597.375
-39.36,1534404597.390625
-41.5,1534404597.40625
-42.73,1534404597.421875
-43.07,1534404597.4375
-42.48,1534404597.453125
-40.76,1534404597.46875
-37.72,1534404597.484375
-33.34,1534404597.5
-27.84,1534404597.515625
-21.7,1534404597.53125
-15.5,1534404597.546875
-9.73,1534404597.5625
-4.7,1534404597.578125
-0.54,1534404597.59375
2.78,1534404597.609375
5.32,1534404597.625
7.13,1534404597.640625
8.26,1534404597.65625
8.77,1534404597.671875
8.77,1534404597.6875
8.42,1534404597.703125
7.95,1534404597.71875
7.52,1534404597.734375
7.32,1534404597.75
7.39,1534404597.765625
7.73,1534404597.78125
8.25,1534404597.796875
8.79,1534404597.8125
9.15,1534404597.828125
9.16,1534404597.84375
8.7,1534404597.859375
7.77,1534404597.875
6.46,1534404597.890625
4.89,1534404597.90625
3.18,1534404597.921875
1.34,1534404597.9375
-0.67,1534404597.953125
-2.89,1534404597.96875
-5.23,1534404597.984375
-7.4,1534404598.0
-8.98,1534404598.015625
-9.58,1534404598.03125
-9.0,1534404598.046875
-7.36,1534404598.0625
-5.0,1534404598.078125
-2.38,1534404598.09375
0.19,1534404598.109375
2.57,1534404598.125
4.79,1534404598.140625
6.86,1534404598.15625
8.72,1534404598.171875
10.17,1534404598.1875
11.0,1534404598.203125
11.13,1534404598.21875
10.72,1534404598.234375
10.08,1534404598.25
9.55,1534404598.265625
9.27,1534404598.28125
9.19,1534404598.296875
9.08,1534404598.3125
8.66,1534404598.328125
7.8,1534404598.34375
6.55,1534404598.359375
5.07,1534404598.375
3.56,1534404598.390625
2.14,1534404598.40625
0.82,1534404598.421875
-0.43,1534404598.4375
-1.65,1534404598.453125
-2.88,1534404598.46875
-4.11,1534404598.484375
-5.35,1534404598.5
-6.57,1534404598.515625
-7.76,1534404598.53125
-8.87,1534404598.546875
-9.84,1534404598.5625
-10.55,1534404598.578125
-10.84,1534404598.59375
-10.57,1534404598.609375
-9.61,1534404598.625
-7.97,1534404598.640625
-5.73,1534404598.65625
-3.09,1534404598.671875
-0.3,1534404598.6875
2.38,1534404598.703125
4.77,1534404598.71875
6.71,1534404598.734375
8.15,1534404598.75
9.13,1534404598.765625
9.75,1534404598.78125
10.23,1534404598.796875
10.79,1534404598.8125
11.56,1534404598.828125
12.56,1534404598.84375
13.64,1534404598.859375
14.58,1534404598.875
15.21,1534404598.890625
15.45,1534404598.90625
15.37,1534404598.921875
15.09,1534404598.9375
14.61,1534404598.953125
13.86,1534404598.96875
12.62,1534404598.984375
10.87,1534404599.0
8.77,1534404599.015625
6.63,1534404599.03125
4.79,1534404599.046875
3.35,1534404599.0625
2.1,1534404599.078125
0.68,1534404599.09375
-1.17,1534404599.109375
-3.4,1534404599.125
-5.58,1534404599.140625
-7.16,1534404599.15625
-7.76,1534404599.171875
-7.5,1534404599.1875
-6.84,1534404599.203125
-6.42,1534404599.21875
-6.55,1534404599.234375
-7.0,1534404599.25
-7.08,1534404599.265625
-5.91,1534404599.28125
-2.91,1534404599.296875
1.89,1534404599.3125
7.88,1534404599.328125
13.95,1534404599.34375
19.04,1534404599.359375
22.38,1534404599.375
23.76,1534404599.390625
23.48,1534404599.40625
22.21,1534404599.421875
20.64,1534404599.4375
19.3,1534404599.453125
18.61,1534404599.46875
18.86,1534404599.484375
20.15,1534404599.5
22.27,1534404599.515625
24.55,1534404599.53125
25.8,1534404599.546875
24.69,1534404599.5625
20.34,1534404599.578125
12.88,1534404599.59375
3.67,1534404599.609375
-5.17,1534404599.625
-11.61,1534404599.640625
-14.65,1534404599.65625
-14.69,1534404599.671875
-13.19,1534404599.6875
-11.85,1534404599.703125
-11.71,1534404599.71875
-12.87,1534404599.734375
-14.68,1534404599.75
-16.42,1534404599.765625
-17.79,1534404599.78125
-19.0,1534404599.796875
-20.4,1534404599.8125
-22.11,1534404599.828125
-23.75,1534404599.84375
-24.55,1534404599.859375
-23.85,1534404599.875
-21.47,1534404599.890625
-17.91,1534404599.90625
-14.12,1534404599.921875
-11.08,1534404599.9375
-9.42,1534404599.953125
-9.18,1534404599.96875
-9.84,1534404599.984375
-10.64,1534404600.0
-10.88,1534404600.015625
-10.17,1534404600.03125
-8.52,1534404600.046875
-6.26,1534404600.0625
-3.91,1534404600.078125
-1.93,1534404600.09375
-0.6,1534404600.109375
0.08,1534404600.125
0.32,1534404600.140625
0.39,1534404600.15625
0.47,1534404600.171875
0.55,1534404600.1875
0.44,1534404600.203125
-0.11,1534404600.21875
-1.23,1534404600.234375
-2.81,1534404600.25
-4.57,1534404600.265625
-6.17,1534404600.28125
-7.4,1534404600.296875
-8.34,1534404600.3125
-9.24,1534404600.328125
-10.35,1534404600.34375
-11.79,1534404600.359375
-13.39,1534404600.375
-14.78,1534404600.390625
-15.59,1534404600.40625
-15.5,1534404600.421875
-14.46,1534404600.4375
-12.62,1534404600.453125
-10.26,1534404600.46875
-7.68,1534404600.484375
-5.08,1534404600.5
-2.57,1534404600.515625
-0.14,1534404600.53125
2.26,1534404600.546875
4.69,1534404600.5625
7.14,1534404600.578125
9.5,1534404600.59375
11.6,1534404600.609375
13.26,1534404600.625
14.36,1534404600.640625
14.93,1534404600.65625
15.1,1534404600.671875
15.04,1534404600.6875
14.93,1534404600.703125
14.83,1534404600.71875
14.7,1534404600.734375
14.46,1534404600.75
14.0,1534404600.765625
13.25,1534404600.78125
12.23,1534404600.796875
10.98,1534404600.8125
9.54,1534404600.828125
7.97,1534404600.84375
6.32,1534404600.859375
4.64,1534404600.875
3.07,1534404600.890625
1.69,1534404600.90625
0.58,1534404600.921875
-0.26,1534404600.9375
-0.96,1534404600.953125
-1.64,1534404600.96875
-2.47,1534404600.984375
-3.46,1534404601.0
-4.48,1534404601.015625
-5.25,1534404601.03125
-5.39,1534404601.046875
-4.64,1534404601.0625
-2.89,1534404601.078125
-0.21,1534404601.09375
3.09,1534404601.109375
6.64,1534404601.125
10.1,1534404601.140625
13.14,1534404601.15625
15.53,1534404601.171875
17.15,1534404601.1875
17.99,1534404601.203125
18.18,1534404601.21875
18.0,1534404601.234375
17.78,1534404601.25
17.85,1534404601.265625
18.34,1534404601.28125
19.13,1534404601.296875
19.85,1534404601.3125
20.05,1534404601.328125
19.42,1534404601.34375
17.91,1534404601.359375
15.78,1534404601.375
13.36,1534404601.390625
10.92,1534404601.40625
8.47,1534404601.421875
5.91,1534404601.4375
3.15,1534404601.453125
0.31,1534404601.46875
-2.29,1534404601.484375
-4.25,1534404601.5
-5.32,1534404601.515625
-5.51,1534404601.53125
-5.0,1534404601.546875
-3.98,1534404601.5625
-2.54,1534404601.578125
-0.57,1534404601.59375
2.0,1534404601.609375
5.12,1534404601.625
8.53,1534404601.640625
11.85,1534404601.65625
14.72,1534404601.671875
17.03,1534404601.6875
18.83,1534404601.703125
20.25,1534404601.71875
21.32,1534404601.734375
21.83,1534404601.75
21.46,1534404601.765625
20.05,1534404601.78125
17.93,1534404601.796875
15.93,1534404601.8125
15.16,1534404601.828125
16.37,1534404601.84375
19.42,1534404601.859375
23.03,1534404601.875
25.21,1534404601.890625
24.13,1534404601.90625
19.0,1534404601.921875
10.47,1534404601.9375
0.29,1534404601.953125
-9.46,1534404601.96875
-17.33,1534404601.984375
-22.87,1534404602.0
-26.49,1534404602.015625
-28.84,1534404602.03125
-30.34,1534404602.046875
-30.98,1534404602.0625
-30.53,1534404602.078125
-28.99,1534404602.09375
-26.76,1534404602.109375
-24.64,1534404602.125
-23.46,1534404602.140625
-23.7,1534404602.15625
-25.31,1534404602.171875
-27.74,1534404602.1875
-30.2,1534404602.203125
-31.96,1534404602.21875
-32.64,1534404602.234375
-32.18,1534404602.25
-30.82,1534404602.265625
-28.86,1534404602.28125
-26.54,1534404602.296875
-23.95,1534404602.3125
-21.14,1534404602.328125
-18.17,1534404602.34375
-15.21,1534404602.359375
-12.53,1534404602.375
-10.39,1534404602.390625
-8.97,1534404602.40625
-8.23,1534404602.421875
-8.03,1534404602.4375
-8.06,1534404602.453125
-8.06,1534404602.46875
-7.87,1534404602.484375
-7.42,1534404602.5
-6.8,1534404602.515625
-6.16,1534404602.53125
-5.63,1534404602.546875
-5.25,1534404602.5625
-5.01,1534404602.578125
-4.84,1534404602.59375
-4.71,1534404602.609375
-4.71,1534404602.625
-4.96,1534404602.640625
-5.61,1534404602.65625
-6.78,1534404602.671875
-8.42,1534404602.6875
-10.4,1534404602.703125
-12.48,1534404602.71875
-14.36,1534404602.734375
-15.64,1534404602.75
-15.99,1534404602.765625
-15.15,1534404602.78125
-13.07,1534404602.796875
-9.93,1534404602.8125
-6.16,1534404602.828125
-2.33,1534404602.84375
1.04,1534404602.859375
3.62,1534404602.875
5.28,1534404602.890625
6.12,1534404602.90625
6.38,1534404602.921875
6.38,1534404602.9375
6.4,1534404602.953125
6.67,1534404602.96875
7.25,1534404602.984375
8.08,1534404603.0
8.96,1534404603.015625
9.69,1534404603.03125
10.08,1534404603.046875
10.0,1534404603.0625
9.43,1534404603.078125
8.44,1534404603.09375
7.2,1534404603.109375
5.93,1534404603.125
4.82,1534404603.140625
3.98,1534404603.15625
3.34,1534404603.171875
2.69,1534404603.1875
1.71,1534404603.203125
0.09,1534404603.21875
-2.34,1534404603.234375
-5.51,1534404603.25
-9.07,1534404603.265625
-12.5,1534404603.28125
-15.23,1534404603.296875
-16.81,1534404603.3125
-16.97,1534404603.328125
-15.71,1534404603.34375
-13.28,1534404603.359375
-10.08,1534404603.375
-6.59,1534404603.390625
-3.21,1534404603.40625
-0.19,1534404603.421875
2.46,1534404603.4375
4.83,1534404603.453125
7.09,1534404603.46875
9.34,1534404603.484375
11.61,1534404603.5
13.87,1534404603.515625
16.08,1534404603.53125
18.19,1534404603.546875
20.19,1534404603.5625
22.04,1534404603.578125
23.74,1534404603.59375
25.23,1534404603.609375
26.45,1534404603.625
27.42,1534404603.640625
28.2,1534404603.65625
28.92,1534404603.671875
29.7,1534404603.6875
30.59,1534404603.703125
31.58,1534404603.71875
32.57,1534404603.734375
33.4,1534404603.75
33.85,1534404603.765625
33.7,1534404603.78125
32.75,1534404603.796875
30.98,1534404603.8125
28.57,1534404603.828125
25.98,1534404603.84375
23.73,1534404603.859375
22.21,1534404603.875
21.53,1534404603.890625
21.42,1534404603.90625
21.45,1534404603.921875
21.33,1534404603.9375
21.01,1534404603.953125
20.75,1534404603.96875
20.83,1534404603.984375
21.29,1534404604.0
21.83,1534404604.015625
21.9,1534404604.03125
20.98,1534404604.046875
18.86,1534404604.0625
15.72,1534404604.078125
12.03,1534404604.09375
8.35,1534404604.109375
5.11,1534404604.125
2.58,1534404604.140625
0.77,1534404604.15625
-0.41,1534404604.171875
-1.23,1534404604.1875
-2.1,1534404604.203125
-3.57,1534404604.21875
-6.15,1534404604.234375
-10.1,1534404604.25
-15.22,1534404604.265625
-20.8,1534404604.28125
-25.9,1534404604.296875
-29.64,1534404604.3125
-31.52,1534404604.328125
-31.63,1534404604.34375
-30.59,1534404604.359375
-29.19,1534404604.375
-28.2,1534404604.390625
-28.1,1534404604.40625
-29.09,1534404604.421875
-31.11,1534404604.4375
-33.97,1534404604.453125
-37.36,1534404604.46875
-40.79,1534404604.484375
-43.6,1534404604.5
-45.11,1534404604.515625
-44.86,1534404604.53125
-42.77,1534404604.546875
-39.21,1534404604.5625
-34.83,1534404604.578125
-30.27,1534404604.59375
-25.91,1534404604.609375
-21.86,1534404604.625
-18.03,1534404604.640625
-14.35,1534404604.65625
-10.87,1534404604.671875
-7.73,1534404604.6875
-5.12,1534404604.703125
-3.06,1534404604.71875
-1.45,1534404604.734375
-0.08,1534404604.75
1.19,1534404604.765625
2.41,1534404604.78125
3.53,1534404604.796875
4.47,1534404604.8125
5.19,1534404604.828125
5.7,1534404604.84375
6.0,1534404604.859375
6.09,1534404604.875
5.94,1534404604.890625
5.58,1534404604.90625
5.13,1534404604.921875
4.7,1534404604.9375
4.42,1534404604.953125
4.2,1534404604.96875
3.82,1534404604.984375
2.95,1534404605.0
1.36,1534404605.015625
-0.94,1534404605.03125
-3.66,1534404605.046875
-6.3,1534404605.0625
-8.39,1534404605.078125
-9.54,1534404605.09375
-9.6,1534404605.109375
-8.63,1534404605.125
-6.74,1534404605.140625
-4.15,1534404605.15625
-1.09,1534404605.171875
2.19,1534404605.1875
5.42,1534404605.203125
8.34,1534404605.21875
10.71,1534404605.234375
12.4,1534404605.25
13.35,1534404605.265625
13.57,1534404605.28125
13.13,1534404605.296875
12.22,1534404605.3125
11.05,1534404605.328125
9.93,1534404605.34375
9.08,1534404605.359375
8.62,1534404605.375
8.45,1534404605.390625
8.34,1534404605.40625
8.1,1534404605.421875
7.61,1534404605.4375
6.96,1534404605.453125
6.3,1534404605.46875
5.74,1534404605.484375
5.22,1534404605.5
4.52,1534404605.515625
3.39,1534404605.53125
1.65,1534404605.546875
-0.65,1534404605.5625
-3.33,1534404605.578125
-6.11,1534404605.59375
-8.71,1534404605.609375
-10.94,1534404605.625
-12.59,1534404605.640625
-13.5,1534404605.65625
-13.5,1534404605.671875
-12.54,1534404605.6875
-10.74,1534404605.703125
-8.32,1534404605.71875
-5.57,1534404605.734375
-2.69,1534404605.75
0.29,1534404605.765625
3.4,1534404605.78125
6.71,1534404605.796875
10.19,1534404605.8125
13.72,1534404605.828125
17.06,1534404605.84375
20.02,1534404605.859375
22.45,1534404605.875
24.31,1534404605.890625
25.7,1534404605.90625
26.8,1534404605.921875
27.95,1534404605.9375
29.48,1534404605.953125
31.71,1534404605.96875
34.75,1534404605.984375
38.36,1534404606.0
42.0,1534404606.015625
44.87,1534404606.03125
46.24,1534404606.046875
45.64,1534404606.0625
43.12,1534404606.078125
39.19,1534404606.09375
34.68,1534404606.109375
30.34,1534404606.125
26.58,1534404606.140625
23.38,1534404606.15625
20.31,1534404606.171875
16.99,1534404606.1875
13.26,1534404606.203125
9.34,1534404606.21875
5.65,1534404606.234375
2.51,1534404606.25
-0.11,1534404606.265625
-2.56,1534404606.28125
-5.24,1534404606.296875
-8.31,1534404606.3125
-11.43,1534404606.328125
-13.93,1534404606.34375
-15.15,1534404606.359375
-14.81,1534404606.375
-13.24,1534404606.390625
-11.29,1534404606.40625
-9.97,1534404606.421875
-9.99,1534404606.4375
-11.6,1534404606.453125
-14.55,1534404606.46875
-18.33,1534404606.484375
-22.36,1534404606.5
-26.24,1534404606.515625
-29.74,1534404606.53125
-32.7,1534404606.546875
-35.1,1534404606.5625
-36.9,1534404606.578125
-38.13,1534404606.59375
-38.81,1534404606.609375
-39.01,1534404606.625
-38.79,1534404606.640625
-38.32,1534404606.65625
-37.74,1534404606.671875
-37.32,1534404606.6875
-37.25,1534404606.703125
-37.59,1534404606.71875
-38.18,1534404606.734375
-38.66,1534404606.75
-38.59,1534404606.765625
-37.6,1534404606.78125
-35.55,1534404606.796875
-32.55,1534404606.8125
-28.9,1534404606.828125
-24.93,1534404606.84375
-20.86,1534404606.859375
-16.82,1534404606.875
-12.8,1534404606.890625
-8.76,1534404606.90625
-4.66,1534404606.921875
-0.58,1534404606.9375
3.33,1534404606.953125
6.87,1534404606.96875
9.84,1534404606.984375
12.11,1534404607.0
13.7,1534404607.015625
14.74,1534404607.03125
15.44,1534404607.046875
15.99,1534404607.0625
16.53,1534404607.078125
17.05,1534404607.09375
17.43,1534404607.109375
17.52,1534404607.125
17.15,1534404607.140625
16.32,1534404607.15625
15.06,1534404607.171875
13.56,1534404607.1875
11.96,1534404607.203125
10.34,1534404607.21875
8.69,1534404607.234375
6.93,1534404607.25
4.98,1534404607.265625
2.77,1534404607.28125
0.37,1534404607.296875
-2.2,1534404607.3125
-4.86,1534404607.328125
-7.54,1534404607.34375
-10.11,1534404607.359375
-12.4,1534404607.375
-14.14,1534404607.390625
-15.07,1534404607.40625
-14.99,1534404607.421875
-13.85,1534404607.4375
-11.73,1534404607.453125
-8.88,1534404607.46875
-5.55,1534404607.484375
-2.02,1534404607.5
1.51,1534404607.515625
4.87,1534404607.53125
7.88,1534404607.546875
10.35,1534404607.5625
12.11,1534404607.578125
13.14,1534404607.59375
13.6,1534404607.609375
13.87,1534404607.625
14.35,1534404607.640625
15.31,1534404607.65625
16.73,1534404607.671875
18.3,1534404607.6875
19.59,1534404607.703125
20.27,1534404607.71875
20.28,1534404607.734375
19.84,1534404607.75
19.28,1534404607.765625
18.85,1534404607.78125
18.6,1534404607.796875
18.43,1534404607.8125
18.22,1534404607.828125
17.88,1534404607.84375
17.41,1534404607.859375
16.76,1534404607.875
15.78,1534404607.890625
14.21,1534404607.90625
11.84,1534404607.921875
8.62,1534404607.9375
4.78,1534404607.953125
0.71,1534404607.96875
-3.19,1534404607.984375
-6.69,1534404608.0
-9.78,1534404608.015625
-12.51,1534404608.03125
-14.83,1534404608.046875
-16.45,1534404608.0625
-16.96,1534404608.078125
-16.01,1534404608.09375
-13.57,1534404608.109375
-10.06,1534404608.125
-6.24,1534404608.140625
-3.02,1534404608.15625
-1.14,1534404608.171875
-1.02,1534404608.1875
-2.62,1534404608.203125
-5.53,1534404608.21875
-9.1,1534404608.234375
-12.61,1534404608.25
-15.44,1534404608.265625
-17.11,1534404608.28125
-17.3,1534404608.296875
-15.92,1534404608.3125
-13.08,1534404608.328125
-9.27,1534404608.34375
-5.43,1534404608.359375
-2.86,1534404608.375
-2.83,1534404608.390625
-5.96,1534404608.40625
-11.63,1534404608.421875
-17.9,1534404608.4375
-22.03,1534404608.453125
-21.56,1534404608.46875
-15.38,1534404608.484375
-4.22,1534404608.5
9.59,1534404608.515625
23.21,1534404608.53125
34.4,1534404608.546875
42.18,1534404608.5625
46.86,1534404608.578125
49.43,1534404608.59375
50.84,1534404608.609375
51.57,1534404608.625
51.7,1534404608.640625
51.2,1534404608.65625
50.19,1534404608.671875
48.87,1534404608.6875
47.42,1534404608.703125
45.72,1534404608.71875
43.46,1534404608.734375
40.37,1534404608.75
36.55,1534404608.765625
32.57,1534404608.78125
29.24,1534404608.796875
27.16,1534404608.8125
26.33,1534404608.828125
26.13,1534404608.84375
25.63,1534404608.859375
24.1,1534404608.875
21.47,1534404608.890625
18.29,1534404608.90625
15.44,1534404608.921875
13.54,1534404608.9375
12.55,1534404608.953125
11.66,1534404608.96875
9.59,1534404608.984375
5.09,1534404609.0
-2.4,1534404609.015625
-12.46,1534404609.03125
-23.62,1534404609.046875
-33.85,1534404609.0625
-41.28,1534404609.078125
-44.94,1534404609.09375
-45.05,1534404609.109375
-42.89,1534404609.125
-40.11,1534404609.140625
-38.06,1534404609.15625
-37.32,1534404609.171875
-37.76,1534404609.1875
-38.94,1534404609.203125
-40.58,1534404609.21875
-42.69,1534404609.234375
-45.39,1534404609.25
-48.54,1534404609.265625
-51.59,1534404609.28125
-53.64,1534404609.296875
-53.84,1534404609.3125
-51.76,1534404609.328125
-47.6,1534404609.34375
-42.08,1534404609.359375
-36.18,1534404609.375
-30.81,1534404609.390625
-26.55,1534404609.40625
-23.56,1534404609.421875
-21.65,1534404609.4375
-20.36,1534404609.453125
-19.15,1534404609.46875
-17.57,1534404609.484375
-15.36,1534404609.5
-12.55,1534404609.515625
-9.36,1534404609.53125
-6.11,1534404609.546875
-3.14,1534404609.5625
-0.75,1534404609.578125
0.89,1534404609.59375
1.68,1534404609.609375
1.64,1534404609.625
0.89,1534404609.640625
-0.32,1534404609.65625
-1.74,1534404609.671875
-3.11,1534404609.6875
-4.28,1534404609.703125
-5.24,1534404609.71875
-6.08,1534404609.734375
-6.98,1534404609.75
-8.1,1534404609.765625
-9.56,1534404609.78125
-11.38,1534404609.796875
-13.42,1534404609.8125
-15.44,1534404609.828125
-17.11,1534404609.84375
-18.05,1534404609.859375
-17.96,1534404609.875
-16.7,1534404609.890625
-14.33,1534404609.90625
-11.07,1534404609.921875
-7.3,1534404609.9375
-3.38,1534404609.953125
0.36,1534404609.96875
3.72,1534404609.984375
6.6,1534404610.0
8.99,1534404610.015625
10.93,1534404610.03125
12.49,1534404610.046875
13.77,1534404610.0625
14.86,1534404610.078125
15.89,1534404610.09375
16.92,1534404610.109375
18.0,1534404610.125
19.06,1534404610.140625
19.99,1534404610.15625
20.64,1534404610.171875
20.9,1534404610.1875
20.76,1534404610.203125
20.23,1534404610.21875
19.41,1534404610.234375
18.35,1534404610.25
17.08,1534404610.265625
15.6,1534404610.28125
13.91,1534404610.296875
12.03,1534404610.3125
10.02,1534404610.328125
7.95,1534404610.34375
5.82,1534404610.359375
3.6,1534404610.375
1.24,1534404610.390625
-1.25,1534404610.40625
-3.7,1534404610.421875
-5.85,1534404610.4375
-7.32,1534404610.453125
-7.88,1534404610.46875
-7.4,1534404610.484375
-6.05,1534404610.5
-4.05,1534404610.515625
-1.7,1534404610.53125
0.83,1534404610.546875
3.47,1534404610.5625
6.18,1534404610.578125
8.92,1534404610.59375
11.55,1534404610.609375
13.92,1534404610.625
15.9,1534404610.640625
17.49,1534404610.65625
18.83,1534404610.671875
20.15,1534404610.6875
21.62,1534404610.703125
23.29,1534404610.71875
25.02,1534404610.734375
26.61,1534404610.75
27.82,1534404610.765625
28.54,1534404610.78125
28.72,1534404610.796875
28.4,1534404610.8125
27.64,1534404610.828125
26.49,1534404610.84375
24.95,1534404610.859375
22.98,1534404610.875
20.55,1534404610.890625
17.56,1534404610.90625
14.0,1534404610.921875
9.96,1534404610.9375
5.73,1534404610.953125
1.77,1534404610.96875
-1.37,1534404610.984375
-3.29,1534404611.0
-3.86,1534404611.015625
-3.29,1534404611.03125
-2.04,1534404611.046875
-0.67,1534404611.0625
0.29,1534404611.078125
0.51,1534404611.09375
-0.18,1534404611.109375
-1.77,1534404611.125
-4.03,1534404611.140625
-6.52,1534404611.15625
-8.51,1534404611.171875
-9.17,1534404611.1875
-7.76,1534404611.203125
-3.98,1534404611.21875
1.73,1534404611.234375
8.21,1534404611.25
13.86,1534404611.265625
17.18,1534404611.28125
17.28,1534404611.296875
14.18,1534404611.3125
8.66,1534404611.328125
1.9,1534404611.34375
-5.04,1534404611.359375
-11.46,1534404611.375
-17.05,1534404611.390625
-21.59,1534404611.40625
-24.82,1534404611.421875
-26.45,1534404611.4375
-26.32,1534404611.453125
-24.66,1534404611.46875
-22.15,1534404611.484375
-19.7,1534404611.5
-18.12,1534404611.515625
-17.75,1534404611.53125
-18.45,1534404611.546875
-19.7,1534404611.5625
-20.94,1534404611.578125
-21.76,1534404611.59375
-22.02,1534404611.609375
-21.8,1534404611.625
-21.23,1534404611.640625
-20.38,1534404611.65625
-19.22,1534404611.671875
-17.62,1534404611.6875
-15.48,1534404611.703125
-12.71,1534404611.71875
-9.39,1534404611.734375
-5.8,1534404611.75
-2.38,1534404611.765625
0.34,1534404611.78125
1.98,1534404611.796875
2.38,1534404611.8125
1.75,1534404611.828125
0.56,1534404611.84375
-0.67,1534404611.859375
-1.5,1534404611.875
-1.79,1534404611.890625
-1.6,1534404611.90625
-1.16,1534404611.921875
-0.68,1534404611.9375
-0.32,1534404611.953125
-0.16,1534404611.96875
-0.23,1534404611.984375
-0.57,1534404612.0
-1.21,1534404612.015625
-2.14,1534404612.03125
-3.3,1534404612.046875
-4.54,1534404612.0625
-5.72,1534404612.078125
-6.79,1534404612.09375
-7.82,1534404612.109375
-8.96,1534404612.125
-10.33,1534404612.140625
-11.95,1534404612.15625
-13.64,1534404612.171875
-15.08,1534404612.1875
-15.97,1534404612.203125
-16.12,1534404612.21875
-15.53,1534404612.234375
-14.33,1534404612.25
-12.69,1534404612.265625
-10.73,1534404612.28125
-8.47,1534404612.296875
-5.97,1534404612.3125
-3.29,1534404612.328125
-0.6,1534404612.34375
1.92,1534404612.359375
4.12,1534404612.375
5.93,1534404612.390625
7.39,1534404612.40625
8.54,1534404612.421875
9.41,1534404612.4375
10.03,1534404612.453125
10.46,1534404612.46875
10.84,1534404612.484375
11.35,1534404612.5
12.04,1534404612.515625
12.83,1534404612.53125
13.43,1534404612.546875
13.5,1534404612.5625
12.81,1534404612.578125
11.38,1534404612.59375
9.47,1534404612.609375
7.45,1534404612.625
5.65,1534404612.640625
4.16,1534404612.65625
2.85,1534404612.671875
1.42,1534404612.6875
-0.41,1534404612.703125
-2.75,1534404612.71875
-5.49,1534404612.734375
-8.36,1534404612.75
-10.96,1534404612.765625
-12.96,1534404612.78125
-14.09,1534404612.796875
-14.21,1534404612.8125
-13.25,1534404612.828125
-11.26,1534404612.84375
-8.39,1534404612.859375
-4.88,1534404612.875
-1.04,1534404612.890625
2.86,1534404612.90625
6.68,1534404612.921875
10.36,1534404612.9375
13.95,1534404612.953125
17.47,1534404612.96875
20.81,1534404612.984375
23.78,1534404613.0
26.19,1534404613.015625
27.88,1534404613.03125
28.88,1534404613.046875
29.28,1534404613.0625
29.22,1534404613.078125
28.75,1534404613.09375
27.87,1534404613.109375
26.5,1534404613.125
24.61,1534404613.140625
22.32,1534404613.15625
19.8,1534404613.171875
17.31,1534404613.1875
15.03,1534404613.203125
13.06,1534404613.21875
11.27,1534404613.234375
9.45,1534404613.25
7.28,1534404613.265625
4.6,1534404613.28125
1.46,1534404613.296875
-1.81,1534404613.3125
-4.75,1534404613.328125
-7.01,1534404613.34375
-8.51,1534404613.359375
-9.48,1534404613.375
-10.23,1534404613.390625
-10.98,1534404613.40625
-11.85,1534404613.421875
-12.85,1534404613.4375
-14.16,1534404613.453125
-16.13,1534404613.46875
-19.1,1534404613.484375
-23.07,1534404613.5
-27.39,1534404613.515625
-30.89,1534404613.53125
-32.21,1534404613.546875
-30.43,1534404613.5625
-25.62,1534404613.578125
-18.76,1534404613.59375
-11.49,1534404613.609375
-5.32,1534404613.625
-1.16,1534404613.640625
0.85,1534404613.65625
1.24,1534404613.671875
0.76,1534404613.6875
0.04,1534404613.703125
-0.61,1534404613.71875
-1.13,1534404613.734375
-1.52,1534404613.75
-1.71,1534404613.765625
-1.56,1534404613.78125
-0.96,1534404613.796875
0.03,1534404613.8125
1.12,1534404613.828125
1.89,1534404613.84375
1.94,1534404613.859375
1.11,1534404613.875
-0.52,1534404613.890625
-2.6,1534404613.90625
-4.79,1534404613.921875
-6.82,1534404613.9375
-8.57,1534404613.953125
-10.03,1534404613.96875
-11.17,1534404613.984375
-11.9,1534404614.0
-12.08,1534404614.015625
-11.6,1534404614.03125
-10.41,1534404614.046875
-8.56,1534404614.0625
-6.18,1534404614.078125
-3.43,1534404614.09375
-0.45,1534404614.109375
2.6,1534404614.125
5.51,1534404614.140625
8.02,1534404614.15625
9.85,1534404614.171875
10.83,1534404614.1875
10.99,1534404614.203125
10.52,1534404614.21875
9.79,1534404614.234375
9.11,1534404614.25
8.66,1534404614.265625
8.35,1534404614.28125
8.01,1534404614.296875
7.37,1534404614.3125
6.36,1534404614.328125
5.05,1534404614.34375
3.68,1534404614.359375
2.47,1534404614.375
1.53,1534404614.390625
0.79,1534404614.40625
0.1,1534404614.421875
-0.71,1534404614.4375
-1.72,1534404614.453125
-2.89,1534404614.46875
-4.17,1534404614.484375
-5.52,1534404614.5
-6.96,1534404614.515625
-8.5,1534404614.53125
-10.13,1534404614.546875
-11.7,1534404614.5625
-12.98,1534404614.578125
-13.68,1534404614.59375
-13.63,1534404614.609375
-12.76,1534404614.625
-11.18,1534404614.640625
-9.1,1534404614.65625
-6.72,1534404614.671875
-4.19,1534404614.6875
-1.56,1534404614.703125
1.12,1534404614.71875
3.78,1534404614.734375
6.29,1534404614.75
8.4,1534404614.765625
9.89,1534404614.78125
10.68,1534404614.796875
10.85,1534404614.8125
10.68,1534404614.828125
10.53,1534404614.84375
10.71,1534404614.859375
11.31,1534404614.875
12.23,1534404614.890625
13.22,1534404614.90625
14.0,1534404614.921875
14.44,1534404614.9375
14.59,1534404614.953125
14.61,1534404614.96875
14.72,1534404614.984375
14.98,1534404615.0
15.29,1534404615.015625
15.44,1534404615.03125
15.18,1534404615.046875
14.36,1534404615.0625
13.01,1534404615.078125
11.26,1534404615.09375
9.33,1534404615.109375
7.45,1534404615.125
5.75,1534404615.140625
4.36,1534404615.15625
3.45,1534404615.171875
3.22,1534404615.1875
3.86,1534404615.203125
5.44,1534404615.21875
7.86,1534404615.234375
10.86,1534404615.25
14.06,1534404615.265625
17.15,1534404615.28125
19.93,1534404615.296875
22.3,1534404615.3125
24.17,1534404615.328125
25.37,1534404615.34375
25.67,1534404615.359375
24.89,1534404615.375
23.08,1534404615.390625
20.55,1534404615.40625
17.91,1534404615.421875
15.77,1534404615.4375
14.48,1534404615.453125
13.99,1534404615.46875
13.92,1534404615.484375
13.69,1534404615.5
12.95,1534404615.515625
11.67,1534404615.53125
10.17,1534404615.546875
8.93,1534404615.5625
8.26,1534404615.578125
8.03,1534404615.59375
7.72,1534404615.609375
6.64,1534404615.625
4.33,1534404615.640625
0.88,1534404615.65625
-3.11,1534404615.671875
-6.78,1534404615.6875
-9.49,1534404615.703125
-11.06,1534404615.71875
-11.79,1534404615.734375
-12.08,1534404615.75
-12.14,1534404615.765625
-11.92,1534404615.78125
-11.24,1534404615.796875
-10.23,1534404615.8125
-9.47,1534404615.828125
-9.83,1534404615.84375
-11.98,1534404615.859375
-16.02,1534404615.875
-21.26,1534404615.890625
-26.59,1534404615.90625
-30.86,1534404615.921875
-33.41,1534404615.9375
-34.23,1534404615.953125
-33.73,1534404615.96875
-32.51,1534404615.984375
-31.06,1534404616.0
-29.67,1534404616.015625
-28.44,1534404616.03125
-27.4,1534404616.046875
-26.5,1534404616.0625
-25.66,1534404616.078125
-24.81,1534404616.09375
-23.91,1534404616.109375
-22.94,1534404616.125
-21.98,1534404616.140625
-21.05,1534404616.15625
-20.18,1534404616.171875
-19.33,1534404616.1875
-18.48,1534404616.203125
-17.64,1534404616.21875
-16.88,1534404616.234375
-16.27,1534404616.25
-15.79,1534404616.265625
-15.34,1534404616.28125
-14.72,1534404616.296875
-13.8,1534404616.3125
-12.63,1534404616.328125
-11.53,1534404616.34375
-10.94,1534404616.359375
-11.28,1534404616.375
-12.68,1534404616.390625
-14.93,1534404616.40625
-17.41,1534404616.421875
-19.4,1534404616.4375
-20.27,1534404616.453125
-19.68,1534404616.46875
-17.65,1534404616.484375
-14.5,1534404616.5
-10.73,1534404616.515625
-6.82,1534404616.53125
-3.12,1534404616.546875
0.24,1534404616.5625
3.29,1534404616.578125
6.14,1534404616.59375
8.84,1534404616.609375
11.38,1534404616.625
13.59,1534404616.640625
15.34,1534404616.65625
16.55,1534404616.671875
17.29,1534404616.6875
17.74,1534404616.703125
18.08,1534404616.71875
18.42,1534404616.734375
18.71,1534404616.75
18.86,1534404616.765625
18.74,1534404616.78125
18.3,1534404616.796875
17.56,1534404616.8125
16.58,1534404616.828125
15.48,1534404616.84375
14.39,1534404616.859375
13.41,1534404616.875
12.64,1534404616.890625
12.05,1534404616.90625
11.46,1534404616.921875
10.62,1534404616.9375
9.24,1534404616.953125
7.18,1534404616.96875
4.5,1534404616.984375
1.39,1534404617.0
-1.87,1534404617.015625
-5.03,1534404617.03125
-7.88,1534404617.046875
-10.24,1534404617.0625
-11.92,1534404617.078125
-12.71,1534404617.09375
-12.5,1534404617.109375
-11.29,1534404617.125
-9.3,1534404617.140625
-6.85,1534404617.15625
-4.22,1534404617.171875
-1.62,1534404617.1875
0.89,1534404617.203125
3.33,1534404617.21875
5.67,1534404617.234375
7.85,1534404617.25
9.7,1534404617.265625
11.09,1534404617.28125
12.0,1534404617.296875
12.52,1534404617.3125
12.83,1534404617.328125
13.13,1534404617.34375
13.47,1534404617.359375
13.83,1534404617.375
14.03,1534404617.390625
13.96,1534404617.40625
13.62,1534404617.421875
13.18,1534404617.4375
12.93,1534404617.453125
13.08,1534404617.46875
13.64,1534404617.484375
14.36,1534404617.5
14.9,1534404617.515625
14.9,1534404617.53125
14.25,1534404617.546875
13.03,1534404617.5625
11.46,1534404617.578125
9.67,1534404617.59375
7.73,1534404617.609375
5.66,1534404617.625
3.56,1534404617.640625
1.72,1534404617.65625
0.58,1534404617.671875
0.53,1534404617.6875
1.75,1534404617.703125
4.12,1534404617.71875
7.19,1534404617.734375
10.39,1534404617.75
13.22,1534404617.765625
15.4,1534404617.78125
16.93,1534404617.796875
18.02,1534404617.8125
18.93,1534404617.828125
19.86,1534404617.84375
20.87,1534404617.859375
21.84,1534404617.875
22.56,1534404617.890625
22.83,1534404617.90625
22.53,1534404617.921875
21.67,1534404617.9375
20.44,1534404617.953125
19.17,1534404617.96875
18.22,1534404617.984375
17.84,1534404618.0
18.09,1534404618.015625
18.75,1534404618.03125
19.32,1534404618.046875
19.13,1534404618.0625
17.58,1534404618.078125
14.32,1534404618.09375
9.34,1534404618.109375
3.04,1534404618.125
-3.94,1534404618.140625
-10.91,1534404618.15625
-17.29,1534404618.171875
-22.75,1534404618.1875
-27.17,1534404618.203125
-30.57,1534404618.21875
-33.06,1534404618.234375
-34.72,1534404618.25
-35.62,1534404618.265625
-35.88,1534404618.28125
-35.63,1534404618.296875
-35.04,1534404618.3125
-34.27,1534404618.328125
-33.35,1534404618.34375
-32.26,1534404618.359375
-30.95,1534404618.375
-29.39,1534404618.390625
-27.63,1534404618.40625
-25.73,1534404618.421875
-23.76,1534404618.4375
-21.77,1534404618.453125
-19.75,1534404618.46875
-17.74,1534404618.484375
-15.81,1534404618.5
-14.08,1534404618.515625
-12.62,1534404618.53125
-11.41,1534404618.546875
-10.36,1534404618.5625
-9.32,1534404618.578125
-8.25,1534404618.59375
-7.18,1534404618.609375
-6.31,1534404618.625
-5.84,1534404618.640625
-5.89,1534404618.65625
-6.43,1534404618.671875
-7.32,1534404618.6875
-8.4,1534404618.703125
-9.51,1534404618.71875
-10.61,1534404618.734375
-11.72,1534404618.75
-12.9,1534404618.765625
-14.21,1534404618.78125
-15.65,1534404618.796875
-17.15,1534404618.8125
-18.59,1534404618.828125
-19.78,1534404618.84375
-20.51,1534404618.859375
-20.6,1534404618.875
-20.01,1534404618.890625
-18.83,1534404618.90625
-17.21,1534404618.921875
-15.31,1534404618.9375
-13.15,1534404618.953125
-10.67,1534404618.96875
-7.78,1534404618.984375
-4.52,1534404619.0
-1.07,1534404619.015625
2.21,1534404619.03125
5.01,1534404619.046875
7.12,1534404619.0625
8.55,1534404619.078125
9.5,1534404619.09375
10.25,1534404619.109375
10.98,1534404619.125
11.73,1534404619.140625
12.4,1534404619.15625
12.82,1534404619.171875
12.84,1534404619.1875
12.45,1534404619.203125
11.69,1534404619.21875
10.72,1534404619.234375
9.66,1534404619.25
8.58,1534404619.265625
7.45,1534404619.28125
6.16,1534404619.296875
4.64,1534404619.3125
2.9,1534404619.328125
1.03,1534404619.34375
-0.84,1534404619.359375
-2.62,1534404619.375
-4.38,1534404619.390625
-6.32,1534404619.40625
-8.65,1534404619.421875
-11.4,1534404619.4375
-14.33,1534404619.453125
-16.98,1534404619.46875
-18.8,1534404619.484375
-19.35,1534404619.5
-18.49,1534404619.515625
-16.34,1534404619.53125
-13.19,1534404619.546875
-9.41,1534404619.5625
-5.26,1534404619.578125
-0.92,1534404619.59375
3.46,1534404619.609375
7.75,1534404619.625
11.82,1534404619.640625
15.47,1534404619.65625
18.65,1534404619.671875
21.33,1534404619.6875
23.65,1534404619.703125
25.73,1534404619.71875
27.69,1534404619.734375
29.52,1534404619.75
31.09,1534404619.765625
32.24,1534404619.78125
32.91,1534404619.796875
33.27,1534404619.8125
33.59,1534404619.828125
34.2,1534404619.84375
35.26,1534404619.859375
36.58,1534404619.875
37.79,1534404619.890625
38.43,1534404619.90625
38.22,1534404619.921875
37.09,1534404619.9375
35.18,1534404619.953125
32.65,1534404619.96875
29.59,1534404619.984375
25.99,1534404620.0
21.83,1534404620.015625
17.1,1534404620.03125
11.95,1534404620.046875
6.55,1534404620.0625
1.19,1534404620.078125
-3.78,1534404620.09375
-8.0,1534404620.109375
-11.14,1534404620.125
-12.95,1534404620.140625
-13.35,1534404620.15625
-12.49,1534404620.171875
-10.67,1534404620.1875
-8.25,1534404620.203125
-5.53,1534404620.21875
-2.67,1534404620.234375
0.26,1534404620.25
3.27,1534404620.265625
6.36,1534404620.28125
9.52,1534404620.296875
12.67,1534404620.3125
15.75,1534404620.328125
18.7,1534404620.34375
21.46,1534404620.359375
23.98,1534404620.375
26.08,1534404620.390625
27.51,1534404620.40625
27.79,1534404620.421875
26.41,1534404620.4375
22.99,1534404620.453125
17.51,1534404620.46875
10.35,1534404620.484375
2.33,1534404620.5
-5.57,1534404620.515625
-12.51,1534404620.53125
-17.92,1534404620.546875
-21.72,1534404620.5625
-24.18,1534404620.578125
-25.78,1534404620.59375
-27.05,1534404620.609375
-28.44,1534404620.625
-30.24,1534404620.640625
-32.54,1534404620.65625
-35.22,1534404620.671875
-38.0,1534404620.6875
-40.52,1534404620.703125
-42.37,1534404620.71875
-43.24,1534404620.734375
-42.95,1534404620.75
-41.47,1534404620.765625
-38.9,1534404620.78125
-35.45,1534404620.796875
-31.44,1534404620.8125
-27.18,1534404620.828125
-23.02,1534404620.84375
-19.19,1534404620.859375
-15.78,1534404620.875
-12.73,1534404620.890625
-9.86,1534404620.90625
-7.06,1534404620.921875
-4.34,1534404620.9375
-1.84,1534404620.953125
0.23,1534404620.96875
1.72,1534404620.984375
2.67,1534404621.0
3.32,1534404621.015625
3.9,1534404621.03125
4.62,1534404621.046875
5.45,1534404621.0625
6.19,1534404621.078125
6.64,1534404621.09375
6.62,1534404621.109375
6.11,1534404621.125
5.21,1534404621.140625
4.04,1534404621.15625
2.67,1534404621.171875
1.13,1534404621.1875
-0.59,1534404621.203125
-2.45,1534404621.21875
-4.43,1534404621.234375
-6.49,1534404621.25
-8.64,1534404621.265625
-10.94,1534404621.28125
-13.37,1534404621.296875
-15.79,1534404621.3125
-17.89,1534404621.328125
-19.22,1534404621.34375
-19.43,1534404621.359375
-18.33,1534404621.375
-16.08,1534404621.390625
-13.05,1534404621.40625
-9.65,1534404621.421875
-6.16,1534404621.4375
-2.66,1534404621.453125
0.89,1534404621.46875
4.49,1534404621.484375
7.97,1534404621.5
11.05,1534404621.515625
13.4,1534404621.53125
14.89,1534404621.546875
15.59,1534404621.5625
15.77,1534404621.578125
15.71,1534404621.59375
15.6,1534404621.609375
15.48,1534404621.625
15.3,1534404621.640625
15.01,1534404621.65625
14.6,1534404621.671875
14.08,1534404621.6875
13.48,1534404621.703125
12.73,1534404621.71875
11.72,1534404621.734375
10.4,1534404621.75
8.76,1534404621.765625
6.92,1534404621.78125
5.03,1534404621.796875
3.19,1534404621.8125
1.39,1534404621.828125
-0.45,1534404621.84375
-2.47,1534404621.859375
-4.76,1534404621.875
-7.33,1534404621.890625
-10.05,1534404621.90625
-12.62,1534404621.921875
-14.65,1534404621.9375
-15.71,1534404621.953125
-15.47,1534404621.96875
-13.87,1534404621.984375
-11.08,1534404622.0
-7.55,1534404622.015625
-3.73,1534404622.03125
-0.0,1534404622.046875
3.53,1534404622.0625
7.0,1534404622.078125
10.67,1534404622.09375
14.73,1534404622.109375
19.15,1534404622.125
23.69,1534404622.140625
27.88,1534404622.15625
31.21,1534404622.171875
33.28,1534404622.1875
33.94,1534404622.203125
33.36,1534404622.21875
31.95,1534404622.234375
30.22,1534404622.25
28.6,1534404622.265625
27.26,1534404622.28125
26.0,1534404622.296875
24.43,1534404622.3125
22.1,1534404622.328125
18.75,1534404622.34375
14.44,1534404622.359375
9.49,1534404622.375
4.41,1534404622.390625
-0.32,1534404622.40625
-4.44,1534404622.421875
-7.96,1534404622.4375
-11.17,1534404622.453125
-14.48,1534404622.46875
-18.27,1534404622.484375
-22.62,1534404622.5
-27.28,1534404622.515625
-31.63,1534404622.53125
-34.9,1534404622.546875
-36.43,1534404622.5625
-35.89,1534404622.578125
-33.43,1534404622.59375
-29.63,1534404622.609375
-25.21,1534404622.625
-20.85,1534404622.640625
-16.88,1534404622.65625
-13.27,1534404622.671875
-9.67,1534404622.6875
-5.68,1534404622.703125
-1.0,1534404622.71875
4.42,1534404622.734375
10.43,1534404622.75
16.77,1534404622.765625
23.13,1534404622.78125
29.12,1534404622.796875
34.19,1534404622.8125
37.72,1534404622.828125
39.19,1534404622.84375
38.53,1534404622.859375
36.25,1534404622.875
33.26,1534404622.890625
30.34,1534404622.90625
27.62,1534404622.921875
24.45,1534404622.9375
19.78,1534404622.953125
12.97,1534404622.96875
4.38,1534404622.984375
-4.54,1534404623.0
-11.93,1534404623.015625
-16.43,1534404623.03125
-17.8,1534404623.046875
-17.06,1534404623.0625
-15.77,1534404623.078125
-15.3,1534404623.09375
-16.21,1534404623.109375
-18.29,1534404623.125
-20.86,1534404623.140625
-23.23,1534404623.15625
-25.04,1534404623.171875
-26.19,1534404623.1875
-26.77,1534404623.203125
-26.77,1534404623.21875
-26.06,1534404623.234375
-24.44,1534404623.25
-21.75,1534404623.265625
-18.04,1534404623.28125
-13.58,1534404623.296875
-8.86,1534404623.3125
-4.44,1534404623.328125
-0.76,1534404623.34375
1.96,1534404623.359375
3.75,1534404623.375
4.79,1534404623.390625
5.3,1534404623.40625
5.41,1534404623.421875
5.22,1534404623.4375
4.78,1534404623.453125
4.23,1534404623.46875
3.75,1534404623.484375
3.55,1534404623.5
3.75,1534404623.515625
4.3,1534404623.53125
5.0,1534404623.546875
5.61,1534404623.5625
5.91,1534404623.578125
5.79,1534404623.59375
5.28,1534404623.609375
4.5,1534404623.625
3.52,1534404623.640625
2.38,1534404623.65625
1.04,1534404623.671875
-0.6,1534404623.6875
-2.5,1534404623.703125
-4.58,1534404623.71875
-6.68,1534404623.734375
-8.65,1534404623.75
-10.35,1534404623.765625
-11.74,1534404623.78125
-12.76,1534404623.796875
-13.29,1534404623.8125
-13.18,1534404623.828125
-12.28,1534404623.84375
-10.61,1534404623.859375
-8.37,1534404623.875
-5.92,1534404623.890625
-3.59,1534404623.90625
-1.56,1534404623.921875
0.21,1534404623.9375
1.89,1534404623.953125
3.6,1534404623.96875
5.3,1534404623.984375
6.8,1534404624.0
7.87,1534404624.015625
8.36,1534404624.03125
8.34,1534404624.046875
8.0,1534404624.0625
7.57,1534404624.078125
7.22,1534404624.09375
6.97,1534404624.109375
6.77,1534404624.125
6.56,1534404624.140625
6.32,1534404624.15625
6.06,1534404624.171875
5.77,1534404624.1875
5.43,1534404624.203125
5.01,1534404624.21875
4.48,1534404624.234375
3.81,1534404624.25
2.95,1534404624.265625
1.84,1534404624.28125
0.41,1534404624.296875
-1.39,1534404624.3125
-3.49,1534404624.328125
-5.72,1534404624.34375
-7.82,1534404624.359375
-9.55,1534404624.375
-10.72,1534404624.390625
-11.23,1534404624.40625
-11.08,1534404624.421875
-10.29,1534404624.4375
-8.87,1534404624.453125
-6.84,1534404624.46875
-4.19,1534404624.484375
-0.95,1534404624.5
2.79,1534404624.515625
6.86,1534404624.53125
10.97,1534404624.546875
14.9,1534404624.5625
18.44,1534404624.578125
21.62,1534404624.59375
24.64,1534404624.609375
27.75,1534404624.625
31.08,1534404624.640625
34.49,1534404624.65625
37.67,1534404624.671875
40.17,1534404624.6875
41.63,1534404624.703125
41.85,1534404624.71875
40.81,1534404624.734375
38.52,1534404624.75
35.09,1534404624.765625
30.72,1534404624.78125
25.84,1534404624.796875
21.02,1534404624.8125
16.85,1534404624.828125
13.66,1534404624.84375
11.29,1534404624.859375
9.14,1534404624.875
6.28,1534404624.890625
2.02,1534404624.90625
-3.83,1534404624.921875
-10.8,1534404624.9375
-17.91,1534404624.953125
-24.16,1534404624.96875
-28.9,1534404624.984375
-32.14,1534404625.0
-34.38,1534404625.015625
-36.33,1534404625.03125
-38.43,1534404625.046875
-40.64,1534404625.0625
-42.47,1534404625.078125
-43.23,1534404625.09375
-42.38,1534404625.109375
-39.68,1534404625.125
-35.34,1534404625.140625
-29.74,1534404625.15625
-23.42,1534404625.171875
-16.92,1534404625.1875
-10.74,1534404625.203125
-5.32,1534404625.21875
-0.96,1534404625.234375
2.19,1534404625.25
4.17,1534404625.265625
5.08,1534404625.28125
5.13,1534404625.296875
4.64,1534404625.3125
3.92,1534404625.328125
3.32,1534404625.34375
3.03,1534404625.359375
3.02,1534404625.375
3.08,1534404625.390625
3.07,1534404625.40625
3.06,1534404625.421875
3.42,1534404625.4375
4.52,1534404625.453125
6.37,1534404625.46875
8.4,1534404625.484375
9.5,1534404625.5
8.55,1534404625.515625
4.9,1534404625.53125
-1.21,1534404625.546875
-8.86,1534404625.5625
-16.76,1534404625.578125
-23.8,1534404625.59375
-29.3,1534404625.609375
-32.98,1534404625.625
-34.81,1534404625.640625
-34.81,1534404625.65625
-33.1,1534404625.671875
-29.88,1534404625.6875
-25.56,1534404625.703125
-20.73,1534404625.71875
-15.98,1534404625.734375
-11.83,1534404625.75
-8.5,1534404625.765625
-6.02,1534404625.78125
-4.2,1534404625.796875
-2.75,1534404625.8125
-1.39,1534404625.828125
0.07,1534404625.84375
1.69,1534404625.859375
3.44,1534404625.875
5.25,1534404625.890625
7.08,1534404625.90625
8.86,1534404625.921875
10.53,1534404625.9375
11.95,1534404625.953125
12.96,1534404625.96875
13.47,1534404625.984375
13.41,1534404626.0
12.82,1534404626.015625
11.79,1534404626.03125
10.39,1534404626.046875
8.66,1534404626.0625
6.68,1534404626.078125
4.56,1534404626.09375
2.41,1534404626.109375
0.4,1534404626.125
-1.45,1534404626.140625
-3.23,1534404626.15625
-5.12,1534404626.171875
-7.32,1534404626.1875
-9.84,1534404626.203125
-12.5,1534404626.21875
-14.91,1534404626.234375
-16.65,1534404626.25
-17.43,1534404626.265625
-17.15,1534404626.28125
-15.96,1534404626.296875
-14.13,1534404626.3125
-11.94,1534404626.328125
-9.55,1534404626.34375
-6.96,1534404626.359375
-4.1,1534404626.375
-0.94,1534404626.390625
2.4,1534404626.40625
5.69,1534404626.421875
8.61,1534404626.4375
10.91,1534404626.453125
12.58,1534404626.46875
13.73,1534404626.484375
14.61,1534404626.5
15.39,1534404626.515625
16.13,1534404626.53125
16.72,1534404626.546875
16.97,1534404626.5625
16.63,1534404626.578125
15.61,1534404626.59375
13.9,1534404626.609375
11.7,1534404626.625
9.29,1534404626.640625
6.98,1534404626.65625
4.92,1534404626.671875
3.16,1534404626.6875
1.6,1534404626.703125
0.06,1534404626.71875
-1.58,1534404626.734375
-3.37,1534404626.75
-5.31,1534404626.765625
-7.42,1534404626.78125
-9.7,1534404626.796875
-12.09,1534404626.8125
-14.42,1534404626.828125
-16.32,1534404626.84375
-17.34,1534404626.859375
-17.08,1534404626.875
-15.4,1534404626.890625
-12.48,1534404626.90625
-8.75,1534404626.921875
-4.72,1534404626.9375
-0.73,1534404626.953125
3.08,1534404626.96875
6.72,1534404626.984375
10.23,1534404627.0
13.55,1534404627.015625
16.54,1534404627.03125
19.1,1534404627.046875
21.23,1534404627.0625
23.09,1534404627.078125
24.88,1534404627.09375
26.77,1534404627.109375
28.74,1534404627.125
30.66,1534404627.140625
32.38,1534404627.15625
33.79,1534404627.171875
34.91,1534404627.1875
35.79,1534404627.203125
36.49,1534404627.21875
36.95,1534404627.234375
37.09,1534404627.25
36.83,1534404627.265625
36.15,1534404627.28125
35.0,1534404627.296875
33.19,1534404627.3125
30.35,1534404627.328125
26.02,1534404627.34375
19.9,1534404627.359375
12.14,1534404627.375
3.45,1534404627.390625
-5.09,1534404627.40625
-12.4,1534404627.421875
-17.74,1534404627.4375
-20.99,1534404627.453125
-22.51,1534404627.46875
-22.82,1534404627.484375
-22.35,1534404627.5
-21.33,1534404627.515625
-19.78,1534404627.53125
-17.72,1534404627.546875
-15.15,1534404627.5625
-12.02,1534404627.578125
-8.15,1534404627.59375
-3.26,1534404627.609375
2.8,1534404627.625
9.79,1534404627.640625
16.91,1534404627.65625
23.0,1534404627.671875
26.88,1534404627.6875
27.91,1534404627.703125
26.25,1534404627.71875
22.88,1534404627.734375
19.24,1534404627.75
16.68,1534404627.765625
16.06,1534404627.78125
17.4,1534404627.796875
19.94,1534404627.8125
22.39,1534404627.828125
23.38,1534404627.84375
21.87,1534404627.859375
17.41,1534404627.875
10.25,1534404627.890625
1.12,1534404627.90625
-8.99,1534404627.921875
-19.13,1534404627.9375
-28.52,1534404627.953125
-36.67,1534404627.96875
-43.29,1534404627.984375
-48.21,1534404628.0
-51.43,1534404628.015625
-53.07,1534404628.03125
-53.44,1534404628.046875
-52.95,1534404628.0625
-52.08,1534404628.078125
-51.16,1534404628.09375
-50.28,1534404628.109375
-49.31,1534404628.125
-47.9,1534404628.140625
-45.7,1534404628.15625
-42.52,1534404628.171875
-38.48,1534404628.1875
-33.96,1534404628.203125
-29.46,1534404628.21875
-25.33,1534404628.234375
-21.67,1534404628.25
-18.32,1534404628.265625
-14.98,1534404628.28125
-11.42,1534404628.296875
-7.62,1534404628.3125
-3.75,1534404628.328125
-0.14,1534404628.34375
2.9,1534404628.359375
5.17,1534404628.375
6.56,1534404628.390625
7.15,1534404628.40625
7.09,1534404628.421875
6.57,1534404628.4375
5.78,1534404628.453125
4.91,1534404628.46875
4.02,1534404628.484375
3.03,1534404628.5
1.82,1534404628.515625
0.19,1534404628.53125
-2.0,1534404628.546875
-4.74,1534404628.5625
-7.93,1534404628.578125
-11.32,1534404628.59375
-14.64,1534404628.609375
-17.57,1534404628.625
-19.85,1534404628.640625
-21.24,1534404628.65625
-21.58,1534404628.671875
-20.87,1534404628.6875
-19.19,1534404628.703125
-16.8,1534404628.71875
-13.95,1534404628.734375
-10.87,1534404628.75
-7.68,1534404628.765625
-4.43,1534404628.78125
-1.12,1534404628.796875
2.16,1534404628.8125
5.25,1534404628.828125
7.95,1534404628.84375
10.11,1534404628.859375
11.68,1534404628.875
12.77,1534404628.890625
13.51,1534404628.90625
14.1,1534404628.921875
14.61,1534404628.9375
15.08,1534404628.953125
15.46,1534404628.96875
15.73,1534404628.984375
15.89,1534404629.0
15.93,1534404629.015625
15.85,1534404629.03125
15.6,1534404629.046875
15.11,1534404629.0625
14.28,1534404629.078125
13.0,1534404629.09375
11.22,1534404629.109375
8.9,1534404629.125
6.07,1534404629.140625
2.81,1534404629.15625
-0.72,1534404629.171875
-4.34,1534404629.1875
-7.86,1534404629.203125
-11.06,1534404629.21875
-13.74,1534404629.234375
-15.68,1534404629.25
-16.66,1534404629.265625
-16.55,1534404629.28125
-15.33,1534404629.296875
-13.15,1534404629.3125
-10.25,1534404629.328125
-6.87,1534404629.34375
-3.15,1534404629.359375
0.91,1534404629.375
5.33,1534404629.390625
10.04,1534404629.40625
14.81,1534404629.421875
19.23,1534404629.4375
22.91,1534404629.453125
25.61,1534404629.46875
27.38,1534404629.484375
28.49,1534404629.5
29.32,1534404629.515625
30.19,1534404629.53125
31.22,1534404629.546875
32.38,1534404629.5625
33.57,1534404629.578125
34.64,1534404629.59375
35.5,1534404629.609375
36.04,1534404629.625
36.14,1534404629.640625
35.68,1534404629.65625
34.57,1534404629.671875
32.72,1534404629.6875
30.16,1534404629.703125
26.9,1534404629.71875
22.97,1534404629.734375
18.42,1534404629.75
13.31,1534404629.765625
7.68,1534404629.78125
1.68,1534404629.796875
-4.48,1534404629.8125
-10.45,1534404629.828125
-15.72,1534404629.84375
-19.72,1534404629.859375
-21.91,1534404629.875
-22.01,1534404629.890625
-20.05,1534404629.90625
-16.43,1534404629.921875
-11.74,1534404629.9375
-6.6,1534404629.953125
-1.48,1534404629.96875
3.38,1534404629.984375
7.81,1534404630.0
11.69,1534404630.015625
14.79,1534404630.03125
16.9,1534404630.046875
17.95,1534404630.0625
18.15,1534404630.078125
17.94,1534404630.09375
17.84,1534404630.109375
18.17,1534404630.125
18.91,1534404630.140625
19.7,1534404630.15625
20.03,1534404630.171875
19.54,1534404630.1875
18.27,1534404630.203125
16.71,1534404630.21875
15.75,1534404630.234375
16.33,1534404630.25
19.12,1534404630.265625
24.08,1534404630.28125
30.41,1534404630.296875
36.63,1534404630.3125
41.12,1534404630.328125
42.53,1534404630.34375
40.11,1534404630.359375
33.9,1534404630.375
24.4,1534404630.390625
12.52,1534404630.40625
-0.61,1534404630.421875
-13.59,1534404630.4375
-24.79,1534404630.453125
-32.6,1534404630.46875
-35.92,1534404630.484375
-34.64,1534404630.5
-29.82,1534404630.515625
-23.39,1534404630.53125
-17.51,1534404630.546875
-13.8,1534404630.5625
-12.9,1534404630.578125
-14.48,1534404630.59375
-17.67,1534404630.609375
-21.44,1534404630.625
-25.01,1534404630.640625
-27.88,1534404630.65625
-29.81,1534404630.671875
-30.73,1534404630.6875
-30.67,1534404630.703125
-29.74,1534404630.71875
-28.15,1534404630.734375
-26.15,1534404630.75
-24.03,1534404630.765625
-22.08,1534404630.78125
-20.49,1534404630.796875
-19.38,1534404630.8125
-18.73,1534404630.828125
-18.46,1534404630.84375
-18.4,1534404630.859375
-18.4,1534404630.875
-18.4,1534404630.890625
-18.41,1534404630.90625
-18.53,1534404630.921875
-18.91,1534404630.9375
-19.69,1534404630.953125
-20.89,1534404630.96875
-22.37,1534404630.984375
-23.98,1534404631.0
-25.5,1534404631.015625
-26.77,1534404631.03125
-27.68,1534404631.046875
-28.14,1534404631.0625
-27.99,1534404631.078125
-27.08,1534404631.09375
-25.25,1534404631.109375
-22.45,1534404631.125
-18.77,1534404631.140625
-14.51,1534404631.15625
-10.02,1534404631.171875
-5.66,1534404631.1875
-1.69,1534404631.203125
1.83,1534404631.21875
4.91,1534404631.234375
7.56,1534404631.25
9.74,1534404631.265625
11.36,1534404631.28125
12.35,1534404631.296875
12.76,1534404631.3125
12.75,1534404631.328125
12.56,1534404631.34375
12.42,1534404631.359375
12.46,1534404631.375
12.68,1534404631.390625
12.93,1534404631.40625
13.02,1534404631.421875
12.79,1534404631.4375
12.15,1534404631.453125
11.07,1534404631.46875
9.62,1534404631.484375
7.91,1534404631.5
6.05,1534404631.515625
4.18,1534404631.53125
2.33,1534404631.546875
0.5,1534404631.5625
-1.41,1534404631.578125
-3.47,1534404631.59375
-5.78,1534404631.609375
-8.33,1534404631.625
-11.04,1534404631.640625
-13.77,1534404631.65625
-16.31,1534404631.671875
-18.4,1534404631.6875
-19.76,1534404631.703125
-20.16,1534404631.71875
-19.42,1534404631.734375
-17.51,1534404631.75
-14.5,1534404631.765625
-10.6,1534404631.78125
-6.13,1534404631.796875
-1.4,1534404631.8125
3.25,1534404631.828125
7.61,1534404631.84375
11.54,1534404631.859375
15.04,1534404631.875
18.17,1534404631.890625
21.08,1534404631.90625
23.89,1534404631.921875
26.61,1534404631.9375
29.18,1534404631.953125
31.41,1534404631.96875
33.18,1534404631.984375
34.43,1534404632.0
35.32,1534404632.015625
36.08,1534404632.03125
36.95,1534404632.046875
38.04,1534404632.0625
39.27,1534404632.078125
40.41,1534404632.09375
41.12,1534404632.109375
41.07,1534404632.125
39.94,1534404632.140625
37.43,1534404632.15625
33.39,1534404632.171875
27.82,1534404632.1875
21.05,1534404632.203125
13.66,1534404632.21875
6.36,1534404632.234375
-0.21,1534404632.25
-5.72,1534404632.265625
-10.13,1534404632.28125
-13.58,1534404632.296875
-16.22,1534404632.3125
-18.07,1534404632.328125
-19.04,1534404632.34375
-19.04,1534404632.359375
-18.05,1534404632.375
-16.16,1534404632.390625
-13.54,1534404632.40625
-10.34,1534404632.421875
-6.68,1534404632.4375
-2.64,1534404632.453125
1.68,1534404632.46875
6.07,1534404632.484375
10.18,1534404632.5
13.62,1534404632.515625
16.05,1534404632.53125
17.33,1534404632.546875
17.67,1534404632.5625
17.52,1534404632.578125
17.47,1534404632.59375
17.98,1534404632.609375
19.31,1534404632.625
21.4,1534404632.640625
24.01,1534404632.65625
26.83,1534404632.671875
29.53,1534404632.6875
31.78,1534404632.703125
33.25,1534404632.71875
33.66,1534404632.734375
32.8,1534404632.75
30.53,1534404632.765625
26.72,1534404632.78125
21.3,1534404632.796875
14.2,1534404632.8125
5.62,1534404632.828125
-3.85,1534404632.84375
-13.15,1534404632.859375
-21.02,1534404632.875
-26.41,1534404632.890625
-28.93,1534404632.90625
-29.03,1534404632.921875
-27.82,1534404632.9375
-26.53,1534404632.953125
-26.05,1534404632.96875
-26.59,1534404632.984375
-27.85,1534404633.0
-29.24,1534404633.015625
-30.31,1534404633.03125
-30.91,1534404633.046875
-31.13,1534404633.0625
-31.15,1534404633.078125
-31.01,1534404633.09375
-30.64,1534404633.109375
-29.8,1534404633.125
-28.42,1534404633.140625
-26.59,1534404633.15625
-24.67,1534404633.171875
-23.01,1534404633.1875
-21.82,1534404633.203125
-21.09,1534404633.21875
-20.58,1534404633.234375
-20.01,1534404633.25
-19.22,1534404633.265625
-18.24,1534404633.28125
-17.23,1534404633.296875
-16.4,1534404633.3125
-15.92,1534404633.328125
-15.86,1534404633.34375
-16.23,1534404633.359375
-17.01,1534404633.375
-18.17,1534404633.390625
-19.61,1534404633.40625
-21.23,1534404633.421875
-22.91,1534404633.4375
-24.54,1534404633.453125
-26.05,1534404633.46875
-27.33,1534404633.484375
-28.25,1534404633.5
-28.61,1534404633.515625
-28.27,1534404633.53125
-27.16,1534404633.546875
-25.36,1534404633.5625
-23.01,1534404633.578125
-20.25,1534404633.59375
-17.1,1534404633.609375
-13.5,1534404633.625
-9.46,1534404633.640625
-5.12,1534404633.65625
-0.86,1534404633.671875
2.86,1534404633.6875
5.67,1534404633.703125
7.43,1534404633.71875
8.31,1534404633.734375
8.67,1534404633.75
8.86,1534404633.765625
9.12,1534404633.78125
9.47,1534404633.796875
9.88,1534404633.8125
10.24,1534404633.828125
10.55,1534404633.84375
10.78,1534404633.859375
10.87,1534404633.875
10.73,1534404633.890625
10.2,1534404633.90625
9.2,1534404633.921875
7.73,1534404633.9375
5.9,1534404633.953125
3.88,1534404633.96875
1.81,1534404633.984375
-0.29,1534404634.0
-2.54,1534404634.015625
-5.1,1534404634.03125
-8.1,1534404634.046875
-11.4,1534404634.0625
-14.6,1534404634.078125
-17.07,1534404634.09375
-18.22,1534404634.109375
-17.71,1534404634.125
-15.58,1534404634.140625
-12.23,1534404634.15625
-8.15,1534404634.171875
-3.78,1534404634.1875
0.74,1534404634.203125
5.5,1534404634.21875
10.62,1534404634.234375
16.12,1534404634.25
21.83,1534404634.265625
27.45,1534404634.28125
32.7,1534404634.296875
37.32,1534404634.3125
41.13,1534404634.328125
44.02,1534404634.34375
45.94,1534404634.359375
46.94,1534404634.375
47.2,1534404634.390625
47.01,1534404634.40625
46.68,1534404634.421875
46.38,1534404634.4375
46.13,1534404634.453125
45.86,1534404634.46875
45.58,1534404634.484375
45.4,1534404634.5
45.56,1534404634.515625
46.23,1534404634.53125
47.27,1534404634.546875
48.2,1534404634.5625
48.33,1534404634.578125
47.02,1534404634.59375
43.99,1534404634.609375
39.38,1534404634.625
33.74,1534404634.640625
27.81,1534404634.65625
22.39,1534404634.671875
18.22,1534404634.6875
15.86,1534404634.703125
15.56,1534404634.71875
17.05,1534404634.734375
19.57,1534404634.75
21.96,1534404634.765625
23.11,1534404634.78125
22.39,1534404634.796875
19.85,1534404634.8125
16.08,1534404634.828125
11.71,1534404634.84375
6.98,1534404634.859375
1.61,1534404634.875
-4.92,1534404634.890625
-12.91,1534404634.90625
-21.99,1534404634.921875
-31.12,1534404634.9375
-38.99,1534404634.953125
-44.6,1534404634.96875
-47.62,1534404634.984375
-48.5,1534404635.0
-48.12,1534404635.015625
-47.36,1534404635.03125
-46.8,1534404635.046875
-46.69,1534404635.0625
-47.01,1534404635.078125
-47.77,1534404635.09375
-49.06,1534404635.109375
-50.99,1534404635.125
-53.61,1534404635.140625
-56.79,1534404635.15625
-60.19,1534404635.171875
-63.41,1534404635.1875
-66.07,1534404635.203125
-67.84,1534404635.21875
-68.55,1534404635.234375
-68.01,1534404635.25
-66.11,1534404635.265625
-62.79,1534404635.28125
-58.18,1534404635.296875
-52.55,1534404635.3125
-46.31,1534404635.328125
-39.84,1534404635.34375
-33.39,1534404635.359375
-27.09,1534404635.375
-21.01,1534404635.390625
-15.21,1534404635.40625
-9.85,1534404635.421875
-5.14,1534404635.4375
-1.16,1534404635.453125
2.11,1534404635.46875
4.88,1534404635.484375
7.41,1534404635.5
9.87,1534404635.515625
12.21,1534404635.53125
14.23,1534404635.546875
15.64,1534404635.5625
16.29,1534404635.578125
16.24,1534404635.59375
15.71,1534404635.609375
14.95,1534404635.625
14.07,1534404635.640625
12.98,1534404635.65625
11.48,1534404635.671875
9.35,1534404635.6875
6.5,1534404635.703125
3.04,1534404635.71875
-0.87,1534404635.734375
-5.06,1534404635.75
-9.41,1534404635.765625
-13.82,1534404635.78125
-18.13,1534404635.796875
-22.02,1534404635.8125
-25.15,1534404635.828125
-27.25,1534404635.84375
-28.21,1534404635.859375
-28.1,1534404635.875
-27.05,1534404635.890625
-25.1,1534404635.90625
-22.16,1534404635.921875
-18.09,1534404635.9375
-12.87,1534404635.953125
-6.74,1534404635.96875
-0.22,1534404635.984375
6.03,1534404636.0
11.42,1534404636.015625
15.63,1534404636.03125
18.69,1534404636.046875
20.81,1534404636.0625
22.28,1534404636.078125
23.27,1534404636.09375
23.8,1534404636.109375
23.79,1534404636.125
23.15,1534404636.140625
21.9,1534404636.15625
20.15,1534404636.171875
18.09,1534404636.1875
15.86,1534404636.203125
13.55,1534404636.21875
11.13,1534404636.234375
8.58,1534404636.25
5.89,1534404636.265625
3.06,1534404636.28125
0.07,1534404636.296875
-3.19,1534404636.3125
-6.89,1534404636.328125
-11.14,1534404636.34375
-15.92,1534404636.359375
-20.95,1534404636.375
-25.8,1534404636.390625
-29.97,1534404636.40625
-33.07,1534404636.421875
-34.85,1534404636.4375
-35.21,1534404636.453125
-34.09,1534404636.46875
-31.42,1534404636.484375
-27.16,1534404636.5
-21.38,1534404636.515625
-14.32,1534404636.53125
-6.44,1534404636.546875
1.7,1534404636.5625
9.61,1534404636.578125
16.96,1534404636.59375
23.59,1534404636.609375
29.45,1534404636.625
34.47,1534404636.640625
38.56,1534404636.65625
41.66,1534404636.671875
43.84,1534404636.6875
45.35,1534404636.703125
46.58,1534404636.71875
47.87,1534404636.734375
49.35,1534404636.75
50.84,1534404636.765625
51.91,1534404636.78125
52.13,1534404636.796875
51.27,1534404636.8125
49.35,1534404636.828125
46.6,1534404636.84375
43.27,1534404636.859375
39.49,1534404636.875
35.18,1534404636.890625
30.18,1534404636.90625
24.42,1534404636.921875
17.96,1534404636.9375
11.07,1534404636.953125
4.16,1534404636.96875
-2.3,1534404636.984375
-7.9,1534404637.0
-12.31,1534404637.015625
-15.35,1534404637.03125
-17.0,1534404637.046875
-17.36,1534404637.0625
-16.57,1534404637.078125
-14.63,1534404637.09375
-11.28,1534404637.109375
-6.1,1534404637.125
1.32,1534404637.140625
11.04,1534404637.15625
22.63,1534404637.171875
35.08,1534404637.1875
47.09,1534404637.203125
57.36,1534404637.21875
64.96,1534404637.234375
69.5,1534404637.25
71.11,1534404637.265625
70.44,1534404637.28125
68.44,1534404637.296875
66.27,1534404637.3125
65.02,1534404637.328125
65.43,1534404637.34375
67.49,1534404637.359375
70.33,1534404637.375
72.36,1534404637.390625
71.81,1534404637.40625
67.44,1534404637.421875
59.06,1534404637.4375
47.53,1534404637.453125
34.23,1534404637.46875
20.39,1534404637.484375
6.6,1534404637.5
-7.16,1534404637.515625
-21.06,1534404637.53125
-34.89,1534404637.546875
-47.83,1534404637.5625
-58.75,1534404637.578125
-66.71,1534404637.59375
-71.48,1534404637.609375
-73.6,1534404637.625
-74.01,1534404637.640625
-73.61,1534404637.65625
-72.82,1534404637.671875
-71.67,1534404637.6875
-69.96,1534404637.703125
-67.61,1534404637.71875
-64.68,1534404637.734375
