bvp,time
64.0,1638177633.0
-0.0,1638177633.015625
-0.0,1638177633.03125
-0.0,1638177633.046875
-0.0,1638177633.0625
-0.0,1638177633.078125
-0.0,1638177633.09375
-0.0,1638177633.109375
-0.0,1638177633.125
-0.0,1638177633.140625
-0.0,1638177633.15625
0.0,1638177633.171875
0.01,1638177633.1875
0.01,1638177633.203125
-0.0,1638177633.21875
-0.03,1638177633.234375
-0.05,1638177633.25
-0.05,1638177633.265625
0.0,1638177633.28125
0.13,1638177633.296875
0.36,1638177633.3125
0.66,1638177633.328125
1.01,1638177633.34375
1.37,1638177633.359375
1.72,1638177633.375
2.06,1638177633.390625
2.4,1638177633.40625
2.79,1638177633.421875
3.24,1638177633.4375
3.8,1638177633.453125
4.42,1638177633.46875
5.06,1638177633.484375
5.66,1638177633.5
6.2,1638177633.515625
6.68,1638177633.53125
7.15,1638177633.546875
7.68,1638177633.5625
8.31,1638177633.578125
9.14,1638177633.59375
10.09,1638177633.609375
11.04,1638177633.625
11.88,1638177633.640625
12.56,1638177633.65625
13.14,1638177633.671875
13.76,1638177633.6875
14.65,1638177633.703125
15.96,1638177633.71875
17.91,1638177633.734375
20.32,1638177633.75
22.9,1638177633.765625
25.38,1638177633.78125
27.58,1638177633.796875
29.57,1638177633.8125
31.68,1638177633.828125
34.32,1638177633.84375
37.81,1638177633.859375
42.54,1638177633.875
48.15,1638177633.890625
54.1,1638177633.90625
59.83,1638177633.921875
64.97,1638177633.9375
69.58,1638177633.953125
74.14,1638177633.96875
79.34,1638177633.984375
85.71,1638177634.0
93.76,1638177634.015625
103.0,1638177634.03125
112.62,1638177634.046875
121.73,1638177634.0625
129.77,1638177634.078125
136.75,1638177634.09375
143.3,1638177634.109375
150.75,1638177634.125
157.77,1638177634.140625
166.64,1638177634.15625
177.95,1638177634.171875
191.79,1638177634.1875
206.97,1638177634.203125
220.57,1638177634.21875
228.25,1638177634.234375
225.36,1638177634.25
208.53,1638177634.265625
176.87,1638177634.28125
132.76,1638177634.296875
80.05,1638177634.3125
23.07,1638177634.328125
-34.94,1638177634.34375
-92.44,1638177634.359375
-149.16,1638177634.375
-205.23,1638177634.390625
-260.37,1638177634.40625
-313.74,1638177634.421875
-363.87,1638177634.4375
-409.83,1638177634.453125
-450.91,1638177634.46875
-486.5,1638177634.484375
-515.74,1638177634.5
-537.23,1638177634.515625
-549.22,1638177634.53125
-549.96,1638177634.546875
-538.37,1638177634.5625
-514.21,1638177634.578125
-478.67,1638177634.59375
-433.88,1638177634.609375
-382.45,1638177634.625
-327.02,1638177634.640625
-269.84,1638177634.65625
-212.63,1638177634.671875
-156.66,1638177634.6875
-102.95,1638177634.703125
-52.37,1638177634.71875
-5.9,1638177634.734375
35.58,1638177634.75
71.43,1638177634.765625
101.35,1638177634.78125
125.5,1638177634.796875
144.38,1638177634.8125
158.69,1638177634.828125
169.15,1638177634.84375
176.37,1638177634.859375
180.75,1638177634.875
182.57,1638177634.890625
182.07,1638177634.90625
179.51,1638177634.921875
175.23,1638177634.9375
169.65,1638177634.953125
163.18,1638177634.96875
156.15,1638177634.984375
148.81,1638177635.0
141.3,1638177635.015625
133.69,1638177635.03125
126.02,1638177635.046875
118.33,1638177635.0625
110.69,1638177635.078125
103.16,1638177635.09375
95.8,1638177635.109375
88.68,1638177635.125
81.83,1638177635.140625
75.25,1638177635.15625
68.95,1638177635.171875
62.95,1638177635.1875
57.25,1638177635.203125
51.86,1638177635.21875
46.78,1638177635.234375
42.03,1638177635.25
37.59,1638177635.265625
33.45,1638177635.28125
29.61,1638177635.296875
26.07,1638177635.3125
22.81,1638177635.328125
19.83,1638177635.34375
17.11,1638177635.359375
14.67,1638177635.375
12.48,1638177635.390625
10.54,1638177635.40625
8.83,1638177635.421875
7.35,1638177635.4375
6.07,1638177635.453125
4.97,1638177635.46875
4.05,1638177635.484375
3.27,1638177635.5
2.62,1638177635.515625
2.09,1638177635.53125
1.65,1638177635.546875
1.3,1638177635.5625
1.01,1638177635.578125
0.79,1638177635.59375
0.61,1638177635.609375
0.47,1638177635.625
0.37,1638177635.640625
0.29,1638177635.65625
0.23,1638177635.671875
0.18,1638177635.6875
0.15,1638177635.703125
0.14,1638177635.71875
0.13,1638177635.734375
0.14,1638177635.75
0.15,1638177635.765625
0.17,1638177635.78125
0.19,1638177635.796875
0.22,1638177635.8125
0.26,1638177635.828125
0.29,1638177635.84375
0.34,1638177635.859375
0.38,1638177635.875
0.42,1638177635.890625
0.47,1638177635.90625
0.52,1638177635.921875
0.56,1638177635.9375
0.62,1638177635.953125
0.67,1638177635.96875
0.73,1638177635.984375
0.79,1638177636.0
0.86,1638177636.015625
0.93,1638177636.03125
1.01,1638177636.046875
1.1,1638177636.0625
1.2,1638177636.078125
1.31,1638177636.09375
1.44,1638177636.109375
1.58,1638177636.125
1.74,1638177636.140625
1.91,1638177636.15625
2.11,1638177636.171875
2.33,1638177636.1875
2.57,1638177636.203125
2.83,1638177636.21875
3.13,1638177636.234375
3.45,1638177636.25
3.8,1638177636.265625
4.18,1638177636.28125
4.6,1638177636.296875
5.07,1638177636.3125
5.58,1638177636.328125
6.13,1638177636.34375
6.69,1638177636.359375
7.27,1638177636.375
7.85,1638177636.390625
8.44,1638177636.40625
9.06,1638177636.421875
9.74,1638177636.4375
10.5,1638177636.453125
11.33,1638177636.46875
12.24,1638177636.484375
13.21,1638177636.5
14.21,1638177636.515625
15.22,1638177636.53125
16.27,1638177636.546875
17.35,1638177636.5625
18.51,1638177636.578125
19.71,1638177636.59375
20.93,1638177636.609375
22.04,1638177636.625
22.92,1638177636.640625
23.39,1638177636.65625
23.28,1638177636.671875
22.54,1638177636.6875
21.11,1638177636.703125
19.01,1638177636.71875
16.32,1638177636.734375
13.07,1638177636.75
9.26,1638177636.765625
4.93,1638177636.78125
0.14,1638177636.796875
-4.97,1638177636.8125
-10.14,1638177636.828125
-15.01,1638177636.84375
-19.24,1638177636.859375
-22.53,1638177636.875
-24.8,1638177636.890625
-26.21,1638177636.90625
-27.06,1638177636.921875
-27.7,1638177636.9375
-28.39,1638177636.953125
-29.15,1638177636.96875
-29.8,1638177636.984375
-30.04,1638177637.0
-29.66,1638177637.015625
-28.68,1638177637.03125
-27.37,1638177637.046875
-26.24,1638177637.0625
-25.79,1638177637.078125
-26.28,1638177637.09375
-27.59,1638177637.109375
-29.27,1638177637.125
-30.75,1638177637.140625
-31.57,1638177637.15625
-31.59,1638177637.171875
-31.05,1638177637.1875
-30.38,1638177637.203125
-30.13,1638177637.21875
-30.77,1638177637.234375
-32.66,1638177637.25
-36.01,1638177637.265625
-40.5,1638177637.28125
-45.09,1638177637.296875
-47.94,1638177637.3125
-46.86,1638177637.328125
-40.18,1638177637.34375
-27.63,1638177637.359375
-10.73,1638177637.375
7.62,1638177637.390625
24.17,1638177637.40625
36.57,1638177637.421875
44.03,1638177637.4375
47.27,1638177637.453125
47.76,1638177637.46875
46.87,1638177637.484375
45.24,1638177637.5
42.98,1638177637.515625
40.0,1638177637.53125
36.46,1638177637.546875
32.81,1638177637.5625
29.64,1638177637.578125
27.29,1638177637.59375
25.72,1638177637.609375
24.58,1638177637.625
23.33,1638177637.640625
21.55,1638177637.65625
19.11,1638177637.671875
16.18,1638177637.6875
13.09,1638177637.703125
10.14,1638177637.71875
7.46,1638177637.734375
4.87,1638177637.75
2.46,1638177637.765625
-0.02,1638177637.78125
-2.86,1638177637.796875
-6.23,1638177637.8125
-10.21,1638177637.828125
-14.68,1638177637.84375
-19.44,1638177637.859375
-24.25,1638177637.875
-28.83,1638177637.890625
-32.98,1638177637.90625
-36.73,1638177637.921875
-40.2,1638177637.9375
-43.69,1638177637.953125
-47.59,1638177637.96875
-52.35,1638177637.984375
-58.41,1638177638.0
-65.99,1638177638.015625
-74.85,1638177638.03125
-84.06,1638177638.046875
-91.91,1638177638.0625
-96.12,1638177638.078125
-94.42,1638177638.09375
-85.3,1638177638.109375
-68.71,1638177638.125
-46.21,1638177638.140625
-20.61,1638177638.15625
4.91,1638177638.171875
27.64,1638177638.1875
45.96,1638177638.203125
59.48,1638177638.21875
68.72,1638177638.234375
74.59,1638177638.25
77.9,1638177638.265625
79.19,1638177638.28125
78.77,1638177638.296875
76.95,1638177638.3125
74.2,1638177638.328125
71.13,1638177638.34375
68.38,1638177638.359375
66.26,1638177638.375
64.74,1638177638.390625
63.44,1638177638.40625
61.94,1638177638.421875
60.09,1638177638.4375
58.13,1638177638.453125
56.55,1638177638.46875
55.74,1638177638.484375
55.66,1638177638.5
55.77,1638177638.515625
55.25,1638177638.53125
53.34,1638177638.546875
49.73,1638177638.5625
44.63,1638177638.578125
38.65,1638177638.59375
32.47,1638177638.609375
26.57,1638177638.625
21.14,1638177638.640625
16.07,1638177638.65625
11.15,1638177638.671875
6.2,1638177638.6875
1.2,1638177638.703125
-3.79,1638177638.71875
-8.62,1638177638.734375
-13.13,1638177638.75
-17.24,1638177638.765625
-20.95,1638177638.78125
-24.4,1638177638.796875
-27.86,1638177638.8125
-31.66,1638177638.828125
-36.07,1638177638.84375
-41.18,1638177638.859375
-46.85,1638177638.875
-52.66,1638177638.890625
-58.09,1638177638.90625
-62.73,1638177638.921875
-66.53,1638177638.9375
-69.86,1638177638.953125
-73.51,1638177638.96875
-78.47,1638177638.984375
-85.51,1638177639.0
-94.76,1638177639.015625
-105.38,1638177639.03125
-115.5,1638177639.046875
-122.57,1638177639.0625
-124.01,1638177639.078125
-117.98,1638177639.09375
-104.02,1638177639.109375
-83.23,1638177639.125
-57.97,1638177639.140625
-31.2,1638177639.15625
-5.73,1638177639.171875
16.39,1638177639.1875
34.12,1638177639.203125
47.36,1638177639.21875
56.63,1638177639.234375
62.73,1638177639.25
66.46,1638177639.265625
68.43,1638177639.28125
69.13,1638177639.296875
68.93,1638177639.3125
68.14,1638177639.328125
67.01,1638177639.34375
65.71,1638177639.359375
64.31,1638177639.375
62.81,1638177639.390625
61.23,1638177639.40625
59.68,1638177639.421875
58.35,1638177639.4375
57.45,1638177639.453125
57.09,1638177639.46875
57.2,1638177639.484375
57.41,1638177639.5
57.25,1638177639.515625
56.18,1638177639.53125
53.82,1638177639.546875
50.05,1638177639.5625
45.11,1638177639.578125
39.51,1638177639.59375
33.86,1638177639.609375
28.63,1638177639.625
23.94,1638177639.640625
19.55,1638177639.65625
15.0,1638177639.671875
9.85,1638177639.6875
4.03,1638177639.703125
-2.13,1638177639.71875
-8.03,1638177639.734375
-13.08,1638177639.75
-17.07,1638177639.765625
-20.24,1638177639.78125
-23.18,1638177639.796875
-26.5,1638177639.8125
-30.55,1638177639.828125
-35.29,1638177639.84375
-40.41,1638177639.859375
-45.54,1638177639.875
-50.54,1638177639.890625
-55.48,1638177639.90625
-60.6,1638177639.921875
-66.13,1638177639.9375
-72.33,1638177639.953125
-79.43,1638177639.96875
-87.62,1638177639.984375
-96.77,1638177640.0
-106.16,1638177640.015625
-114.24,1638177640.03125
-118.83,1638177640.046875
-117.7,1638177640.0625
-109.4,1638177640.078125
-93.87,1638177640.09375
-72.63,1638177640.109375
-48.23,1638177640.125
-23.59,1638177640.140625
-1.1,1638177640.15625
17.79,1638177640.171875
32.6,1638177640.1875
43.47,1638177640.203125
50.84,1638177640.21875
55.17,1638177640.234375
56.88,1638177640.25
56.47,1638177640.265625
54.55,1638177640.28125
51.87,1638177640.296875
49.21,1638177640.3125
47.17,1638177640.328125
46.07,1638177640.34375
45.85,1638177640.359375
46.24,1638177640.375
46.91,1638177640.390625
47.67,1638177640.40625
48.44,1638177640.421875
49.19,1638177640.4375
49.74,1638177640.453125
49.78,1638177640.46875
48.88,1638177640.484375
46.7,1638177640.5
43.2,1638177640.515625
38.63,1638177640.53125
33.41,1638177640.546875
27.96,1638177640.5625
22.55,1638177640.578125
17.27,1638177640.59375
12.1,1638177640.609375
7.03,1638177640.625
2.12,1638177640.640625
-2.45,1638177640.65625
-6.53,1638177640.671875
-10.08,1638177640.6875
-13.23,1638177640.703125
-16.27,1638177640.71875
-19.56,1638177640.734375
-23.35,1638177640.75
-27.72,1638177640.765625
-32.55,1638177640.78125
-37.52,1638177640.796875
-42.28,1638177640.8125
-46.62,1638177640.828125
-50.5,1638177640.84375
-54.2,1638177640.859375
-58.2,1638177640.875
-63.13,1638177640.890625
-69.53,1638177640.90625
-77.59,1638177640.921875
-86.86,1638177640.9375
-96.12,1638177640.953125
-103.41,1638177640.96875
-106.44,1638177640.984375
-103.27,1638177641.0
-92.91,1638177641.015625
-75.75,1638177641.03125
-53.48,1638177641.046875
-28.64,1638177641.0625
-3.84,1638177641.078125
18.81,1638177641.09375
38.03,1638177641.109375
53.35,1638177641.125
64.74,1638177641.140625
72.42,1638177641.15625
76.64,1638177641.171875
77.73,1638177641.1875
76.27,1638177641.203125
73.12,1638177641.21875
69.32,1638177641.234375
65.84,1638177641.25
63.37,1638177641.265625
62.1,1638177641.28125
61.86,1638177641.296875
62.28,1638177641.3125
63.05,1638177641.328125
64.04,1638177641.34375
65.28,1638177641.359375
66.77,1638177641.375
68.31,1638177641.390625
69.42,1638177641.40625
69.51,1638177641.421875
68.02,1638177641.4375
64.72,1638177641.453125
59.81,1638177641.46875
53.81,1638177641.484375
47.37,1638177641.5
40.97,1638177641.515625
34.75,1638177641.53125
28.6,1638177641.546875
22.29,1638177641.5625
15.71,1638177641.578125
8.98,1638177641.59375
2.46,1638177641.609375
-3.49,1638177641.625
-8.62,1638177641.640625
-13.0,1638177641.65625
-16.91,1638177641.671875
-20.78,1638177641.6875
-24.96,1638177641.703125
-29.62,1638177641.71875
-34.75,1638177641.734375
-40.2,1638177641.75
-45.76,1638177641.765625
-51.31,1638177641.78125
-56.81,1638177641.796875
-62.4,1638177641.8125
-68.43,1638177641.828125
-75.43,1638177641.84375
-83.92,1638177641.859375
-94.17,1638177641.875
-105.75,1638177641.890625
-117.31,1638177641.90625
-126.67,1638177641.921875
-131.32,1638177641.9375
-129.12,1638177641.953125
-119.08,1638177641.96875
-101.7,1638177641.984375
-78.83,1638177642.0
-53.1,1638177642.015625
-27.12,1638177642.03125
-2.98,1638177642.046875
18.06,1638177642.0625
35.49,1638177642.078125
49.32,1638177642.09375
59.82,1638177642.109375
67.33,1638177642.125
72.25,1638177642.140625
74.98,1638177642.15625
75.98,1638177642.171875
75.75,1638177642.1875
74.78,1638177642.203125
73.54,1638177642.21875
72.32,1638177642.234375
71.26,1638177642.25
70.32,1638177642.265625
69.5,1638177642.28125
68.87,1638177642.296875
68.58,1638177642.3125
68.8,1638177642.328125
69.47,1638177642.34375
70.24,1638177642.359375
70.45,1638177642.375
69.39,1638177642.390625
66.64,1638177642.40625
62.15,1638177642.421875
56.39,1638177642.4375
50.09,1638177642.453125
43.93,1638177642.46875
38.36,1638177642.484375
33.5,1638177642.5
29.11,1638177642.515625
24.84,1638177642.53125
20.31,1638177642.546875
15.3,1638177642.5625
9.84,1638177642.578125
4.19,1638177642.59375
-1.27,1638177642.609375
-6.17,1638177642.625
-10.41,1638177642.640625
-14.23,1638177642.65625
-18.13,1638177642.671875
-22.66,1638177642.6875
-28.15,1638177642.703125
-34.53,1638177642.71875
-41.38,1638177642.734375
-48.11,1638177642.75
-54.24,1638177642.765625
-59.61,1638177642.78125
-64.44,1638177642.796875
-69.26,1638177642.8125
-74.8,1638177642.828125
-81.77,1638177642.84375
-90.62,1638177642.859375
-101.23,1638177642.875
-112.62,1638177642.890625
-122.88,1638177642.90625
-129.51,1638177642.921875
-130.06,1638177642.9375
-122.93,1638177642.953125
-107.95,1638177642.96875
-86.49,1638177642.984375
-61.04,1638177643.0
-34.43,1638177643.015625
-9.18,1638177643.03125
13.02,1638177643.046875
31.37,1638177643.0625
45.77,1638177643.078125
56.57,1638177643.09375
64.28,1638177643.109375
69.52,1638177643.125
72.81,1638177643.140625
74.6,1638177643.15625
75.25,1638177643.171875
75.0,1638177643.1875
74.13,1638177643.203125
72.87,1638177643.21875
71.44,1638177643.234375
70.04,1638177643.25
68.77,1638177643.265625
67.74,1638177643.28125
67.08,1638177643.296875
66.89,1638177643.3125
67.2,1638177643.328125
67.84,1638177643.34375
68.4,1638177643.359375
68.34,1638177643.375
67.1,1638177643.390625
64.39,1638177643.40625
60.21,1638177643.421875
54.95,1638177643.4375
49.15,1638177643.453125
43.41,1638177643.46875
38.15,1638177643.484375
33.49,1638177643.5
29.25,1638177643.515625
25.05,1638177643.53125
20.5,1638177643.546875
15.33,1638177643.5625
9.65,1638177643.578125
3.81,1638177643.59375
-1.68,1638177643.609375
-6.45,1638177643.625
-10.43,1638177643.640625
-13.99,1638177643.65625
-17.67,1638177643.671875
-21.99,1638177643.6875
-27.18,1638177643.703125
-33.05,1638177643.71875
-39.2,1638177643.734375
-45.17,1638177643.75
-50.7,1638177643.765625
-55.77,1638177643.78125
-60.62,1638177643.796875
-65.57,1638177643.8125
-71.0,1638177643.828125
-77.29,1638177643.84375
-84.75,1638177643.859375
-93.4,1638177643.875
-102.69,1638177643.890625
-111.32,1638177643.90625
-117.29,1638177643.921875
-118.4,1638177643.9375
-112.99,1638177643.953125
-100.54,1638177643.96875
-81.92,1638177643.984375
-59.18,1638177644.0
-34.87,1638177644.015625
-11.39,1638177644.03125
9.55,1638177644.046875
26.99,1638177644.0625
40.6,1638177644.078125
50.49,1638177644.09375
56.96,1638177644.109375
60.47,1638177644.125
61.61,1638177644.140625
61.05,1638177644.15625
59.45,1638177644.171875
57.35,1638177644.1875
55.21,1638177644.203125
53.33,1638177644.21875
51.88,1638177644.234375
50.98,1638177644.25
50.66,1638177644.265625
50.89,1638177644.28125
51.6,1638177644.296875
52.65,1638177644.3125
53.83,1638177644.328125
54.86,1638177644.34375
55.43,1638177644.359375
55.21,1638177644.375
53.94,1638177644.390625
51.52,1638177644.40625
47.97,1638177644.421875
43.46,1638177644.4375
38.27,1638177644.453125
32.7,1638177644.46875
27.09,1638177644.484375
21.67,1638177644.5
16.58,1638177644.515625
11.8,1638177644.53125
7.18,1638177644.546875
2.57,1638177644.5625
-2.14,1638177644.578125
-6.88,1638177644.59375
-11.5,1638177644.609375
-15.86,1638177644.625
-19.95,1638177644.640625
-23.97,1638177644.65625
-28.22,1638177644.671875
-32.9,1638177644.6875
-38.0,1638177644.703125
-43.27,1638177644.71875
-48.4,1638177644.734375
-53.17,1638177644.75
-57.71,1638177644.765625
-62.47,1638177644.78125
-68.16,1638177644.796875
-75.39,1638177644.8125
-84.35,1638177644.828125
-94.43,1638177644.84375
-104.14,1638177644.859375
-111.35,1638177644.875
-113.8,1638177644.890625
-109.77,1638177644.90625
-98.71,1638177644.921875
-81.37,1638177644.9375
-59.57,1638177644.953125
-35.74,1638177644.96875
-12.2,1638177644.984375
9.22,1638177645.0
27.4,1638177645.015625
41.82,1638177645.03125
52.43,1638177645.046875
59.49,1638177645.0625
63.49,1638177645.078125
65.05,1638177645.09375
64.8,1638177645.109375
63.35,1638177645.125
61.17,1638177645.140625
58.63,1638177645.15625
56.06,1638177645.171875
53.75,1638177645.1875
51.96,1638177645.203125
50.86,1638177645.21875
50.5,1638177645.234375
50.83,1638177645.25
51.67,1638177645.265625
52.78,1638177645.28125
53.87,1638177645.296875
54.59,1638177645.3125
54.6,1638177645.328125
53.55,1638177645.34375
51.21,1638177645.359375
47.55,1638177645.375
42.8,1638177645.390625
37.4,1638177645.40625
31.91,1638177645.421875
26.76,1638177645.4375
22.13,1638177645.453125
17.9,1638177645.46875
13.72,1638177645.484375
9.26,1638177645.5
4.38,1638177645.515625
-0.79,1638177645.53125
-5.89,1638177645.546875
-10.56,1638177645.5625
-14.63,1638177645.578125
-18.22,1638177645.59375
-21.7,1638177645.609375
-25.53,1638177645.625
-30.03,1638177645.640625
-35.26,1638177645.65625
-40.99,1638177645.671875
-46.85,1638177645.6875
-52.45,1638177645.703125
-57.58,1638177645.71875
-62.31,1638177645.734375
-66.96,1638177645.75
-72.08,1638177645.765625
-78.31,1638177645.78125
-86.12,1638177645.796875
-95.66,1638177645.8125
-106.42,1638177645.828125
-117.11,1638177645.84375
-125.8,1638177645.859375
-130.24,1638177645.875
-128.54,1638177645.890625
-119.66,1638177645.90625
-103.9,1638177645.921875
-82.75,1638177645.9375
-58.55,1638177645.953125
-33.82,1638177645.96875
-10.69,1638177645.984375
9.44,1638177646.0
25.95,1638177646.015625
38.85,1638177646.03125
48.51,1638177646.046875
55.39,1638177646.0625
59.99,1638177646.078125
62.77,1638177646.09375
64.2,1638177646.109375
64.67,1638177646.125
64.5,1638177646.140625
63.91,1638177646.15625
62.98,1638177646.171875
61.8,1638177646.1875
60.49,1638177646.203125
59.29,1638177646.21875
58.5,1638177646.234375
58.38,1638177646.25
59.02,1638177646.265625
60.18,1638177646.28125
61.4,1638177646.296875
62.1,1638177646.3125
61.77,1638177646.328125
60.17,1638177646.34375
57.26,1638177646.359375
53.24,1638177646.375
48.39,1638177646.390625
43.05,1638177646.40625
37.51,1638177646.421875
32.02,1638177646.4375
26.76,1638177646.453125
21.76,1638177646.46875
16.95,1638177646.484375
12.21,1638177646.5
7.45,1638177646.515625
2.66,1638177646.53125
-2.01,1638177646.546875
-6.38,1638177646.5625
-10.33,1638177646.578125
-13.94,1638177646.59375
-17.51,1638177646.609375
-21.44,1638177646.625
-26.04,1638177646.640625
-31.33,1638177646.65625
-37.04,1638177646.671875
-42.67,1638177646.6875
-47.79,1638177646.703125
-52.26,1638177646.71875
-56.28,1638177646.734375
-60.46,1638177646.75
-65.63,1638177646.765625
-72.47,1638177646.78125
-81.22,1638177646.796875
-91.29,1638177646.8125
-101.2,1638177646.828125
-108.8,1638177646.84375
-111.82,1638177646.859375
-108.53,1638177646.875
-98.34,1638177646.890625
-81.92,1638177646.90625
-60.99,1638177646.921875
-37.83,1638177646.9375
-14.69,1638177646.953125
6.63,1638177646.96875
24.89,1638177646.984375
39.42,1638177647.0
50.06,1638177647.015625
57.04,1638177647.03125
60.86,1638177647.046875
62.22,1638177647.0625
61.79,1638177647.078125
60.2,1638177647.09375
57.95,1638177647.109375
55.45,1638177647.125
53.12,1638177647.140625
51.31,1638177647.15625
50.25,1638177647.171875
49.99,1638177647.1875
50.46,1638177647.203125
51.42,1638177647.21875
52.68,1638177647.234375
54.02,1638177647.25
55.21,1638177647.265625
55.99,1638177647.28125
55.98,1638177647.296875
54.86,1638177647.3125
52.4,1638177647.328125
48.65,1638177647.34375
43.92,1638177647.359375
38.7,1638177647.375
33.51,1638177647.390625
28.74,1638177647.40625
24.5,1638177647.421875
20.63,1638177647.4375
16.8,1638177647.453125
12.68,1638177647.46875
8.03,1638177647.484375
2.93,1638177647.5
-2.33,1638177647.515625
-7.3,1638177647.53125
-11.64,1638177647.546875
-15.27,1638177647.5625
-18.48,1638177647.578125
-21.78,1638177647.59375
-25.7,1638177647.609375
-30.57,1638177647.625
-36.33,1638177647.640625
-42.57,1638177647.65625
-48.74,1638177647.671875
-54.32,1638177647.6875
-59.06,1638177647.703125
-63.12,1638177647.71875
-66.96,1638177647.734375
-71.3,1638177647.75
-76.92,1638177647.765625
-84.33,1638177647.78125
-93.41,1638177647.796875
-103.19,1638177647.8125
-111.81,1638177647.828125
-116.91,1638177647.84375
-116.24,1638177647.859375
-108.43,1638177647.875
-93.39,1638177647.890625
-72.4,1638177647.90625
-47.68,1638177647.921875
-21.74,1638177647.9375
3.21,1638177647.953125
25.71,1638177647.96875
44.96,1638177647.984375
60.73,1638177648.0
73.09,1638177648.015625
82.2,1638177648.03125
88.24,1638177648.046875
91.36,1638177648.0625
91.73,1638177648.078125
89.56,1638177648.09375
85.18,1638177648.109375
79.04,1638177648.125
71.69,1638177648.140625
63.74,1638177648.15625
55.74,1638177648.171875
48.23,1638177648.1875
41.72,1638177648.203125
36.69,1638177648.21875
33.53,1638177648.234375
32.36,1638177648.25
32.91,1638177648.265625
34.5,1638177648.28125
36.15,1638177648.296875
36.85,1638177648.3125
35.9,1638177648.328125
33.07,1638177648.34375
28.71,1638177648.359375
23.45,1638177648.375
18.08,1638177648.390625
13.18,1638177648.40625
9.05,1638177648.421875
5.65,1638177648.4375
2.66,1638177648.453125
-0.32,1638177648.46875
-3.67,1638177648.484375
-7.58,1638177648.5
-11.95,1638177648.515625
-16.46,1638177648.53125
-20.71,1638177648.546875
-24.39,1638177648.5625
-27.55,1638177648.578125
-30.54,1638177648.59375
-33.93,1638177648.609375
-38.17,1638177648.625
-43.37,1638177648.640625
-49.27,1638177648.65625
-55.32,1638177648.671875
-61.03,1638177648.6875
-66.2,1638177648.703125
-71.03,1638177648.71875
-76.01,1638177648.734375
-81.76,1638177648.75
-88.84,1638177648.765625
-97.58,1638177648.78125
-107.84,1638177648.796875
-118.86,1638177648.8125
-129.13,1638177648.828125
-136.53,1638177648.84375
-138.78,1638177648.859375
-134.06,1638177648.875
-121.65,1638177648.890625
-102.21,1638177648.90625
-77.68,1638177648.921875
-50.75,1638177648.9375
-24.18,1638177648.953125
-0.15,1638177648.96875
20.05,1638177648.984375
35.99,1638177649.0
47.9,1638177649.015625
56.32,1638177649.03125
61.86,1638177649.046875
65.05,1638177649.0625
66.34,1638177649.078125
66.18,1638177649.09375
65.08,1638177649.109375
63.55,1638177649.125
62.1,1638177649.140625
61.08,1638177649.15625
60.65,1638177649.171875
60.82,1638177649.1875
61.54,1638177649.203125
62.71,1638177649.21875
64.2,1638177649.234375
65.74,1638177649.25
67.0,1638177649.265625
67.57,1638177649.28125
67.09,1638177649.296875
65.41,1638177649.3125
62.58,1638177649.328125
58.83,1638177649.34375
54.36,1638177649.359375
49.36,1638177649.375
43.91,1638177649.390625
38.05,1638177649.40625
31.86,1638177649.421875
25.51,1638177649.4375
19.26,1638177649.453125
13.34,1638177649.46875
7.89,1638177649.484375
2.86,1638177649.5
-1.97,1638177649.515625
-6.9,1638177649.53125
-12.13,1638177649.546875
-17.67,1638177649.5625
-23.33,1638177649.578125
-28.84,1638177649.59375
-33.94,1638177649.609375
-38.63,1638177649.625
-43.15,1638177649.640625
-47.99,1638177649.65625
-53.71,1638177649.671875
-60.88,1638177649.6875
-69.81,1638177649.703125
-80.46,1638177649.71875
-92.21,1638177649.734375
-103.73,1638177649.75
-113.05,1638177649.765625
-117.91,1638177649.78125
-116.34,1638177649.796875
-107.26,1638177649.8125
-90.9,1638177649.828125
-68.87,1638177649.84375
-43.71,1638177649.859375
-18.2,1638177649.875
5.23,1638177649.890625
25.06,1638177649.90625
40.68,1638177649.921875
52.23,1638177649.9375
60.27,1638177649.953125
65.42,1638177649.96875
68.2,1638177649.984375
69.04,1638177650.0
68.36,1638177650.015625
66.66,1638177650.03125
64.55,1638177650.046875
62.64,1638177650.0625
61.37,1638177650.078125
60.9,1638177650.09375
61.12,1638177650.109375
61.81,1638177650.125
62.74,1638177650.140625
63.74,1638177650.15625
64.71,1638177650.171875
65.48,1638177650.1875
65.76,1638177650.203125
65.16,1638177650.21875
63.37,1638177650.234375
60.28,1638177650.25
56.02,1638177650.265625
50.93,1638177650.28125
45.35,1638177650.296875
39.57,1638177650.3125
33.69,1638177650.328125
27.68,1638177650.34375
21.49,1638177650.359375
15.14,1638177650.375
8.76,1638177650.390625
2.54,1638177650.40625
-3.38,1638177650.421875
-9.01,1638177650.4375
-14.49,1638177650.453125
-20.07,1638177650.46875
-25.94,1638177650.484375
-32.11,1638177650.5
-38.39,1638177650.515625
-44.49,1638177650.53125
-50.17,1638177650.546875
-55.44,1638177650.5625
-60.55,1638177650.578125
-65.99,1638177650.59375
-72.32,1638177650.609375
-80.08,1638177650.625
-89.57,1638177650.640625
-100.61,1638177650.65625
-112.28,1638177650.671875
-122.85,1638177650.6875
-129.92,1638177650.703125
-130.98,1638177650.71875
-124.22,1638177650.734375
-109.21,1638177650.75
-87.22,1638177650.765625
-60.84,1638177650.78125
-33.29,1638177650.796875
-7.4,1638177650.8125
14.9,1638177650.828125
32.88,1638177650.84375
46.7,1638177650.859375
57.0,1638177650.875
64.44,1638177650.890625
69.58,1638177650.90625
72.85,1638177650.921875
74.57,1638177650.9375
75.09,1638177650.953125
74.78,1638177650.96875
73.98,1638177650.984375
72.94,1638177651.0
71.82,1638177651.015625
70.69,1638177651.03125
69.67,1638177651.046875
68.92,1638177651.0625
68.67,1638177651.078125
69.11,1638177651.09375
70.17,1638177651.109375
71.43,1638177651.125
72.22,1638177651.140625
71.76,1638177651.15625
69.51,1638177651.171875
65.33,1638177651.1875
59.57,1638177651.203125
52.86,1638177651.21875
45.8,1638177651.234375
38.76,1638177651.25
31.85,1638177651.265625
24.98,1638177651.28125
18.11,1638177651.296875
11.36,1638177651.3125
4.96,1638177651.328125
-0.85,1638177651.34375
-6.01,1638177651.359375
-10.76,1638177651.375
-15.52,1638177651.390625
-20.73,1638177651.40625
-26.66,1638177651.421875
-33.19,1638177651.4375
-39.96,1638177651.453125
-46.47,1638177651.46875
-52.37,1638177651.484375
-57.64,1638177651.5
-62.64,1638177651.515625
-67.99,1638177651.53125
-74.39,1638177651.546875
-82.45,1638177651.5625
-92.39,1638177651.578125
-103.92,1638177651.59375
-116.12,1638177651.609375
-127.35,1638177651.625
-135.51,1638177651.640625
-138.38,1638177651.65625
-134.25,1638177651.671875
-122.45,1638177651.6875
-103.71,1638177651.703125
-80.05,1638177651.71875
-54.29,1638177651.734375
-29.24,1638177651.75
-7.07,1638177651.765625
11.09,1638177651.78125
25.13,1638177651.796875
35.61,1638177651.8125
43.35,1638177651.828125
49.01,1638177651.84375
52.98,1638177651.859375
55.41,1638177651.875
56.35,1638177651.890625
55.93,1638177651.90625
54.46,1638177651.921875
52.42,1638177651.9375
50.28,1638177651.953125
48.47,1638177651.96875
47.2,1638177651.984375
46.5,1638177652.0
46.29,1638177652.015625
46.43,1638177652.03125
46.77,1638177652.046875
47.1,1638177652.0625
47.18,1638177652.078125
46.66,1638177652.09375
45.26,1638177652.109375
42.78,1638177652.125
39.18,1638177652.140625
34.57,1638177652.15625
29.11,1638177652.171875
23.0,1638177652.1875
16.49,1638177652.203125
9.84,1638177652.21875
3.36,1638177652.234375
-2.75,1638177652.25
-8.45,1638177652.265625
-13.97,1638177652.28125
-19.75,1638177652.296875
-26.2,1638177652.3125
-33.51,1638177652.328125
-41.43,1638177652.34375
-49.3,1638177652.359375
-56.25,1638177652.375
-61.55,1638177652.390625
-64.81,1638177652.40625
-66.21,1638177652.421875
-66.33,1638177652.4375
-66.11,1638177652.453125
-66.57,1638177652.46875
-68.74,1638177652.484375
-73.45,1638177652.5
-81.11,1638177652.515625
-91.41,1638177652.53125
-102.93,1638177652.546875
-113.32,1638177652.5625
-119.65,1638177652.578125
-119.34,1638177652.59375
-111.06,1638177652.609375
-95.18,1638177652.625
-73.66,1638177652.640625
-49.18,1638177652.65625
-24.26,1638177652.671875
-0.51,1638177652.6875
21.33,1638177652.703125
41.0,1638177652.71875
58.11,1638177652.734375
71.95,1638177652.75
81.78,1638177652.765625
87.34,1638177652.78125
89.32,1638177652.796875
89.25,1638177652.8125
89.0,1638177652.828125
89.97,1638177652.84375
92.64,1638177652.859375
96.56,1638177652.875
100.76,1638177652.890625
104.37,1638177652.90625
107.04,1638177652.921875
108.93,1638177652.9375
110.47,1638177652.953125
111.98,1638177652.96875
113.33,1638177652.984375
114.04,1638177653.0
113.4,1638177653.015625
110.82,1638177653.03125
106.03,1638177653.046875
99.12,1638177653.0625
90.46,1638177653.078125
80.49,1638177653.09375
69.59,1638177653.109375
58.1,1638177653.125
46.29,1638177653.140625
34.58,1638177653.15625
23.55,1638177653.171875
13.89,1638177653.1875
6.25,1638177653.203125
1.02,1638177653.21875
-1.81,1638177653.234375
-2.69,1638177653.25
-2.37,1638177653.265625
-1.75,1638177653.28125
-1.65,1638177653.296875
-2.59,1638177653.3125
-4.73,1638177653.328125
-7.91,1638177653.34375
-11.79,1638177653.359375
-16.13,1638177653.375
-20.94,1638177653.390625
-26.47,1638177653.40625
-32.95,1638177653.421875
-40.29,1638177653.4375
-47.71,1638177653.453125
-53.78,1638177653.46875
-56.71,1638177653.484375
-54.81,1638177653.5
-47.07,1638177653.515625
-33.51,1638177653.53125
-15.21,1638177653.546875
5.95,1638177653.5625
27.74,1638177653.578125
48.09,1638177653.59375
65.49,1638177653.609375
79.11,1638177653.625
88.78,1638177653.640625
94.8,1638177653.65625
97.75,1638177653.671875
98.33,1638177653.6875
97.34,1638177653.703125
95.46,1638177653.71875
93.2,1638177653.734375
90.72,1638177653.75
87.71,1638177653.765625
83.58,1638177653.78125
77.7,1638177653.796875
69.85,1638177653.8125
60.44,1638177653.828125
50.46,1638177653.84375
41.24,1638177653.859375
33.92,1638177653.875
29.08,1638177653.890625
26.65,1638177653.90625
26.02,1638177653.921875
26.37,1638177653.9375
26.96,1638177653.953125
27.24,1638177653.96875
26.88,1638177653.984375
25.59,1638177654.0
23.11,1638177654.015625
19.18,1638177654.03125
13.74,1638177654.046875
7.08,1638177654.0625
-0.11,1638177654.078125
-6.93,1638177654.09375
-12.5,1638177654.109375
-16.35,1638177654.125
-18.54,1638177654.140625
-19.56,1638177654.15625
-20.17,1638177654.171875
-21.03,1638177654.1875
-22.54,1638177654.203125
-24.77,1638177654.21875
-27.59,1638177654.234375
-30.77,1638177654.25
-34.16,1638177654.265625
-37.75,1638177654.28125
-41.64,1638177654.296875
-45.99,1638177654.3125
-50.9,1638177654.328125
-56.3,1638177654.34375
-61.74,1638177654.359375
-66.48,1638177654.375
-69.51,1638177654.390625
-69.9,1638177654.40625
-67.1,1638177654.421875
-61.16,1638177654.4375
-52.75,1638177654.453125
-42.95,1638177654.46875
-32.92,1638177654.484375
-23.69,1638177654.5
-15.92,1638177654.515625
-9.91,1638177654.53125
-5.62,1638177654.546875
-2.74,1638177654.5625
-0.83,1638177654.578125
0.61,1638177654.59375
2.02,1638177654.609375
3.68,1638177654.625
5.67,1638177654.640625
7.89,1638177654.65625
10.13,1638177654.671875
12.11,1638177654.6875
13.56,1638177654.703125
14.28,1638177654.71875
14.18,1638177654.734375
13.35,1638177654.75
12.09,1638177654.765625
10.81,1638177654.78125
9.92,1638177654.796875
9.61,1638177654.8125
9.77,1638177654.828125
10.01,1638177654.84375
9.82,1638177654.859375
8.76,1638177654.875
6.68,1638177654.890625
3.72,1638177654.90625
0.26,1638177654.921875
-3.22,1638177654.9375
-6.36,1638177654.953125
-8.95,1638177654.96875
-10.94,1638177654.984375
-12.43,1638177655.0
-13.53,1638177655.015625
-14.38,1638177655.03125
-15.14,1638177655.046875
-15.97,1638177655.0625
-17.07,1638177655.078125
-18.6,1638177655.09375
-20.67,1638177655.109375
-23.31,1638177655.125
-26.52,1638177655.140625
-30.3,1638177655.15625
-34.64,1638177655.171875
-39.36,1638177655.1875
-44.06,1638177655.203125
-47.95,1638177655.21875
-50.03,1638177655.234375
-49.33,1638177655.25
-45.33,1638177655.265625
-38.15,1638177655.28125
-28.56,1638177655.296875
-17.78,1638177655.3125
-7.1,1638177655.328125
2.47,1638177655.34375
10.38,1638177655.359375
16.51,1638177655.375
21.06,1638177655.390625
24.26,1638177655.40625
26.25,1638177655.421875
27.0,1638177655.4375
26.45,1638177655.453125
24.68,1638177655.46875
22.03,1638177655.484375
19.13,1638177655.5
16.63,1638177655.515625
15.03,1638177655.53125
14.38,1638177655.546875
14.33,1638177655.5625
14.4,1638177655.578125
14.21,1638177655.59375
13.77,1638177655.609375
13.37,1638177655.625
13.35,1638177655.640625
13.83,1638177655.65625
14.56,1638177655.671875
15.03,1638177655.6875
14.73,1638177655.703125
13.38,1638177655.71875
11.11,1638177655.734375
8.23,1638177655.75
5.14,1638177655.765625
2.1,1638177655.78125
-0.82,1638177655.796875
-3.7,1638177655.8125
-6.6,1638177655.828125
-9.57,1638177655.84375
-12.56,1638177655.859375
-15.56,1638177655.875
-18.58,1638177655.890625
-21.73,1638177655.90625
-25.11,1638177655.921875
-28.75,1638177655.9375
-32.62,1638177655.953125
-36.61,1638177655.96875
-40.68,1638177655.984375
-44.9,1638177656.0
-49.43,1638177656.015625
-54.37,1638177656.03125
-59.57,1638177656.046875
-64.38,1638177656.0625
-67.79,1638177656.078125
-68.65,1638177656.09375
-66.11,1638177656.109375
-59.9,1638177656.125
-50.53,1638177656.140625
-39.07,1638177656.15625
-26.83,1638177656.171875
-14.97,1638177656.1875
-4.29,1638177656.203125
4.81,1638177656.21875
12.23,1638177656.234375
17.96,1638177656.25
22.01,1638177656.265625
24.44,1638177656.28125
25.41,1638177656.296875
25.28,1638177656.3125
24.6,1638177656.328125
23.92,1638177656.34375
23.61,1638177656.359375
23.72,1638177656.375
23.98,1638177656.390625
24.0,1638177656.40625
23.49,1638177656.421875
22.44,1638177656.4375
21.06,1638177656.453125
19.62,1638177656.46875
18.25,1638177656.484375
16.87,1638177656.5
15.23,1638177656.515625
13.1,1638177656.53125
10.45,1638177656.546875
7.42,1638177656.5625
4.29,1638177656.578125
1.27,1638177656.59375
-1.57,1638177656.609375
-4.33,1638177656.625
-7.11,1638177656.640625
-9.99,1638177656.65625
-12.89,1638177656.671875
-15.61,1638177656.6875
-17.91,1638177656.703125
-19.65,1638177656.71875
-20.85,1638177656.734375
-21.64,1638177656.75
-22.28,1638177656.765625
-23.08,1638177656.78125
-24.28,1638177656.796875
-26.09,1638177656.8125
-28.67,1638177656.828125
-32.13,1638177656.84375
-36.5,1638177656.859375
-41.68,1638177656.875
-47.45,1638177656.890625
-53.42,1638177656.90625
-59.08,1638177656.921875
-63.78,1638177656.9375
-66.75,1638177656.953125
-67.22,1638177656.96875
-64.58,1638177656.984375
-58.61,1638177657.0
-49.65,1638177657.015625
-38.61,1638177657.03125
-26.73,1638177657.046875
-15.28,1638177657.0625
-5.21,1638177657.078125
3.07,1638177657.09375
9.55,1638177657.109375
14.49,1638177657.125
18.16,1638177657.140625
20.72,1638177657.15625
22.19,1638177657.171875
22.57,1638177657.1875
21.93,1638177657.203125
20.49,1638177657.21875
18.6,1638177657.234375
16.65,1638177657.25
14.91,1638177657.265625
13.53,1638177657.28125
12.44,1638177657.296875
11.52,1638177657.3125
10.71,1638177657.328125
10.08,1638177657.34375
9.87,1638177657.359375
10.33,1638177657.375
11.56,1638177657.390625
13.31,1638177657.40625
15.01,1638177657.421875
15.96,1638177657.4375
15.58,1638177657.453125
13.72,1638177657.46875
10.68,1638177657.484375
7.13,1638177657.5
3.74,1638177657.515625
0.95,1638177657.53125
-1.25,1638177657.546875
-3.21,1638177657.5625
-5.41,1638177657.578125
-8.18,1638177657.59375
-11.5,1638177657.609375
-15.12,1638177657.625
-18.6,1638177657.640625
-21.61,1638177657.65625
-23.96,1638177657.671875
-25.74,1638177657.6875
-27.23,1638177657.703125
-28.78,1638177657.71875
-30.81,1638177657.734375
-33.68,1638177657.75
-37.61,1638177657.765625
-42.49,1638177657.78125
-47.77,1638177657.796875
-52.43,1638177657.8125
-55.2,1638177657.828125
-54.99,1638177657.84375
-51.28,1638177657.859375
-44.39,1638177657.875
-35.44,1638177657.890625
-25.87,1638177657.90625
-17.06,1638177657.921875
-9.78,1638177657.9375
-4.24,1638177657.953125
-0.16,1638177657.96875
2.83,1638177657.984375
5.04,1638177658.0
6.53,1638177658.015625
7.39,1638177658.03125
7.74,1638177658.046875
7.83,1638177658.0625
7.99,1638177658.078125
8.44,1638177658.09375
9.18,1638177658.109375
10.03,1638177658.125
10.75,1638177658.140625
11.17,1638177658.15625
11.35,1638177658.171875
11.5,1638177658.1875
11.92,1638177658.203125
12.76,1638177658.21875
13.92,1638177658.234375
15.05,1638177658.25
15.71,1638177658.265625
15.54,1638177658.28125
14.46,1638177658.296875
12.74,1638177658.3125
10.83,1638177658.328125
9.25,1638177658.34375
8.31,1638177658.359375
7.97,1638177658.375
7.84,1638177658.390625
7.37,1638177658.40625
6.07,1638177658.421875
3.67,1638177658.4375
0.28,1638177658.453125
-3.71,1638177658.46875
-7.82,1638177658.484375
-11.65,1638177658.5
-15.03,1638177658.515625
-18.07,1638177658.53125
-21.03,1638177658.546875
-24.3,1638177658.5625
-28.21,1638177658.578125
-32.95,1638177658.59375
-38.45,1638177658.609375
-44.23,1638177658.625
-49.38,1638177658.640625
-52.65,1638177658.65625
-52.8,1638177658.671875
-48.96,1638177658.6875
-40.97,1638177658.703125
-29.5,1638177658.71875
-15.86,1638177658.734375
-1.65,1638177658.75
11.76,1638177658.765625
23.39,1638177658.78125
32.85,1638177658.796875
40.05,1638177658.8125
45.09,1638177658.828125
48.07,1638177658.84375
49.1,1638177658.859375
48.37,1638177658.875
46.16,1638177658.890625
42.94,1638177658.90625
39.19,1638177658.921875
35.41,1638177658.9375
31.92,1638177658.953125
28.99,1638177658.96875
26.66,1638177658.984375
24.9,1638177659.0
23.57,1638177659.015625
22.48,1638177659.03125
21.48,1638177659.046875
20.45,1638177659.0625
19.37,1638177659.078125
18.23,1638177659.09375
16.99,1638177659.109375
15.52,1638177659.125
13.57,1638177659.140625
10.9,1638177659.15625
7.38,1638177659.171875
3.06,1638177659.1875
-1.76,1638177659.203125
-6.64,1638177659.21875
-11.2,1638177659.234375
-15.19,1638177659.25
-18.65,1638177659.265625
-21.86,1638177659.28125
-25.17,1638177659.296875
-28.87,1638177659.3125
-33.0,1638177659.328125
-37.27,1638177659.34375
-41.26,1638177659.359375
-44.6,1638177659.375
-47.15,1638177659.390625
-49.14,1638177659.40625
-51.08,1638177659.421875
-53.51,1638177659.4375
-56.88,1638177659.453125
-61.24,1638177659.46875
-66.22,1638177659.484375
-70.99,1638177659.5
-74.39,1638177659.515625
-75.16,1638177659.53125
-72.26,1638177659.546875
-65.21,1638177659.5625
-54.3,1638177659.578125
-40.53,1638177659.59375
-25.39,1638177659.609375
-10.45,1638177659.625
3.0,1638177659.640625
14.11,1638177659.65625
22.52,1638177659.671875
28.25,1638177659.6875
31.66,1638177659.703125
33.31,1638177659.71875
33.85,1638177659.734375
33.8,1638177659.75
33.43,1638177659.765625
32.73,1638177659.78125
31.58,1638177659.796875
29.84,1638177659.8125
27.61,1638177659.828125
25.16,1638177659.84375
22.83,1638177659.859375
20.89,1638177659.875
19.51,1638177659.890625
18.73,1638177659.90625
18.57,1638177659.921875
19.03,1638177659.9375
19.93,1638177659.953125
20.93,1638177659.96875
21.53,1638177659.984375
21.23,1638177660.0
19.7,1638177660.015625
16.93,1638177660.03125
13.19,1638177660.046875
8.93,1638177660.0625
4.64,1638177660.078125
0.71,1638177660.09375
-2.62,1638177660.109375
-5.35,1638177660.125
-7.62,1638177660.140625
-9.69,1638177660.15625
-11.76,1638177660.171875
-13.83,1638177660.1875
-15.67,1638177660.203125
-16.92,1638177660.21875
-17.36,1638177660.234375
-17.08,1638177660.25
-16.58,1638177660.265625
-16.54,1638177660.28125
-17.61,1638177660.296875
-20.01,1638177660.3125
-23.52,1638177660.328125
-27.49,1638177660.34375
-31.07,1638177660.359375
-33.36,1638177660.375
-33.55,1638177660.390625
-31.03,1638177660.40625
-25.45,1638177660.421875
-16.82,1638177660.4375
-5.66,1638177660.453125
7.0,1638177660.46875
19.79,1638177660.484375
31.28,1638177660.5
40.34,1638177660.515625
46.38,1638177660.53125
49.35,1638177660.546875
49.67,1638177660.5625
47.92,1638177660.578125
44.73,1638177660.59375
40.61,1638177660.609375
36.04,1638177660.625
31.42,1638177660.640625
27.05,1638177660.65625
23.16,1638177660.671875
19.8,1638177660.6875
16.9,1638177660.703125
14.32,1638177660.71875
12.0,1638177660.734375
9.98,1638177660.75
8.4,1638177660.765625
7.48,1638177660.78125
7.31,1638177660.796875
7.81,1638177660.8125
8.75,1638177660.828125
9.75,1638177660.84375
10.43,1638177660.859375
10.43,1638177660.875
9.54,1638177660.890625
7.73,1638177660.90625
5.14,1638177660.921875
2.08,1638177660.9375
-1.1,1638177660.953125
-4.13,1638177660.96875
-6.87,1638177660.984375
-9.37,1638177661.0
-11.79,1638177661.015625
-14.29,1638177661.03125
-16.94,1638177661.046875
-19.68,1638177661.0625
-22.35,1638177661.078125
-24.78,1638177661.09375
-26.87,1638177661.109375
-28.68,1638177661.125
-30.44,1638177661.140625
-32.53,1638177661.15625
-35.34,1638177661.171875
-39.13,1638177661.1875
-43.77,1638177661.203125
-48.67,1638177661.21875
-52.77,1638177661.234375
-54.79,1638177661.25
-53.61,1638177661.265625
-48.62,1638177661.28125
-39.95,1638177661.296875
-28.37,1638177661.3125
-15.12,1638177661.328125
-1.54,1638177661.34375
11.22,1638177661.359375
22.29,1638177661.375
31.17,1638177661.390625
37.61,1638177661.40625
41.57,1638177661.421875
43.14,1638177661.4375
42.59,1638177661.453125
40.34,1638177661.46875
36.95,1638177661.484375
33.09,1638177661.5
29.39,1638177661.515625
26.29,1638177661.53125
23.99,1638177661.546875
22.42,1638177661.5625
21.36,1638177661.578125
20.64,1638177661.59375
20.2,1638177661.609375
20.12,1638177661.625
20.44,1638177661.640625
21.06,1638177661.65625
21.64,1638177661.671875
21.71,1638177661.6875
20.9,1638177661.703125
19.1,1638177661.71875
16.52,1638177661.734375
13.57,1638177661.75
10.62,1638177661.765625
7.84,1638177661.78125
5.16,1638177661.796875
2.34,1638177661.8125
-0.84,1638177661.828125
-4.45,1638177661.84375
-8.39,1638177661.859375
-12.47,1638177661.875
-16.4,1638177661.890625
-20.01,1638177661.90625
-23.19,1638177661.921875
-25.99,1638177661.9375
-28.59,1638177661.953125
-31.33,1638177661.96875
-34.61,1638177661.984375
-38.79,1638177662.0
-43.84,1638177662.015625
-49.15,1638177662.03125
-53.5,1638177662.046875
-55.27,1638177662.0625
-52.89,1638177662.078125
-45.5,1638177662.09375
-33.28,1638177662.109375
-17.52,1638177662.125
-0.36,1638177662.140625
15.85,1638177662.15625
29.14,1638177662.171875
38.41,1638177662.1875
43.56,1638177662.203125
45.29,1638177662.21875
44.65,1638177662.234375
42.7,1638177662.25
40.11,1638177662.265625
37.22,1638177662.28125
34.15,1638177662.296875
31.02,1638177662.3125
28.07,1638177662.328125
25.61,1638177662.34375
23.81,1638177662.359375
22.58,1638177662.375
21.56,1638177662.390625
20.33,1638177662.40625
18.64,1638177662.421875
16.66,1638177662.4375
14.76,1638177662.453125
13.36,1638177662.46875
12.6,1638177662.484375
12.23,1638177662.5
11.68,1638177662.515625
10.34,1638177662.53125
7.84,1638177662.546875
4.26,1638177662.5625
0.08,1638177662.578125
-4.03,1638177662.59375
-7.49,1638177662.609375
-10.03,1638177662.625
-11.85,1638177662.640625
-13.49,1638177662.65625
-15.59,1638177662.671875
-18.61,1638177662.6875
-22.53,1638177662.703125
-26.87,1638177662.71875
-30.85,1638177662.734375
-33.79,1638177662.75
-35.48,1638177662.765625
-36.32,1638177662.78125
-37.25,1638177662.796875
-39.3,1638177662.8125
-43.21,1638177662.828125
-49.11,1638177662.84375
-56.35,1638177662.859375
-63.69,1638177662.875
-69.5,1638177662.890625
-72.14,1638177662.90625
-70.37,1638177662.921875
-63.57,1638177662.9375
-52.02,1638177662.953125
-36.78,1638177662.96875
-19.56,1638177662.984375
-2.26,1638177663.0
13.42,1638177663.015625
26.33,1638177663.03125
35.97,1638177663.046875
42.42,1638177663.0625
46.17,1638177663.078125
47.85,1638177663.09375
48.03,1638177663.109375
47.19,1638177663.125
45.62,1638177663.140625
43.49,1638177663.15625
40.91,1638177663.171875
37.99,1638177663.1875
34.95,1638177663.203125
32.06,1638177663.21875
29.67,1638177663.234375
28.04,1638177663.25
27.29,1638177663.265625
27.35,1638177663.28125
27.98,1638177663.296875
28.83,1638177663.3125
29.51,1638177663.328125
29.7,1638177663.34375
29.13,1638177663.359375
27.67,1638177663.375
25.3,1638177663.390625
22.19,1638177663.40625
18.64,1638177663.421875
15.01,1638177663.4375
11.58,1638177663.453125
8.41,1638177663.46875
5.34,1638177663.484375
1.99,1638177663.5
-2.0,1638177663.515625
-6.8,1638177663.53125
-12.23,1638177663.546875
-17.82,1638177663.5625
-23.03,1638177663.578125
-27.43,1638177663.59375
-30.97,1638177663.609375
-33.98,1638177663.625
-37.09,1638177663.640625
-40.97,1638177663.65625
-46.12,1638177663.671875
-52.59,1638177663.6875
-59.88,1638177663.703125
-66.86,1638177663.71875
-71.98,1638177663.734375
-73.59,1638177663.75
-70.47,1638177663.765625
-62.26,1638177663.78125
-49.58,1638177663.796875
-33.95,1638177663.8125
-17.3,1638177663.828125
-1.38,1638177663.84375
12.56,1638177663.859375
23.95,1638177663.875
32.7,1638177663.890625
38.99,1638177663.90625
42.99,1638177663.921875
44.88,1638177663.9375
44.86,1638177663.953125
43.29,1638177663.96875
40.73,1638177663.984375
37.81,1638177664.0
35.15,1638177664.015625
33.21,1638177664.03125
32.22,1638177664.046875
32.11,1638177664.0625
32.61,1638177664.078125
33.29,1638177664.09375
33.77,1638177664.109375
33.84,1638177664.125
33.54,1638177664.140625
33.06,1638177664.15625
32.69,1638177664.171875
32.59,1638177664.1875
32.7,1638177664.203125
32.79,1638177664.21875
32.59,1638177664.234375
31.94,1638177664.25
30.82,1638177664.265625
29.32,1638177664.28125
27.52,1638177664.296875
25.33,1638177664.3125
22.45,1638177664.328125
18.57,1638177664.34375
13.51,1638177664.359375
7.34,1638177664.375
0.5,1638177664.390625
-6.43,1638177664.40625
-12.81,1638177664.421875
-18.27,1638177664.4375
-22.79,1638177664.453125
-26.65,1638177664.46875
-30.4,1638177664.484375
-34.61,1638177664.5
-39.79,1638177664.515625
-46.08,1638177664.53125
-53.26,1638177664.546875
-60.64,1638177664.5625
-67.01,1638177664.578125
-70.84,1638177664.59375
-70.65,1638177664.609375
-65.42,1638177664.625
-55.08,1638177664.640625
-40.68,1638177664.65625
-24.09,1638177664.671875
-7.51,1638177664.6875
7.19,1638177664.703125
18.92,1638177664.71875
27.4,1638177664.734375
32.9,1638177664.75
35.92,1638177664.765625
36.91,1638177664.78125
36.16,1638177664.796875
34.04,1638177664.8125
30.98,1638177664.828125
27.55,1638177664.84375
24.28,1638177664.859375
21.56,1638177664.875
19.51,1638177664.890625
18.05,1638177664.90625
17.08,1638177664.921875
16.5,1638177664.9375
16.38,1638177664.953125
16.84,1638177664.96875
17.91,1638177664.984375
19.42,1638177665.0
20.98,1638177665.015625
22.01,1638177665.03125
22.02,1638177665.046875
20.73,1638177665.0625
18.23,1638177665.078125
14.91,1638177665.09375
11.25,1638177665.109375
7.56,1638177665.125
3.86,1638177665.140625
-0.06,1638177665.15625
-4.44,1638177665.171875
-9.36,1638177665.1875
-14.55,1638177665.203125
-19.55,1638177665.21875
-23.9,1638177665.234375
-27.34,1638177665.25
-29.96,1638177665.265625
-32.14,1638177665.28125
-34.42,1638177665.296875
-37.42,1638177665.3125
-41.65,1638177665.328125
-47.38,1638177665.34375
-54.52,1638177665.359375
-62.32,1638177665.375
-69.39,1638177665.390625
-73.91,1638177665.40625
-74.06,1638177665.421875
-68.69,1638177665.4375
-57.78,1638177665.453125
-42.51,1638177665.46875
-24.99,1638177665.484375
-7.5,1638177665.5
8.08,1638177665.515625
20.66,1638177665.53125
29.97,1638177665.546875
36.24,1638177665.5625
39.93,1638177665.578125
41.48,1638177665.59375
41.27,1638177665.609375
39.66,1638177665.625
37.09,1638177665.640625
33.95,1638177665.65625
30.64,1638177665.671875
27.45,1638177665.6875
24.62,1638177665.703125
22.32,1638177665.71875
20.71,1638177665.734375
19.9,1638177665.75
19.86,1638177665.765625
20.42,1638177665.78125
21.24,1638177665.796875
21.9,1638177665.8125
22.03,1638177665.828125
21.36,1638177665.84375
19.82,1638177665.859375
17.56,1638177665.875
14.88,1638177665.890625
12.22,1638177665.90625
9.98,1638177665.921875
8.36,1638177665.9375
7.18,1638177665.953125
5.91,1638177665.96875
3.84,1638177665.984375
0.46,1638177666.0
-4.15,1638177666.015625
-9.27,1638177666.03125
-13.76,1638177666.046875
-16.54,1638177666.0625
-17.13,1638177666.078125
-15.84,1638177666.09375
-13.6,1638177666.109375
-11.68,1638177666.125
-11.2,1638177666.140625
-12.99,1638177666.15625
-17.51,1638177666.171875
-24.89,1638177666.1875
-34.85,1638177666.203125
-46.52,1638177666.21875
-58.27,1638177666.234375
-67.87,1638177666.25
-72.95,1638177666.265625
-71.78,1638177666.28125
-63.9,1638177666.296875
-50.35,1638177666.3125
-33.29,1638177666.328125
-15.33,1638177666.34375
1.33,1638177666.359375
15.33,1638177666.375
26.28,1638177666.390625
34.39,1638177666.40625
40.08,1638177666.421875
43.71,1638177666.4375
45.51,1638177666.453125
45.77,1638177666.46875
44.91,1638177666.484375
43.42,1638177666.5
41.82,1638177666.515625
40.4,1638177666.53125
39.22,1638177666.546875
38.14,1638177666.5625
36.98,1638177666.578125
35.63,1638177666.59375
34.14,1638177666.609375
32.68,1638177666.625
31.46,1638177666.640625
30.6,1638177666.65625
30.09,1638177666.671875
29.74,1638177666.6875
29.22,1638177666.703125
28.2,1638177666.71875
26.39,1638177666.734375
23.63,1638177666.75
19.95,1638177666.765625
15.52,1638177666.78125
10.64,1638177666.796875
5.65,1638177666.8125
0.85,1638177666.828125
-3.57,1638177666.84375
-7.6,1638177666.859375
-11.4,1638177666.875
-15.23,1638177666.890625
-19.38,1638177666.90625
-23.9,1638177666.921875
-28.61,1638177666.9375
-33.13,1638177666.953125
-37.06,1638177666.96875
-40.27,1638177666.984375
-43.03,1638177667.0
-46.0,1638177667.015625
-50.07,1638177667.03125
-55.95,1638177667.046875
-63.82,1638177667.0625
-73.02,1638177667.078125
-82.07,1638177667.09375
-88.89,1638177667.109375
-91.41,1638177667.125
-88.17,1638177667.140625
-78.74,1638177667.15625
-63.89,1638177667.171875
-45.32,1638177667.1875
-25.22,1638177667.203125
-5.64,1638177667.21875
11.91,1638177667.234375
26.63,1638177667.25
38.35,1638177667.265625
47.29,1638177667.28125
53.76,1638177667.296875
58.05,1638177667.3125
60.36,1638177667.328125
60.91,1638177667.34375
60.04,1638177667.359375
58.21,1638177667.375
55.96,1638177667.390625
53.77,1638177667.40625
51.98,1638177667.421875
50.67,1638177667.4375
49.79,1638177667.453125
49.22,1638177667.46875
48.88,1638177667.484375
48.71,1638177667.5
48.68,1638177667.515625
48.67,1638177667.53125
48.43,1638177667.546875
47.67,1638177667.5625
46.1,1638177667.578125
43.55,1638177667.59375
40.0,1638177667.609375
35.64,1638177667.625
30.83,1638177667.640625
25.93,1638177667.65625
21.27,1638177667.671875
16.96,1638177667.6875
12.88,1638177667.703125
8.74,1638177667.71875
4.22,1638177667.734375
-0.77,1638177667.75
-6.09,1638177667.765625
-11.28,1638177667.78125
-15.84,1638177667.796875
-19.48,1638177667.8125
-22.32,1638177667.828125
-24.98,1638177667.84375
-28.38,1638177667.859375
-33.39,1638177667.875
-40.53,1638177667.890625
-49.76,1638177667.90625
-60.39,1638177667.921875
-71.19,1638177667.9375
-80.56,1638177667.953125
-86.76,1638177667.96875
-88.24,1638177667.984375
-84.03,1638177668.0
-73.99,1638177668.015625
-59.06,1638177668.03125
-41.02,1638177668.046875
-22.13,1638177668.0625
-4.49,1638177668.078125
10.41,1638177668.09375
22.0,1638177668.109375
30.46,1638177668.125
36.36,1638177668.140625
40.28,1638177668.15625
42.56,1638177668.171875
43.28,1638177668.1875
42.52,1638177668.203125
40.48,1638177668.21875
37.64,1638177668.234375
34.71,1638177668.25
32.4,1638177668.265625
31.16,1638177668.28125
31.09,1638177668.296875
31.86,1638177668.3125
32.94,1638177668.328125
33.88,1638177668.34375
34.46,1638177668.359375
34.71,1638177668.375
34.76,1638177668.390625
34.67,1638177668.40625
34.23,1638177668.421875
33.12,1638177668.4375
31.03,1638177668.453125
27.84,1638177668.46875
23.71,1638177668.484375
19.04,1638177668.5
14.29,1638177668.515625
9.8,1638177668.53125
5.68,1638177668.546875
1.81,1638177668.5625
-2.0,1638177668.578125
-6.02,1638177668.59375
-10.39,1638177668.609375
-15.13,1638177668.625
-20.11,1638177668.640625
-25.11,1638177668.65625
-29.84,1638177668.671875
-34.15,1638177668.6875
-38.0,1638177668.703125
-41.54,1638177668.71875
-45.09,1638177668.734375
-49.09,1638177668.75
-54.08,1638177668.765625
-60.48,1638177668.78125
-68.4,1638177668.796875
-77.3,1638177668.8125
-85.93,1638177668.828125
-92.39,1638177668.84375
-94.69,1638177668.859375
-91.34,1638177668.875
-81.95,1638177668.890625
-67.34,1638177668.90625
-49.34,1638177668.921875
-30.12,1638177668.9375
-11.63,1638177668.953125
4.89,1638177668.96875
18.9,1638177668.984375
30.36,1638177669.0
39.46,1638177669.015625
46.4,1638177669.03125
51.35,1638177669.046875
54.48,1638177669.0625
56.03,1638177669.078125
56.27,1638177669.09375
55.6,1638177669.109375
54.43,1638177669.125
53.16,1638177669.140625
52.08,1638177669.15625
51.34,1638177669.171875
50.92,1638177669.1875
50.67,1638177669.203125
50.42,1638177669.21875
50.06,1638177669.234375
49.58,1638177669.25
49.04,1638177669.265625
48.47,1638177669.28125
47.76,1638177669.296875
46.63,1638177669.3125
44.75,1638177669.328125
41.87,1638177669.34375
37.94,1638177669.359375
33.16,1638177669.375
27.89,1638177669.390625
22.57,1638177669.40625
17.5,1638177669.421875
12.82,1638177669.4375
8.46,1638177669.453125
4.25,1638177669.46875
-0.03,1638177669.484375
-4.53,1638177669.5
-9.3,1638177669.515625
-14.29,1638177669.53125
-19.38,1638177669.546875
-24.45,1638177669.5625
-29.39,1638177669.578125
-34.09,1638177669.59375
-38.54,1638177669.609375
-42.81,1638177669.625
-47.16,1638177669.640625
-52.0,1638177669.65625
-57.86,1638177669.671875
-65.12,1638177669.6875
-73.67,1638177669.703125
-82.64,1638177669.71875
-90.35,1638177669.734375
-94.62,1638177669.75
-93.45,1638177669.765625
-85.77,1638177669.78125
-71.89,1638177669.796875
-53.54,1638177669.8125
-33.26,1638177669.828125
-13.57,1638177669.84375
3.77,1638177669.859375
18.09,1638177669.875
29.6,1638177669.890625
38.86,1638177669.90625
46.31,1638177669.921875
52.02,1638177669.9375
55.87,1638177669.953125
57.78,1638177669.96875
57.99,1638177669.984375
57.0,1638177670.0
55.44,1638177670.015625
53.84,1638177670.03125
52.45,1638177670.046875
51.32,1638177670.0625
50.38,1638177670.078125
49.59,1638177670.09375
48.93,1638177670.109375
48.43,1638177670.125
48.02,1638177670.140625
47.54,1638177670.15625
46.78,1638177670.171875
45.52,1638177670.1875
43.68,1638177670.203125
41.26,1638177670.21875
38.36,1638177670.234375
35.05,1638177670.25
31.41,1638177670.265625
27.42,1638177670.28125
23.1,1638177670.296875
18.56,1638177670.3125
13.98,1638177670.328125
9.56,1638177670.34375
5.42,1638177670.359375
1.5,1638177670.375
-2.44,1638177670.390625
-6.71,1638177670.40625
-11.49,1638177670.421875
-16.74,1638177670.4375
-22.19,1638177670.453125
-27.45,1638177670.46875
-32.19,1638177670.484375
-36.29,1638177670.5
-39.9,1638177670.515625
-43.39,1638177670.53125
-47.29,1638177670.546875
-52.18,1638177670.5625
-58.57,1638177670.578125
-66.6,1638177670.59375
-75.78,1638177670.609375
-84.75,1638177670.625
-91.47,1638177670.640625
-93.68,1638177670.65625
-89.68,1638177670.671875
-79.02,1638177670.6875
-62.74,1638177670.703125
-43.06,1638177670.71875
-22.6,1638177670.734375
-3.61,1638177670.75
12.64,1638177670.765625
25.81,1638177670.78125
36.13,1638177670.796875
43.98,1638177670.8125
49.57,1638177670.828125
52.97,1638177670.84375
54.27,1638177670.859375
53.77,1638177670.875
52.01,1638177670.890625
49.61,1638177670.90625
47.13,1638177670.921875
44.89,1638177670.9375
43.0,1638177670.953125
41.45,1638177670.96875
40.24,1638177670.984375
39.46,1638177671.0
39.22,1638177671.015625
39.56,1638177671.03125
40.31,1638177671.046875
41.12,1638177671.0625
41.46,1638177671.078125
40.89,1638177671.09375
39.12,1638177671.109375
36.15,1638177671.125
32.16,1638177671.140625
27.47,1638177671.15625
22.36,1638177671.171875
17.05,1638177671.1875
11.76,1638177671.203125
6.68,1638177671.21875
2.05,1638177671.234375
-1.99,1638177671.25
-5.52,1638177671.265625
-8.86,1638177671.28125
-12.54,1638177671.296875
-17.0,1638177671.3125
-22.4,1638177671.328125
-28.46,1638177671.34375
-34.53,1638177671.359375
-39.9,1638177671.375
-44.15,1638177671.390625
-47.34,1638177671.40625
-50.11,1638177671.421875
-53.47,1638177671.4375
-58.37,1638177671.453125
-65.38,1638177671.46875
-74.22,1638177671.484375
-83.7,1638177671.5
-91.88,1638177671.515625
-96.46,1638177671.53125
-95.48,1638177671.546875
-87.82,1638177671.5625
-73.67,1638177671.578125
-54.48,1638177671.59375
-32.68,1638177671.609375
-11.03,1638177671.625
8.01,1638177671.640625
22.81,1638177671.65625
32.82,1638177671.671875
38.51,1638177671.6875
41.21,1638177671.703125
42.61,1638177671.71875
44.26,1638177671.734375
47.18,1638177671.75
51.53,1638177671.765625
56.72,1638177671.78125
61.71,1638177671.796875
65.51,1638177671.8125
67.53,1638177671.828125
67.73,1638177671.84375
66.48,1638177671.859375
64.3,1638177671.875
61.57,1638177671.890625
58.52,1638177671.90625
55.23,1638177671.921875
51.82,1638177671.9375
48.45,1638177671.953125
45.3,1638177671.96875
42.4,1638177671.984375
39.56,1638177672.0
36.44,1638177672.015625
32.67,1638177672.03125
28.04,1638177672.046875
22.64,1638177672.0625
16.84,1638177672.078125
11.15,1638177672.09375
6.0,1638177672.109375
1.6,1638177672.125
-2.23,1638177672.140625
-5.91,1638177672.15625
-9.89,1638177672.171875
-14.45,1638177672.1875
-19.55,1638177672.203125
-24.83,1638177672.21875
-29.81,1638177672.234375
-34.13,1638177672.25
-37.7,1638177672.265625
-40.76,1638177672.28125
-43.76,1638177672.296875
-47.23,1638177672.3125
-51.66,1638177672.328125
-57.43,1638177672.34375
-64.68,1638177672.359375
-73.24,1638177672.375
-82.39,1638177672.390625
-90.82,1638177672.40625
-96.68,1638177672.421875
-98.1,1638177672.4375
-93.71,1638177672.453125
-83.2,1638177672.46875
-67.5,1638177672.484375
-48.56,1638177672.5
-28.69,1638177672.515625
-9.99,1638177672.53125
6.16,1638177672.546875
19.23,1638177672.5625
29.29,1638177672.578125
36.69,1638177672.59375
41.76,1638177672.609375
44.79,1638177672.625
46.0,1638177672.640625
45.76,1638177672.65625
44.52,1638177672.671875
42.83,1638177672.6875
41.15,1638177672.703125
39.8,1638177672.71875
38.9,1638177672.734375
38.43,1638177672.75
38.27,1638177672.765625
38.35,1638177672.78125
38.58,1638177672.796875
38.91,1638177672.8125
39.28,1638177672.828125
39.58,1638177672.84375
39.69,1638177672.859375
39.43,1638177672.875
38.57,1638177672.890625
36.87,1638177672.90625
34.05,1638177672.921875
30.0,1638177672.9375
24.86,1638177672.953125
19.09,1638177672.96875
13.35,1638177672.984375
8.25,1638177673.0
4.06,1638177673.015625
0.58,1638177673.03125
-2.75,1638177673.046875
-6.55,1638177673.0625
-11.16,1638177673.078125
-16.49,1638177673.09375
-22.1,1638177673.109375
-27.43,1638177673.125
-32.12,1638177673.140625
-36.12,1638177673.15625
-39.74,1638177673.171875
-43.44,1638177673.1875
-47.74,1638177673.203125
-53.01,1638177673.21875
-59.48,1638177673.234375
-67.12,1638177673.25
-75.53,1638177673.265625
-83.85,1638177673.28125
-90.68,1638177673.296875
-94.28,1638177673.3125
-93.01,1638177673.328125
-85.82,1638177673.34375
-72.74,1638177673.359375
-54.99,1638177673.375
-34.66,1638177673.390625
-14.16,1638177673.40625
4.45,1638177673.421875
19.94,1638177673.4375
31.96,1638177673.453125
40.86,1638177673.46875
47.22,1638177673.484375
51.57,1638177673.5
54.18,1638177673.515625
55.19,1638177673.53125
54.79,1638177673.546875
53.35,1638177673.5625
51.4,1638177673.578125
49.5,1638177673.59375
48.07,1638177673.609375
47.21,1638177673.625
46.74,1638177673.640625
46.34,1638177673.65625
45.79,1638177673.671875
45.06,1638177673.6875
44.3,1638177673.703125
43.7,1638177673.71875
43.28,1638177673.734375
42.81,1638177673.75
41.89,1638177673.765625
40.11,1638177673.78125
37.26,1638177673.796875
33.42,1638177673.8125
28.89,1638177673.828125
24.09,1638177673.84375
19.37,1638177673.859375
14.94,1638177673.875
10.75,1638177673.890625
6.61,1638177673.90625
2.25,1638177673.921875
-2.56,1638177673.9375
-7.95,1638177673.953125
-13.8,1638177673.96875
-19.75,1638177673.984375
-25.32,1638177674.0
-30.03,1638177674.015625
-33.63,1638177674.03125
-36.33,1638177674.046875
-38.69,1638177674.0625
-41.57,1638177674.078125
-45.83,1638177674.09375
-51.99,1638177674.109375
-60.01,1638177674.125
-69.17,1638177674.140625
-78.11,1638177674.15625
-84.99,1638177674.171875
-87.96,1638177674.1875
-85.56,1638177674.203125
-77.18,1638177674.21875
-63.28,1638177674.234375
-45.38,1638177674.25
-25.64,1638177674.265625
-6.37,1638177674.28125
10.54,1638177674.296875
23.93,1638177674.3125
33.47,1638177674.328125
39.53,1638177674.34375
42.86,1638177674.359375
44.28,1638177674.375
44.48,1638177674.390625
43.89,1638177674.40625
42.78,1638177674.421875
41.29,1638177674.4375
39.6,1638177674.453125
37.92,1638177674.46875
36.45,1638177674.484375
35.36,1638177674.5
34.65,1638177674.515625
34.26,1638177674.53125
34.05,1638177674.546875
34.01,1638177674.5625
34.11,1638177674.578125
34.42,1638177674.59375
34.84,1638177674.609375
35.08,1638177674.625
34.65,1638177674.640625
32.99,1638177674.65625
29.74,1638177674.671875
24.89,1638177674.6875
18.91,1638177674.703125
12.58,1638177674.71875
6.71,1638177674.734375
1.77,1638177674.75
-2.29,1638177674.765625
-6.04,1638177674.78125
-10.25,1638177674.796875
-15.46,1638177674.8125
-21.72,1638177674.828125
-28.49,1638177674.84375
-34.9,1638177674.859375
-40.2,1638177674.875
-44.08,1638177674.890625
-46.88,1638177674.90625
-49.46,1638177674.921875
-52.96,1638177674.9375
-58.31,1638177674.953125
-65.95,1638177674.96875
-75.52,1638177674.984375
-85.69,1638177675.0
-94.5,1638177675.015625
-99.63,1638177675.03125
-99.13,1638177675.046875
-92.0,1638177675.0625
-78.57,1638177675.078125
-60.45,1638177675.09375
-40.05,1638177675.109375
-19.85,1638177675.125
-1.76,1638177675.140625
13.29,1638177675.15625
25.21,1638177675.171875
34.51,1638177675.1875
41.81,1638177675.203125
47.59,1638177675.21875
52.07,1638177675.234375
55.19,1638177675.25
56.72,1638177675.265625
56.47,1638177675.28125
54.38,1638177675.296875
50.75,1638177675.3125
46.36,1638177675.328125
42.38,1638177675.34375
40.1,1638177675.359375
40.48,1638177675.375
43.78,1638177675.390625
49.39,1638177675.40625
56.11,1638177675.421875
62.46,1638177675.4375
67.17,1638177675.453125
69.41,1638177675.46875
68.8,1638177675.484375
65.38,1638177675.5
59.44,1638177675.515625
51.45,1638177675.53125
42.16,1638177675.546875
32.42,1638177675.5625
23.16,1638177675.578125
15.06,1638177675.59375
8.36,1638177675.609375
2.82,1638177675.625
-2.17,1638177675.640625
-7.24,1638177675.65625
-12.87,1638177675.671875
-19.15,1638177675.6875
-25.84,1638177675.703125
-32.44,1638177675.71875
-38.48,1638177675.734375
-43.64,1638177675.75
-47.96,1638177675.765625
-51.83,1638177675.78125
-55.92,1638177675.796875
-61.04,1638177675.8125
-67.79,1638177675.828125
-76.21,1638177675.84375
-85.43,1638177675.859375
-93.7,1638177675.875
-98.68,1638177675.890625
-98.22,1638177675.90625
-91.11,1638177675.921875
-77.64,1638177675.9375
-59.52,1638177675.953125
-39.29,1638177675.96875
-19.53,1638177675.984375
-2.08,1638177676.0
12.22,1638177676.015625
23.37,1638177676.03125
31.76,1638177676.046875
37.79,1638177676.0625
41.67,1638177676.078125
43.56,1638177676.09375
43.65,1638177676.109375
42.39,1638177676.125
40.34,1638177676.140625
38.15,1638177676.15625
36.27,1638177676.171875
34.86,1638177676.1875
33.88,1638177676.203125
33.16,1638177676.21875
32.57,1638177676.234375
32.18,1638177676.25
32.19,1638177676.265625
32.78,1638177676.28125
33.91,1638177676.296875
35.22,1638177676.3125
36.08,1638177676.328125
35.8,1638177676.34375
33.92,1638177676.359375
30.39,1638177676.375
25.59,1638177676.390625
20.16,1638177676.40625
14.68,1638177676.421875
9.51,1638177676.4375
4.68,1638177676.453125
0.01,1638177676.46875
-4.75,1638177676.484375
-9.71,1638177676.5
-14.74,1638177676.515625
-19.58,1638177676.53125
-23.98,1638177676.546875
-27.85,1638177676.5625
-31.39,1638177676.578125
-35.0,1638177676.59375
-39.18,1638177676.609375
-44.37,1638177676.625
-50.87,1638177676.640625
-58.65,1638177676.65625
-67.3,1638177676.671875
-75.88,1638177676.6875
-82.91,1638177676.703125
-86.58,1638177676.71875
-85.24,1638177676.734375
-77.95,1638177676.75
-64.88,1638177676.765625
-47.45,1638177676.78125
-27.88,1638177676.796875
-8.48,1638177676.8125
8.89,1638177676.828125
23.27,1638177676.84375
34.48,1638177676.859375
42.8,1638177676.875
48.59,1638177676.890625
52.15,1638177676.90625
53.68,1638177676.921875
53.38,1638177676.9375
51.59,1638177676.953125
48.74,1638177676.96875
45.47,1638177676.984375
42.35,1638177677.0
39.93,1638177677.015625
38.54,1638177677.03125
38.26,1638177677.046875
38.88,1638177677.0625
40.01,1638177677.078125
41.2,1638177677.09375
42.02,1638177677.109375
42.22,1638177677.125
41.66,1638177677.140625
40.26,1638177677.15625
38.06,1638177677.171875
35.14,1638177677.1875
31.64,1638177677.203125
27.76,1638177677.21875
23.63,1638177677.234375
19.26,1638177677.25
14.43,1638177677.265625
8.79,1638177677.28125
2.0,1638177677.296875
-5.99,1638177677.3125
-14.86,1638177677.328125
-23.83,1638177677.34375
-31.9,1638177677.359375
-38.1,1638177677.375
-41.88,1638177677.390625
-43.35,1638177677.40625
-43.34,1638177677.421875
-43.23,1638177677.4375
-44.54,1638177677.453125
-48.53,1638177677.46875
-55.75,1638177677.484375
-65.87,1638177677.5
-77.55,1638177677.515625
-88.73,1638177677.53125
-96.96,1638177677.546875
-99.97,1638177677.5625
-96.29,1638177677.578125
-85.65,1638177677.59375
-69.17,1638177677.609375
-49.05,1638177677.625
-27.9,1638177677.640625
-8.06,1638177677.65625
9.01,1638177677.671875
22.78,1638177677.6875
33.46,1638177677.703125
41.53,1638177677.71875
47.4,1638177677.734375
51.28,1638177677.75
53.34,1638177677.765625
53.89,1638177677.78125
53.37,1638177677.796875
52.35,1638177677.8125
51.25,1638177677.828125
50.27,1638177677.84375
49.34,1638177677.859375
48.29,1638177677.875
47.09,1638177677.890625
45.83,1638177677.90625
44.77,1638177677.921875
44.13,1638177677.9375
43.91,1638177677.953125
43.84,1638177677.96875
43.48,1638177677.984375
42.38,1638177678.0
40.27,1638177678.015625
37.12,1638177678.03125
33.13,1638177678.046875
28.56,1638177678.0625
23.66,1638177678.078125
18.68,1638177678.09375
13.8,1638177678.109375
9.22,1638177678.125
4.99,1638177678.140625
0.99,1638177678.15625
-3.09,1638177678.171875
-7.62,1638177678.1875
-12.84,1638177678.203125
-18.66,1638177678.21875
-24.68,1638177678.234375
-30.32,1638177678.25
-35.16,1638177678.265625
-39.15,1638177678.28125
-42.76,1638177678.296875
-46.75,1638177678.3125
-51.99,1638177678.328125
-59.06,1638177678.34375
-68.02,1638177678.359375
-78.27,1638177678.375
-88.49,1638177678.390625
-96.87,1638177678.40625
-101.41,1638177678.421875
-100.47,1638177678.4375
-93.23,1638177678.453125
-80.01,1638177678.46875
-62.22,1638177678.484375
-41.98,1638177678.5
-21.52,1638177678.515625
-2.63,1638177678.53125
13.61,1638177678.546875
26.95,1638177678.5625
37.6,1638177678.578125
45.98,1638177678.59375
52.41,1638177678.609375
57.04,1638177678.625
59.93,1638177678.640625
61.12,1638177678.65625
60.83,1638177678.671875
59.45,1638177678.6875
57.52,1638177678.703125
55.56,1638177678.71875
53.9,1638177678.734375
52.61,1638177678.75
51.56,1638177678.765625
50.51,1638177678.78125
49.34,1638177678.796875
48.14,1638177678.8125
47.06,1638177678.828125
46.22,1638177678.84375
45.47,1638177678.859375
44.39,1638177678.875
42.42,1638177678.890625
39.16,1638177678.90625
34.54,1638177678.921875
28.93,1638177678.9375
22.97,1638177678.953125
17.29,1638177678.96875
12.31,1638177678.984375
8.0,1638177679.0
4.01,1638177679.015625
-0.21,1638177679.03125
-5.11,1638177679.046875
-10.85,1638177679.0625
-17.24,1638177679.078125
-23.75,1638177679.09375
-29.74,1638177679.109375
-34.73,1638177679.125
-38.51,1638177679.140625
-41.29,1638177679.15625
-43.7,1638177679.171875
-46.58,1638177679.1875
-50.88,1638177679.203125
-57.35,1638177679.21875
-66.25,1638177679.234375
-76.96,1638177679.25
-87.77,1638177679.265625
-96.01,1638177679.28125
-98.63,1638177679.296875
-93.14,1638177679.3125
-78.64,1638177679.328125
-56.33,1638177679.34375
-29.22,1638177679.359375
-1.26,1638177679.375
23.95,1638177679.390625
44.17,1638177679.40625
58.77,1638177679.421875
68.43,1638177679.4375
74.28,1638177679.453125
77.31,1638177679.46875
78.03,1638177679.484375
76.7,1638177679.5
73.56,1638177679.515625
69.11,1638177679.53125
64.08,1638177679.546875
59.25,1638177679.5625
55.17,1638177679.578125
52.04,1638177679.59375
49.72,1638177679.609375
47.93,1638177679.625
46.46,1638177679.640625
45.25,1638177679.65625
44.35,1638177679.671875
43.76,1638177679.6875
43.3,1638177679.703125
42.63,1638177679.71875
41.29,1638177679.734375
38.94,1638177679.75
35.49,1638177679.765625
31.02,1638177679.78125
25.82,1638177679.796875
20.17,1638177679.8125
14.32,1638177679.828125
8.48,1638177679.84375
2.89,1638177679.859375
-2.23,1638177679.875
-6.84,1638177679.890625
-11.15,1638177679.90625
-15.6,1638177679.921875
-20.69,1638177679.9375
-26.62,1638177679.953125
-33.18,1638177679.96875
-39.75,1638177679.984375
-45.55,1638177680.0
-50.03,1638177680.015625
-53.12,1638177680.03125
-55.31,1638177680.046875
-57.44,1638177680.0625
-60.41,1638177680.078125
-64.89,1638177680.09375
-71.19,1638177680.109375
-79.19,1638177680.125
-88.27,1638177680.140625
-97.29,1638177680.15625
-104.56,1638177680.171875
-108.1,1638177680.1875
-106.05,1638177680.203125
-97.35,1638177680.21875
-82.23,1638177680.234375
-62.29,1638177680.25
-40.13,1638177680.265625
-18.52,1638177680.28125
0.37,1638177680.296875
15.51,1638177680.3125
26.98,1638177680.328125
35.57,1638177680.34375
42.19,1638177680.359375
47.46,1638177680.375
51.65,1638177680.390625
54.73,1638177680.40625
56.7,1638177680.421875
57.61,1638177680.4375
57.7,1638177680.453125
57.23,1638177680.46875
56.44,1638177680.484375
55.48,1638177680.5
54.44,1638177680.515625
53.42,1638177680.53125
52.51,1638177680.546875
51.81,1638177680.5625
51.32,1638177680.578125
50.98,1638177680.59375
50.56,1638177680.609375
49.77,1638177680.625
48.32,1638177680.640625
46.0,1638177680.65625
42.74,1638177680.671875
38.58,1638177680.6875
33.72,1638177680.703125
28.41,1638177680.71875
22.96,1638177680.734375
17.69,1638177680.75
12.83,1638177680.765625
8.47,1638177680.78125
4.48,1638177680.796875
0.6,1638177680.8125
-3.57,1638177680.828125
-8.31,1638177680.84375
-13.7,1638177680.859375
-19.51,1638177680.875
-25.34,1638177680.890625
-30.75,1638177680.90625
-35.45,1638177680.921875
-39.44,1638177680.9375
-42.97,1638177680.953125
-46.51,1638177680.96875
-50.58,1638177680.984375
-55.72,1638177681.0
-62.28,1638177681.015625
-70.27,1638177681.03125
-79.09,1638177681.046875
-87.43,1638177681.0625
-93.46,1638177681.078125
-95.2,1638177681.09375
-91.17,1638177681.109375
-80.92,1638177681.125
-65.27,1638177681.140625
-46.1,1638177681.15625
-25.69,1638177681.171875
-6.23,1638177681.1875
10.78,1638177681.203125
24.63,1638177681.21875
35.25,1638177681.234375
43.02,1638177681.25
48.44,1638177681.265625
52.05,1638177681.28125
54.29,1638177681.296875
55.52,1638177681.3125
55.92,1638177681.328125
55.6,1638177681.34375
54.64,1638177681.359375
53.16,1638177681.375
51.37,1638177681.390625
49.54,1638177681.40625
47.89,1638177681.421875
46.55,1638177681.4375
45.51,1638177681.453125
44.74,1638177681.46875
44.21,1638177681.484375
43.91,1638177681.5
43.73,1638177681.515625
43.42,1638177681.53125
42.52,1638177681.546875
40.49,1638177681.5625
36.97,1638177681.578125
32.0,1638177681.59375
26.05,1638177681.609375
19.85,1638177681.625
14.12,1638177681.640625
9.26,1638177681.65625
5.25,1638177681.671875
1.67,1638177681.6875
-1.94,1638177681.703125
-5.97,1638177681.71875
-10.55,1638177681.734375
-15.52,1638177681.75
-20.6,1638177681.765625
-25.47,1638177681.78125
-29.9,1638177681.796875
-33.73,1638177681.8125
-37.02,1638177681.828125
-40.0,1638177681.84375
-43.02,1638177681.859375
-46.59,1638177681.875
-51.2,1638177681.890625
-57.23,1638177681.90625
-64.79,1638177681.921875
-73.48,1638177681.9375
-82.26,1638177681.953125
-89.54,1638177681.96875
-93.4,1638177681.984375
-92.13,1638177682.0
-84.82,1638177682.015625
-71.68,1638177682.03125
-54.14,1638177682.046875
-34.42,1638177682.0625
-14.9,1638177682.078125
2.47,1638177682.09375
16.67,1638177682.109375
27.49,1638177682.125
35.35,1638177682.140625
40.81,1638177682.15625
44.34,1638177682.171875
46.16,1638177682.1875
46.44,1638177682.203125
45.39,1638177682.21875
43.4,1638177682.234375
41.0,1638177682.25
38.7,1638177682.265625
36.9,1638177682.28125
35.73,1638177682.296875
35.11,1638177682.3125
34.9,1638177682.328125
34.95,1638177682.34375
35.19,1638177682.359375
35.54,1638177682.375
35.87,1638177682.390625
35.9,1638177682.40625
35.29,1638177682.421875
33.74,1638177682.4375
31.13,1638177682.453125
27.54,1638177682.46875
23.21,1638177682.484375
18.46,1638177682.5
13.61,1638177682.515625
8.89,1638177682.53125
4.37,1638177682.546875
-0.06,1638177682.5625
-4.65,1638177682.578125
-9.75,1638177682.59375
-15.56,1638177682.609375
-21.99,1638177682.625
-28.55,1638177682.640625
-34.49,1638177682.65625
-39.12,1638177682.671875
-42.18,1638177682.6875
-44.03,1638177682.703125
-45.6,1638177682.71875
-48.05,1638177682.734375
-52.38,1638177682.75
-58.99,1638177682.765625
-67.54,1638177682.78125
-76.81,1638177682.796875
-84.99,1638177682.8125
-89.91,1638177682.828125
-89.66,1638177682.84375
-83.04,1638177682.859375
-70.09,1638177682.875
-52.18,1638177682.890625
-31.71,1638177682.90625
-11.4,1638177682.921875
6.48,1638177682.9375
20.78,1638177682.953125
31.54,1638177682.96875
39.6,1638177682.984375
46.04,1638177683.0
51.52,1638177683.015625
56.07,1638177683.03125
59.23,1638177683.046875
60.35,1638177683.0625
59.1,1638177683.078125
55.63,1638177683.09375
50.61,1638177683.109375
45.08,1638177683.125
40.18,1638177683.140625
36.98,1638177683.15625
36.29,1638177683.171875
38.45,1638177683.1875
43.31,1638177683.203125
50.09,1638177683.21875
57.6,1638177683.234375
64.41,1638177683.25
69.21,1638177683.265625
71.14,1638177683.28125
69.89,1638177683.296875
65.69,1638177683.3125
59.11,1638177683.328125
50.83,1638177683.34375
41.49,1638177683.359375
31.76,1638177683.375
22.24,1638177683.390625
13.56,1638177683.40625
6.13,1638177683.421875
0.07,1638177683.4375
-4.9,1638177683.453125
-9.37,1638177683.46875
-14.01,1638177683.484375
-19.31,1638177683.5
-25.32,1638177683.515625
-31.68,1638177683.53125
-37.8,1638177683.546875
-43.12,1638177683.5625
-47.47,1638177683.578125
-51.02,1638177683.59375
-54.36,1638177683.609375
-58.23,1638177683.625
-63.33,1638177683.640625
-70.07,1638177683.65625
-78.38,1638177683.671875
-87.56,1638177683.6875
-96.2,1638177683.703125
-102.46,1638177683.71875
-104.4,1638177683.734375
-100.57,1638177683.75
-90.55,1638177683.765625
-75.11,1638177683.78125
-56.05,1638177683.796875
-35.65,1638177683.8125
-16.0,1638177683.828125
1.43,1638177683.84375
15.95,1638177683.859375
27.49,1638177683.875
36.28,1638177683.890625
42.62,1638177683.90625
46.8,1638177683.921875
49.05,1638177683.9375
49.71,1638177683.953125
49.13,1638177683.96875
47.67,1638177683.984375
45.73,1638177684.0
43.65,1638177684.015625
41.76,1638177684.03125
40.34,1638177684.046875
39.52,1638177684.0625
39.2,1638177684.078125
39.09,1638177684.09375
38.84,1638177684.109375
38.24,1638177684.125
37.31,1638177684.140625
36.26,1638177684.15625
35.26,1638177684.171875
34.22,1638177684.1875
32.79,1638177684.203125
30.5,1638177684.21875
27.08,1638177684.234375
22.69,1638177684.25
17.89,1638177684.265625
13.37,1638177684.28125
9.56,1638177684.296875
6.42,1638177684.3125
3.42,1638177684.328125
-0.14,1638177684.34375
-4.75,1638177684.359375
-10.42,1638177684.375
-16.73,1638177684.390625
-23.01,1638177684.40625
-28.64,1638177684.421875
-33.33,1638177684.4375
-37.08,1638177684.453125
-40.24,1638177684.46875
-43.37,1638177684.484375
-47.13,1638177684.5
-52.13,1638177684.515625
-58.75,1638177684.53125
-66.89,1638177684.546875
-75.75,1638177684.5625
-83.83,1638177684.578125
-89.16,1638177684.59375
-89.83,1638177684.609375
-84.63,1638177684.625
-73.5,1638177684.640625
-57.68,1638177684.65625
-39.28,1638177684.671875
-20.69,1638177684.6875
-3.82,1638177684.703125
10.27,1638177684.71875
21.41,1638177684.734375
30.03,1638177684.75
36.65,1638177684.765625
41.59,1638177684.78125
44.88,1638177684.796875
46.43,1638177684.8125
46.24,1638177684.828125
44.66,1638177684.84375
42.26,1638177684.859375
39.76,1638177684.875
37.73,1638177684.890625
36.44,1638177684.90625
35.83,1638177684.921875
35.68,1638177684.9375
35.72,1638177684.953125
35.8,1638177684.96875
35.89,1638177684.984375
35.96,1638177685.0
35.91,1638177685.015625
35.48,1638177685.03125
34.33,1638177685.046875
32.16,1638177685.0625
28.84,1638177685.078125
24.5,1638177685.09375
19.5,1638177685.109375
14.31,1638177685.125
9.38,1638177685.140625
4.91,1638177685.15625
0.88,1638177685.171875
-2.98,1638177685.1875
-7.06,1638177685.203125
-11.69,1638177685.21875
-16.99,1638177685.234375
-22.73,1638177685.25
-28.46,1638177685.265625
-33.58,1638177685.28125
-37.71,1638177685.296875
-40.8,1638177685.3125
-43.28,1638177685.328125
-45.92,1638177685.34375
-49.58,1638177685.359375
-54.92,1638177685.375
-62.03,1638177685.390625
-70.2,1638177685.40625
-77.93,1638177685.421875
-83.17,1638177685.4375
-83.89,1638177685.453125
-78.69,1638177685.46875
-67.34,1638177685.484375
-50.96,1638177685.5
-31.72,1638177685.515625
-12.15,1638177685.53125
5.59,1638177685.546875
20.22,1638177685.5625
31.4,1638177685.578125
39.45,1638177685.59375
44.87,1638177685.609375
48.06,1638177685.625
49.32,1638177685.640625
48.84,1638177685.65625
47.01,1638177685.671875
44.39,1638177685.6875
41.67,1638177685.703125
39.43,1638177685.71875
37.98,1638177685.734375
37.34,1638177685.75
37.23,1638177685.765625
37.32,1638177685.78125
37.34,1638177685.796875
37.2,1638177685.8125
36.94,1638177685.828125
36.66,1638177685.84375
36.35,1638177685.859375
35.87,1638177685.875
34.95,1638177685.890625
33.27,1638177685.90625
30.62,1638177685.921875
26.92,1638177685.9375
22.24,1638177685.953125
16.82,1638177685.96875
10.97,1638177685.984375
5.09,1638177686.0
-0.39,1638177686.015625
-5.2,1638177686.03125
-9.29,1638177686.046875
-12.92,1638177686.0625
-16.53,1638177686.078125
-20.56,1638177686.09375
-25.2,1638177686.109375
-30.27,1638177686.125
-35.25,1638177686.140625
-39.57,1638177686.15625
-42.94,1638177686.171875
-45.54,1638177686.1875
-48.09,1638177686.203125
-51.47,1638177686.21875
-56.54,1638177686.234375
-63.73,1638177686.25
-72.83,1638177686.265625
-82.95,1638177686.28125
-92.57,1638177686.296875
-99.8,1638177686.3125
-102.68,1638177686.328125
-99.72,1638177686.34375
-90.32,1638177686.359375
-75.06,1638177686.375
-55.59,1638177686.390625
-34.26,1638177686.40625
-13.45,1638177686.421875
5.05,1638177686.4375
20.3,1638177686.453125
32.25,1638177686.46875
41.34,1638177686.484375
48.18,1638177686.5
53.16,1638177686.515625
56.48,1638177686.53125
58.23,1638177686.546875
58.5,1638177686.5625
57.57,1638177686.578125
55.86,1638177686.59375
53.91,1638177686.609375
52.24,1638177686.625
51.14,1638177686.640625
50.7,1638177686.65625
50.77,1638177686.671875
51.09,1638177686.6875
51.45,1638177686.703125
51.77,1638177686.71875
52.07,1638177686.734375
52.38,1638177686.75
52.61,1638177686.765625
52.41,1638177686.78125
51.35,1638177686.796875
48.99,1638177686.8125
45.13,1638177686.828125
39.95,1638177686.84375
33.91,1638177686.859375
27.67,1638177686.875
21.81,1638177686.890625
16.64,1638177686.90625
12.06,1638177686.921875
7.65,1638177686.9375
2.84,1638177686.953125
-2.77,1638177686.96875
-9.22,1638177686.984375
-16.1,1638177687.0
-22.68,1638177687.015625
-28.33,1638177687.03125
-32.69,1638177687.046875
-35.93,1638177687.0625
-38.65,1638177687.078125
-41.73,1638177687.09375
-46.01,1638177687.109375
-52.08,1638177687.125
-60.04,1638177687.140625
-69.37,1638177687.15625
-78.79,1638177687.171875
-86.4,1638177687.1875
-89.95,1638177687.203125
-87.55,1638177687.21875
-78.3,1638177687.234375
-62.84,1638177687.25
-43.34,1638177687.265625
-22.86,1638177687.28125
-4.3,1638177687.296875
10.45,1638177687.3125
21.05,1638177687.328125
28.48,1638177687.34375
34.27,1638177687.359375
39.7,1638177687.375
45.29,1638177687.390625
50.71,1638177687.40625
55.22,1638177687.421875
58.14,1638177687.4375
59.21,1638177687.453125
58.54,1638177687.46875
56.45,1638177687.484375
53.28,1638177687.5
49.31,1638177687.515625
44.8,1638177687.53125
40.17,1638177687.546875
35.95,1638177687.5625
32.73,1638177687.578125
30.94,1638177687.59375
30.6,1638177687.609375
31.31,1638177687.625
32.33,1638177687.640625
32.81,1638177687.65625
32.12,1638177687.671875
29.91,1638177687.6875
26.27,1638177687.703125
21.51,1638177687.71875
16.14,1638177687.734375
10.63,1638177687.75
5.44,1638177687.765625
0.83,1638177687.78125
-3.09,1638177687.796875
-6.46,1638177687.8125
-9.6,1638177687.828125
-12.89,1638177687.84375
-16.66,1638177687.859375
-20.94,1638177687.875
-25.47,1638177687.890625
-29.75,1638177687.90625
-33.32,1638177687.921875
-36.04,1638177687.9375
-38.15,1638177687.953125
-40.29,1638177687.96875
-43.23,1638177687.984375
-47.63,1638177688.0
-53.76,1638177688.015625
-61.37,1638177688.03125
-69.59,1638177688.046875
-76.94,1638177688.0625
-81.63,1638177688.078125
-81.85,1638177688.09375
-76.44,1638177688.109375
-65.19,1638177688.125
-49.13,1638177688.140625
-30.3,1638177688.15625
-11.09,1638177688.171875
6.4,1638177688.1875
20.9,1638177688.203125
32.08,1638177688.21875
40.27,1638177688.234375
45.98,1638177688.25
49.62,1638177688.265625
51.44,1638177688.28125
51.55,1638177688.296875
50.24,1638177688.3125
47.95,1638177688.328125
45.21,1638177688.34375
42.51,1638177688.359375
40.21,1638177688.375
38.43,1638177688.390625
37.16,1638177688.40625
36.35,1638177688.421875
35.9,1638177688.4375
35.76,1638177688.453125
35.82,1638177688.46875
35.91,1638177688.484375
35.8,1638177688.5
35.16,1638177688.515625
33.66,1638177688.53125
31.02,1638177688.546875
27.1,1638177688.5625
22.05,1638177688.578125
16.31,1638177688.59375
10.46,1638177688.609375
5.01,1638177688.625
0.17,1638177688.640625
-4.27,1638177688.65625
-8.82,1638177688.671875
-13.94,1638177688.6875
-19.76,1638177688.703125
-25.94,1638177688.71875
-31.81,1638177688.734375
-36.74,1638177688.75
-40.43,1638177688.765625
-43.14,1638177688.78125
-45.5,1638177688.796875
-48.39,1638177688.8125
-52.51,1638177688.828125
-58.24,1638177688.84375
-65.45,1638177688.859375
-73.53,1638177688.875
-81.26,1638177688.890625
-87.04,1638177688.90625
-89.13,1638177688.921875
-86.1,1638177688.9375
-77.36,1638177688.953125
-63.41,1638177688.96875
-45.83,1638177688.984375
-26.76,1638177689.0
-8.4,1638177689.015625
7.64,1638177689.03125
20.54,1638177689.046875
30.24,1638177689.0625
37.17,1638177689.078125
41.88,1638177689.09375
44.87,1638177689.109375
46.46,1638177689.125
46.93,1638177689.140625
46.55,1638177689.15625
45.66,1638177689.171875
44.63,1638177689.1875
43.74,1638177689.203125
43.1,1638177689.21875
42.57,1638177689.234375
41.87,1638177689.25
40.66,1638177689.265625
38.82,1638177689.28125
36.52,1638177689.296875
34.27,1638177689.3125
32.72,1638177689.328125
32.3,1638177689.34375
33.03,1638177689.359375
34.37,1638177689.375
35.53,1638177689.390625
35.69,1638177689.40625
34.43,1638177689.421875
31.79,1638177689.4375
28.24,1638177689.453125
24.37,1638177689.46875
20.59,1638177689.484375
16.95,1638177689.5
13.18,1638177689.515625
8.91,1638177689.53125
3.83,1638177689.546875
-2.07,1638177689.5625
-8.53,1638177689.578125
-15.09,1638177689.59375
-21.32,1638177689.609375
-26.91,1638177689.625
-31.8,1638177689.640625
-36.22,1638177689.65625
-40.52,1638177689.671875
-45.17,1638177689.6875
-50.62,1638177689.703125
-57.24,1638177689.71875
-65.27,1638177689.734375
-74.53,1638177689.75
-84.3,1638177689.765625
-93.07,1638177689.78125
-98.82,1638177689.796875
-99.48,1638177689.8125
-93.72,1638177689.828125
-81.43,1638177689.84375
-63.91,1638177689.859375
-43.45,1638177689.875
-22.62,1638177689.890625
-3.54,1638177689.90625
12.55,1638177689.921875
25.37,1638177689.9375
35.22,1638177689.953125
42.66,1638177689.96875
48.18,1638177689.984375
52.08,1638177690.0
54.54,1638177690.015625
55.71,1638177690.03125
55.8,1638177690.046875
55.1,1638177690.0625
53.89,1638177690.078125
52.41,1638177690.09375
50.77,1638177690.109375
49.03,1638177690.125
47.27,1638177690.140625
45.65,1638177690.15625
44.37,1638177690.171875
43.64,1638177690.1875
43.55,1638177690.203125
43.96,1638177690.21875
44.53,1638177690.234375
44.76,1638177690.25
44.12,1638177690.265625
42.2,1638177690.28125
38.81,1638177690.296875
34.13,1638177690.3125
28.65,1638177690.328125
23.08,1638177690.34375
18.06,1638177690.359375
13.91,1638177690.375
10.46,1638177690.390625
7.13,1638177690.40625
3.21,1638177690.421875
-1.71,1638177690.4375
-7.59,1638177690.453125
-13.94,1638177690.46875
-20.02,1638177690.484375
-25.32,1638177690.5
-29.75,1638177690.515625
-33.62,1638177690.53125
-37.55,1638177690.546875
-42.15,1638177690.5625
-47.85,1638177690.578125
-54.91,1638177690.59375
-63.33,1638177690.609375
-72.78,1638177690.625
-82.38,1638177690.640625
-90.63,1638177690.65625
-95.54,1638177690.671875
-95.2,1638177690.6875
-88.47,1638177690.703125
-75.52,1638177690.71875
-57.93,1638177690.734375
-38.16,1638177690.75
-18.82,1638177690.765625
-1.8,1638177690.78125
12.06,1638177690.796875
22.97,1638177690.8125
31.58,1638177690.828125
38.52,1638177690.84375
44.01,1638177690.859375
47.88,1638177690.875
49.88,1638177690.890625
50.02,1638177690.90625
48.68,1638177690.921875
46.49,1638177690.9375
44.09,1638177690.953125
41.8,1638177690.96875
39.68,1638177690.984375
37.57,1638177691.0
35.42,1638177691.015625
33.4,1638177691.03125
31.87,1638177691.046875
31.18,1638177691.0625
31.33,1638177691.078125
31.94,1638177691.09375
32.36,1638177691.109375
31.91,1638177691.125
30.21,1638177691.140625
27.22,1638177691.15625
23.26,1638177691.171875
18.77,1638177691.1875
14.19,1638177691.203125
9.75,1638177691.21875
5.49,1638177691.234375
1.22,1638177691.25
-3.27,1638177691.265625
-8.16,1638177691.28125
-13.4,1638177691.296875
-18.75,1638177691.3125
-23.84,1638177691.328125
-28.32,1638177691.34375
-32.04,1638177691.359375
-35.12,1638177691.375
-37.95,1638177691.390625
-41.08,1638177691.40625
-45.09,1638177691.421875
-50.49,1638177691.4375
-57.51,1638177691.453125
-65.97,1638177691.46875
-75.03,1638177691.484375
-83.22,1638177691.5
-88.56,1638177691.515625
-89.13,1638177691.53125
-83.63,1638177691.546875
-71.99,1638177691.5625
-55.42,1638177691.578125
-36.15,1638177691.59375
-16.72,1638177691.609375
0.75,1638177691.625
15.07,1638177691.640625
26.05,1638177691.65625
34.16,1638177691.671875
40.04,1638177691.6875
44.17,1638177691.703125
46.75,1638177691.71875
47.81,1638177691.734375
47.5,1638177691.75
46.12,1638177691.765625
44.2,1638177691.78125
42.22,1638177691.796875
40.49,1638177691.8125
39.07,1638177691.828125
37.89,1638177691.84375
36.84,1638177691.859375
35.98,1638177691.875
35.47,1638177691.890625
35.47,1638177691.90625
35.96,1638177691.921875
36.69,1638177691.9375
37.2,1638177691.953125
36.95,1638177691.96875
35.53,1638177691.984375
32.78,1638177692.0
28.76,1638177692.015625
23.8,1638177692.03125
18.36,1638177692.046875
12.97,1638177692.0625
8.03,1638177692.078125
3.79,1638177692.09375
0.13,1638177692.109375
-3.31,1638177692.125
-7.08,1638177692.140625
-11.65,1638177692.15625
-17.15,1638177692.171875
-23.3,1638177692.1875
-29.46,1638177692.203125
-34.95,1638177692.21875
-39.36,1638177692.234375
-42.75,1638177692.25
-45.71,1638177692.265625
-49.11,1638177692.28125
-53.82,1638177692.296875
-60.42,1638177692.3125
-68.92,1638177692.328125
-78.68,1638177692.34375
-88.42,1638177692.359375
-96.34,1638177692.375
-100.49,1638177692.390625
-99.22,1638177692.40625
-91.7,1638177692.421875
-78.24,1638177692.4375
-60.27,1638177692.453125
-39.98,1638177692.46875
-19.68,1638177692.484375
-1.21,1638177692.5
14.42,1638177692.515625
27.03,1638177692.53125
36.96,1638177692.546875
44.7,1638177692.5625
50.62,1638177692.578125
54.81,1638177692.59375
57.26,1638177692.609375
58.03,1638177692.625
57.37,1638177692.640625
55.75,1638177692.65625
53.74,1638177692.671875
51.81,1638177692.6875
50.2,1638177692.703125
48.92,1638177692.71875
47.87,1638177692.734375
46.97,1638177692.75
46.27,1638177692.765625
45.91,1638177692.78125
45.96,1638177692.796875
46.28,1638177692.8125
46.46,1638177692.828125
45.91,1638177692.84375
44.09,1638177692.859375
40.71,1638177692.875
35.91,1638177692.890625
30.15,1638177692.90625
24.1,1638177692.921875
18.35,1638177692.9375
13.22,1638177692.953125
8.66,1638177692.96875
4.38,1638177692.984375
0.02,1638177693.0
-4.7,1638177693.015625
-9.84,1638177693.03125
-15.29,1638177693.046875
-20.83,1638177693.0625
-26.21,1638177693.078125
-31.27,1638177693.09375
-35.94,1638177693.109375
-40.32,1638177693.125
-44.71,1638177693.140625
-49.62,1638177693.15625
-55.63,1638177693.171875
-63.19,1638177693.1875
-72.27,1638177693.203125
-82.1,1638177693.21875
-91.13,1638177693.234375
-97.35,1638177693.25
-98.76,1638177693.265625
-94.08,1638177693.28125
-83.17,1638177693.296875
-67.1,1638177693.3125
-47.83,1638177693.328125
-27.58,1638177693.34375
-8.31,1638177693.359375
8.74,1638177693.375
22.99,1638177693.390625
34.35,1638177693.40625
42.99,1638177693.421875
49.09,1638177693.4375
52.9,1638177693.453125
54.76,1638177693.46875
55.15,1638177693.484375
54.58,1638177693.5
53.49,1638177693.515625
52.18,1638177693.53125
50.75,1638177693.546875
49.24,1638177693.5625
47.68,1638177693.578125
46.21,1638177693.59375
44.99,1638177693.609375
44.19,1638177693.625
43.88,1638177693.640625
43.97,1638177693.65625
44.17,1638177693.671875
44.06,1638177693.6875
43.2,1638177693.703125
41.16,1638177693.71875
37.77,1638177693.734375
33.11,1638177693.75
27.61,1638177693.765625
21.95,1638177693.78125
16.77,1638177693.796875
12.49,1638177693.8125
9.08,1638177693.828125
6.1,1638177693.84375
2.85,1638177693.859375
-1.34,1638177693.875
-6.75,1638177693.890625
-13.18,1638177693.90625
-20.0,1638177693.921875
-26.43,1638177693.9375
-31.85,1638177693.953125
-36.08,1638177693.96875
-39.44,1638177693.984375
-42.61,1638177694.0
-46.43,1638177694.015625
-51.59,1638177694.03125
-58.39,1638177694.046875
-66.53,1638177694.0625
-74.98,1638177694.078125
-82.08,1638177694.09375
-85.89,1638177694.109375
-84.65,1638177694.125
-77.44,1638177694.140625
-64.47,1638177694.15625
-47.13,1638177694.171875
-27.58,1638177694.1875
-8.14,1638177694.203125
9.36,1638177694.21875
23.92,1638177694.234375
35.24,1638177694.25
43.54,1638177694.265625
49.2,1638177694.28125
52.6,1638177694.296875
54.04,1638177694.3125
53.83,1638177694.328125
52.34,1638177694.34375
49.99,1638177694.359375
47.29,1638177694.375
44.77,1638177694.390625
42.83,1638177694.40625
41.69,1638177694.421875
41.29,1638177694.4375
41.37,1638177694.453125
41.61,1638177694.46875
41.75,1638177694.484375
41.7,1638177694.5
41.47,1638177694.515625
41.04,1638177694.53125
40.27,1638177694.546875
38.8,1638177694.5625
36.22,1638177694.578125
32.29,1638177694.59375
27.09,1638177694.609375
21.09,1638177694.625
14.98,1638177694.640625
9.37,1638177694.65625
4.6,1638177694.671875
0.54,1638177694.6875
-3.25,1638177694.703125
-7.34,1638177694.71875
-12.17,1638177694.734375
-17.82,1638177694.75
-24.04,1638177694.765625
-30.33,1638177694.78125
-36.22,1638177694.796875
-41.44,1638177694.8125
-46.02,1638177694.828125
-50.27,1638177694.84375
-54.67,1638177694.859375
-59.77,1638177694.875
-66.03,1638177694.890625
-73.71,1638177694.90625
-82.57,1638177694.921875
-91.69,1638177694.9375
-99.37,1638177694.953125
-103.45,1638177694.96875
-101.92,1638177694.984375
-93.66,1638177695.0
-79.02,1638177695.015625
-59.71,1638177695.03125
-38.33,1638177695.046875
-17.45,1638177695.0625
1.08,1638177695.078125
16.52,1638177695.09375
28.96,1638177695.109375
38.91,1638177695.125
46.76,1638177695.140625
52.6,1638177695.15625
56.3,1638177695.171875
57.85,1638177695.1875
57.54,1638177695.203125
56.02,1638177695.21875
54.11,1638177695.234375
52.47,1638177695.25
51.37,1638177695.265625
50.7,1638177695.28125
50.09,1638177695.296875
49.29,1638177695.3125
48.34,1638177695.328125
47.53,1638177695.34375
47.21,1638177695.359375
47.45,1638177695.375
47.96,1638177695.390625
48.13,1638177695.40625
47.45,1638177695.421875
45.59,1638177695.4375
42.6,1638177695.453125
38.71,1638177695.46875
34.21,1638177695.484375
29.33,1638177695.5
24.17,1638177695.515625
18.86,1638177695.53125
13.52,1638177695.546875
8.29,1638177695.5625
3.27,1638177695.578125
-1.61,1638177695.59375
-6.52,1638177695.609375
-11.63,1638177695.625
-17.0,1638177695.640625
-22.48,1638177695.65625
-27.79,1638177695.671875
-32.61,1638177695.6875
-36.81,1638177695.703125
-40.53,1638177695.71875
-44.23,1638177695.734375
-48.66,1638177695.75
-54.6,1638177695.765625
-62.53,1638177695.78125
-72.29,1638177695.796875
-82.86,1638177695.8125
-92.39,1638177695.828125
-98.58,1638177695.84375
-99.29,1638177695.859375
-93.21,1638177695.875
-80.32,1638177695.890625
-61.97,1638177695.90625
-40.48,1638177695.921875
-18.52,1638177695.9375
1.61,1638177695.953125
18.47,1638177695.96875
31.59,1638177695.984375
41.29,1638177696.0
48.27,1638177696.015625
53.21,1638177696.03125
56.66,1638177696.046875
58.88,1638177696.0625
59.99,1638177696.078125
60.06,1638177696.09375
59.24,1638177696.109375
57.74,1638177696.125
55.82,1638177696.140625
53.71,1638177696.15625
51.58,1638177696.171875
49.6,1638177696.1875
47.9,1638177696.203125
46.64,1638177696.21875
45.9,1638177696.234375
45.61,1638177696.25
45.5,1638177696.265625
45.11,1638177696.28125
43.96,1638177696.296875
41.69,1638177696.3125
38.19,1638177696.328125
33.62,1638177696.34375
28.35,1638177696.359375
22.81,1638177696.375
17.37,1638177696.390625
12.23,1638177696.40625
7.37,1638177696.421875
2.63,1638177696.4375
-2.24,1638177696.453125
-7.44,1638177696.46875
-13.01,1638177696.484375
-18.74,1638177696.5
-24.29,1638177696.515625
-29.33,1638177696.53125
-33.74,1638177696.546875
-37.72,1638177696.5625
-41.73,1638177696.578125
-46.3,1638177696.59375
-51.8,1638177696.609375
-58.29,1638177696.625
-65.47,1638177696.640625
-72.64,1638177696.65625
-78.77,1638177696.671875
-82.53,1638177696.6875
-82.58,1638177696.703125
-77.81,1638177696.71875
-67.91,1638177696.734375
-53.5,1638177696.75
-36.18,1638177696.765625
-18.06,1638177696.78125
-1.14,1638177696.796875
13.29,1638177696.8125
24.82,1638177696.828125
33.74,1638177696.84375
40.55,1638177696.859375
45.55,1638177696.875
48.67,1638177696.890625
49.67,1638177696.90625
48.52,1638177696.921875
45.67,1638177696.9375
42.03,1638177696.953125
38.66,1638177696.96875
36.41,1638177696.984375
35.53,1638177697.0
35.77,1638177697.015625
36.54,1638177697.03125
37.32,1638177697.046875
37.84,1638177697.0625
38.15,1638177697.078125
38.37,1638177697.09375
38.52,1638177697.109375
38.41,1638177697.125
37.65,1638177697.140625
35.9,1638177697.15625
33.02,1638177697.171875
29.12,1638177697.1875
24.55,1638177697.203125
19.7,1638177697.21875
14.9,1638177697.234375
10.26,1638177697.25
5.74,1638177697.265625
1.16,1638177697.28125
-3.63,1638177697.296875
-8.72,1638177697.3125
-14.08,1638177697.328125
-19.62,1638177697.34375
-25.26,1638177697.359375
-30.92,1638177697.375
-36.52,1638177697.390625
-41.96,1638177697.40625
-47.1,1638177697.421875
-51.8,1638177697.4375
-56.13,1638177697.453125
-60.41,1638177697.46875
-65.24,1638177697.484375
-71.3,1638177697.5
-78.92,1638177697.515625
-87.73,1638177697.53125
-96.45,1638177697.546875
-103.01,1638177697.5625
-105.11,1638177697.578125
-101.0,1638177697.59375
-90.12,1638177697.609375
-73.35,1638177697.625
-52.77,1638177697.640625
-30.93,1638177697.65625
-10.07,1638177697.671875
8.31,1638177697.6875
23.59,1638177697.703125
35.72,1638177697.71875
44.94,1638177697.734375
51.48,1638177697.75
55.6,1638177697.765625
57.66,1638177697.78125
58.12,1638177697.796875
57.51,1638177697.8125
56.27,1638177697.828125
54.67,1638177697.84375
52.86,1638177697.859375
50.98,1638177697.875
49.2,1638177697.890625
47.74,1638177697.90625
46.83,1638177697.921875
46.5,1638177697.9375
46.6,1638177697.953125
46.85,1638177697.96875
46.96,1638177697.984375
46.6,1638177698.0
45.55,1638177698.015625
43.68,1638177698.03125
40.9,1638177698.046875
37.33,1638177698.0625
33.15,1638177698.078125
28.7,1638177698.09375
24.28,1638177698.109375
20.09,1638177698.125
16.14,1638177698.140625
12.33,1638177698.15625
8.48,1638177698.171875
4.46,1638177698.1875
0.26,1638177698.203125
-4.05,1638177698.21875
-8.4,1638177698.234375
-12.77,1638177698.25
-17.19,1638177698.265625
-21.71,1638177698.28125
-26.29,1638177698.296875
-30.79,1638177698.3125
-35.01,1638177698.328125
-38.83,1638177698.34375
-42.41,1638177698.359375
-46.23,1638177698.375
-50.96,1638177698.390625
-57.13,1638177698.40625
-64.85,1638177698.421875
-73.53,1638177698.4375
-81.93,1638177698.453125
-88.34,1638177698.46875
-91.07,1638177698.484375
-88.79,1638177698.5
-80.9,1638177698.515625
-67.65,1638177698.53125
-50.12,1638177698.546875
-30.04,1638177698.5625
-9.41,1638177698.578125
9.84,1638177698.59375
26.23,1638177698.609375
38.94,1638177698.625
47.92,1638177698.640625
53.67,1638177698.65625
57.01,1638177698.671875
58.73,1638177698.6875
59.42,1638177698.703125
59.36,1638177698.71875
58.59,1638177698.734375
57.02,1638177698.75
54.59,1638177698.765625
51.41,1638177698.78125
47.75,1638177698.796875
44.04,1638177698.8125
40.74,1638177698.828125
38.22,1638177698.84375
36.66,1638177698.859375
36.01,1638177698.875
36.0,1638177698.890625
36.24,1638177698.90625
36.29,1638177698.921875
35.8,1638177698.9375
34.54,1638177698.953125
32.45,1638177698.96875
29.61,1638177698.984375
26.17,1638177699.0
22.3,1638177699.015625
18.17,1638177699.03125
13.9,1638177699.046875
9.6,1638177699.0625
5.39,1638177699.078125
1.35,1638177699.09375
-2.43,1638177699.109375
-5.91,1638177699.125
-9.17,1638177699.140625
-12.33,1638177699.15625
-15.61,1638177699.171875
-19.19,1638177699.1875
-23.18,1638177699.203125
-27.5,1638177699.21875
-31.94,1638177699.234375
-36.2,1638177699.25
-39.98,1638177699.265625
-43.18,1638177699.28125
-45.99,1638177699.296875
-48.89,1638177699.3125
-52.53,1638177699.328125
-57.5,1638177699.34375
-64.12,1638177699.359375
-72.17,1638177699.375
-80.8,1638177699.390625
-88.54,1638177699.40625
-93.57,1638177699.421875
-94.13,1638177699.4375
-88.97,1638177699.453125
-77.82,1638177699.46875
-61.53,1638177699.484375
-41.95,1638177699.5
-21.48,1638177699.515625
-2.37,1638177699.53125
13.8,1638177699.546875
26.37,1638177699.5625
35.51,1638177699.578125
41.79,1638177699.59375
45.8,1638177699.609375
47.96,1638177699.625
48.49,1638177699.640625
47.67,1638177699.65625
45.86,1638177699.671875
43.59,1638177699.6875
41.41,1638177699.703125
39.7,1638177699.71875
38.58,1638177699.734375
37.89,1638177699.75
37.46,1638177699.765625
37.1,1638177699.78125
36.82,1638177699.796875
36.68,1638177699.8125
36.81,1638177699.828125
37.15,1638177699.84375
37.48,1638177699.859375
37.4,1638177699.875
36.35,1638177699.890625
33.91,1638177699.90625
29.83,1638177699.921875
24.31,1638177699.9375
17.92,1638177699.953125
11.42,1638177699.96875
5.56,1638177699.984375
0.69,1638177700.0
-3.24,1638177700.015625
-6.72,1638177700.03125
-10.36,1638177700.046875
-14.67,1638177700.0625
-19.73,1638177700.078125
-25.27,1638177700.09375
-30.76,1638177700.109375
-35.68,1638177700.125
-39.81,1638177700.140625
-43.19,1638177700.15625
-46.13,1638177700.171875
-49.05,1638177700.1875
-52.37,1638177700.203125
-56.53,1638177700.21875
-61.77,1638177700.234375
-68.11,1638177700.25
-75.0,1638177700.265625
-81.24,1638177700.28125
-85.05,1638177700.296875
-84.54,1638177700.3125
-78.36,1638177700.328125
-66.25,1638177700.34375
-49.21,1638177700.359375
-29.23,1638177700.375
-8.64,1638177700.390625
10.56,1638177700.40625
27.11,1638177700.421875
40.53,1638177700.4375
50.88,1638177700.453125
58.43,1638177700.46875
63.43,1638177700.484375
66.09,1638177700.5
66.6,1638177700.515625
65.25,1638177700.53125
62.46,1638177700.546875
58.71,1638177700.5625
54.49,1638177700.578125
50.27,1638177700.59375
46.39,1638177700.609375
43.09,1638177700.625
40.54,1638177700.640625
38.8,1638177700.65625
37.9,1638177700.671875
37.69,1638177700.6875
37.93,1638177700.703125
38.19,1638177700.71875
38.06,1638177700.734375
37.21,1638177700.75
35.5,1638177700.765625
32.96,1638177700.78125
29.76,1638177700.796875
26.1,1638177700.8125
22.08,1638177700.828125
17.75,1638177700.84375
13.09,1638177700.859375
8.14,1638177700.875
3.08,1638177700.890625
-1.85,1638177700.90625
-6.35,1638177700.921875
-10.25,1638177700.9375
-13.57,1638177700.953125
-16.6,1638177700.96875
-19.78,1638177700.984375
-23.53,1638177701.0
-28.07,1638177701.015625
-33.31,1638177701.03125
-38.82,1638177701.046875
-44.04,1638177701.0625
-48.54,1638177701.078125
-52.17,1638177701.09375
-55.19,1638177701.109375
-58.22,1638177701.125
-62.04,1638177701.140625
-67.35,1638177701.15625
-74.44,1638177701.171875
-82.91,1638177701.1875
-91.52,1638177701.203125
-98.35,1638177701.21875
-101.2,1638177701.234375
-98.21,1638177701.25
-88.53,1638177701.265625
-72.66,1638177701.28125
-52.38,1638177701.296875
-30.21,1638177701.3125
-8.75,1638177701.328125
10.08,1638177701.34375
25.3,1638177701.359375
36.83,1638177701.375
45.1,1638177701.390625
50.66,1638177701.40625
53.95,1638177701.421875
55.28,1638177701.4375
54.93,1638177701.453125
53.36,1638177701.46875
51.21,1638177701.484375
49.12,1638177701.5
47.54,1638177701.515625
46.59,1638177701.53125
46.03,1638177701.546875
45.51,1638177701.5625
44.78,1638177701.578125
43.85,1638177701.59375
42.98,1638177701.609375
42.5,1638177701.625
42.54,1638177701.640625
42.91,1638177701.65625
43.17,1638177701.671875
42.78,1638177701.6875
41.4,1638177701.703125
38.98,1638177701.71875
35.72,1638177701.734375
31.88,1638177701.75
27.61,1638177701.765625
22.93,1638177701.78125
17.85,1638177701.796875
12.55,1638177701.8125
7.36,1638177701.828125
2.66,1638177701.84375
-1.41,1638177701.859375
-5.08,1638177701.875
-8.87,1638177701.890625
-13.35,1638177701.90625
-18.73,1638177701.921875
-24.73,1638177701.9375
-30.7,1638177701.953125
-35.9,1638177701.96875
-39.92,1638177701.984375
-42.89,1638177702.0
-45.35,1638177702.015625
-48.1,1638177702.03125
-51.88,1638177702.046875
-57.21,1638177702.0625
-64.24,1638177702.078125
-72.6,1638177702.09375
-81.3,1638177702.109375
-88.73,1638177702.125
-92.94,1638177702.140625
-92.06,1638177702.15625
-84.99,1638177702.171875
-71.78,1638177702.1875
-53.81,1638177702.203125
-33.27,1638177702.21875
-12.63,1638177702.234375
6.08,1638177702.25
21.67,1638177702.265625
33.82,1638177702.28125
42.74,1638177702.296875
48.9,1638177702.3125
52.72,1638177702.328125
54.46,1638177702.34375
54.41,1638177702.359375
52.88,1638177702.375
50.36,1638177702.390625
47.43,1638177702.40625
44.65,1638177702.421875
42.45,1638177702.4375
41.01,1638177702.453125
40.27,1638177702.46875
40.03,1638177702.484375
40.03,1638177702.5
40.08,1638177702.515625
40.11,1638177702.53125
40.14,1638177702.546875
40.15,1638177702.5625
40.0,1638177702.578125
39.44,1638177702.59375
38.14,1638177702.609375
35.87,1638177702.625
32.59,1638177702.640625
28.53,1638177702.65625
24.06,1638177702.671875
19.58,1638177702.6875
15.33,1638177702.703125
11.35,1638177702.71875
7.5,1638177702.734375
3.55,1638177702.75
-0.67,1638177702.765625
-5.25,1638177702.78125
-10.16,1638177702.796875
-15.29,1638177702.8125
-20.44,1638177702.828125
-25.35,1638177702.84375
-29.75,1638177702.859375
-33.51,1638177702.875
-36.7,1638177702.890625
-39.66,1638177702.90625
-42.91,1638177702.921875
-46.94,1638177702.9375
-52.12,1638177702.953125
-58.53,1638177702.96875
-65.9,1638177702.984375
-73.58,1638177703.0
-80.45,1638177703.015625
-85.05,1638177703.03125
-85.76,1638177703.046875
-81.3,1638177703.0625
-71.13,1638177703.078125
-55.82,1638177703.09375
-36.96,1638177703.109375
-16.77,1638177703.125
2.54,1638177703.140625
19.3,1638177703.15625
32.59,1638177703.171875
42.25,1638177703.1875
48.55,1638177703.203125
51.95,1638177703.21875
52.93,1638177703.234375
51.96,1638177703.25
49.58,1638177703.265625
46.32,1638177703.28125
42.77,1638177703.296875
39.47,1638177703.3125
36.89,1638177703.328125
35.31,1638177703.34375
34.79,1638177703.359375
35.17,1638177703.375
36.08,1638177703.390625
37.09,1638177703.40625
37.83,1638177703.421875
38.13,1638177703.4375
37.93,1638177703.453125
37.28,1638177703.46875
36.2,1638177703.484375
34.61,1638177703.5
32.34,1638177703.515625
29.23,1638177703.53125
25.21,1638177703.546875
20.39,1638177703.5625
15.08,1638177703.578125
9.71,1638177703.59375
4.67,1638177703.609375
0.18,1638177703.625
-3.88,1638177703.640625
-7.89,1638177703.65625
-12.28,1638177703.671875
-17.34,1638177703.6875
-22.96,1638177703.703125
-28.74,1638177703.71875
-34.09,1638177703.734375
-38.6,1638177703.75
-42.19,1638177703.765625
-45.16,1638177703.78125
-48.01,1638177703.796875
-51.23,1638177703.8125
-55.27,1638177703.828125
-60.45,1638177703.84375
-67.0,1638177703.859375
-74.82,1638177703.875
-83.27,1638177703.890625
-90.94,1638177703.90625
-95.79,1638177703.921875
-95.75,1638177703.9375
-89.42,1638177703.953125
-76.7,1638177703.96875
-58.89,1638177703.984375
-38.29,1638177704.0
-17.44,1638177704.015625
1.61,1638177704.03125
17.64,1638177704.046875
30.28,1638177704.0625
39.75,1638177704.078125
46.48,1638177704.09375
50.91,1638177704.109375
53.44,1638177704.125
54.39,1638177704.140625
54.12,1638177704.15625
52.97,1638177704.171875
51.27,1638177704.1875
49.41,1638177704.203125
47.68,1638177704.21875
46.33,1638177704.234375
45.46,1638177704.25
45.07,1638177704.265625
45.04,1638177704.28125
45.19,1638177704.296875
45.41,1638177704.3125
45.63,1638177704.328125
45.79,1638177704.34375
45.77,1638177704.359375
45.35,1638177704.375
44.23,1638177704.390625
42.12,1638177704.40625
38.89,1638177704.421875
34.65,1638177704.4375
29.66,1638177704.453125
24.38,1638177704.46875
19.2,1638177704.484375
14.4,1638177704.5
10.04,1638177704.515625
5.98,1638177704.53125
1.97,1638177704.546875
-2.32,1638177704.5625
-7.08,1638177704.578125
-12.35,1638177704.59375
-17.96,1638177704.609375
-23.57,1638177704.625
-28.81,1638177704.640625
-33.39,1638177704.65625
-37.29,1638177704.671875
-40.73,1638177704.6875
-44.12,1638177704.703125
-47.97,1638177704.71875
-52.76,1638177704.734375
-58.82,1638177704.75
-66.19,1638177704.765625
-74.44,1638177704.78125
-82.58,1638177704.796875
-89.03,1638177704.8125
-91.84,1638177704.828125
-89.32,1638177704.84375
-80.56,1638177704.859375
-65.97,1638177704.875
-47.24,1638177704.890625
-26.9,1638177704.90625
-7.53,1638177704.921875
9.03,1638177704.9375
22.01,1638177704.953125
31.62,1638177704.96875
38.58,1638177704.984375
43.57,1638177705.0
46.95,1638177705.015625
48.78,1638177705.03125
49.04,1638177705.046875
47.94,1638177705.0625
45.95,1638177705.078125
43.69,1638177705.09375
41.76,1638177705.109375
40.46,1638177705.125
39.77,1638177705.140625
39.44,1638177705.15625
39.17,1638177705.171875
38.81,1638177705.1875
38.46,1638177705.203125
38.34,1638177705.21875
38.6,1638177705.234375
39.14,1638177705.25
39.51,1638177705.265625
39.05,1638177705.28125
37.15,1638177705.296875
33.58,1638177705.3125
28.56,1638177705.328125
22.82,1638177705.34375
17.14,1638177705.359375
12.07,1638177705.375
7.71,1638177705.390625
3.69,1638177705.40625
-0.56,1638177705.421875
-5.48,1638177705.4375
-11.15,1638177705.453125
-17.23,1638177705.46875
-23.15,1638177705.484375
-28.36,1638177705.5
-32.61,1638177705.515625
-36.01,1638177705.53125
-38.98,1638177705.546875
-42.11,1638177705.5625
-46.01,1638177705.578125
-51.22,1638177705.59375
-58.0,1638177705.609375
-66.19,1638177705.625
-74.89,1638177705.640625
-82.51,1638177705.65625
-87.02,1638177705.671875
-86.49,1638177705.6875
-79.8,1638177705.703125
-67.11,1638177705.71875
-49.9,1638177705.734375
-30.43,1638177705.75
-11.05,1638177705.765625
6.46,1638177705.78125
21.19,1638177705.796875
32.94,1638177705.8125
41.85,1638177705.828125
48.12,1638177705.84375
51.88,1638177705.859375
53.24,1638177705.875
52.46,1638177705.890625
50.03,1638177705.90625
46.58,1638177705.921875
42.8,1638177705.9375
39.29,1638177705.953125
36.48,1638177705.96875
34.63,1638177705.984375
33.8,1638177706.0
33.94,1638177706.015625
34.87,1638177706.03125
36.29,1638177706.046875
37.86,1638177706.0625
39.23,1638177706.078125
40.08,1638177706.09375
40.17,1638177706.109375
39.34,1638177706.125
37.5,1638177706.140625
34.65,1638177706.15625
30.88,1638177706.171875
26.41,1638177706.1875
21.56,1638177706.203125
16.69,1638177706.21875
12.16,1638177706.234375
8.1,1638177706.25
4.51,1638177706.265625
1.1,1638177706.28125
-2.52,1638177706.296875
-6.75,1638177706.3125
-11.81,1638177706.328125
-17.65,1638177706.34375
-23.97,1638177706.359375
-30.28,1638177706.375
-36.17,1638177706.390625
-41.39,1638177706.40625
-45.94,1638177706.421875
-50.11,1638177706.4375
-54.3,1638177706.453125
-59.01,1638177706.46875
-64.69,1638177706.484375
-71.71,1638177706.5
-80.13,1638177706.515625
-89.58,1638177706.53125
-98.98,1638177706.546875
-106.58,1638177706.5625
-110.27,1638177706.578125
-108.15,1638177706.59375
-99.3,1638177706.609375
-84.16,1638177706.625
-64.48,1638177706.640625
-42.83,1638177706.65625
-21.75,1638177706.671875
-3.07,1638177706.6875
12.35,1638177706.703125
24.49,1638177706.71875
33.78,1638177706.734375
40.73,1638177706.75
45.71,1638177706.765625
48.95,1638177706.78125
50.69,1638177706.796875
51.23,1638177706.8125
50.94,1638177706.828125
50.24,1638177706.84375
49.46,1638177706.859375
48.81,1638177706.875
48.38,1638177706.890625
48.14,1638177706.90625
48.07,1638177706.921875
48.16,1638177706.9375
48.48,1638177706.953125
49.11,1638177706.96875
50.01,1638177706.984375
50.94,1638177707.0
51.5,1638177707.015625
51.26,1638177707.03125
49.93,1638177707.046875
47.49,1638177707.0625
44.17,1638177707.078125
40.31,1638177707.09375
36.19,1638177707.109375
31.95,1638177707.125
27.56,1638177707.140625
22.97,1638177707.15625
18.19,1638177707.171875
13.29,1638177707.1875
8.44,1638177707.203125
3.77,1638177707.21875
-0.68,1638177707.234375
-5.04,1638177707.25
-9.51,1638177707.265625
-14.33,1638177707.28125
-19.6,1638177707.296875
-25.19,1638177707.3125
-30.8,1638177707.328125
-35.98,1638177707.34375
-40.43,1638177707.359375
-44.13,1638177707.375
-47.44,1638177707.390625
-51.12,1638177707.40625
-56.03,1638177707.421875
-62.91,1638177707.4375
-71.96,1638177707.453125
-82.61,1638177707.46875
-93.38,1638177707.484375
-102.13,1638177707.5
-106.49,1638177707.515625
-104.55,1638177707.53125
-95.54,1638177707.546875
-80.05,1638177707.5625
-59.97,1638177707.578125
-37.87,1638177707.59375
-16.27,1638177707.609375
3.01,1638177707.625
19.01,1638177707.640625
31.61,1638177707.65625
41.13,1638177707.671875
48.03,1638177707.6875
52.78,1638177707.703125
55.74,1638177707.71875
57.25,1638177707.734375
57.63,1638177707.75
57.18,1638177707.765625
56.1,1638177707.78125
54.58,1638177707.796875
52.79,1638177707.8125
50.99,1638177707.828125
49.52,1638177707.84375
48.65,1638177707.859375
48.6,1638177707.875
49.35,1638177707.890625
50.67,1638177707.90625
52.15,1638177707.921875
53.32,1638177707.9375
53.77,1638177707.953125
53.2,1638177707.96875
51.5,1638177707.984375
48.73,1638177708.0
45.08,1638177708.015625
40.75,1638177708.03125
35.95,1638177708.046875
30.82,1638177708.0625
25.5,1638177708.078125
20.16,1638177708.09375
14.97,1638177708.109375
10.05,1638177708.125
5.35,1638177708.140625
0.67,1638177708.15625
-4.25,1638177708.171875
-9.56,1638177708.1875
-15.16,1638177708.203125
-20.68,1638177708.21875
-25.66,1638177708.234375
-29.82,1638177708.25
-33.21,1638177708.265625
-36.21,1638177708.28125
-39.35,1638177708.296875
-43.09,1638177708.3125
-47.79,1638177708.328125
-53.67,1638177708.34375
-60.86,1638177708.359375
-69.26,1638177708.375
-78.26,1638177708.390625
-86.46,1638177708.40625
-91.79,1638177708.421875
-92.01,1638177708.4375
-85.51,1638177708.453125
-71.97,1638177708.46875
-52.63,1638177708.484375
-29.97,1638177708.5
-6.96,1638177708.515625
13.75,1638177708.53125
30.39,1638177708.546875
42.2,1638177708.5625
49.33,1638177708.578125
52.55,1638177708.59375
52.94,1638177708.609375
51.64,1638177708.625
49.65,1638177708.640625
47.66,1638177708.65625
46.02,1638177708.671875
44.77,1638177708.6875
43.82,1638177708.703125
43.13,1638177708.71875
42.68,1638177708.734375
42.52,1638177708.75
42.59,1638177708.765625
42.73,1638177708.78125
42.73,1638177708.796875
42.4,1638177708.8125
41.71,1638177708.828125
40.75,1638177708.84375
39.58,1638177708.859375
38.21,1638177708.875
36.47,1638177708.890625
34.14,1638177708.90625
31.03,1638177708.921875
27.12,1638177708.9375
22.54,1638177708.953125
17.62,1638177708.96875
12.7,1638177708.984375
8.08,1638177709.0
3.9,1638177709.015625
0.15,1638177709.03125
-3.29,1638177709.046875
-6.66,1638177709.0625
-10.25,1638177709.078125
-14.3,1638177709.09375
-18.97,1638177709.109375
-24.21,1638177709.125
-29.74,1638177709.140625
-35.13,1638177709.15625
-39.95,1638177709.171875
-43.98,1638177709.1875
-47.35,1638177709.203125
-50.55,1638177709.21875
-54.37,1638177709.234375
-59.6,1638177709.25
-66.76,1638177709.265625
-75.82,1638177709.28125
-85.95,1638177709.296875
-95.51,1638177709.3125
-102.35,1638177709.328125
-104.3,1638177709.34375
-99.78,1638177709.359375
-88.39,1638177709.375
-71.1,1638177709.390625
-50.0,1638177709.40625
-27.81,1638177709.421875
-7.03,1638177709.4375
10.63,1638177709.453125
24.52,1638177709.46875
34.89,1638177709.484375
42.52,1638177709.5
48.22,1638177709.515625
52.48,1638177709.53125
55.48,1638177709.546875
57.17,1638177709.5625
57.54,1638177709.578125
56.77,1638177709.59375
55.26,1638177709.609375
53.55,1638177709.625
51.98,1638177709.640625
50.74,1638177709.65625
49.7,1638177709.671875
48.65,1638177709.6875
47.53,1638177709.703125
46.44,1638177709.71875
45.67,1638177709.734375
45.38,1638177709.75
45.51,1638177709.765625
45.64,1638177709.78125
45.11,1638177709.796875
43.35,1638177709.8125
40.05,1638177709.828125
35.36,1638177709.84375
29.77,1638177709.859375
23.93,1638177709.875
18.34,1638177709.890625
13.33,1638177709.90625
8.88,1638177709.921875
4.79,1638177709.9375
0.78,1638177709.953125
-3.47,1638177709.96875
-8.22,1638177709.984375
-13.58,1638177710.0
-19.49,1638177710.015625
-25.66,1638177710.03125
-31.7,1638177710.046875
-37.22,1638177710.0625
-41.96,1638177710.078125
-45.91,1638177710.09375
-49.42,1638177710.109375
-53.05,1638177710.125
-57.55,1638177710.140625
-63.64,1638177710.15625
-71.7,1638177710.171875
-81.49,1638177710.1875
-91.88,1638177710.203125
-100.96,1638177710.21875
-106.36,1638177710.234375
