PPG GREEN,time
2371063.0,1669796246.227
2370323.0,1669796246.267
2371832.0,1669796246.308
2376115.0,1669796246.348
2381754.0,1669796246.387
2388677.0,1669796246.428
2389307.0,1669796246.465
2394231.0,1669796246.505
2398089.0,1669796246.547
2401502.0,1669796246.586
2404142.0,1669796246.624
2406564.0,1669796246.657
2408122.0,1669796246.696
2410391.0,1669796246.737
2412631.0,1669796246.777
2413329.0,1669796246.816
2414563.0,1669796246.856
2414545.0,1669796246.898
2413251.0,1669796246.937
2409181.0,1669796246.977
2404785.0,1669796247.018
2402427.0,1669796247.057
2397999.0,1669796247.139
2399930.0,1669796247.097
2396295.0,1669796247.177
2394582.0,1669796247.217
2393235.0,1669796247.259
2390957.0,1669796247.298
2389769.0,1669796247.338
2389508.0,1669796247.38
2391506.0,1669796247.414
2393456.0,1669796247.448
2393411.0,1669796247.488
2391708.0,1669796247.528
2390906.0,1669796247.567
2389731.0,1669796247.609
2387977.0,1669796247.648
2386944.0,1669796247.688
2385686.0,1669796247.729
2384506.0,1669796247.759
2383437.0,1669796247.799
2382303.0,1669796247.841
2381660.0,1669796247.882
2380953.0,1669796247.922
2380715.0,1669796247.963
2376911.0,1669796248.002
2368044.0,1669796248.083
2364234.0,1669796248.123
2360666.0,1669796248.162
2372834.0,1669796248.042
2356855.0,1669796248.203
2353561.0,1669796248.283
2355355.0,1669796248.243
2351707.0,1669796248.325
2349894.0,1669796248.363
2347209.0,1669796248.444
2346256.0,1669796248.481
2348062.0,1669796248.403
2346228.0,1669796248.517
2346260.0,1669796248.558
2346021.0,1669796248.591
2345337.0,1669796248.628
2344515.0,1669796248.674
2343387.0,1669796248.709
2342563.0,1669796248.748
2341582.0,1669796248.79
2341232.0,1669796248.828
2340664.0,1669796248.869
2340581.0,1669796248.949
2341155.0,1669796249.026
2341032.0,1669796249.065
2337031.0,1669796249.106
2331745.0,1669796249.147
2327032.0,1669796249.186
2323338.0,1669796249.226
2341171.0,1669796248.989
2340679.0,1669796248.911
2320355.0,1669796249.267
2318103.0,1669796249.307
2316320.0,1669796249.346
2314033.0,1669796249.426
2315436.0,1669796249.387
2311943.0,1669796249.466
2307178.0,1669796249.547
2309171.0,1669796249.508
2305035.0,1669796249.587
2303016.0,1669796249.628
2301142.0,1669796249.667
2299937.0,1669796249.708
2298305.0,1669796249.748
2296662.0,1669796249.787
2295269.0,1669796249.827
2293963.0,1669796249.869
2293304.0,1669796249.908
2291814.0,1669796249.948
2291374.0,1669796249.989
2290406.0,1669796250.028
2290351.0,1669796250.068
2290090.0,1669796250.11
2289535.0,1669796250.148
2289672.0,1669796250.188
2288596.0,1669796250.229
2284470.0,1669796250.268
2279202.0,1669796250.309
2274266.0,1669796250.349
2270818.0,1669796250.388
2267984.0,1669796250.428
2261954.0,1669796250.509
2257484.0,1669796250.59
2255198.0,1669796250.629
2252664.0,1669796250.669
2259687.0,1669796250.549
2264364.0,1669796250.469
2249041.0,1669796250.749
2250728.0,1669796250.711
2247676.0,1669796250.789
2246110.0,1669796250.83
2245163.0,1669796250.869
2244067.0,1669796250.91
2243461.0,1669796250.95
2242638.0,1669796250.989
2241773.0,1669796251.029
2241815.0,1669796251.071
2240864.0,1669796251.11
2240783.0,1669796251.15
2240543.0,1669796251.191
2240472.0,1669796251.23
2239023.0,1669796251.27
2234246.0,1669796251.312
2229661.0,1669796251.35
2225792.0,1669796251.39
2222576.0,1669796251.431
2219844.0,1669796251.47
2217638.0,1669796251.511
2215441.0,1669796251.551
2214011.0,1669796251.59
2212536.0,1669796251.631
2210836.0,1669796251.672
2209219.0,1669796251.711
2207915.0,1669796251.751
2207569.0,1669796251.792
2206881.0,1669796251.831
2206482.0,1669796251.871
2206813.0,1669796251.913
2207149.0,1669796251.951
2207986.0,1669796251.991
2210193.0,1669796252.032
2213451.0,1669796252.071
2215004.0,1669796252.112
2216451.0,1669796252.153
2217540.0,1669796252.192
2215590.0,1669796252.232
2214384.0,1669796252.273
2213329.0,1669796252.313
2213108.0,1669796252.352
2209415.0,1669796252.393
2202817.0,1669796252.432
2201175.0,1669796252.472
2204002.0,1669796252.514
2218549.0,1669796252.552
2230587.0,1669796252.592
2237274.0,1669796252.634
2239494.0,1669796252.673
2242554.0,1669796252.713
2248154.0,1669796252.754
2256271.0,1669796252.793
2264664.0,1669796252.833
2273681.0,1669796252.874
2276842.0,1669796252.914
2270316.0,1669796252.953
2272159.0,1669796252.994
2264774.0,1669796253.033
2262060.0,1669796253.073
2258156.0,1669796253.115
2255113.0,1669796253.154
2246728.0,1669796253.194
2243480.0,1669796253.235
2231344.0,1669796253.274
2234561.0,1669796253.315
2225390.0,1669796253.355
2218184.0,1669796253.394
2217022.0,1669796253.434
2211315.0,1669796253.475
2202997.0,1669796253.515
2192505.0,1669796253.554
2197188.0,1669796253.595
2191712.0,1669796253.635
2185689.0,1669796253.675
2181423.0,1669796253.716
2175825.0,1669796253.755
2169980.0,1669796253.795
2166570.0,1669796253.836
2162732.0,1669796253.875
2162085.0,1669796253.916
2167473.0,1669796253.956
2162182.0,1669796253.995
2157904.0,1669796254.035
2153177.0,1669796254.076
2146930.0,1669796254.116
2136114.0,1669796254.156
2128250.0,1669796254.197
2123426.0,1669796254.236
2117626.0,1669796254.276
2114100.0,1669796254.318
2111562.0,1669796254.356
2108273.0,1669796254.396
2105521.0,1669796254.437
2104217.0,1669796254.476
2102513.0,1669796254.517
2100129.0,1669796254.557
2098786.0,1669796254.596
2095628.0,1669796254.637
2090679.0,1669796254.678
2082291.0,1669796254.717
2073630.0,1669796254.757
2065689.0,1669796254.798
2058905.0,1669796254.837
2051906.0,1669796254.877
2045647.0,1669796254.919
2039458.0,1669796254.957
2033420.0,1669796254.997
2026720.0,1669796255.039
2020433.0,1669796255.078
2014789.0,1669796255.118
2009816.0,1669796255.159
2005110.0,1669796255.198
2001057.0,1669796255.238
1997236.0,1669796255.279
1993407.0,1669796255.319
1990359.0,1669796255.358
1987430.0,1669796255.399
1984659.0,1669796255.438
1982161.0,1669796255.478
1979859.0,1669796255.52
1977540.0,1669796255.559
1975399.0,1669796255.599
1973400.0,1669796255.64
1971814.0,1669796255.679
1970823.0,1669796255.72
1969848.0,1669796255.76
1968610.0,1669796255.799
1964111.0,1669796255.839
1956569.0,1669796255.88
1949553.0,1669796255.92
1944222.0,1669796255.959
1940104.0,1669796256.001
1936621.0,1669796256.04
1933437.0,1669796256.08
1930288.0,1669796256.121
1926696.0,1669796256.16
1922496.0,1669796256.2
1919094.0,1669796256.241
1916037.0,1669796256.28
1913425.0,1669796256.321
1911449.0,1669796256.361
1909483.0,1669796256.401
1907897.0,1669796256.441
1906426.0,1669796256.482
1905401.0,1669796256.522
1904272.0,1669796256.561
1903241.0,1669796256.602
1902334.0,1669796256.641
1901425.0,1669796256.681
1900563.0,1669796256.723
1900434.0,1669796256.762
1900423.0,1669796256.802
1899385.0,1669796256.843
1894027.0,1669796256.882
1886883.0,1669796256.923
1880199.0,1669796256.963
1875187.0,1669796257.002
1870962.0,1669796257.042
1866754.0,1669796257.083
1863873.0,1669796257.123
1861118.0,1669796257.162
1858874.0,1669796257.204
1856556.0,1669796257.243
1854142.0,1669796257.283
1852526.0,1669796257.325
1851520.0,1669796257.363
1850896.0,1669796257.403
1850417.0,1669796257.444
1850684.0,1669796257.483
1850241.0,1669796257.524
1845610.0,1669796257.564
1837922.0,1669796257.603
1835648.0,1669796257.644
1835260.0,1669796257.685
1835641.0,1669796257.724
1838458.0,1669796257.764
1841503.0,1669796257.805
1844068.0,1669796257.844
1846127.0,1669796257.884
1848074.0,1669796257.926
1847896.0,1669796257.964
1843748.0,1669796258.004
1838954.0,1669796258.046
1835814.0,1669796258.085
1833577.0,1669796258.125
1831750.0,1669796258.166
1830424.0,1669796258.205
1829346.0,1669796258.245
1829606.0,1669796258.286
1829008.0,1669796258.326
1828961.0,1669796258.365
1828743.0,1669796258.406
1829009.0,1669796258.445
1829860.0,1669796258.485
1830925.0,1669796258.527
1832186.0,1669796258.566
1833194.0,1669796258.606
1834654.0,1669796258.647
1836322.0,1669796258.686
1837095.0,1669796258.727
1826949.0,1669796258.767
1823074.0,1669796258.806
1826638.0,1669796258.846
1831787.0,1669796258.887
1838320.0,1669796258.927
1845260.0,1669796258.966
1852152.0,1669796259.008
1857085.0,1669796259.047
1861262.0,1669796259.087
1864159.0,1669796259.129
1864653.0,1669796259.167
1863220.0,1669796259.207
1873086.0,1669796259.248
1884626.0,1669796259.287
1891982.0,1669796259.328
1900333.0,1669796259.368
1907485.0,1669796259.407
1913321.0,1669796259.448
1917665.0,1669796259.489
1922516.0,1669796259.528
1927622.0,1669796259.568
1933214.0,1669796259.609
1938843.0,1669796259.648
1943608.0,1669796259.688
1948946.0,1669796259.73
1953540.0,1669796259.768
1958456.0,1669796259.808
1962874.0,1669796259.85
1967282.0,1669796259.887
1971138.0,1669796259.927
1974579.0,1669796259.968
1978932.0,1669796260.007
1982442.0,1669796260.047
1986575.0,1669796260.088
1991097.0,1669796260.128
1997431.0,1669796260.167
2003528.0,1669796260.208
2010565.0,1669796260.248
2014245.0,1669796260.288
2021089.0,1669796260.33
2019463.0,1669796260.368
2024067.0,1669796260.408
2027282.0,1669796260.449
2027891.0,1669796260.488
2028219.0,1669796260.529
2030292.0,1669796260.57
2033356.0,1669796260.609
2036350.0,1669796260.649
2039840.0,1669796260.69
2042647.0,1669796260.769
2042016.0,1669796260.73
2042800.0,1669796260.81
2042196.0,1669796260.849
2043486.0,1669796260.889
2043757.0,1669796260.931
2044805.0,1669796261.01
2044670.0,1669796260.97
2045780.0,1669796261.051
2045270.0,1669796261.09
2045701.0,1669796261.171
2045058.0,1669796261.131
2050195.0,1669796261.21
2054055.0,1669796261.292
2054965.0,1669796261.331
2056022.0,1669796261.371
2052242.0,1669796261.25
2057829.0,1669796261.451
2056782.0,1669796261.491
2052663.0,1669796261.533
2049982.0,1669796261.571
2056916.0,1669796261.412
2047908.0,1669796261.611
2058180.0,1669796261.653
2071898.0,1669796261.692
2075824.0,1669796261.732
2072780.0,1669796261.773
2079439.0,1669796261.812
2080882.0,1669796261.852
2076685.0,1669796261.893
2070852.0,1669796261.933
2067671.0,1669796261.972
2062826.0,1669796262.013
2057821.0,1669796262.052
2054946.0,1669796262.092
2052798.0,1669796262.134
2051692.0,1669796262.173
2051813.0,1669796262.213
2054302.0,1669796262.254
2059265.0,1669796262.293
2068083.0,1669796262.333
2077361.0,1669796262.374
2081759.0,1669796262.413
2085951.0,1669796262.453
2089036.0,1669796262.494
2093428.0,1669796262.534
2093584.0,1669796262.573
2093105.0,1669796262.614
2093152.0,1669796262.693
2094699.0,1669796262.653
2078143.0,1669796262.773
2086447.0,1669796262.735
2060698.0,1669796262.855
2069280.0,1669796262.813
2052633.0,1669796262.894
2046525.0,1669796262.934
2041430.0,1669796262.975
2036937.0,1669796263.014
2032510.0,1669796263.054
2028398.0,1669796263.095
2024851.0,1669796263.135
2021145.0,1669796263.174
2018918.0,1669796263.215
2016651.0,1669796263.254
2014557.0,1669796263.294
2012823.0,1669796263.336
2011288.0,1669796263.375
2009602.0,1669796263.415
2008327.0,1669796263.456
2007027.0,1669796263.495
2005953.0,1669796263.535
2004597.0,1669796263.615
2005070.0,1669796263.576
2003575.0,1669796263.696
2004360.0,1669796263.655
2003404.0,1669796263.736
2003097.0,1669796263.775
2002232.0,1669796263.816
1997305.0,1669796263.855
1990740.0,1669796263.895
1985241.0,1669796263.937
1981166.0,1669796263.976
1977826.0,1669796264.016
1974875.0,1669796264.057
1972100.0,1669796264.096
1968922.0,1669796264.137
1965250.0,1669796264.177
1962025.0,1669796264.216
1959508.0,1669796264.256
1957565.0,1669796264.297
1956461.0,1669796264.337
1955738.0,1669796264.376
1955485.0,1669796264.418
1955298.0,1669796264.457
1969093.0,1669796264.497
1977189.0,1669796264.539
1985835.0,1669796264.577
2006812.0,1669796264.617
2018743.0,1669796264.658
2038616.0,1669796264.697
2062771.0,1669796264.738
2086705.0,1669796264.778
2098589.0,1669796264.817
2091617.0,1669796264.857
2087675.0,1669796264.899
2078027.0,1669796264.938
2068954.0,1669796264.978
2060929.0,1669796265.019
2050102.0,1669796265.058
2042248.0,1669796265.098
2037189.0,1669796265.14
2029242.0,1669796265.178
2017565.0,1669796265.218
2005226.0,1669796265.259
1997756.0,1669796265.298
1990143.0,1669796265.339
1981021.0,1669796265.379
1972857.0,1669796265.419
1967353.0,1669796265.459
1964436.0,1669796265.5
1963961.0,1669796265.539
1963171.0,1669796265.579
1959840.0,1669796265.62
1946866.0,1669796265.659
1938697.0,1669796265.699
1936706.0,1669796265.741
1934437.0,1669796265.779
1932135.0,1669796265.819
1936845.0,1669796265.86
1946888.0,1669796265.899
1953320.0,1669796265.94
1959066.0,1669796265.981
1962552.0,1669796266.02
1961605.0,1669796266.06
1966847.0,1669796266.101
1962928.0,1669796266.141
1965851.0,1669796266.18
1972832.0,1669796266.221
1992869.0,1669796266.26
2003095.0,1669796266.3
2002098.0,1669796266.342
1999556.0,1669796266.38
1990171.0,1669796266.42
1976213.0,1669796266.462
1962174.0,1669796266.501
1954166.0,1669796266.541
1947502.0,1669796266.582
1941837.0,1669796266.621
1937264.0,1669796266.661
1933927.0,1669796266.702
1933236.0,1669796266.742
1934778.0,1669796266.781
1940095.0,1669796266.822
1952500.0,1669796266.861
1962651.0,1669796266.901
1963551.0,1669796266.943
1956389.0,1669796266.982
1945072.0,1669796267.022
1928323.0,1669796267.063
1927103.0,1669796267.102
1932034.0,1669796267.143
1935442.0,1669796267.183
1939600.0,1669796267.222
1941078.0,1669796267.262
1940842.0,1669796267.303
1938184.0,1669796267.343
1937573.0,1669796267.382
1938548.0,1669796267.424
1938562.0,1669796267.463
1937467.0,1669796267.503
1944627.0,1669796267.544
1948589.0,1669796267.583
1957045.0,1669796267.623
1963572.0,1669796267.664
1973884.0,1669796267.703
1985007.0,1669796267.744
1989058.0,1669796267.784
1998904.0,1669796267.823
1998972.0,1669796267.864
1992246.0,1669796267.905
1982594.0,1669796267.945
1976974.0,1669796267.984
1975208.0,1669796268.025
1974681.0,1669796268.064
1972558.0,1669796268.104
1971913.0,1669796268.146
1971874.0,1669796268.184
1971588.0,1669796268.224
1971719.0,1669796268.266
1972603.0,1669796268.305
1972796.0,1669796268.345
1970222.0,1669796268.386
1965616.0,1669796268.425
1961026.0,1669796268.465
1956438.0,1669796268.506
1952896.0,1669796268.546
1949073.0,1669796268.585
1945987.0,1669796268.626
1943986.0,1669796268.665
1942517.0,1669796268.705
1941660.0,1669796268.747
1939910.0,1669796268.786
1938668.0,1669796268.826
1937653.0,1669796268.867
1936790.0,1669796268.906
1935793.0,1669796268.987
1936165.0,1669796268.947
1935688.0,1669796269.026
1935521.0,1669796269.066
1935675.0,1669796269.107
1935764.0,1669796269.147
1935982.0,1669796269.187
1936115.0,1669796269.228
1936508.0,1669796269.267
1936952.0,1669796269.307
1938002.0,1669796269.349
1938943.0,1669796269.387
1939690.0,1669796269.427
1940509.0,1669796269.468
1940929.0,1669796269.507
1937471.0,1669796269.548
1933202.0,1669796269.588
1929380.0,1669796269.627
1926644.0,1669796269.668
1923683.0,1669796269.709
1921363.0,1669796269.749
1919571.0,1669796269.788
1918159.0,1669796269.829
1916886.0,1669796269.868
1915304.0,1669796269.908
1914120.0,1669796269.95
1913375.0,1669796269.988
1912984.0,1669796270.028
1912407.0,1669796270.07
1912814.0,1669796270.109
1912952.0,1669796270.149
1913611.0,1669796270.19
1914287.0,1669796270.229
1914993.0,1669796270.269
1915375.0,1669796270.31
1916547.0,1669796270.35
1917181.0,1669796270.389
1918292.0,1669796270.431
1919433.0,1669796270.47
1920663.0,1669796270.51
1922020.0,1669796270.551
1923487.0,1669796270.59
1924825.0,1669796270.63
1926462.0,1669796270.671
1926128.0,1669796270.71
1922739.0,1669796270.751
1919200.0,1669796270.791
1916531.0,1669796270.83
1914588.0,1669796270.87
1913191.0,1669796270.912
1911605.0,1669796270.951
1911050.0,1669796270.991
1910646.0,1669796271.032
1910482.0,1669796271.071
1909850.0,1669796271.111
1909701.0,1669796271.153
1909826.0,1669796271.191
1910207.0,1669796271.231
1911007.0,1669796271.272
1911596.0,1669796271.312
1912585.0,1669796271.352
1913525.0,1669796271.393
1914793.0,1669796271.432
1916055.0,1669796271.472
1917429.0,1669796271.513
1918710.0,1669796271.553
1920281.0,1669796271.592
1921775.0,1669796271.633
1923494.0,1669796271.672
1924812.0,1669796271.712
1926753.0,1669796271.754
1928182.0,1669796271.793
1930013.0,1669796271.833
1931662.0,1669796271.874
1930920.0,1669796271.959
1928324.0,1669796272.0
1925521.0,1669796272.04
1924093.0,1669796272.079
1923391.0,1669796272.119
1922487.0,1669796272.16
1922299.0,1669796272.2
1922348.0,1669796272.24
1922542.0,1669796272.281
1922309.0,1669796272.32
1922118.0,1669796272.36
1922582.0,1669796272.402
1923185.0,1669796272.44
1923933.0,1669796272.48
1925119.0,1669796272.521
1925924.0,1669796272.56
1927179.0,1669796272.601
1928482.0,1669796272.642
1929641.0,1669796272.681
1930725.0,1669796272.721
1932098.0,1669796272.762
1933617.0,1669796272.801
1935009.0,1669796272.841
1936423.0,1669796272.882
1938254.0,1669796272.921
1939616.0,1669796272.961
1941366.0,1669796273.003
1943208.0,1669796273.041
1944666.0,1669796273.081
1945120.0,1669796273.122
1943270.0,1669796273.162
1940162.0,1669796273.202
1937986.0,1669796273.243
1936763.0,1669796273.282
1935647.0,1669796273.322
1934797.0,1669796273.363
1934189.0,1669796273.403
1933950.0,1669796273.442
1934249.0,1669796273.483
1933371.0,1669796273.522
1933304.0,1669796273.562
1933318.0,1669796273.604
1933642.0,1669796273.643
1934200.0,1669796273.683
1934969.0,1669796273.722
1935812.0,1669796273.758
1936628.0,1669796273.792
1937743.0,1669796273.83
1938537.0,1669796273.867
1939726.0,1669796273.907
1940827.0,1669796273.949
1941766.0,1669796273.988
1943243.0,1669796274.028
1944350.0,1669796274.069
1946039.0,1669796274.108
1947203.0,1669796274.149
1948266.0,1669796274.191
1949582.0,1669796274.227
1950425.0,1669796274.267
1950931.0,1669796274.309
1951094.0,1669796274.348
1948278.0,1669796274.388
1944117.0,1669796274.429
1940801.0,1669796274.468
1938573.0,1669796274.508
1930327.0,1669796274.549
1921469.0,1669796274.589
1914095.0,1669796274.628
1910524.0,1669796274.669
1911009.0,1669796274.708
1917071.0,1669796274.748
1926717.0,1669796274.79
1936479.0,1669796274.829
1945880.0,1669796274.869
1956195.0,1669796274.911
1965554.0,1669796274.948
1977659.0,1669796274.989
1988659.0,1669796275.03
1998397.0,1669796275.068
2007100.0,1669796275.109
2013954.0,1669796275.15
2019197.0,1669796275.19
2023369.0,1669796275.23
2028236.0,1669796275.271
2033865.0,1669796275.308
2039488.0,1669796275.348
2046311.0,1669796275.39
2052531.0,1669796275.429
2059744.0,1669796275.458
2066843.0,1669796275.499
2072706.0,1669796275.538
2077499.0,1669796275.579
2079733.0,1669796275.619
2083334.0,1669796275.658
2088557.0,1669796275.699
2093724.0,1669796275.74
2099138.0,1669796275.779
2104647.0,1669796275.819
2110611.0,1669796275.86
2116249.0,1669796275.899
2121323.0,1669796275.939
2126604.0,1669796275.981
2131400.0,1669796276.019
2136001.0,1669796276.059
2140868.0,1669796276.1
2145937.0,1669796276.14
2150162.0,1669796276.176
2154410.0,1669796276.217
2157403.0,1669796276.25
2161055.0,1669796276.288
2164669.0,1669796276.329
2167166.0,1669796276.369
2169960.0,1669796276.408
2172563.0,1669796276.45
2176289.0,1669796276.489
2178981.0,1669796276.529
2181537.0,1669796276.571
2183689.0,1669796276.61
2185503.0,1669796276.648
2187807.0,1669796276.688
2190073.0,1669796276.727
2192271.0,1669796276.767
2193722.0,1669796276.808
2192400.0,1669796276.847
2191932.0,1669796276.887
2192657.0,1669796276.928
2192931.0,1669796276.968
2193332.0,1669796277.007
2194073.0,1669796277.048
2195334.0,1669796277.087
2197574.0,1669796277.127
2199951.0,1669796277.169
2201751.0,1669796277.207
2203454.0,1669796277.247
2204735.0,1669796277.289
2205960.0,1669796277.328
2207586.0,1669796277.368
2208941.0,1669796277.41
2210950.0,1669796277.448
2212888.0,1669796277.488
2215173.0,1669796277.53
2216700.0,1669796277.57
2218447.0,1669796277.609
2219905.0,1669796277.65
2221894.0,1669796277.69
2224057.0,1669796277.73
2226488.0,1669796277.772
2226780.0,1669796277.808
2228797.0,1669796277.849
2231539.0,1669796277.89
2234061.0,1669796277.923
2236135.0,1669796277.964
2236280.0,1669796278.004
2232146.0,1669796278.043
2228817.0,1669796278.083
2227346.0,1669796278.125
2227057.0,1669796278.164
2227107.0,1669796278.204
2227043.0,1669796278.245
2227476.0,1669796278.284
2227851.0,1669796278.324
2227738.0,1669796278.366
2228205.0,1669796278.404
2228472.0,1669796278.444
2229204.0,1669796278.485
2229944.0,1669796278.525
2231000.0,1669796278.565
2231904.0,1669796278.606
2232834.0,1669796278.644
