bvp,time
5.9,1669463780.890625
4.32,1669463780.90625
2.91,1669463780.921875
1.76,1669463780.9375
0.85,1669463780.953125
0.06,1669463780.96875
-0.84,1669463780.984375
-2.1,1669463781.0
-3.91,1669463781.015625
-6.27,1669463781.03125
-8.99,1669463781.046875
-11.77,1669463781.0625
-14.29,1669463781.078125
-16.41,1669463781.09375
-18.13,1669463781.109375
-19.66,1669463781.125
-21.26,1669463781.140625
-23.17,1669463781.15625
-25.5,1669463781.171875
-28.2,1669463781.1875
-31.01,1669463781.203125
-33.47,1669463781.21875
-34.98,1669463781.234375
-34.95,1669463781.25
-32.96,1669463781.265625
-28.88,1669463781.28125
-22.96,1669463781.296875
-15.78,1669463781.3125
-8.11,1669463781.328125
-0.79,1669463781.34375
5.5,1669463781.359375
10.26,1669463781.375
13.32,1669463781.390625
14.77,1669463781.40625
14.93,1669463781.421875
14.24,1669463781.4375
13.07,1669463781.453125
11.69,1669463781.46875
10.19,1669463781.484375
8.55,1669463781.5
6.71,1669463781.515625
4.67,1669463781.53125
2.52,1669463781.546875
0.4,1669463781.5625
-1.59,1669463781.578125
-3.41,1669463781.59375
-5.13,1669463781.609375
-6.82,1669463781.625
-8.52,1669463781.640625
-10.21,1669463781.65625
-11.78,1669463781.671875
-13.1,1669463781.6875
-14.1,1669463781.703125
-14.74,1669463781.71875
-15.03,1669463781.734375
-15.02,1669463781.75
-14.71,1669463781.765625
-14.05,1669463781.78125
-12.93,1669463781.796875
-11.19,1669463781.8125
-8.67,1669463781.828125
-5.36,1669463781.84375
-1.49,1669463781.859375
2.52,1669463781.875
6.13,1669463781.890625
9.06,1669463781.90625
11.42,1669463781.921875
13.84,1669463781.9375
17.27,1669463781.953125
22.67,1669463781.96875
30.78,1669463781.984375
41.86,1669463782.0
55.73,1669463782.015625
71.84,1669463782.03125
89.35,1669463782.046875
107.17,1669463782.0625
124.05,1669463782.078125
138.62,1669463782.09375
149.58,1669463782.109375
155.86,1669463782.125
156.64,1669463782.140625
151.32,1669463782.15625
139.49,1669463782.171875
121.06,1669463782.1875
96.56,1669463782.203125
67.37,1669463782.21875
35.88,1669463782.234375
4.97,1669463782.25
-22.53,1669463782.265625
-44.53,1669463782.28125
-60.15,1669463782.296875
-69.69,1669463782.3125
-74.37,1669463782.328125
-75.88,1669463782.34375
-76.01,1669463782.359375
-76.34,1669463782.375
-77.93,1669463782.390625
-81.1,1669463782.40625
-85.33,1669463782.421875
-89.48,1669463782.4375
-92.1,1669463782.453125
-92.04,1669463782.46875
-88.86,1669463782.484375
-82.92,1669463782.5
-75.26,1669463782.515625
-67.16,1669463782.53125
-59.78,1669463782.546875
-53.96,1669463782.5625
-50.05,1669463782.578125
-48.05,1669463782.59375
-47.66,1669463782.609375
-48.4,1669463782.625
-49.67,1669463782.640625
-50.94,1669463782.65625
-51.81,1669463782.671875
-52.12,1669463782.6875
-51.94,1669463782.703125
-51.54,1669463782.71875
-51.26,1669463782.734375
-51.42,1669463782.75
-52.21,1669463782.765625
-53.56,1669463782.78125
-55.21,1669463782.796875
-56.82,1669463782.8125
-58.13,1669463782.828125
-59.08,1669463782.84375
-59.94,1669463782.859375
-61.14,1669463782.875
-63.19,1669463782.890625
-66.4,1669463782.90625
-70.68,1669463782.921875
-75.42,1669463782.9375
-79.49,1669463782.953125
-81.53,1669463782.96875
-80.3,1669463782.984375
-75.14,1669463783.0
-66.23,1669463783.015625
-54.6,1669463783.03125
-41.79,1669463783.046875
-29.35,1669463783.0625
-18.38,1669463783.078125
-9.26,1669463783.09375
-1.77,1669463783.109375
4.6,1669463783.125
10.25,1669463783.140625
15.28,1669463783.15625
19.53,1669463783.171875
22.74,1669463783.1875
24.93,1669463783.203125
26.33,1669463783.21875
27.43,1669463783.234375
28.62,1669463783.25
30.07,1669463783.265625
31.68,1669463783.28125
33.17,1669463783.296875
34.28,1669463783.3125
34.94,1669463783.328125
35.26,1669463783.34375
35.45,1669463783.359375
35.7,1669463783.375
36.08,1669463783.390625
36.44,1669463783.40625
36.53,1669463783.421875
36.03,1669463783.4375
34.74,1669463783.453125
32.6,1669463783.46875
29.77,1669463783.484375
26.55,1669463783.5
23.21,1669463783.515625
19.99,1669463783.53125
16.99,1669463783.546875
14.16,1669463783.5625
11.41,1669463783.578125
8.63,1669463783.59375
5.72,1669463783.609375
2.56,1669463783.625
-0.93,1669463783.640625
-4.79,1669463783.65625
-8.98,1669463783.671875
-13.39,1669463783.6875
-17.87,1669463783.703125
-22.31,1669463783.71875
-26.77,1669463783.734375
-31.45,1669463783.75
-36.66,1669463783.765625
-42.71,1669463783.78125
-49.65,1669463783.796875
-57.14,1669463783.8125
-64.31,1669463783.828125
-69.87,1669463783.84375
-72.41,1669463783.859375
-70.82,1669463783.875
-64.75,1669463783.890625
-54.73,1669463783.90625
-42.03,1669463783.921875
-28.3,1669463783.9375
-15.07,1669463783.953125
-3.41,1669463783.96875
6.24,1669463783.984375
13.97,1669463784.0
20.21,1669463784.015625
25.52,1669463784.03125
30.39,1669463784.046875
35.09,1669463784.0625
39.57,1669463784.078125
43.55,1669463784.09375
46.72,1669463784.109375
48.77,1669463784.125
49.68,1669463784.140625
49.65,1669463784.15625
49.06,1669463784.171875
48.3,1669463784.1875
47.72,1669463784.203125
47.55,1669463784.21875
47.89,1669463784.234375
48.78,1669463784.25
50.14,1669463784.265625
51.77,1669463784.28125
53.3,1669463784.296875
54.29,1669463784.3125
54.34,1669463784.328125
53.31,1669463784.34375
51.35,1669463784.359375
48.87,1669463784.375
46.39,1669463784.390625
44.26,1669463784.40625
42.6,1669463784.421875
41.26,1669463784.4375
39.94,1669463784.453125
38.35,1669463784.46875
36.3,1669463784.484375
33.69,1669463784.5
30.56,1669463784.515625
27.01,1669463784.53125
23.18,1669463784.546875
19.28,1669463784.5625
15.48,1669463784.578125
11.89,1669463784.59375
8.52,1669463784.609375
5.21,1669463784.625
1.69,1669463784.640625
-2.28,1669463784.65625
-6.83,1669463784.671875
-11.95,1669463784.6875
-17.44,1669463784.703125
-22.97,1669463784.71875
-28.16,1669463784.734375
-32.74,1669463784.75
-36.61,1669463784.765625
-39.91,1669463784.78125
-43.04,1669463784.796875
-46.59,1669463784.8125
-51.05,1669463784.828125
-56.63,1669463784.84375
-62.98,1669463784.859375
-69.07,1669463784.875
-73.37,1669463784.890625
-74.23,1669463784.90625
-70.44,1669463784.921875
-61.68,1669463784.9375
-48.74,1669463784.953125
-33.22,1669463784.96875
-17.09,1669463784.984375
-1.97,1669463785.0
11.14,1669463785.015625
22.06,1669463785.03125
31.12,1669463785.046875
38.9,1669463785.0625
45.85,1669463785.078125
52.18,1669463785.09375
57.81,1669463785.109375
62.51,1669463785.125
66.02,1669463785.140625
68.19,1669463785.15625
69.04,1669463785.171875
68.76,1669463785.1875
67.64,1669463785.203125
66.05,1669463785.21875
64.32,1669463785.234375
62.77,1669463785.25
61.65,1669463785.265625
61.13,1669463785.28125
61.29,1669463785.296875
62.01,1669463785.3125
62.98,1669463785.328125
63.74,1669463785.34375
63.81,1669463785.359375
62.83,1669463785.375
60.68,1669463785.390625
57.52,1669463785.40625
53.71,1669463785.421875
49.67,1669463785.4375
45.8,1669463785.453125
42.31,1669463785.46875
39.2,1669463785.484375
36.32,1669463785.5
33.49,1669463785.515625
30.61,1669463785.53125
27.67,1669463785.546875
24.77,1669463785.5625
22.0,1669463785.578125
19.35,1669463785.59375
16.76,1669463785.609375
14.16,1669463785.625
11.49,1669463785.640625
8.77,1669463785.65625
6.04,1669463785.671875
3.37,1669463785.6875
0.79,1669463785.703125
-1.77,1669463785.71875
-4.38,1669463785.734375
-7.17,1669463785.75
-10.29,1669463785.765625
-13.81,1669463785.78125
-17.68,1669463785.796875
-21.66,1669463785.8125
-25.38,1669463785.828125
-28.46,1669463785.84375
-30.74,1669463785.859375
-32.38,1669463785.875
-33.95,1669463785.890625
-36.14,1669463785.90625
-39.59,1669463785.921875
-44.58,1669463785.9375
-50.82,1669463785.953125
-57.5,1669463785.96875
-63.3,1669463785.984375
-66.8,1669463786.0
-66.72,1669463786.015625
-62.39,1669463786.03125
-54.0,1669463786.046875
-42.6,1669463786.0625
-29.89,1669463786.078125
-17.62,1669463786.09375
-7.12,1669463786.109375
1.09,1669463786.125
7.24,1669463786.140625
11.99,1669463786.15625
16.07,1669463786.171875
19.89,1669463786.1875
23.54,1669463786.203125
26.89,1669463786.21875
29.78,1669463786.234375
32.13,1669463786.25
33.95,1669463786.265625
35.26,1669463786.28125
35.99,1669463786.296875
36.09,1669463786.3125
35.58,1669463786.328125
34.67,1669463786.34375
33.74,1669463786.359375
33.22,1669463786.375
33.37,1669463786.390625
34.18,1669463786.40625
35.39,1669463786.421875
36.56,1669463786.4375
37.26,1669463786.453125
37.22,1669463786.46875
36.39,1669463786.484375
34.84,1669463786.5
32.79,1669463786.515625
30.48,1669463786.53125
28.16,1669463786.546875
26.02,1669463786.5625
24.17,1669463786.578125
22.62,1669463786.59375
21.22,1669463786.609375
19.83,1669463786.625
18.31,1669463786.640625
16.64,1669463786.65625
14.85,1669463786.671875
12.97,1669463786.6875
11.0,1669463786.703125
8.86,1669463786.71875
6.54,1669463786.734375
4.09,1669463786.75
1.68,1669463786.765625
-0.5,1669463786.78125
-2.39,1669463786.796875
-4.13,1669463786.8125
-6.02,1669463786.828125
-8.39,1669463786.84375
-11.33,1669463786.859375
-14.69,1669463786.875
-18.04,1669463786.890625
-20.89,1669463786.90625
-22.93,1669463786.921875
-24.18,1669463786.9375
-25.03,1669463786.953125
-26.12,1669463786.96875
-28.05,1669463786.984375
-31.22,1669463787.0
-35.62,1669463787.015625
-40.73,1669463787.03125
-45.67,1669463787.046875
-49.27,1669463787.0625
-50.43,1669463787.078125
-48.37,1669463787.09375
-42.88,1669463787.109375
-34.43,1669463787.125
-24.09,1669463787.140625
-13.19,1669463787.15625
-3.05,1669463787.171875
5.39,1669463787.1875
11.77,1669463787.203125
16.16,1669463787.21875
19.05,1669463787.234375
20.95,1669463787.25
22.28,1669463787.265625
23.27,1669463787.28125
23.95,1669463787.296875
24.32,1669463787.3125
24.37,1669463787.328125
24.2,1669463787.34375
23.89,1669463787.359375
23.53,1669463787.375
23.16,1669463787.390625
22.79,1669463787.40625
22.43,1669463787.421875
22.14,1669463787.4375
22.07,1669463787.453125
22.34,1669463787.46875
23.03,1669463787.484375
24.08,1669463787.5
25.25,1669463787.515625
26.2,1669463787.53125
26.56,1669463787.546875
26.13,1669463787.5625
24.88,1669463787.578125
23.02,1669463787.59375
20.88,1669463787.609375
18.78,1669463787.625
16.91,1669463787.640625
15.25,1669463787.65625
13.69,1669463787.671875
12.04,1669463787.6875
10.24,1669463787.703125
8.33,1669463787.71875
6.45,1669463787.734375
4.76,1669463787.75
3.33,1669463787.765625
2.14,1669463787.78125
1.09,1669463787.796875
0.08,1669463787.8125
-1.01,1669463787.828125
-2.31,1669463787.84375
-3.96,1669463787.859375
-6.06,1669463787.875
-8.63,1669463787.890625
-11.49,1669463787.90625
-14.36,1669463787.921875
-16.88,1669463787.9375
-18.81,1669463787.953125
-20.13,1669463787.96875
-21.07,1669463787.984375
-22.03,1669463788.0
-23.46,1669463788.015625
-25.75,1669463788.03125
-29.14,1669463788.046875
-33.64,1669463788.0625
-38.97,1669463788.078125
-44.45,1669463788.09375
-49.07,1669463788.109375
-51.61,1669463788.125
-51.05,1669463788.140625
-46.89,1669463788.15625
-39.45,1669463788.171875
-29.83,1669463788.1875
-19.52,1669463788.203125
-9.96,1669463788.21875
-2.05,1669463788.234375
3.94,1669463788.25
8.31,1669463788.265625
11.54,1669463788.28125
14.04,1669463788.296875
15.96,1669463788.3125
17.23,1669463788.328125
17.8,1669463788.34375
17.69,1669463788.359375
17.08,1669463788.375
16.22,1669463788.390625
15.26,1669463788.40625
14.28,1669463788.421875
13.28,1669463788.4375
12.3,1669463788.453125
11.45,1669463788.46875
10.92,1669463788.484375
10.84,1669463788.5
11.28,1669463788.515625
12.11,1669463788.53125
13.08,1669463788.546875
13.89,1669463788.5625
14.26,1669463788.578125
14.02,1669463788.59375
13.15,1669463788.609375
11.75,1669463788.625
10.02,1669463788.640625
8.19,1669463788.65625
6.46,1669463788.671875
4.96,1669463788.6875
3.75,1669463788.703125
2.8,1669463788.71875
2.07,1669463788.734375
1.49,1669463788.75
0.97,1669463788.765625
0.41,1669463788.78125
-0.33,1669463788.796875
-1.32,1669463788.8125
-2.64,1669463788.828125
-4.24,1669463788.84375
-6.0,1669463788.859375
-7.75,1669463788.875
-9.33,1669463788.890625
-10.73,1669463788.90625
-11.99,1669463788.921875
-13.31,1669463788.9375
-14.85,1669463788.953125
-16.69,1669463788.96875
-18.79,1669463788.984375
-20.99,1669463789.0
-23.13,1669463789.015625
-25.08,1669463789.03125
-26.86,1669463789.046875
-28.51,1669463789.0625
-30.15,1669463789.078125
-31.9,1669463789.09375
-33.94,1669463789.109375
-36.5,1669463789.125
-39.78,1669463789.140625
-43.81,1669463789.15625
-48.22,1669463789.171875
-52.14,1669463789.1875
-54.43,1669463789.203125
-53.98,1669463789.21875
-50.18,1669463789.234375
-43.19,1669463789.25
-33.94,1669463789.265625
-23.79,1669463789.28125
-14.09,1669463789.296875
-5.82,1669463789.3125
0.61,1669463789.328125
5.28,1669463789.34375
8.6,1669463789.359375
11.02,1669463789.375
12.96,1669463789.390625
14.73,1669463789.40625
16.42,1669463789.421875
18.02,1669463789.4375
19.33,1669463789.453125
20.13,1669463789.46875
20.26,1669463789.484375
19.73,1669463789.5
18.73,1669463789.515625
17.55,1669463789.53125
16.46,1669463789.546875
15.65,1669463789.5625
15.2,1669463789.578125
15.1,1669463789.59375
15.36,1669463789.609375
15.93,1669463789.625
16.7,1669463789.640625
17.48,1669463789.65625
17.99,1669463789.671875
18.01,1669463789.6875
17.49,1669463789.703125
16.59,1669463789.71875
15.56,1669463789.734375
14.64,1669463789.75
13.87,1669463789.765625
13.14,1669463789.78125
12.29,1669463789.796875
11.2,1669463789.8125
9.88,1669463789.828125
8.46,1669463789.84375
7.06,1669463789.859375
5.69,1669463789.875
4.29,1669463789.890625
2.72,1669463789.90625
0.92,1669463789.921875
-1.08,1669463789.9375
-3.14,1669463789.953125
-5.13,1669463789.96875
-6.94,1669463789.984375
-8.58,1669463790.0
-10.15,1669463790.015625
-11.8,1669463790.03125
-13.65,1669463790.046875
-15.68,1669463790.0625
-17.81,1669463790.078125
-19.89,1669463790.09375
-21.81,1669463790.109375
-23.57,1669463790.125
-25.27,1669463790.140625
-27.09,1669463790.15625
-29.19,1669463790.171875
-31.66,1669463790.1875
-34.55,1669463790.203125
-37.85,1669463790.21875
-41.51,1669463790.234375
-45.3,1669463790.25
-48.8,1669463790.265625
-51.26,1669463790.28125
-51.83,1669463790.296875
-49.82,1669463790.3125
-44.99,1669463790.328125
-37.7,1669463790.34375
-28.82,1669463790.359375
-19.42,1669463790.375
-10.48,1669463790.390625
-2.62,1669463790.40625
3.89,1669463790.421875
9.07,1669463790.4375
13.11,1669463790.453125
16.15,1669463790.46875
18.39,1669463790.484375
19.97,1669463790.5
21.02,1669463790.515625
21.69,1669463790.53125
22.06,1669463790.546875
22.18,1669463790.5625
22.06,1669463790.578125
21.67,1669463790.59375
20.98,1669463790.609375
20.05,1669463790.625
18.99,1669463790.640625
18.03,1669463790.65625
17.44,1669463790.671875
17.35,1669463790.6875
17.76,1669463790.703125
18.47,1669463790.71875
19.19,1669463790.734375
19.62,1669463790.75
19.6,1669463790.765625
19.13,1669463790.78125
18.3,1669463790.796875
17.2,1669463790.8125
15.92,1669463790.828125
14.51,1669463790.84375
13.03,1669463790.859375
11.58,1669463790.875
10.17,1669463790.890625
8.84,1669463790.90625
7.51,1669463790.921875
6.07,1669463790.9375
4.45,1669463790.953125
2.66,1669463790.96875
0.73,1669463790.984375
-1.24,1669463791.0
-3.2,1669463791.015625
-5.11,1669463791.03125
-6.93,1669463791.046875
-8.65,1669463791.0625
-10.29,1669463791.078125
-11.88,1669463791.09375
-13.49,1669463791.109375
-15.25,1669463791.125
-17.23,1669463791.140625
-19.4,1669463791.15625
-21.65,1669463791.171875
-23.82,1669463791.1875
-25.78,1669463791.203125
-27.54,1669463791.21875
-29.22,1669463791.234375
-31.07,1669463791.25
-33.25,1669463791.265625
-35.83,1669463791.28125
-38.74,1669463791.296875
-41.71,1669463791.3125
-44.33,1669463791.328125
-46.04,1669463791.34375
-46.18,1669463791.359375
-44.18,1669463791.375
-39.75,1669463791.390625
-33.03,1669463791.40625
-24.68,1669463791.421875
-15.71,1669463791.4375
-7.12,1669463791.453125
0.36,1669463791.46875
6.42,1669463791.484375
11.11,1669463791.5
14.66,1669463791.515625
17.24,1669463791.53125
18.92,1669463791.546875
19.76,1669463791.5625
19.84,1669463791.578125
19.39,1669463791.59375
18.7,1669463791.609375
18.07,1669463791.625
17.69,1669463791.640625
17.63,1669463791.65625
17.85,1669463791.671875
18.26,1669463791.6875
18.77,1669463791.703125
19.31,1669463791.71875
19.83,1669463791.734375
20.3,1669463791.75
20.69,1669463791.765625
20.94,1669463791.78125
21.0,1669463791.796875
20.86,1669463791.8125
20.5,1669463791.828125
20.0,1669463791.84375
19.39,1669463791.859375
18.65,1669463791.875
17.76,1669463791.890625
16.69,1669463791.90625
15.41,1669463791.921875
13.96,1669463791.9375
12.35,1669463791.953125
10.67,1669463791.96875
8.93,1669463791.984375
7.16,1669463792.0
5.35,1669463792.015625
3.54,1669463792.03125
1.79,1669463792.046875
0.15,1669463792.0625
-1.35,1669463792.078125
-2.77,1669463792.09375
-4.21,1669463792.109375
-5.78,1669463792.125
-7.63,1669463792.140625
-9.86,1669463792.15625
-12.51,1669463792.171875
-15.55,1669463792.1875
-18.82,1669463792.203125
-22.05,1669463792.21875
-24.93,1669463792.234375
-27.25,1669463792.25
-28.98,1669463792.265625
-30.37,1669463792.28125
-31.85,1669463792.296875
-33.88,1669463792.3125
-36.81,1669463792.328125
-40.65,1669463792.34375
-45.0,1669463792.359375
-49.11,1669463792.375
-51.99,1669463792.390625
-52.69,1669463792.40625
-50.47,1669463792.421875
-45.1,1669463792.4375
-36.94,1669463792.453125
-26.86,1669463792.46875
-16.07,1669463792.484375
-5.83,1669463792.5
2.96,1669463792.515625
9.84,1669463792.53125
14.89,1669463792.546875
18.49,1669463792.5625
21.07,1669463792.578125
22.96,1669463792.59375
24.3,1669463792.609375
25.16,1669463792.625
25.57,1669463792.640625
25.66,1669463792.65625
25.64,1669463792.671875
25.66,1669463792.6875
25.74,1669463792.703125
25.78,1669463792.71875
25.67,1669463792.734375
25.36,1669463792.75
25.03,1669463792.765625
24.91,1669463792.78125
25.21,1669463792.796875
25.94,1669463792.8125
26.89,1669463792.828125
27.75,1669463792.84375
28.22,1669463792.859375
28.15,1669463792.875
27.56,1669463792.890625
26.53,1669463792.90625
25.14,1669463792.921875
23.46,1669463792.9375
21.55,1669463792.953125
19.55,1669463792.96875
17.64,1669463792.984375
15.93,1669463793.0
14.43,1669463793.015625
12.99,1669463793.03125
11.39,1669463793.046875
9.51,1669463793.0625
7.32,1669463793.078125
4.96,1669463793.09375
2.61,1669463793.109375
0.37,1669463793.125
-1.72,1669463793.140625
-3.73,1669463793.15625
-5.69,1669463793.171875
-7.62,1669463793.1875
-9.51,1669463793.203125
-11.38,1669463793.21875
-13.3,1669463793.234375
-15.38,1669463793.25
-17.72,1669463793.265625
-20.32,1669463793.28125
-23.13,1669463793.296875
-26.04,1669463793.3125
-28.93,1669463793.328125
-31.75,1669463793.34375
-34.5,1669463793.359375
-37.32,1669463793.375
-40.43,1669463793.390625
-44.1,1669463793.40625
-48.49,1669463793.421875
-53.43,1669463793.4375
-58.25,1669463793.453125
-61.8,1669463793.46875
-62.78,1669463793.484375
-60.15,1669463793.5
-53.62,1669463793.515625
-43.82,1669463793.53125
-32.13,1669463793.546875
-20.16,1669463793.5625
-9.29,1669463793.578125
-0.23,1669463793.59375
6.92,1669463793.609375
12.47,1669463793.625
16.83,1669463793.640625
20.28,1669463793.65625
22.94,1669463793.671875
24.9,1669463793.6875
26.31,1669463793.703125
27.43,1669463793.71875
28.46,1669463793.734375
29.47,1669463793.75
30.32,1669463793.765625
30.73,1669463793.78125
30.54,1669463793.796875
29.77,1669463793.8125
28.74,1669463793.828125
27.91,1669463793.84375
27.65,1669463793.859375
28.08,1669463793.875
28.98,1669463793.890625
29.97,1669463793.90625
30.65,1669463793.921875
30.79,1669463793.9375
30.4,1669463793.953125
29.6,1669463793.96875
28.57,1669463793.984375
27.37,1669463794.0
26.0,1669463794.015625
24.44,1669463794.03125
22.75,1669463794.046875
21.02,1669463794.0625
19.41,1669463794.078125
17.97,1669463794.09375
16.64,1669463794.109375
15.3,1669463794.125
13.82,1669463794.140625
12.12,1669463794.15625
10.22,1669463794.171875
8.13,1669463794.1875
5.87,1669463794.203125
3.43,1669463794.21875
0.84,1669463794.234375
-1.78,1669463794.25
-4.26,1669463794.265625
-6.44,1669463794.28125
-8.31,1669463794.296875
-10.03,1669463794.3125
-11.85,1669463794.328125
-14.0,1669463794.34375
-16.57,1669463794.359375
-19.45,1669463794.375
-22.44,1669463794.390625
-25.32,1669463794.40625
-27.98,1669463794.421875
-30.38,1669463794.4375
-32.58,1669463794.453125
-34.76,1669463794.46875
-37.21,1669463794.484375
-40.29,1669463794.5
-44.29,1669463794.515625
-49.2,1669463794.53125
-54.47,1669463794.546875
-59.0,1669463794.5625
-61.4,1669463794.578125
-60.44,1669463794.59375
-55.58,1669463794.609375
-47.18,1669463794.625
-36.38,1669463794.640625
-24.73,1669463794.65625
-13.65,1669463794.671875
-4.04,1669463794.6875
3.79,1669463794.703125
10.0,1669463794.71875
14.93,1669463794.734375
18.89,1669463794.75
22.05,1669463794.765625
24.47,1669463794.78125
26.21,1669463794.796875
27.32,1669463794.8125
27.91,1669463794.828125
28.07,1669463794.84375
27.88,1669463794.859375
27.42,1669463794.875
26.82,1669463794.890625
26.25,1669463794.90625
25.89,1669463794.921875
25.93,1669463794.9375
26.46,1669463794.953125
27.47,1669463794.96875
28.83,1669463794.984375
30.32,1669463795.0
31.68,1669463795.015625
32.67,1669463795.03125
33.13,1669463795.046875
33.0,1669463795.0625
32.33,1669463795.078125
31.3,1669463795.09375
30.05,1669463795.109375
28.68,1669463795.125
27.24,1669463795.140625
25.64,1669463795.15625
23.84,1669463795.171875
21.85,1669463795.1875
19.77,1669463795.203125
17.74,1669463795.21875
15.85,1669463795.234375
14.06,1669463795.25
12.26,1669463795.265625
10.29,1669463795.28125
8.08,1669463795.296875
5.63,1669463795.3125
3.09,1669463795.328125
0.61,1669463795.34375
-1.68,1669463795.359375
-3.74,1669463795.375
-5.66,1669463795.390625
-7.65,1669463795.40625
-9.93,1669463795.421875
-12.7,1669463795.4375
-15.94,1669463795.453125
-19.5,1669463795.46875
-23.0,1669463795.484375
-26.04,1669463795.5
-28.33,1669463795.515625
-29.83,1669463795.53125
-30.87,1669463795.546875
-32.03,1669463795.5625
-33.97,1669463795.578125
-37.19,1669463795.59375
-41.74,1669463795.609375
-47.12,1669463795.625
-52.32,1669463795.640625
-56.03,1669463795.65625
-57.03,1669463795.671875
-54.52,1669463795.6875
-48.33,1669463795.703125
-39.01,1669463795.71875
-27.66,1669463795.734375
-15.63,1669463795.75
-4.24,1669463795.765625
5.5,1669463795.78125
13.01,1669463795.796875
18.18,1669463795.8125
21.33,1669463795.828125
23.01,1669463795.84375
23.83,1669463795.859375
24.27,1669463795.875
24.54,1669463795.890625
24.68,1669463795.90625
24.59,1669463795.921875
24.26,1669463795.9375
23.82,1669463795.953125
23.49,1669463795.96875
23.46,1669463795.984375
23.84,1669463796.0
24.56,1669463796.015625
25.51,1669463796.03125
26.53,1669463796.046875
27.5,1669463796.0625
28.35,1669463796.078125
28.97,1669463796.09375
29.22,1669463796.109375
29.0,1669463796.125
28.28,1669463796.140625
27.15,1669463796.15625
25.77,1669463796.171875
24.28,1669463796.1875
22.78,1669463796.203125
21.27,1669463796.21875
19.78,1669463796.234375
18.29,1669463796.25
16.83,1669463796.265625
15.35,1669463796.28125
13.73,1669463796.296875
11.78,1669463796.3125
9.45,1669463796.328125
6.78,1669463796.34375
4.04,1669463796.359375
1.53,1669463796.375
-0.54,1669463796.390625
-2.14,1669463796.40625
-3.51,1669463796.421875
-4.97,1669463796.4375
-6.84,1669463796.453125
-9.27,1669463796.46875
-12.26,1669463796.484375
-15.64,1669463796.5
-19.16,1669463796.515625
-22.61,1669463796.53125
-25.79,1669463796.546875
-28.6,1669463796.5625
-31.01,1669463796.578125
-33.13,1669463796.59375
-35.2,1669463796.609375
-37.6,1669463796.625
-40.78,1669463796.640625
-44.97,1669463796.65625
-50.06,1669463796.671875
-55.33,1669463796.6875
-59.61,1669463796.703125
-61.53,1669463796.71875
-59.97,1669463796.734375
-54.46,1669463796.75
-45.43,1669463796.765625
-34.05,1669463796.78125
-21.85,1669463796.796875
-10.26,1669463796.8125
-0.27,1669463796.828125
7.76,1669463796.84375
13.93,1669463796.859375
18.64,1669463796.875
22.25,1669463796.890625
25.04,1669463796.90625
27.09,1669463796.921875
28.41,1669463796.9375
29.04,1669463796.953125
29.11,1669463796.96875
28.84,1669463796.984375
28.49,1669463797.0
28.27,1669463797.015625
28.25,1669463797.03125
28.42,1669463797.046875
28.67,1669463797.0625
28.93,1669463797.078125
29.2,1669463797.09375
29.51,1669463797.109375
29.88,1669463797.125
30.29,1669463797.140625
30.61,1669463797.15625
30.7,1669463797.171875
30.45,1669463797.1875
29.81,1669463797.203125
28.81,1669463797.21875
27.55,1669463797.234375
26.1,1669463797.25
24.52,1669463797.265625
22.81,1669463797.28125
20.97,1669463797.296875
19.01,1669463797.3125
16.98,1669463797.328125
14.92,1669463797.34375
12.91,1669463797.359375
10.98,1669463797.375
9.16,1669463797.390625
7.39,1669463797.40625
5.61,1669463797.421875
3.69,1669463797.4375
1.56,1669463797.453125
-0.75,1669463797.46875
-3.11,1669463797.484375
-5.35,1669463797.5
-7.33,1669463797.515625
-9.11,1669463797.53125
-10.96,1669463797.546875
-13.21,1669463797.5625
-16.11,1669463797.578125
-19.67,1669463797.59375
-23.58,1669463797.609375
-27.38,1669463797.625
-30.65,1669463797.640625
-33.18,1669463797.65625
-35.13,1669463797.671875
-36.88,1669463797.6875
-38.94,1669463797.703125
-41.79,1669463797.71875
-45.72,1669463797.734375
-50.72,1669463797.75
-56.39,1669463797.765625
-61.92,1669463797.78125
-66.18,1669463797.796875
-67.93,1669463797.8125
-66.19,1669463797.828125
-60.55,1669463797.84375
-51.32,1669463797.859375
-39.54,1669463797.875
-26.64,1669463797.890625
-14.12,1669463797.90625
-3.13,1669463797.921875
5.7,1669463797.9375
12.36,1669463797.953125
17.24,1669463797.96875
20.89,1669463797.984375
23.81,1669463798.0
26.3,1669463798.015625
28.43,1669463798.03125
30.14,1669463798.046875
31.36,1669463798.0625
32.07,1669463798.078125
32.33,1669463798.09375
32.23,1669463798.109375
31.91,1669463798.125
31.43,1669463798.140625
30.92,1669463798.15625
30.48,1669463798.171875
30.24,1669463798.1875
30.32,1669463798.203125
30.77,1669463798.21875
31.53,1669463798.234375
32.45,1669463798.25
33.28,1669463798.265625
33.76,1669463798.28125
33.71,1669463798.296875
33.05,1669463798.3125
31.85,1669463798.328125
30.28,1669463798.34375
28.55,1669463798.359375
26.75,1669463798.375
24.87,1669463798.390625
22.78,1669463798.40625
20.39,1669463798.421875
17.75,1669463798.4375
15.07,1669463798.453125
12.66,1669463798.46875
10.74,1669463798.484375
9.3,1669463798.5
8.09,1669463798.515625
6.73,1669463798.53125
4.92,1669463798.546875
2.59,1669463798.5625
-0.11,1669463798.578125
-2.91,1669463798.59375
-5.55,1669463798.609375
-7.93,1669463798.625
-10.09,1669463798.640625
-12.2,1669463798.65625
-14.44,1669463798.671875
-16.94,1669463798.6875
-19.77,1669463798.703125
-22.88,1669463798.71875
-26.17,1669463798.734375
-29.47,1669463798.75
-32.63,1669463798.765625
-35.56,1669463798.78125
-38.28,1669463798.796875
-40.98,1669463798.8125
-43.99,1669463798.828125
-47.66,1669463798.84375
-52.21,1669463798.859375
-57.53,1669463798.875
-62.98,1669463798.890625
-67.45,1669463798.90625
-69.59,1669463798.921875
-68.21,1669463798.9375
-62.76,1669463798.953125
-53.53,1669463798.96875
-41.6,1669463798.984375
-28.5,1669463799.0
-15.75,1669463799.015625
-4.48,1669463799.03125
4.75,1669463799.046875
11.9,1669463799.0625
17.21,1669463799.078125
21.05,1669463799.09375
23.74,1669463799.109375
25.58,1669463799.125
26.77,1669463799.140625
27.5,1669463799.15625
27.91,1669463799.171875
28.06,1669463799.1875
27.97,1669463799.203125
27.62,1669463799.21875
27.02,1669463799.234375
26.28,1669463799.25
25.69,1669463799.265625
25.55,1669463799.28125
26.13,1669463799.296875
27.4,1669463799.3125
29.05,1669463799.328125
30.56,1669463799.34375
31.45,1669463799.359375
31.49,1669463799.375
30.79,1669463799.390625
29.69,1669463799.40625
28.52,1669463799.421875
27.49,1669463799.4375
26.56,1669463799.453125
25.58,1669463799.46875
24.38,1669463799.484375
22.9,1669463799.5
21.19,1669463799.515625
19.35,1669463799.53125
17.46,1669463799.546875
15.57,1669463799.5625
13.72,1669463799.578125
11.95,1669463799.59375
10.29,1669463799.609375
8.77,1669463799.625
7.37,1669463799.640625
5.99,1669463799.65625
4.53,1669463799.671875
2.91,1669463799.6875
1.08,1669463799.703125
-1.0,1669463799.71875
-3.31,1669463799.734375
-5.84,1669463799.75
-8.56,1669463799.765625
-11.47,1669463799.78125
-14.56,1669463799.796875
-17.81,1669463799.8125
-21.18,1669463799.828125
-24.56,1669463799.84375
-27.81,1669463799.859375
-30.77,1669463799.875
-33.4,1669463799.890625
-35.81,1669463799.90625
-38.34,1669463799.921875
-41.41,1669463799.9375
-45.36,1669463799.953125
-50.08,1669463799.96875
-54.9,1669463799.984375
-58.56,1669463800.0
-59.58,1669463800.015625
-56.81,1669463800.03125
-49.85,1669463800.046875
-39.35,1669463800.0625
-26.72,1669463800.078125
-13.71,1669463800.09375
-1.79,1669463800.109375
8.19,1669463800.125
16.05,1669463800.140625
22.04,1669463800.15625
26.5,1669463800.171875
29.64,1669463800.1875
31.51,1669463800.203125
32.18,1669463800.21875
31.84,1669463800.234375
30.81,1669463800.25
29.49,1669463800.265625
28.15,1669463800.28125
26.92,1669463800.296875
25.85,1669463800.3125
24.98,1669463800.328125
24.44,1669463800.34375
24.4,1669463800.359375
24.93,1669463800.375
25.96,1669463800.390625
27.22,1669463800.40625
28.35,1669463800.421875
29.03,1669463800.4375
29.09,1669463800.453125
28.52,1669463800.46875
27.43,1669463800.484375
26.02,1669463800.5
24.49,1669463800.515625
23.03,1669463800.53125
21.71,1669463800.546875
20.52,1669463800.5625
19.29,1669463800.578125
17.81,1669463800.59375
15.92,1669463800.609375
13.67,1669463800.625
11.24,1669463800.640625
8.91,1669463800.65625
6.85,1669463800.671875
5.02,1669463800.6875
3.22,1669463800.703125
1.22,1669463800.71875
-1.07,1669463800.734375
-3.53,1669463800.75
-5.92,1669463800.765625
-8.06,1669463800.78125
-9.96,1669463800.796875
-11.86,1669463800.8125
-14.05,1669463800.828125
-16.79,1669463800.84375
-20.05,1669463800.859375
-23.61,1669463800.875
-27.16,1669463800.890625
-30.43,1669463800.90625
-33.32,1669463800.921875
-35.89,1669463800.9375
-38.3,1669463800.953125
-40.78,1669463800.96875
-43.59,1669463800.984375
-47.02,1669463801.0
-51.31,1669463801.015625
-56.52,1669463801.03125
-62.24,1669463801.046875
-67.54,1669463801.0625
-71.05,1669463801.078125
-71.32,1669463801.09375
-67.36,1669463801.109375
-59.05,1669463801.125
-47.27,1669463801.140625
-33.61,1669463801.15625
-19.85,1669463801.171875
-7.36,1669463801.1875
3.15,1669463801.203125
11.67,1669463801.21875
18.58,1669463801.234375
24.28,1669463801.25
29.03,1669463801.265625
32.85,1669463801.28125
35.68,1669463801.296875
37.53,1669463801.3125
38.52,1669463801.328125
38.86,1669463801.34375
38.77,1669463801.359375
38.4,1669463801.375
37.81,1669463801.390625
37.09,1669463801.40625
36.34,1669463801.421875
35.69,1669463801.4375
35.26,1669463801.453125
35.06,1669463801.46875
35.01,1669463801.484375
34.9,1669463801.5
34.5,1669463801.515625
33.69,1669463801.53125
32.47,1669463801.546875
30.99,1669463801.5625
29.5,1669463801.578125
28.24,1669463801.59375
27.32,1669463801.609375
26.74,1669463801.625
26.29,1669463801.640625
25.7,1669463801.65625
24.7,1669463801.671875
23.11,1669463801.6875
20.97,1669463801.703125
18.46,1669463801.71875
15.85,1669463801.734375
13.39,1669463801.75
11.19,1669463801.765625
9.19,1669463801.78125
7.3,1669463801.796875
5.42,1669463801.8125
3.5,1669463801.828125
1.51,1669463801.84375
-0.56,1669463801.859375
-2.73,1669463801.875
-5.05,1669463801.890625
-7.51,1669463801.90625
-10.11,1669463801.921875
-12.87,1669463801.9375
-15.85,1669463801.953125
-19.16,1669463801.96875
-22.81,1669463801.984375
-26.7,1669463802.0
-30.61,1669463802.015625
-34.23,1669463802.03125
-37.36,1669463802.046875
-40.03,1669463802.0625
-42.52,1669463802.078125
-45.3,1669463802.09375
-48.89,1669463802.109375
-53.6,1669463802.125
-59.35,1669463802.140625
-65.54,1669463802.15625
-71.02,1669463802.171875
-74.32,1669463802.1875
-74.03,1669463802.203125
-69.25,1669463802.21875
-59.95,1669463802.234375
-47.09,1669463802.25
-32.31,1669463802.265625
-17.51,1669463802.28125
-4.24,1669463802.296875
6.59,1669463802.3125
14.81,1669463802.328125
20.77,1669463802.34375
25.06,1669463802.359375
28.24,1669463802.375
30.73,1669463802.390625
32.74,1669463802.40625
34.34,1669463802.421875
35.54,1669463802.4375
36.32,1669463802.453125
36.69,1669463802.46875
36.67,1669463802.484375
36.3,1669463802.5
35.67,1669463802.515625
34.88,1669463802.53125
34.03,1669463802.546875
33.28,1669463802.5625
32.81,1669463802.578125
32.75,1669463802.59375
33.15,1669463802.609375
33.9,1669463802.625
34.71,1669463802.640625
35.2,1669463802.65625
35.05,1669463802.671875
34.13,1669463802.6875
32.57,1669463802.703125
30.7,1669463802.71875
28.92,1669463802.734375
27.49,1669463802.75
26.4,1669463802.765625
25.38,1669463802.78125
24.08,1669463802.796875
22.31,1669463802.8125
20.12,1669463802.828125
17.79,1669463802.84375
15.59,1669463802.859375
13.66,1669463802.875
11.85,1669463802.890625
9.92,1669463802.90625
7.62,1669463802.921875
4.86,1669463802.9375
1.82,1669463802.953125
-1.26,1669463802.96875
-4.16,1669463802.984375
-6.81,1669463803.0
-9.27,1669463803.015625
-11.71,1669463803.03125
-14.29,1669463803.046875
-17.18,1669463803.0625
-20.44,1669463803.078125
-24.11,1669463803.09375
-28.04,1669463803.109375
-31.97,1669463803.125
-35.56,1669463803.140625
-38.54,1669463803.15625
-40.87,1669463803.171875
-42.84,1669463803.1875
-45.0,1669463803.203125
-47.95,1669463803.21875
-52.12,1669463803.234375
-57.53,1669463803.25
-63.61,1669463803.265625
-69.25,1669463803.28125
-72.97,1669463803.296875
-73.35,1669463803.3125
-69.41,1669463803.328125
-60.99,1669463803.34375
-48.9,1669463803.359375
-34.67,1669463803.375
-20.14,1669463803.390625
-6.94,1669463803.40625
3.93,1669463803.421875
12.14,1669463803.4375
17.93,1669463803.453125
21.85,1669463803.46875
24.45,1669463803.484375
26.21,1669463803.5
27.46,1669463803.515625
28.41,1669463803.53125
29.17,1669463803.546875
29.73,1669463803.5625
30.08,1669463803.578125
30.16,1669463803.59375
29.99,1669463803.609375
29.69,1669463803.625
29.38,1669463803.640625
29.2,1669463803.65625
29.22,1669463803.671875
29.41,1669463803.6875
29.74,1669463803.703125
30.12,1669463803.71875
30.5,1669463803.734375
30.8,1669463803.75
30.95,1669463803.765625
30.83,1669463803.78125
30.37,1669463803.796875
29.47,1669463803.8125
28.14,1669463803.828125
26.51,1669463803.84375
24.77,1669463803.859375
23.17,1669463803.875
21.83,1669463803.890625
20.78,1669463803.90625
19.84,1669463803.921875
18.74,1669463803.9375
17.25,1669463803.953125
15.25,1669463803.96875
12.77,1669463803.984375
9.98,1669463804.0
7.12,1669463804.015625
4.37,1669463804.03125
1.82,1669463804.046875
-0.53,1669463804.0625
-2.72,1669463804.078125
-4.9,1669463804.09375
-7.24,1669463804.109375
-9.86,1669463804.125
-12.89,1669463804.140625
-16.32,1669463804.15625
-20.02,1669463804.171875
-23.79,1669463804.1875
-27.39,1669463804.203125
-30.63,1669463804.21875
-33.45,1669463804.234375
-35.96,1669463804.25
-38.45,1669463804.265625
-41.36,1669463804.28125
-45.1,1669463804.296875
-49.86,1669463804.3125
-55.34,1669463804.328125
-60.58,1669463804.34375
-64.15,1669463804.359375
-64.49,1669463804.375
-60.55,1669463804.390625
-52.18,1669463804.40625
-40.3,1669463804.421875
-26.55,1669463804.4375
-12.76,1669463804.453125
-0.34,1669463804.46875
9.99,1669463804.484375
18.12,1669463804.5
24.31,1669463804.515625
28.85,1669463804.53125
31.94,1669463804.546875
33.71,1669463804.5625
34.37,1669463804.578125
34.26,1669463804.59375
33.77,1669463804.609375
33.25,1669463804.625
32.87,1669463804.640625
32.63,1669463804.65625
32.41,1669463804.671875
32.12,1669463804.6875
31.73,1669463804.703125
31.31,1669463804.71875
31.04,1669463804.734375
31.08,1669463804.75
31.52,1669463804.765625
32.31,1669463804.78125
33.25,1669463804.796875
33.97,1669463804.8125
34.16,1669463804.828125
33.6,1669463804.84375
32.32,1669463804.859375
30.55,1669463804.875
28.61,1669463804.890625
26.73,1669463804.90625
25.0,1669463804.921875
23.29,1669463804.9375
21.43,1669463804.953125
19.34,1669463804.96875
17.07,1669463804.984375
14.84,1669463805.0
12.84,1669463805.015625
11.16,1669463805.03125
9.65,1669463805.046875
8.08,1669463805.0625
6.2,1669463805.078125
3.9,1669463805.09375
1.26,1669463805.109375
-1.55,1669463805.125
-4.37,1669463805.140625
-7.12,1669463805.15625
-9.84,1669463805.171875
-12.62,1669463805.1875
-15.48,1669463805.203125
-18.46,1669463805.21875
-21.55,1669463805.234375
-24.75,1669463805.25
-28.1,1669463805.265625
-31.54,1669463805.28125
-34.93,1669463805.296875
-38.11,1669463805.3125
-40.97,1669463805.328125
-43.62,1669463805.34375
-46.42,1669463805.359375
-49.82,1669463805.375
-54.22,1669463805.390625
-59.61,1669463805.40625
-65.38,1669463805.421875
-70.38,1669463805.4375
-73.17,1669463805.453125
-72.41,1669463805.46875
-67.37,1669463805.484375
-58.18,1669463805.5
-45.79,1669463805.515625
-31.71,1669463805.53125
-17.6,1669463805.546875
-4.79,1669463805.5625
5.92,1669463805.578125
14.28,1669463805.59375
20.52,1669463805.609375
25.07,1669463805.625
28.38,1669463805.640625
30.84,1669463805.65625
32.69,1669463805.671875
34.05,1669463805.6875
34.96,1669463805.703125
35.45,1669463805.71875
35.56,1669463805.734375
35.34,1669463805.75
34.82,1669463805.765625
34.07,1669463805.78125
33.15,1669463805.796875
32.21,1669463805.8125
31.47,1669463805.828125
31.2,1669463805.84375
31.58,1669463805.859375
32.58,1669463805.875
33.95,1669463805.890625
35.26,1669463805.90625
36.06,1669463805.921875
36.05,1669463805.9375
35.17,1669463805.953125
33.59,1669463805.96875
31.58,1669463805.984375
29.42,1669463806.0
27.3,1669463806.015625
25.27,1669463806.03125
23.27,1669463806.046875
21.16,1669463806.0625
18.82,1669463806.078125
16.24,1669463806.09375
13.55,1669463806.109375
11.03,1669463806.125
8.94,1669463806.140625
7.41,1669463806.15625
6.31,1669463806.171875
5.32,1669463806.1875
4.03,1669463806.203125
2.2,1669463806.21875
-0.12,1669463806.234375
-2.63,1669463806.25
-4.98,1669463806.265625
-6.95,1669463806.28125
-8.68,1669463806.296875
-10.49,1669463806.3125
-12.77,1669463806.328125
-15.72,1669463806.34375
-19.23,1669463806.359375
-22.94,1669463806.375
-26.47,1669463806.390625
-29.57,1669463806.40625
-32.21,1669463806.421875
-34.58,1669463806.4375
-36.99,1669463806.453125
-39.79,1669463806.46875
-43.3,1669463806.484375
-47.75,1669463806.5
-53.14,1669463806.515625
-59.12,1669463806.53125
-64.85,1669463806.546875
-69.06,1669463806.5625
-70.35,1669463806.578125
-67.66,1669463806.59375
-60.65,1669463806.609375
-49.9,1669463806.625
-36.77,1669463806.640625
-22.93,1669463806.65625
-9.91,1669463806.671875
1.26,1669463806.6875
10.13,1669463806.703125
16.78,1669463806.71875
21.58,1669463806.734375
25.02,1669463806.75
27.5,1669463806.765625
29.33,1669463806.78125
30.61,1669463806.796875
31.43,1669463806.8125
31.78,1669463806.828125
31.73,1669463806.84375
31.38,1669463806.859375
30.86,1669463806.875
30.32,1669463806.890625
29.81,1669463806.90625
29.39,1669463806.921875
29.11,1669463806.9375
29.05,1669463806.953125
29.34,1669463806.96875
30.04,1669463806.984375
31.11,1669463807.0
32.28,1669463807.015625
33.22,1669463807.03125
33.63,1669463807.046875
33.34,1669463807.0625
32.42,1669463807.078125
31.06,1669463807.09375
29.49,1669463807.109375
27.81,1669463807.125
26.02,1669463807.140625
24.01,1669463807.15625
21.73,1669463807.171875
19.21,1669463807.1875
16.62,1669463807.203125
14.14,1669463807.21875
11.93,1669463807.234375
10.04,1669463807.25
8.4,1669463807.265625
6.89,1669463807.28125
5.35,1669463807.296875
3.65,1669463807.3125
1.7,1669463807.328125
-0.48,1669463807.34375
-2.76,1669463807.359375
-4.96,1669463807.375
-6.92,1669463807.390625
-8.63,1669463807.40625
-10.29,1669463807.421875
-12.21,1669463807.4375
-14.66,1669463807.453125
-17.69,1669463807.46875
-21.04,1669463807.484375
-24.28,1669463807.5
-27.01,1669463807.515625
-29.07,1669463807.53125
-30.59,1669463807.546875
-31.98,1669463807.5625
-33.72,1669463807.578125
-36.19,1669463807.59375
-39.6,1669463807.609375
-43.83,1669463807.625
-48.44,1669463807.640625
-52.58,1669463807.65625
-55.11,1669463807.671875
-54.87,1669463807.6875
-50.96,1669463807.703125
-43.19,1669463807.71875
-32.24,1669463807.734375
-19.56,1669463807.75
-6.88,1669463807.765625
4.28,1669463807.78125
13.0,1669463807.796875
19.16,1669463807.8125
23.14,1669463807.828125
25.56,1669463807.84375
26.93,1669463807.859375
27.54,1669463807.875
27.54,1669463807.890625
27.07,1669463807.90625
26.31,1669463807.921875
25.43,1669463807.9375
24.58,1669463807.953125
23.77,1669463807.96875
22.98,1669463807.984375
22.23,1669463808.0
21.62,1669463808.015625
21.33,1669463808.03125
21.49,1669463808.046875
22.11,1669463808.0625
23.0,1669463808.078125
23.88,1669463808.09375
24.49,1669463808.109375
24.66,1669463808.125
24.37,1669463808.140625
23.66,1669463808.15625
22.56,1669463808.171875
21.12,1669463808.1875
19.45,1669463808.203125
17.7,1669463808.21875
16.06,1669463808.234375
14.69,1669463808.25
13.6,1669463808.265625
12.68,1669463808.28125
11.76,1669463808.296875
10.67,1669463808.3125
9.31,1669463808.328125
7.67,1669463808.34375
5.8,1669463808.359375
3.74,1669463808.375
1.55,1669463808.390625
-0.69,1669463808.40625
-2.94,1669463808.421875
-5.13,1669463808.4375
-7.27,1669463808.453125
-9.43,1669463808.46875
-11.67,1669463808.484375
-14.07,1669463808.5
-16.66,1669463808.515625
-19.44,1669463808.53125
-22.34,1669463808.546875
-25.29,1669463808.5625
-28.22,1669463808.578125
-31.01,1669463808.59375
-33.58,1669463808.609375
-35.92,1669463808.625
-38.18,1669463808.640625
-40.69,1669463808.65625
-43.87,1669463808.671875
-47.94,1669463808.6875
-52.73,1669463808.703125
-57.47,1669463808.71875
-60.92,1669463808.734375
-61.72,1669463808.75
-58.84,1669463808.765625
-52.0,1669463808.78125
-41.8,1669463808.796875
-29.54,1669463808.8125
-16.77,1669463808.828125
-4.88,1669463808.84375
5.21,1669463808.859375
13.12,1669463808.875
18.87,1669463808.890625
22.77,1669463808.90625
25.18,1669463808.921875
26.54,1669463808.9375
27.2,1669463808.953125
27.5,1669463808.96875
27.63,1669463808.984375
27.66,1669463809.0
27.58,1669463809.015625
27.31,1669463809.03125
26.84,1669463809.046875
26.22,1669463809.0625
25.57,1669463809.078125
25.01,1669463809.09375
24.66,1669463809.109375
24.58,1669463809.125
24.79,1669463809.140625
25.3,1669463809.15625
26.02,1669463809.171875
26.78,1669463809.1875
27.3,1669463809.203125
27.34,1669463809.21875
26.72,1669463809.234375
25.47,1669463809.25
23.78,1669463809.265625
21.92,1669463809.28125
20.1,1669463809.296875
18.39,1669463809.3125
16.74,1669463809.328125
15.08,1669463809.34375
13.35,1669463809.359375
11.63,1669463809.375
9.97,1669463809.390625
8.44,1669463809.40625
6.95,1669463809.421875
5.37,1669463809.4375
3.52,1669463809.453125
1.32,1669463809.46875
-1.17,1669463809.484375
-3.75,1669463809.5
-6.15,1669463809.515625
-8.15,1669463809.53125
-9.7,1669463809.546875
-10.93,1669463809.5625
-12.15,1669463809.578125
-13.71,1669463809.59375
-15.85,1669463809.609375
-18.58,1669463809.625
-21.73,1669463809.640625
-24.96,1669463809.65625
-27.96,1669463809.671875
-30.54,1669463809.6875
-32.74,1669463809.703125
-34.69,1669463809.71875
-36.7,1669463809.734375
-39.07,1669463809.75
-42.1,1669463809.765625
-45.96,1669463809.78125
-50.54,1669463809.796875
-55.35,1669463809.8125
-59.52,1669463809.828125
-61.85,1669463809.84375
-61.18,1669463809.859375
-56.71,1669463809.875
-48.39,1669463809.890625
-37.0,1669463809.90625
-24.01,1669463809.921875
-11.14,1669463809.9375
0.13,1669463809.953125
8.95,1669463809.96875
15.21,1669463809.984375
19.37,1669463810.0
22.14,1669463810.015625
24.13,1669463810.03125
25.69,1669463810.046875
26.87,1669463810.0625
27.53,1669463810.078125
27.64,1669463810.09375
27.22,1669463810.109375
26.47,1669463810.125
25.58,1669463810.140625
24.69,1669463810.15625
23.82,1669463810.171875
22.93,1669463810.1875
22.04,1669463810.203125
21.24,1669463810.21875
20.72,1669463810.234375
20.68,1669463810.25
21.18,1669463810.265625
22.11,1669463810.28125
23.16,1669463810.296875
23.91,1669463810.3125
24.04,1669463810.328125
23.44,1669463810.34375
22.21,1669463810.359375
20.65,1669463810.375
19.04,1669463810.390625
17.56,1669463810.40625
16.25,1669463810.421875
14.97,1669463810.4375
13.6,1669463810.453125
12.05,1669463810.46875
10.38,1669463810.484375
8.71,1669463810.5
7.16,1669463810.515625
5.76,1669463810.53125
4.42,1669463810.546875
3.02,1669463810.5625
1.44,1669463810.578125
-0.28,1669463810.59375
-2.06,1669463810.609375
-3.73,1669463810.625
-5.21,1669463810.640625
-6.51,1669463810.65625
-7.78,1669463810.671875
-9.24,1669463810.6875
-11.07,1669463810.703125
-13.36,1669463810.71875
-16.09,1669463810.734375
-19.09,1669463810.75
-22.13,1669463810.765625
-24.98,1669463810.78125
-27.46,1669463810.796875
-29.55,1669463810.8125
-31.38,1669463810.828125
-33.27,1669463810.84375
-35.62,1669463810.859375
-38.71,1669463810.875
-42.57,1669463810.890625
-46.73,1669463810.90625
-50.32,1669463810.921875
-52.19,1669463810.9375
-51.27,1669463810.953125
-46.99,1669463810.96875
-39.47,1669463810.984375
-29.59,1669463811.0
-18.63,1669463811.015625
-7.96,1669463811.03125
1.39,1669463811.046875
8.85,1669463811.0625
14.34,1669463811.078125
18.08,1669463811.09375
20.41,1669463811.109375
21.65,1669463811.125
22.03,1669463811.140625
21.75,1669463811.15625
20.97,1669463811.171875
19.88,1669463811.1875
18.71,1669463811.203125
17.65,1669463811.21875
16.87,1669463811.234375
16.37,1669463811.25
16.04,1669463811.265625
15.7,1669463811.28125
15.25,1669463811.296875
14.74,1669463811.3125
14.41,1669463811.328125
14.54,1669463811.34375
15.25,1669463811.359375
16.38,1669463811.375
17.49,1669463811.390625
18.14,1669463811.40625
18.0,1669463811.421875
17.11,1669463811.4375
15.73,1669463811.453125
14.26,1669463811.46875
12.95,1669463811.484375
11.89,1669463811.5
10.96,1669463811.515625
10.02,1669463811.53125
8.97,1669463811.546875
7.77,1669463811.5625
6.44,1669463811.578125
4.95,1669463811.59375
3.29,1669463811.609375
1.43,1669463811.625
-0.56,1669463811.640625
-2.52,1669463811.65625
-4.21,1669463811.671875
-5.48,1669463811.6875
-6.37,1669463811.703125
-7.14,1669463811.71875
-8.14,1669463811.734375
-9.7,1669463811.75
-11.93,1669463811.765625
-14.65,1669463811.78125
-17.52,1669463811.796875
-20.14,1669463811.8125
-22.3,1669463811.828125
-24.04,1669463811.84375
-25.64,1669463811.859375
-27.46,1669463811.875
-29.87,1669463811.890625
-33.09,1669463811.90625
-37.2,1669463811.921875
-41.99,1669463811.9375
-46.91,1669463811.953125
-51.01,1669463811.96875
-53.15,1669463811.984375
-52.25,1669463812.0
-47.73,1669463812.015625
-39.8,1669463812.03125
-29.49,1669463812.046875
-18.34,1669463812.0625
-7.88,1669463812.078125
0.81,1669463812.09375
7.34,1669463812.109375
11.94,1669463812.125
15.17,1669463812.140625
17.57,1669463812.15625
19.42,1669463812.171875
20.72,1669463812.1875
21.38,1669463812.203125
21.36,1669463812.21875
20.8,1669463812.234375
20.04,1669463812.25
19.42,1669463812.265625
19.16,1669463812.28125
19.26,1669463812.296875
19.54,1669463812.3125
19.83,1669463812.328125
20.07,1669463812.34375
20.36,1669463812.359375
20.85,1669463812.375
21.62,1669463812.390625
22.52,1669463812.40625
23.31,1669463812.421875
23.67,1669463812.4375
23.42,1669463812.453125
22.55,1669463812.46875
21.2,1669463812.484375
19.57,1669463812.5
17.83,1669463812.515625
16.12,1669463812.53125
14.5,1669463812.546875
12.99,1669463812.5625
11.63,1669463812.578125
10.38,1669463812.59375
9.16,1669463812.609375
7.82,1669463812.625
6.16,1669463812.640625
4.1,1669463812.65625
1.67,1669463812.671875
-0.92,1669463812.6875
-3.38,1669463812.703125
-5.44,1669463812.71875
-7.0,1669463812.734375
-8.18,1669463812.75
-9.29,1669463812.765625
-10.68,1669463812.78125
-12.6,1669463812.796875
-15.12,1669463812.8125
-18.11,1669463812.828125
-21.32,1669463812.84375
-24.49,1669463812.859375
-27.41,1669463812.875
-30.0,1669463812.890625
-32.32,1669463812.90625
-34.66,1669463812.921875
-37.39,1669463812.9375
-40.95,1669463812.953125
-45.56,1669463812.96875
-51.07,1669463812.984375
-56.76,1669463813.0
-61.5,1669463813.015625
-63.93,1669463813.03125
-62.94,1669463813.046875
-58.0,1669463813.0625
-49.38,1669463813.078125
-38.09,1669463813.09375
-25.55,1669463813.109375
-13.27,1669463813.125
-2.41,1669463813.140625
6.34,1669463813.15625
12.83,1669463813.171875
17.35,1669463813.1875
20.38,1669463813.203125
22.46,1669463813.21875
24.04,1669463813.234375
25.36,1669463813.25
26.54,1669463813.265625
27.57,1669463813.28125
28.37,1669463813.296875
28.84,1669463813.3125
28.93,1669463813.328125
28.61,1669463813.34375
27.96,1669463813.359375
27.13,1669463813.375
26.32,1669463813.390625
25.76,1669463813.40625
25.6,1669463813.421875
25.85,1669463813.4375
26.39,1669463813.453125
26.99,1669463813.46875
27.45,1669463813.484375
27.6,1669463813.5
27.43,1669463813.515625
26.94,1669463813.53125
26.13,1669463813.546875
25.03,1669463813.5625
23.66,1669463813.578125
22.06,1669463813.59375
20.33,1669463813.609375
18.56,1669463813.625
16.8,1669463813.640625
15.07,1669463813.65625
13.33,1669463813.671875
11.49,1669463813.6875
9.52,1669463813.703125
7.44,1669463813.71875
5.31,1669463813.734375
3.23,1669463813.75
1.23,1669463813.765625
-0.71,1669463813.78125
-2.65,1669463813.796875
-4.7,1669463813.8125
-6.87,1669463813.828125
-9.2,1669463813.84375
-11.68,1669463813.859375
-14.31,1669463813.875
-17.11,1669463813.890625
-20.09,1669463813.90625
-23.22,1669463813.921875
-26.37,1669463813.9375
-29.36,1669463813.953125
-32.06,1669463813.96875
-34.48,1669463813.984375
-36.84,1669463814.0
-39.46,1669463814.015625
-42.71,1669463814.03125
-46.74,1669463814.046875
-51.36,1669463814.0625
-56.03,1669463814.078125
-59.84,1669463814.09375
-61.69,1669463814.109375
-60.57,1669463814.125
-55.88,1669463814.140625
-47.67,1669463814.15625
-36.72,1669463814.171875
-24.35,1669463814.1875
-12.03,1669463814.203125
-0.99,1669463814.21875
8.06,1669463814.234375
14.97,1669463814.25
20.03,1669463814.265625
23.68,1669463814.28125
26.31,1669463814.296875
28.17,1669463814.3125
29.39,1669463814.328125
30.07,1669463814.34375
30.35,1669463814.359375
30.33,1669463814.375
30.13,1669463814.390625
29.77,1669463814.40625
29.27,1669463814.421875
28.64,1669463814.4375
27.96,1669463814.453125
27.38,1669463814.46875
27.08,1669463814.484375
27.2,1669463814.5
27.71,1669463814.515625
28.44,1669463814.53125
29.11,1669463814.546875
29.44,1669463814.5625
29.3,1669463814.578125
28.71,1669463814.59375
27.83,1669463814.609375
26.79,1669463814.625
25.66,1669463814.640625
24.41,1669463814.65625
22.94,1669463814.671875
21.16,1669463814.6875
19.09,1669463814.703125
16.83,1669463814.71875
14.55,1669463814.734375
12.41,1669463814.75
10.49,1669463814.765625
8.78,1669463814.78125
7.18,1669463814.796875
5.53,1669463814.8125
3.7,1669463814.828125
1.64,1669463814.84375
-0.58,1669463814.859375
-2.78,1669463814.875
-4.79,1669463814.890625
-6.56,1669463814.90625
-8.2,1669463814.921875
-9.98,1669463814.9375
-12.13,1669463814.953125
-14.74,1669463814.96875
-17.62,1669463814.984375
-20.42,1669463815.0
-22.79,1669463815.015625
-24.62,1669463815.03125
-26.09,1669463815.046875
-27.61,1669463815.0625
-29.7,1669463815.078125
-32.75,1669463815.09375
-36.89,1669463815.109375
-41.9,1669463815.125
-47.2,1669463815.140625
-51.86,1669463815.15625
-54.74,1669463815.171875
-54.73,1669463815.1875
-51.11,1669463815.203125
-43.86,1669463815.21875
-33.75,1669463815.234375
-22.19,1669463815.25
-10.75,1669463815.265625
-0.7,1669463815.28125
7.35,1669463815.296875
13.41,1669463815.3125
17.94,1669463815.328125
21.4,1669463815.34375
24.05,1669463815.359375
25.88,1669463815.375
26.8,1669463815.390625
26.78,1669463815.40625
26.03,1669463815.421875
24.92,1669463815.4375
23.78,1669463815.453125
22.84,1669463815.46875
22.13,1669463815.484375
21.53,1669463815.5
21.01,1669463815.515625
20.6,1669463815.53125
20.48,1669463815.546875
20.83,1669463815.5625
21.69,1669463815.578125
22.93,1669463815.59375
24.23,1669463815.609375
25.23,1669463815.625
25.6,1669463815.640625
25.17,1669463815.65625
23.94,1669463815.671875
22.11,1669463815.6875
19.98,1669463815.703125
17.92,1669463815.71875
16.2,1669463815.734375
14.88,1669463815.75
13.81,1669463815.765625
12.73,1669463815.78125
11.36,1669463815.796875
9.59,1669463815.8125
7.46,1669463815.828125
5.16,1669463815.84375
2.82,1669463815.859375
0.54,1669463815.875
-1.65,1669463815.890625
-3.75,1669463815.90625
-5.73,1669463815.921875
-7.59,1669463815.9375
-9.41,1669463815.953125
-11.35,1669463815.96875
-13.62,1669463815.984375
-16.31,1669463816.0
-19.35,1669463816.015625
-22.47,1669463816.03125
-25.36,1669463816.046875
-27.83,1669463816.0625
-29.96,1669463816.078125
-32.08,1669463816.09375
-34.69,1669463816.109375
-38.19,1669463816.125
-42.77,1669463816.140625
-48.17,1669463816.15625
-53.69,1669463816.171875
-58.2,1669463816.1875
-60.47,1669463816.203125
-59.43,1669463816.21875
-54.58,1669463816.234375
-46.19,1669463816.25
-35.25,1669463816.265625
-23.18,1669463816.28125
-11.42,1669463816.296875
-1.04,1669463816.3125
7.42,1669463816.328125
13.93,1669463816.34375
18.77,1669463816.359375
22.32,1669463816.375
24.86,1669463816.390625
26.61,1669463816.40625
27.74,1669463816.421875
28.38,1669463816.4375
28.66,1669463816.453125
28.69,1669463816.46875
28.55,1669463816.484375
28.3,1669463816.5
28.01,1669463816.515625
27.8,1669463816.53125
27.75,1669463816.546875
27.95,1669463816.5625
28.43,1669463816.578125
29.13,1669463816.59375
29.87,1669463816.609375
30.48,1669463816.625
30.82,1669463816.640625
30.84,1669463816.65625
30.54,1669463816.671875
29.95,1669463816.6875
29.13,1669463816.703125
28.06,1669463816.71875
26.73,1669463816.734375
25.11,1669463816.75
23.24,1669463816.765625
21.14,1669463816.78125
18.89,1669463816.796875
16.63,1669463816.8125
14.48,1669463816.828125
12.57,1669463816.84375
10.93,1669463816.859375
9.55,1669463816.875
8.25,1669463816.890625
6.86,1669463816.90625
5.2,1669463816.921875
3.22,1669463816.9375
0.99,1669463816.953125
-1.34,1669463816.96875
-3.67,1669463816.984375
-6.0,1669463817.0
-8.39,1669463817.015625
-10.96,1669463817.03125
-13.73,1669463817.046875
-16.64,1669463817.0625
-19.57,1669463817.078125
-22.38,1669463817.09375
-25.01,1669463817.109375
-27.48,1669463817.125
-29.88,1669463817.140625
-32.32,1669463817.15625
-35.0,1669463817.171875
-38.13,1669463817.1875
-41.93,1669463817.203125
-46.48,1669463817.21875
-51.61,1669463817.234375
-56.71,1669463817.25
-60.75,1669463817.265625
-62.53,1669463817.28125
-61.01,1669463817.296875
-55.73,1669463817.3125
-47.03,1669463817.328125
-35.99,1669463817.34375
-24.1,1669463817.359375
-12.73,1669463817.375
-2.81,1669463817.390625
5.37,1669463817.40625
12.0,1669463817.421875
17.48,1669463817.4375
22.12,1669463817.453125
26.02,1669463817.46875
29.14,1669463817.484375
31.41,1669463817.5
32.89,1669463817.515625
33.71,1669463817.53125
34.05,1669463817.546875
34.04,1669463817.5625
33.7,1669463817.578125
33.02,1669463817.59375
32.03,1669463817.609375
30.87,1669463817.625
29.73,1669463817.640625
28.87,1669463817.65625
28.49,1669463817.671875
28.65,1669463817.6875
29.27,1669463817.703125
30.18,1669463817.71875
31.06,1669463817.734375
31.63,1669463817.75
31.64,1669463817.765625
31.01,1669463817.78125
29.87,1669463817.796875
28.41,1669463817.8125
26.86,1669463817.828125
25.36,1669463817.84375
23.88,1669463817.859375
22.34,1669463817.875
20.63,1669463817.890625
18.78,1669463817.90625
16.89,1669463817.921875
15.08,1669463817.9375
13.44,1669463817.953125
11.93,1669463817.96875
10.43,1669463817.984375
8.81,1669463818.0
6.99,1669463818.015625
4.97,1669463818.03125
2.81,1669463818.046875
0.6,1669463818.0625
-1.63,1669463818.078125
-3.85,1669463818.09375
-6.13,1669463818.109375
-8.52,1669463818.125
-11.05,1669463818.140625
-13.72,1669463818.15625
-16.42,1669463818.171875
-19.01,1669463818.1875
-21.37,1669463818.203125
-23.44,1669463818.21875
-25.23,1669463818.234375
-26.86,1669463818.25
-28.53,1669463818.265625
-30.48,1669463818.28125
-32.97,1669463818.296875
-36.25,1669463818.3125
-40.41,1669463818.328125
-45.21,1669463818.34375
-50.02,1669463818.359375
-53.82,1669463818.375
-55.42,1669463818.390625
-53.82,1669463818.40625
-48.6,1669463818.421875
-40.11,1669463818.4375
-29.4,1669463818.453125
-17.92,1669463818.46875
-7.08,1669463818.484375
2.14,1669463818.5
9.39,1669463818.515625
14.83,1669463818.53125
18.89,1669463818.546875
21.97,1669463818.5625
24.32,1669463818.578125
26.01,1669463818.59375
27.02,1669463818.609375
27.36,1669463818.625
27.14,1669463818.640625
26.53,1669463818.65625
25.69,1669463818.671875
24.77,1669463818.6875
23.88,1669463818.703125
23.14,1669463818.71875
22.76,1669463818.734375
22.9,1669463818.75
23.65,1669463818.765625
24.88,1669463818.78125
26.34,1669463818.796875
27.66,1669463818.8125
28.54,1669463818.828125
28.78,1669463818.84375
28.36,1669463818.859375
27.4,1669463818.875
26.08,1669463818.890625
24.67,1669463818.90625
23.36,1669463818.921875
22.25,1669463818.9375
21.31,1669463818.953125
20.38,1669463818.96875
19.23,1669463818.984375
17.71,1669463819.0
15.79,1669463819.015625
13.58,1669463819.03125
11.25,1669463819.046875
8.93,1669463819.0625
6.7,1669463819.078125
4.54,1669463819.09375
2.46,1669463819.109375
0.48,1669463819.125
-1.34,1669463819.140625
-2.93,1669463819.15625
-4.35,1669463819.171875
-5.7,1669463819.1875
-7.14,1669463819.203125
-8.81,1669463819.21875
-10.79,1669463819.234375
-13.14,1669463819.25
-15.8,1669463819.265625
-18.66,1669463819.28125
-21.51,1669463819.296875
-24.11,1669463819.3125
-26.28,1669463819.328125
-28.02,1669463819.34375
-29.56,1669463819.359375
-31.35,1669463819.375
-33.85,1669463819.390625
-37.38,1669463819.40625
-41.84,1669463819.421875
-46.67,1669463819.4375
-50.86,1669463819.453125
-53.19,1669463819.46875
-52.56,1669463819.484375
-48.4,1669463819.5
-40.83,1669463819.515625
-30.69,1669463819.53125
-19.31,1669463819.546875
-8.11,1669463819.5625
1.75,1669463819.578125
9.61,1669463819.59375
15.37,1669463819.609375
19.27,1669463819.625
21.78,1669463819.640625
23.33,1669463819.65625
24.26,1669463819.671875
24.75,1669463819.6875
24.86,1669463819.703125
24.58,1669463819.71875
23.94,1669463819.734375
23.03,1669463819.75
22.05,1669463819.765625
21.18,1669463819.78125
20.51,1669463819.796875
20.07,1669463819.8125
19.81,1669463819.828125
19.72,1669463819.84375
19.88,1669463819.859375
20.38,1669463819.875
21.23,1669463819.890625
22.27,1669463819.90625
23.18,1669463819.921875
23.56,1669463819.9375
23.19,1669463819.953125
22.08,1669463819.96875
20.51,1669463819.984375
18.87,1669463820.0
17.45,1669463820.015625
16.36,1669463820.03125
15.44,1669463820.046875
14.51,1669463820.0625
13.39,1669463820.078125
12.06,1669463820.09375
10.62,1669463820.109375
9.22,1669463820.125
7.97,1669463820.140625
6.89,1669463820.15625
5.86,1669463820.171875
4.67,1669463820.1875
3.12,1669463820.203125
1.14,1669463820.21875
-1.17,1669463820.234375
-3.59,1669463820.25
-5.84,1669463820.265625
-7.76,1669463820.28125
-9.4,1669463820.296875
-10.96,1669463820.3125
-12.75,1669463820.328125
-15.02,1669463820.34375
-17.8,1669463820.359375
-20.92,1669463820.375
-24.0,1669463820.390625
-26.71,1669463820.40625
-28.81,1669463820.421875
-30.35,1669463820.4375
-31.6,1669463820.453125
-33.01,1669463820.46875
-35.01,1669463820.484375
-37.9,1669463820.5
-41.74,1669463820.515625
-46.22,1669463820.53125
-50.69,1669463820.546875
-54.27,1669463820.5625
-55.91,1669463820.578125
-54.75,1669463820.59375
-50.32,1669463820.609375
-42.76,1669463820.625
-32.85,1669463820.640625
-21.83,1669463820.65625
-11.03,1669463820.671875
-1.53,1669463820.6875
6.09,1669463820.703125
11.76,1669463820.71875
15.79,1669463820.734375
18.6,1669463820.75
20.58,1669463820.765625
22.03,1669463820.78125
23.14,1669463820.796875
23.97,1669463820.8125
24.58,1669463820.828125
24.91,1669463820.84375
24.89,1669463820.859375
24.5,1669463820.875
23.8,1669463820.890625
22.93,1669463820.90625
22.06,1669463820.921875
21.34,1669463820.9375
20.82,1669463820.953125
20.54,1669463820.96875
20.48,1669463820.984375
20.61,1669463821.0
20.88,1669463821.015625
21.18,1669463821.03125
21.3,1669463821.046875
21.08,1669463821.0625
20.44,1669463821.078125
19.45,1669463821.09375
18.3,1669463821.109375
17.17,1669463821.125
16.12,1669463821.140625
15.09,1669463821.15625
13.96,1669463821.171875
12.62,1669463821.1875
11.12,1669463821.203125
9.57,1669463821.21875
8.09,1669463821.234375
6.73,1669463821.25
5.39,1669463821.265625
3.93,1669463821.28125
2.28,1669463821.296875
0.44,1669463821.3125
-1.44,1669463821.328125
-3.21,1669463821.34375
-4.76,1669463821.359375
-6.14,1669463821.375
-7.47,1669463821.390625
-8.94,1669463821.40625
-10.67,1669463821.421875
-12.74,1669463821.4375
-15.13,1669463821.453125
-17.75,1669463821.46875
-20.48,1669463821.484375
-23.13,1669463821.5
-25.54,1669463821.515625
-27.56,1669463821.53125
-29.21,1669463821.546875
-30.68,1669463821.5625
-32.36,1669463821.578125
-34.71,1669463821.59375
-38.06,1669463821.609375
-42.37,1669463821.625
-47.1,1669463821.640625
-51.31,1669463821.65625
-53.83,1669463821.671875
-53.66,1669463821.6875
-50.19,1669463821.703125
-43.49,1669463821.71875
-34.27,1669463821.734375
-23.71,1669463821.75
-13.11,1669463821.765625
-3.53,1669463821.78125
4.36,1669463821.796875
10.43,1669463821.8125
14.85,1669463821.828125
17.94,1669463821.84375
19.92,1669463821.859375
20.89,1669463821.875
20.87,1669463821.890625
20.01,1669463821.90625
18.66,1669463821.921875
17.29,1669463821.9375
16.37,1669463821.953125
16.1,1669463821.96875
16.37,1669463821.984375
16.87,1669463822.0
17.24,1669463822.015625
17.38,1669463822.03125
17.39,1669463822.046875
17.51,1669463822.0625
17.95,1669463822.078125
18.67,1669463822.09375
19.47,1669463822.109375
20.03,1669463822.125
20.16,1669463822.140625
19.79,1669463822.15625
19.0,1669463822.171875
17.95,1669463822.1875
16.74,1669463822.203125
15.48,1669463822.21875
14.23,1669463822.234375
13.03,1669463822.25
11.88,1669463822.265625
10.7,1669463822.28125
9.35,1669463822.296875
7.71,1669463822.3125
5.75,1669463822.328125
3.56,1669463822.34375
1.37,1669463822.359375
-0.65,1669463822.375
-2.39,1669463822.390625
-3.88,1669463822.40625
-5.28,1669463822.421875
-6.77,1669463822.4375
-8.51,1669463822.453125
-10.53,1669463822.46875
-12.81,1669463822.484375
-15.29,1669463822.5
-17.85,1669463822.515625
-20.38,1669463822.53125
-22.76,1669463822.546875
-24.93,1669463822.5625
-26.91,1669463822.578125
-28.86,1669463822.59375
-31.07,1669463822.609375
-33.94,1669463822.625
-37.68,1669463822.640625
-42.15,1669463822.65625
-46.75,1669463822.671875
-50.43,1669463822.6875
-52.04,1669463822.703125
-50.66,1669463822.71875
-45.91,1669463822.734375
-38.18,1669463822.75
-28.39,1669463822.765625
-17.83,1669463822.78125
-7.71,1669463822.796875
1.06,1669463822.8125
8.02,1669463822.828125
13.16,1669463822.84375
16.79,1669463822.859375
19.26,1669463822.875
20.89,1669463822.890625
21.85,1669463822.90625
22.19,1669463822.921875
21.97,1669463822.9375
21.36,1669463822.953125
20.6,1669463822.96875
19.9,1669463822.984375
19.32,1669463823.0
18.79,1669463823.015625
18.22,1669463823.03125
17.63,1669463823.046875
17.22,1669463823.0625
17.3,1669463823.078125
18.05,1669463823.09375
19.38,1669463823.109375
20.93,1669463823.125
22.19,1669463823.140625
22.78,1669463823.15625
22.6,1669463823.171875
21.81,1669463823.1875
20.7,1669463823.203125
19.51,1669463823.21875
18.33,1669463823.234375
17.15,1669463823.25
15.88,1669463823.265625
14.51,1669463823.28125
13.04,1669463823.296875
11.51,1669463823.3125
9.87,1669463823.328125
8.05,1669463823.34375
5.98,1669463823.359375
3.65,1669463823.375
1.14,1669463823.390625
-1.34,1669463823.40625
-3.65,1669463823.421875
-5.68,1669463823.4375
-7.5,1669463823.453125
-9.27,1669463823.46875
-11.2,1669463823.484375
-13.51,1669463823.5
-16.27,1669463823.515625
-19.41,1669463823.53125
-22.72,1669463823.546875
-25.96,1669463823.5625
-28.88,1669463823.578125
-31.39,1669463823.59375
-33.61,1669463823.609375
-35.81,1669463823.625
-38.41,1669463823.640625
-41.76,1669463823.65625
-46.05,1669463823.671875
-51.06,1669463823.6875
-56.15,1669463823.703125
-60.27,1669463823.71875
-62.25,1669463823.734375
-61.11,1669463823.75
-56.44,1669463823.765625
-48.55,1669463823.78125
-38.4,1669463823.796875
-27.27,1669463823.8125
-16.38,1669463823.828125
-6.63,1669463823.84375
1.58,1669463823.859375
8.18,1669463823.875
13.37,1669463823.890625
17.43,1669463823.90625
20.64,1669463823.921875
23.27,1669463823.9375
25.49,1669463823.953125
27.39,1669463823.96875
28.94,1669463823.984375
30.08,1669463824.0
30.72,1669463824.015625
30.86,1669463824.03125
30.57,1669463824.046875
30.0,1669463824.0625
29.35,1669463824.078125
28.82,1669463824.09375
28.56,1669463824.109375
28.67,1669463824.125
29.15,1669463824.140625
29.92,1669463824.15625
30.77,1669463824.171875
31.44,1669463824.1875
31.69,1669463824.203125
31.39,1669463824.21875
30.53,1669463824.234375
29.31,1669463824.25
27.97,1669463824.265625
26.67,1669463824.28125
25.47,1669463824.296875
24.28,1669463824.3125
22.94,1669463824.328125
21.3,1669463824.34375
19.39,1669463824.359375
17.26,1669463824.375
15.05,1669463824.390625
12.82,1669463824.40625
10.6,1669463824.421875
8.34,1669463824.4375
6.05,1669463824.453125
3.77,1669463824.46875
1.54,1669463824.484375
-0.64,1669463824.5
-2.9,1669463824.515625
-5.36,1669463824.53125
-8.13,1669463824.546875
-11.19,1669463824.5625
-14.39,1669463824.578125
-17.53,1669463824.59375
-20.46,1669463824.609375
-23.13,1669463824.625
-25.56,1669463824.640625
-27.86,1669463824.65625
-30.13,1669463824.671875
-32.5,1669463824.6875
-35.2,1669463824.703125
-38.48,1669463824.71875
-42.6,1669463824.734375
-47.61,1669463824.75
-53.17,1669463824.765625
-58.45,1669463824.78125
-62.22,1669463824.796875
-63.22,1669463824.8125
-60.52,1669463824.828125
-53.96,1669463824.84375
-44.2,1669463824.859375
-32.54,1669463824.875
-20.51,1669463824.890625
-9.41,1669463824.90625
0.02,1669463824.921875
7.61,1669463824.9375
13.65,1669463824.953125
18.49,1669463824.96875
22.43,1669463824.984375
25.59,1669463825.0
27.96,1669463825.015625
29.56,1669463825.03125
30.47,1669463825.046875
30.82,1669463825.0625
30.78,1669463825.078125
30.43,1669463825.09375
29.85,1669463825.109375
29.11,1669463825.125
28.35,1669463825.140625
27.73,1669463825.15625
27.43,1669463825.171875
27.55,1669463825.1875
28.08,1669463825.203125
28.87,1669463825.21875
29.74,1669463825.234375
30.47,1669463825.25
30.91,1669463825.265625
31.01,1669463825.28125
30.75,1669463825.296875
30.18,1669463825.3125
29.38,1669463825.328125
28.4,1669463825.34375
27.27,1669463825.359375
25.97,1669463825.375
24.49,1669463825.390625
22.79,1669463825.40625
20.89,1669463825.421875
18.81,1669463825.4375
16.57,1669463825.453125
14.19,1669463825.46875
11.72,1669463825.484375
9.21,1669463825.5
6.77,1669463825.515625
4.54,1669463825.53125
2.6,1669463825.546875
0.95,1669463825.5625
-0.52,1669463825.578125
-2.02,1669463825.59375
-3.76,1669463825.609375
-5.85,1669463825.625
-8.29,1669463825.640625
-10.96,1669463825.65625
-13.64,1669463825.671875
-16.2,1669463825.6875
-18.57,1669463825.703125
-20.75,1669463825.71875
-22.82,1669463825.734375
-24.86,1669463825.75
-27.01,1669463825.765625
-29.47,1669463825.78125
-32.46,1669463825.796875
-36.15,1669463825.8125
-40.42,1669463825.828125
-44.73,1669463825.84375
-48.13,1669463825.859375
-49.51,1669463825.875
-47.9,1669463825.890625
-42.93,1669463825.90625
-34.98,1669463825.921875
-25.05,1669463825.9375
-14.5,1669463825.953125
-4.5,1669463825.96875
4.16,1669463825.984375
11.24,1669463826.0
16.82,1669463826.015625
21.12,1669463826.03125
24.31,1669463826.046875
26.45,1669463826.0625
27.54,1669463826.078125
27.64,1669463826.09375
26.93,1669463826.109375
25.67,1669463826.125
24.19,1669463826.140625
22.78,1669463826.15625
21.64,1669463826.171875
20.92,1669463826.1875
20.71,1669463826.203125
21.05,1669463826.21875
21.93,1669463826.234375
23.22,1669463826.25
24.69,1669463826.265625
26.03,1669463826.28125
27.0,1669463826.296875
27.44,1669463826.3125
27.37,1669463826.328125
26.9,1669463826.34375
26.17,1669463826.359375
25.19,1669463826.375
23.91,1669463826.390625
22.32,1669463826.40625
20.46,1669463826.421875
18.46,1669463826.4375
16.5,1669463826.453125
14.68,1669463826.46875
13.01,1669463826.484375
11.4,1669463826.5
9.73,1669463826.515625
7.93,1669463826.53125
5.98,1669463826.546875
3.92,1669463826.5625
1.83,1669463826.578125
-0.22,1669463826.59375
-2.14,1669463826.609375
-3.91,1669463826.625
-5.6,1669463826.640625
-7.36,1669463826.65625
-9.42,1669463826.671875
-11.93,1669463826.6875
-14.9,1669463826.703125
-18.12,1669463826.71875
-21.33,1669463826.734375
-24.34,1669463826.75
-27.1,1669463826.765625
-29.7,1669463826.78125
-32.27,1669463826.796875
-34.95,1669463826.8125
-37.84,1669463826.828125
-41.1,1669463826.84375
-44.84,1669463826.859375
-49.06,1669463826.875
-53.34,1669463826.890625
-56.84,1669463826.90625
-58.34,1669463826.921875
-56.72,1669463826.9375
-51.34,1669463826.953125
-42.49,1669463826.96875
-31.3,1669463826.984375
-19.38,1669463827.0
-8.28,1669463827.015625
0.95,1669463827.03125
8.02,1669463827.046875
13.21,1669463827.0625
17.09,1669463827.078125
20.19,1669463827.09375
22.82,1669463827.109375
25.06,1669463827.125
26.84,1669463827.140625
28.14,1669463827.15625
28.97,1669463827.171875
29.43,1669463827.1875
29.64,1669463827.203125
29.66,1669463827.21875
29.51,1669463827.234375
29.19,1669463827.25
28.72,1669463827.265625
28.24,1669463827.28125
27.88,1669463827.296875
27.81,1669463827.3125
28.05,1669463827.328125
28.54,1669463827.34375
29.06,1669463827.359375
29.35,1669463827.375
29.17,1669463827.390625
28.4,1669463827.40625
27.1,1669463827.421875
25.44,1669463827.4375
23.7,1669463827.453125
22.12,1669463827.46875
20.76,1669463827.484375
19.53,1669463827.5
18.2,1669463827.515625
16.6,1669463827.53125
14.68,1669463827.546875
12.56,1669463827.5625
10.48,1669463827.578125
8.63,1669463827.59375
7.03,1669463827.609375
5.54,1669463827.625
3.96,1669463827.640625
2.17,1669463827.65625
0.22,1669463827.671875
-1.73,1669463827.6875
-3.5,1669463827.703125
-5.08,1669463827.71875
-6.63,1669463827.734375
-8.37,1669463827.75
-10.53,1669463827.765625
-13.18,1669463827.78125
-16.21,1669463827.796875
-19.4,1669463827.8125
-22.48,1669463827.828125
-25.25,1669463827.84375
-27.63,1669463827.859375
-29.66,1669463827.875
-31.54,1669463827.890625
-33.6,1669463827.90625
-36.22,1669463827.921875
-39.69,1669463827.9375
-44.07,1669463827.953125
-48.98,1669463827.96875
-53.65,1669463827.984375
-56.93,1669463828.0
-57.73,1669463828.015625
-55.24,1669463828.03125
-49.33,1669463828.046875
-40.56,1669463828.0625
-30.04,1669463828.078125
-19.1,1669463828.09375
-8.89,1669463828.109375
-0.17,1669463828.125
6.81,1669463828.140625
12.16,1669463828.15625
16.24,1669463828.171875
19.46,1669463828.1875
22.13,1669463828.203125
24.47,1669463828.21875
26.53,1669463828.234375
28.28,1669463828.25
29.58,1669463828.265625
30.32,1669463828.28125
30.46,1669463828.296875
30.07,1669463828.3125
29.33,1669463828.328125
28.51,1669463828.34375
27.79,1669463828.359375
27.3,1669463828.375
27.05,1669463828.390625
26.99,1669463828.40625
27.06,1669463828.421875
27.18,1669463828.4375
27.31,1669463828.453125
27.4,1669463828.46875
27.35,1669463828.484375
27.1,1669463828.5
26.56,1669463828.515625
25.73,1669463828.53125
24.63,1669463828.546875
23.33,1669463828.5625
21.89,1669463828.578125
20.35,1669463828.59375
18.7,1669463828.609375
16.9,1669463828.625
14.94,1669463828.640625
12.88,1669463828.65625
10.84,1669463828.671875
8.94,1669463828.6875
7.28,1669463828.703125
5.84,1669463828.71875
4.5,1669463828.734375
3.07,1669463828.75
1.39,1669463828.765625
-0.64,1669463828.78125
-2.95,1669463828.796875
-5.36,1669463828.8125
-7.7,1669463828.828125
-9.83,1669463828.84375
-11.75,1669463828.859375
-13.6,1669463828.875
-15.58,1669463828.890625
-17.85,1669463828.90625
-20.45,1669463828.921875
-23.23,1669463828.9375
-25.97,1669463828.953125
-28.41,1669463828.96875
-30.45,1669463828.984375
-32.2,1669463829.0
-33.93,1669463829.015625
-36.01,1669463829.03125
-38.79,1669463829.046875
-42.36,1669463829.0625
-46.49,1669463829.078125
-50.5,1669463829.09375
-53.42,1669463829.109375
-54.15,1669463829.125
-51.89,1669463829.140625
-46.36,1669463829.15625
-38.03,1669463829.171875
-27.97,1669463829.1875
-17.51,1669463829.203125
-7.86,1669463829.21875
0.24,1669463829.234375
6.64,1669463829.25
11.55,1669463829.265625
15.33,1669463829.28125
18.28,1669463829.296875
20.46,1669463829.3125
21.87,1669463829.328125
22.55,1669463829.34375
22.67,1669463829.359375
22.47,1669463829.375
22.14,1669463829.390625
21.79,1669463829.40625
21.43,1669463829.421875
21.05,1669463829.4375
20.69,1669463829.453125
20.5,1669463829.46875
20.61,1669463829.484375
21.07,1669463829.5
21.78,1669463829.515625
22.56,1669463829.53125
23.19,1669463829.546875
23.53,1669463829.5625
23.53,1669463829.578125
23.18,1669463829.59375
22.46,1669463829.609375
21.29,1669463829.625
19.66,1669463829.640625
17.67,1669463829.65625
15.53,1669463829.671875
13.53,1669463829.6875
11.91,1669463829.703125
10.69,1669463829.71875
9.73,1669463829.734375
8.75,1669463829.75
7.47,1669463829.765625
5.77,1669463829.78125
3.68,1669463829.796875
1.43,1669463829.8125
-0.76,1669463829.828125
-2.72,1669463829.84375
-4.4,1669463829.859375
-5.92,1669463829.875
-7.48,1669463829.890625
-9.26,1669463829.90625
-11.38,1669463829.921875
-13.82,1669463829.9375
-16.45,1669463829.953125
-19.09,1669463829.96875
-21.56,1669463829.984375
-23.78,1669463830.0
-25.72,1669463830.015625
-27.51,1669463830.03125
-29.34,1669463830.046875
-31.47,1669463830.0625
-34.15,1669463830.078125
-37.51,1669463830.09375
-41.5,1669463830.109375
-45.7,1669463830.125
-49.39,1669463830.140625
-51.6,1669463830.15625
-51.39,1669463830.171875
-48.12,1669463830.1875
-41.69,1669463830.203125
-32.68,1669463830.21875
-22.2,1669463830.234375
-11.56,1669463830.25
-1.93,1669463830.265625
5.95,1669463830.28125
11.88,1669463830.296875
16.08,1669463830.3125
18.96,1669463830.328125
20.95,1669463830.34375
22.3,1669463830.359375
23.18,1669463830.375
23.69,1669463830.390625
23.94,1669463830.40625
24.05,1669463830.421875
24.06,1669463830.4375
23.93,1669463830.453125
23.6,1669463830.46875
23.05,1669463830.484375
22.38,1669463830.5
21.77,1669463830.515625
21.42,1669463830.53125
21.45,1669463830.546875
21.79,1669463830.5625
22.27,1669463830.578125
22.65,1669463830.59375
22.74,1669463830.609375
22.45,1669463830.625
21.78,1669463830.640625
20.75,1669463830.65625
19.47,1669463830.671875
17.97,1669463830.6875
16.36,1669463830.703125
14.69,1669463830.71875
13.03,1669463830.734375
11.41,1669463830.75
9.82,1669463830.765625
8.27,1669463830.78125
6.73,1669463830.796875
5.18,1669463830.8125
3.62,1669463830.828125
2.02,1669463830.84375
0.36,1669463830.859375
-1.43,1669463830.875
-3.38,1669463830.890625
-5.47,1669463830.90625
-7.61,1669463830.921875
-9.7,1669463830.9375
-11.62,1669463830.953125
-13.38,1669463830.96875
-15.06,1669463830.984375
-16.86,1669463831.0
-18.92,1669463831.015625
-21.31,1669463831.03125
-23.92,1669463831.046875
-26.6,1669463831.0625
-29.19,1669463831.078125
-31.68,1669463831.09375
-34.17,1669463831.109375
-36.97,1669463831.125
-40.36,1669463831.140625
-44.57,1669463831.15625
-49.52,1669463831.171875
-54.74,1669463831.1875
-59.32,1669463831.203125
-62.01,1669463831.21875
-61.62,1669463831.234375
-57.4,1669463831.25
-49.43,1669463831.265625
-38.62,1669463831.28125
-26.49,1669463831.296875
-14.65,1669463831.3125
-4.32,1669463831.328125
3.97,1669463831.34375
10.26,1669463831.359375
14.94,1669463831.375
18.45,1669463831.390625
21.06,1669463831.40625
22.9,1669463831.421875
24.14,1669463831.4375
24.95,1669463831.453125
25.53,1669463831.46875
26.02,1669463831.484375
26.38,1669463831.5
26.49,1669463831.515625
26.19,1669463831.53125
25.46,1669463831.546875
24.47,1669463831.5625
23.5,1669463831.578125
22.87,1669463831.59375
22.76,1669463831.609375
23.17,1669463831.625
23.91,1669463831.640625
24.72,1669463831.65625
25.38,1669463831.671875
25.74,1669463831.6875
25.76,1669463831.703125
25.48,1669463831.71875
24.95,1669463831.734375
24.16,1669463831.75
23.11,1669463831.765625
21.78,1669463831.78125
20.23,1669463831.796875
18.55,1669463831.8125
16.85,1669463831.828125
15.19,1669463831.84375
13.58,1669463831.859375
11.96,1669463831.875
10.27,1669463831.890625
8.47,1669463831.90625
6.62,1669463831.921875
4.8,1669463831.9375
3.06,1669463831.953125
1.45,1669463831.96875
-0.07,1669463831.984375
-1.59,1669463832.0
-3.24,1669463832.015625
-5.19,1669463832.03125
-7.61,1669463832.046875
-10.58,1669463832.0625
-14.04,1669463832.078125
-17.79,1669463832.09375
-21.52,1669463832.109375
-24.92,1669463832.125
-27.81,1669463832.140625
-30.23,1669463832.15625
-32.41,1669463832.171875
-34.71,1669463832.1875
-37.5,1669463832.203125
-41.08,1669463832.21875
-45.59,1669463832.234375
-50.88,1669463832.25
-56.44,1669463832.265625
-61.34,1669463832.28125
-64.35,1669463832.296875
-64.2,1669463832.3125
-60.12,1669463832.328125
-52.08,1669463832.34375
-40.95,1669463832.359375
-28.27,1669463832.375
-15.75,1669463832.390625
-4.73,1669463832.40625
4.13,1669463832.421875
10.84,1669463832.4375
15.88,1669463832.453125
19.8,1669463832.46875
22.99,1669463832.484375
25.64,1669463832.5
27.76,1669463832.515625
29.31,1669463832.53125
30.26,1669463832.546875
30.63,1669463832.5625
30.51,1669463832.578125
30.01,1669463832.59375
29.31,1669463832.609375
28.58,1669463832.625
27.99,1669463832.640625
27.67,1669463832.65625
27.63,1669463832.671875
27.87,1669463832.6875
28.34,1669463832.703125
28.98,1669463832.71875
29.68,1669463832.734375
30.26,1669463832.75
30.57,1669463832.765625
30.45,1669463832.78125
29.87,1669463832.796875
28.89,1669463832.8125
27.64,1669463832.828125
26.19,1669463832.84375
24.56,1669463832.859375
22.73,1669463832.875
20.66,1669463832.890625
18.45,1669463832.90625
16.23,1669463832.921875
14.14,1669463832.9375
12.2,1669463832.953125
10.29,1669463832.96875
8.25,1669463832.984375
6.04,1669463833.0
3.75,1669463833.015625
1.61,1669463833.03125
-0.19,1669463833.046875
-1.62,1669463833.0625
-2.84,1669463833.078125
-4.13,1669463833.09375
-5.74,1669463833.109375
-7.84,1669463833.125
-10.41,1669463833.140625
-13.33,1669463833.15625
-16.41,1669463833.171875
-19.45,1669463833.1875
-22.28,1669463833.203125
-24.78,1669463833.21875
-26.95,1669463833.234375
-28.94,1669463833.25
-31.1,1669463833.265625
-33.82,1669463833.28125
-37.4,1669463833.296875
-41.86,1669463833.3125
-46.76,1669463833.328125
-51.28,1669463833.34375
-54.27,1669463833.359375
-54.7,1669463833.375
-51.85,1669463833.390625
-45.64,1669463833.40625
-36.64,1669463833.421875
-25.92,1669463833.4375
-14.76,1669463833.453125
-4.27,1669463833.46875
4.78,1669463833.484375
12.08,1669463833.5
17.65,1669463833.515625
21.66,1669463833.53125
24.26,1669463833.546875
25.62,1669463833.5625
25.87,1669463833.578125
25.25,1669463833.59375
24.11,1669463833.609375
22.87,1669463833.625
21.94,1669463833.640625
21.55,1669463833.65625
21.69,1669463833.671875
22.14,1669463833.6875
22.62,1669463833.703125
22.92,1669463833.71875
22.98,1669463833.734375
22.98,1669463833.75
23.09,1669463833.765625
23.43,1669463833.78125
23.96,1669463833.796875
24.47,1669463833.8125
24.78,1669463833.828125
24.72,1669463833.84375
24.3,1669463833.859375
23.54,1669463833.875
22.47,1669463833.890625
21.08,1669463833.90625
19.36,1669463833.921875
17.36,1669463833.9375
15.25,1669463833.953125
13.22,1669463833.96875
11.39,1669463833.984375
9.68,1669463834.0
7.88,1669463834.015625
5.73,1669463834.03125
3.19,1669463834.046875
0.4,1669463834.0625
-2.32,1669463834.078125
-4.68,1669463834.09375
-6.65,1669463834.109375
-8.44,1669463834.125
-10.41,1669463834.140625
-12.84,1669463834.15625
-15.77,1669463834.171875
-19.02,1669463834.1875
-22.27,1669463834.203125
-25.26,1669463834.21875
-27.87,1669463834.234375
-30.16,1669463834.25
-32.27,1669463834.265625
-34.41,1669463834.28125
-36.81,1669463834.296875
-39.79,1669463834.3125
-43.61,1669463834.328125
-48.35,1669463834.34375
-53.7,1669463834.359375
-58.82,1669463834.375
-62.45,1669463834.390625
-63.34,1669463834.40625
-60.57,1669463834.421875
-53.97,1669463834.4375
-44.17,1669463834.453125
-32.33,1669463834.46875
-19.85,1669463834.484375
-7.97,1669463834.5
2.45,1669463834.515625
11.0,1669463834.53125
17.6,1669463834.546875
22.43,1669463834.5625
25.82,1669463834.578125
28.11,1669463834.59375
29.63,1669463834.609375
30.61,1669463834.625
31.12,1669463834.640625
31.15,1669463834.65625
30.69,1669463834.671875
29.8,1669463834.6875
28.65,1669463834.703125
27.49,1669463834.71875
26.55,1669463834.734375
26.01,1669463834.75
25.91,1669463834.765625
26.23,1669463834.78125
26.87,1669463834.796875
27.75,1669463834.8125
28.74,1669463834.828125
29.69,1669463834.84375
30.45,1669463834.859375
30.81,1669463834.875
30.66,1669463834.890625
29.95,1669463834.90625
28.74,1669463834.921875
27.18,1669463834.9375
25.43,1669463834.953125
23.64,1669463834.96875
21.86,1669463834.984375
20.11,1669463835.0
18.29,1669463835.015625
16.32,1669463835.03125
14.16,1669463835.046875
11.84,1669463835.0625
9.46,1669463835.078125
7.14,1669463835.09375
4.91,1669463835.109375
2.75,1669463835.125
0.59,1669463835.140625
-1.66,1669463835.15625
-3.97,1669463835.171875
-6.3,1669463835.1875
-8.57,1669463835.203125
-10.78,1669463835.21875
-13.05,1669463835.234375
-15.56,1669463835.25
-18.49,1669463835.265625
-21.87,1669463835.28125
-25.52,1669463835.296875
-29.11,1669463835.3125
-32.34,1669463835.328125
-35.03,1669463835.34375
-37.35,1669463835.359375
-39.73,1669463835.375
-42.83,1669463835.390625
-47.15,1669463835.40625
-52.78,1669463835.421875
-59.14,1669463835.4375
-65.02,1669463835.453125
-68.85,1669463835.46875
-69.22,1669463835.484375
-65.36,1669463835.5
-57.37,1669463835.515625
-46.24,1669463835.53125
-33.44,1669463835.546875
-20.55,1669463835.5625
-8.77,1669463835.578125
1.22,1669463835.59375
9.29,1669463835.609375
15.66,1669463835.625
20.73,1669463835.640625
24.83,1669463835.65625
28.19,1669463835.671875
30.92,1669463835.6875
33.02,1669463835.703125
34.47,1669463835.71875
35.25,1669463835.734375
35.43,1669463835.75
35.06,1669463835.765625
34.22,1669463835.78125
33.06,1669463835.796875
31.77,1669463835.8125
30.59,1669463835.828125
29.79,1669463835.84375
29.56,1669463835.859375
29.93,1669463835.875
30.73,1669463835.890625
31.63,1669463835.90625
32.29,1669463835.921875
32.47,1669463835.9375
32.08,1669463835.953125
31.21,1669463835.96875
30.05,1669463835.984375
28.76,1669463836.0
27.43,1669463836.015625
26.06,1669463836.03125
24.64,1669463836.046875
23.15,1669463836.0625
21.57,1669463836.078125
19.92,1669463836.09375
18.19,1669463836.109375
16.43,1669463836.125
14.62,1669463836.140625
12.74,1669463836.15625
10.72,1669463836.171875
8.48,1669463836.1875
6.05,1669463836.203125
3.51,1669463836.21875
1.05,1669463836.234375
-1.17,1669463836.25
-3.1,1669463836.265625
-4.89,1669463836.28125
-6.81,1669463836.296875
-9.16,1669463836.3125
-12.06,1669463836.328125
-15.37,1669463836.34375
-18.81,1669463836.359375
-22.06,1669463836.375
-24.9,1669463836.390625
-27.36,1669463836.40625
-29.56,1669463836.421875
-31.68,1669463836.4375
-33.91,1669463836.453125
-36.47,1669463836.46875
-39.62,1669463836.484375
-43.62,1669463836.5
-48.59,1669463836.515625
-54.2,1669463836.53125
-59.56,1669463836.546875
-63.32,1669463836.5625
-64.07,1669463836.578125
-60.82,1669463836.59375
-53.42,1669463836.609375
-42.67,1669463836.625
-30.03,1669463836.640625
-17.17,1669463836.65625
-5.43,1669463836.671875
4.39,1669463836.6875
12.12,1669463836.703125
17.94,1669463836.71875
22.18,1669463836.734375
25.12,1669463836.75
26.95,1669463836.765625
27.83,1669463836.78125
27.96,1669463836.796875
27.58,1669463836.8125
26.96,1669463836.828125
26.33,1669463836.84375
25.89,1669463836.859375
25.68,1669463836.875
25.68,1669463836.890625
25.82,1669463836.90625
26.01,1669463836.921875
26.21,1669463836.9375
26.45,1669463836.953125
26.77,1669463836.96875
27.18,1669463836.984375
27.66,1669463837.0
28.08,1669463837.015625
28.26,1669463837.03125
28.02,1669463837.046875
27.26,1669463837.0625
25.95,1669463837.078125
24.2,1669463837.09375
22.22,1669463837.109375
20.23,1669463837.125
18.43,1669463837.140625
16.91,1669463837.15625
15.64,1669463837.171875
14.45,1669463837.1875
13.12,1669463837.203125
11.5,1669463837.21875
9.53,1669463837.234375
7.31,1669463837.25
5.02,1669463837.265625
2.83,1669463837.28125
0.81,1669463837.296875
-1.11,1669463837.3125
-3.12,1669463837.328125
-5.46,1669463837.34375
-8.26,1669463837.359375
-11.53,1669463837.375
-15.05,1669463837.390625
-18.57,1669463837.40625
-21.84,1669463837.421875
-24.72,1669463837.4375
-27.22,1669463837.453125
-29.47,1669463837.46875
-31.64,1669463837.484375
-33.96,1669463837.5
-36.67,1669463837.515625
-40.08,1669463837.53125
-44.38,1669463837.546875
-49.54,1669463837.5625
-55.01,1669463837.578125
-59.73,1669463837.59375
-62.32,1669463837.609375
-61.57,1669463837.625
-56.82,1669463837.640625
-48.31,1669463837.65625
-37.08,1669463837.671875
-24.6,1669463837.6875
-12.32,1669463837.703125
-1.33,1669463837.71875
7.78,1669463837.734375
14.84,1669463837.75
19.94,1669463837.765625
23.31,1669463837.78125
25.3,1669463837.796875
26.27,1669463837.8125
26.61,1669463837.828125
26.65,1669463837.84375
26.54,1669463837.859375
26.33,1669463837.875
26.0,1669463837.890625
25.53,1669463837.90625
24.99,1669463837.921875
24.51,1669463837.9375
24.29,1669463837.953125
24.46,1669463837.96875
25.13,1669463837.984375
26.27,1669463838.0
27.73,1669463838.015625
29.24,1669463838.03125
30.49,1669463838.046875
31.21,1669463838.0625
31.23,1669463838.078125
30.59,1669463838.09375
29.39,1669463838.109375
27.83,1669463838.125
26.07,1669463838.140625
24.2,1669463838.15625
22.23,1669463838.171875
20.15,1669463838.1875
18.02,1669463838.203125
15.87,1669463838.21875
13.8,1669463838.234375
11.83,1669463838.25
9.91,1669463838.265625
7.92,1669463838.28125
5.75,1669463838.296875
3.37,1669463838.3125
0.82,1669463838.328125
-1.76,1669463838.34375
-4.18,1669463838.359375
-6.31,1669463838.375
-8.16,1669463838.390625
-9.87,1669463838.40625
-11.69,1669463838.421875
-13.9,1669463838.4375
-16.68,1669463838.453125
-20.03,1669463838.46875
-23.8,1669463838.484375
-27.68,1669463838.5
-31.36,1669463838.515625
-34.66,1669463838.53125
-37.58,1669463838.546875
-40.37,1669463838.5625
-43.44,1669463838.578125
-47.23,1669463838.59375
-52.0,1669463838.609375
-57.67,1669463838.625
-63.67,1669463838.640625
-68.97,1669463838.65625
-72.29,1669463838.671875
-72.41,1669463838.6875
-68.5,1669463838.703125
-60.46,1669463838.71875
-48.93,1669463838.734375
-35.25,1669463838.75
-21.09,1669463838.765625
-8.03,1669463838.78125
2.8,1669463838.796875
10.98,1669463838.8125
16.77,1669463838.828125
20.88,1669463838.84375
24.11,1669463838.859375
27.04,1669463838.875
29.84,1669463838.890625
32.36,1669463838.90625
34.3,1669463838.921875
35.48,1669463838.9375
35.89,1669463838.953125
35.72,1669463838.96875
35.17,1669463838.984375
34.43,1669463839.0
33.61,1669463839.015625
32.78,1669463839.03125
32.06,1669463839.046875
31.64,1669463839.0625
31.71,1669463839.078125
32.34,1669463839.09375
33.41,1669463839.109375
34.59,1669463839.125
35.49,1669463839.140625
35.75,1669463839.15625
35.2,1669463839.171875
33.91,1669463839.1875
32.13,1669463839.203125
30.2,1669463839.21875
28.39,1669463839.234375
26.81,1669463839.25
25.36,1669463839.265625
23.81,1669463839.28125
21.92,1669463839.296875
19.59,1669463839.3125
16.92,1669463839.328125
14.16,1669463839.34375
11.62,1669463839.359375
9.46,1669463839.375
7.65,1669463839.390625
5.95,1669463839.40625
4.12,1669463839.421875
1.97,1669463839.4375
-0.45,1669463839.453125
-2.95,1669463839.46875
-5.35,1669463839.484375
-7.61,1669463839.5
-9.94,1669463839.515625
-12.65,1669463839.53125
-16.03,1669463839.546875
-20.1,1669463839.5625
-24.6,1669463839.578125
-29.05,1669463839.59375
-32.97,1669463839.609375
-36.16,1669463839.625
-38.7,1669463839.640625
-41.0,1669463839.65625
-43.62,1669463839.671875
-47.04,1669463839.6875
-51.51,1669463839.703125
-56.9,1669463839.71875
-62.64,1669463839.734375
-67.73,1669463839.75
-70.94,1669463839.765625
-71.03,1669463839.78125
-67.17,1669463839.796875
-59.2,1669463839.8125
-47.78,1669463839.828125
-34.2,1669463839.84375
-20.08,1669463839.859375
-6.93,1669463839.875
4.23,1669463839.890625
12.96,1669463839.90625
19.37,1669463839.921875
23.94,1669463839.9375
27.23,1669463839.953125
29.72,1669463839.96875
31.7,1669463839.984375
33.26,1669463840.0
34.39,1669463840.015625
35.07,1669463840.03125
35.26,1669463840.046875
35.04,1669463840.0625
34.46,1669463840.078125
33.68,1669463840.09375
32.82,1669463840.109375
32.04,1669463840.125
31.54,1669463840.140625
31.48,1669463840.15625
31.94,1669463840.171875
32.85,1669463840.1875
33.99,1669463840.203125
35.04,1669463840.21875
35.69,1669463840.234375
35.76,1669463840.25
35.19,1669463840.265625
34.01,1669463840.28125
32.34,1669463840.296875
30.32,1669463840.3125
28.1,1669463840.328125
25.85,1669463840.34375
23.72,1669463840.359375
21.79,1669463840.375
20.07,1669463840.390625
18.44,1669463840.40625
16.8,1669463840.421875
15.02,1669463840.4375
13.08,1669463840.453125
10.99,1669463840.46875
8.79,1669463840.484375
6.49,1669463840.5
4.13,1669463840.515625
1.78,1669463840.53125
-0.45,1669463840.546875
-2.46,1669463840.5625
-4.2,1669463840.578125
-5.78,1669463840.59375
-7.44,1669463840.609375
-9.43,1669463840.625
-11.93,1669463840.640625
-14.93,1669463840.65625
-18.24,1669463840.671875
-21.6,1669463840.6875
-24.79,1669463840.703125
-27.68,1669463840.71875
-30.31,1669463840.734375
-32.87,1669463840.75
-35.71,1669463840.765625
-39.18,1669463840.78125
-43.56,1669463840.796875
-48.78,1669463840.8125
-54.35,1669463840.828125
-59.3,1669463840.84375
-62.35,1669463840.859375
-62.32,1669463840.875
-58.51,1669463840.890625
-50.92,1669463840.90625
-40.32,1669463840.921875
-27.99,1669463840.9375
-15.38,1669463840.953125
-3.76,1669463840.96875
6.03,1669463840.984375
13.62,1669463841.0
19.08,1669463841.015625
22.71,1669463841.03125
24.9,1669463841.046875
25.97,1669463841.0625
26.17,1669463841.078125
25.68,1669463841.09375
24.78,1669463841.109375
23.76,1669463841.125
22.94,1669463841.140625
22.51,1669463841.15625
22.48,1669463841.171875
22.74,1669463841.1875
23.14,1669463841.203125
23.66,1669463841.21875
24.37,1669463841.234375
25.38,1669463841.25
26.65,1669463841.265625
27.96,1669463841.28125
28.96,1669463841.296875
29.34,1669463841.3125
29.01,1669463841.328125
28.11,1669463841.34375
26.89,1669463841.359375
25.55,1669463841.375
24.15,1669463841.390625
22.63,1669463841.40625
20.89,1669463841.421875
18.9,1669463841.4375
16.82,1669463841.453125
14.83,1669463841.46875
13.08,1669463841.484375
11.55,1669463841.5
10.12,1669463841.515625
8.57,1669463841.53125
6.75,1669463841.546875
4.61,1669463841.5625
2.21,1669463841.578125
-0.28,1669463841.59375
-2.7,1669463841.609375
-4.89,1669463841.625
-6.8,1669463841.640625
-8.53,1669463841.65625
-10.35,1669463841.671875
-12.54,1669463841.6875
-15.3,1669463841.703125
-18.61,1669463841.71875
-22.18,1669463841.734375
-25.61,1669463841.75
-28.59,1669463841.765625
-31.04,1669463841.78125
-33.2,1669463841.796875
-35.48,1669463841.8125
-38.35,1669463841.828125
-42.09,1669463841.84375
-46.8,1669463841.859375
-52.2,1669463841.875
-57.73,1669463841.890625
-62.4,1669463841.90625
-65.03,1669463841.921875
-64.43,1669463841.9375
-59.91,1669463841.953125
-51.52,1669463841.96875
-40.18,1669463841.984375
-27.4,1669463842.0
-14.75,1669463842.015625
-3.4,1669463842.03125
6.07,1669463842.046875
13.58,1669463842.0625
19.36,1669463842.078125
23.66,1669463842.09375
26.71,1669463842.109375
28.73,1669463842.125
29.98,1669463842.140625
30.71,1669463842.15625
31.07,1669463842.171875
31.14,1669463842.1875
30.91,1669463842.203125
30.39,1669463842.21875
29.69,1669463842.234375
29.01,1669463842.25
28.53,1669463842.265625
28.35,1669463842.28125
28.46,1669463842.296875
28.74,1669463842.3125
29.15,1669463842.328125
29.69,1669463842.34375
30.39,1669463842.359375
31.24,1669463842.375
32.07,1669463842.390625
32.6,1669463842.40625
32.54,1669463842.421875
31.79,1669463842.4375
30.39,1669463842.453125
28.64,1669463842.46875
26.85,1669463842.484375
25.23,1669463842.5
23.74,1669463842.515625
22.22,1669463842.53125
20.44,1669463842.546875
18.32,1669463842.5625
16.0,1669463842.578125
13.72,1669463842.59375
11.68,1669463842.609375
9.9,1669463842.625
8.17,1669463842.640625
6.21,1669463842.65625
3.88,1669463842.671875
1.24,1669463842.6875
-1.46,1669463842.703125
-3.95,1669463842.71875
-6.15,1669463842.734375
-8.22,1669463842.75
-10.48,1669463842.765625
-13.2,1669463842.78125
-16.43,1669463842.796875
-20.0,1669463842.8125
-23.55,1669463842.828125
-26.8,1669463842.84375
-29.64,1669463842.859375
-32.19,1669463842.875
-34.71,1669463842.890625
-37.51,1669463842.90625
-40.87,1669463842.921875
-45.01,1669463842.9375
-50.02,1669463842.953125
-55.77,1669463842.96875
-61.71,1669463842.984375
-66.84,1669463843.0
-69.85,1669463843.015625
-69.47,1669463843.03125
-64.97,1669463843.046875
-56.49,1669463843.0625
-45.06,1669463843.078125
-32.24,1669463843.09375
-19.66,1669463843.109375
-8.53,1669463843.125
0.59,1669463843.140625
7.73,1669463843.15625
13.24,1669463843.171875
17.61,1669463843.1875
21.27,1669463843.203125
24.51,1669463843.21875
27.41,1669463843.234375
29.93,1669463843.25
31.9,1669463843.265625
33.14,1669463843.28125
33.59,1669463843.296875
33.36,1669463843.3125
32.67,1669463843.328125
31.8,1669463843.34375
30.94,1669463843.359375
30.16,1669463843.375
29.53,1669463843.390625
29.11,1669463843.40625
29.04,1669463843.421875
29.46,1669463843.4375
30.35,1669463843.453125
31.5,1669463843.46875
32.49,1669463843.484375
32.86,1669463843.5
32.32,1669463843.515625
30.89,1669463843.53125
28.84,1669463843.546875
26.63,1669463843.5625
24.68,1669463843.578125
23.21,1669463843.59375
22.15,1669463843.609375
21.23,1669463843.625
20.11,1669463843.640625
18.58,1669463843.65625
16.58,1669463843.671875
14.32,1669463843.6875
12.11,1669463843.703125
10.24,1669463843.71875
8.83,1669463843.734375
7.73,1669463843.75
6.58,1669463843.765625
4.99,1669463843.78125
2.75,1669463843.796875
-0.08,1669463843.8125
-3.15,1669463843.828125
-6.05,1669463843.84375
-8.51,1669463843.859375
-10.56,1669463843.875
-12.44,1669463843.890625
-14.53,1669463843.90625
-17.04,1669463843.921875
-19.96,1669463843.9375
-23.08,1669463843.953125
-26.07,1669463843.96875
-28.75,1669463843.984375
-31.1,1669463844.0
-33.36,1669463844.015625
-35.88,1669463844.03125
-39.07,1669463844.046875
-43.19,1669463844.0625
-48.3,1669463844.078125
-54.05,1669463844.09375
-59.66,1669463844.109375
-64.04,1669463844.125
-65.99,1669463844.140625
-64.54,1669463844.15625
-59.33,1669463844.171875
-50.72,1669463844.1875
-39.67,1669463844.203125
-27.52,1669463844.21875
-15.58,1669463844.234375
-4.89,1669463844.25
3.92,1669463844.265625
10.68,1669463844.28125
15.48,1669463844.296875
18.68,1669463844.3125
20.69,1669463844.328125
21.96,1669463844.34375
22.82,1669463844.359375
23.44,1669463844.375
23.87,1669463844.390625
24.03,1669463844.40625
23.87,1669463844.421875
23.42,1669463844.4375
22.83,1669463844.453125
22.31,1669463844.46875
22.01,1669463844.484375
22.04,1669463844.5
22.43,1669463844.515625
23.14,1669463844.53125
24.17,1669463844.546875
25.43,1669463844.5625
26.78,1669463844.578125
27.98,1669463844.59375
28.73,1669463844.609375
28.79,1669463844.625
28.06,1669463844.640625
26.62,1669463844.65625
24.69,1669463844.671875
22.56,1669463844.6875
20.44,1669463844.703125
18.49,1669463844.71875
16.72,1669463844.734375
15.11,1669463844.75
13.56,1669463844.765625
11.94,1669463844.78125
10.13,1669463844.796875
8.01,1669463844.8125
5.6,1669463844.828125
3.06,1669463844.84375
0.66,1669463844.859375
-1.38,1669463844.875
-2.96,1669463844.890625
-4.21,1669463844.90625
-5.39,1669463844.921875
-6.81,1669463844.9375
-8.66,1669463844.953125
-11.02,1669463844.96875
-13.84,1669463844.984375
-17.03,1669463845.0
-20.44,1669463845.015625
-23.91,1669463845.03125
-27.21,1669463845.046875
-30.14,1669463845.0625
-32.58,1669463845.078125
-34.64,1669463845.09375
-36.68,1669463845.109375
-39.15,1669463845.125
-42.43,1669463845.140625
-46.54,1669463845.15625
-51.0,1669463845.171875
-54.79,1669463845.1875
-56.62,1669463845.203125
-55.28,1669463845.21875
-50.13,1669463845.234375
-41.33,1669463845.25
-29.85,1669463845.265625
-17.26,1669463845.28125
-5.21,1669463845.296875
5.04,1669463845.3125
12.9,1669463845.328125
18.44,1669463845.34375
22.17,1669463845.359375
24.66,1669463845.375
26.27,1669463845.390625
27.14,1669463845.40625
27.27,1669463845.421875
26.72,1669463845.4375
25.69,1669463845.453125
24.5,1669463845.46875
23.47,1669463845.484375
22.77,1669463845.5
22.39,1669463845.515625
22.21,1669463845.53125
22.11,1669463845.546875
22.04,1669463845.5625
22.08,1669463845.578125
22.33,1669463845.59375
22.84,1669463845.609375
23.5,1669463845.625
24.1,1669463845.640625
24.35,1669463845.65625
24.08,1669463845.671875
23.25,1669463845.6875
21.93,1669463845.703125
20.32,1669463845.71875
18.61,1669463845.734375
16.99,1669463845.75
15.57,1669463845.765625
14.38,1669463845.78125
13.31,1669463845.796875
12.19,1669463845.8125
10.81,1669463845.828125
9.03,1669463845.84375
6.85,1669463845.859375
4.42,1669463845.875
1.96,1669463845.890625
-0.3,1669463845.90625
-2.3,1669463845.921875
-4.13,1669463845.9375
-6.0,1669463845.953125
-8.09,1669463845.96875
-10.54,1669463845.984375
-13.31,1669463846.0
-16.35,1669463846.015625
-19.55,1669463846.03125
-22.79,1669463846.046875
-25.91,1669463846.0625
-28.75,1669463846.078125
-31.14,1669463846.09375
-33.04,1669463846.109375
-34.63,1669463846.125
-36.3,1669463846.140625
-38.56,1669463846.15625
-41.87,1669463846.171875
-46.42,1669463846.1875
-52.01,1669463846.203125
-57.95,1669463846.21875
-63.13,1669463846.234375
-66.27,1669463846.25
-66.19,1669463846.265625
-62.16,1669463846.28125
-54.2,1669463846.296875
-43.13,1669463846.3125
-30.34,1669463846.328125
-17.45,1669463846.34375
-5.81,1669463846.359375
3.78,1669463846.375
11.15,1669463846.390625
16.62,1669463846.40625
20.69,1669463846.421875
23.81,1669463846.4375
26.27,1669463846.453125
28.2,1669463846.46875
29.63,1669463846.484375
30.56,1669463846.5
31.0,1669463846.515625
30.96,1669463846.53125
30.5,1669463846.546875
29.72,1669463846.5625
28.77,1669463846.578125
27.88,1669463846.59375
27.27,1669463846.609375
27.12,1669463846.625
27.51,1669463846.640625
28.34,1669463846.65625
29.38,1669463846.671875
30.33,1669463846.6875
30.88,1669463846.703125
30.84,1669463846.71875
30.18,1669463846.734375
29.04,1669463846.75
27.65,1669463846.765625
26.24,1669463846.78125
24.92,1669463846.796875
23.7,1669463846.8125
22.42,1669463846.828125
20.95,1669463846.84375
19.18,1669463846.859375
17.11,1669463846.875
14.86,1669463846.890625
12.58,1669463846.90625
10.41,1669463846.921875
8.47,1669463846.9375
6.74,1669463846.953125
5.17,1669463846.96875
3.62,1669463846.984375
1.93,1669463847.0
-0.02,1669463847.015625
-2.3,1669463847.03125
-4.91,1669463847.046875
-7.77,1669463847.0625
-10.78,1669463847.078125
-13.87,1669463847.09375
-16.98,1669463847.109375
-20.07,1669463847.125
-23.11,1669463847.140625
-26.03,1669463847.15625
-28.78,1669463847.171875
-31.3,1669463847.1875
-33.55,1669463847.203125
-35.65,1669463847.21875
-37.83,1669463847.234375
-40.48,1669463847.25
-44.09,1669463847.265625
-48.95,1669463847.28125
-54.91,1669463847.296875
-61.15,1669463847.3125
-66.28,1669463847.328125
-68.7,1669463847.34375
-67.15,1669463847.359375
-61.16,1669463847.375
-51.27,1669463847.390625
-38.83,1669463847.40625
-25.5,1669463847.421875
-12.81,1669463847.4375
-1.75,1669463847.453125
7.25,1669463847.46875
14.22,1669463847.484375
19.44,1669463847.5
23.27,1669463847.515625
26.06,1669463847.53125
28.04,1669463847.546875
29.4,1669463847.5625
30.25,1669463847.578125
30.64,1669463847.59375
30.67,1669463847.609375
30.42,1669463847.625
29.99,1669463847.640625
29.45,1669463847.65625
28.83,1669463847.671875
28.15,1669463847.6875
27.55,1669463847.703125
27.2,1669463847.71875
27.24,1669463847.734375
27.75,1669463847.75
28.54,1669463847.765625
29.32,1669463847.78125
29.74,1669463847.796875
29.56,1669463847.8125
28.73,1669463847.828125
27.37,1669463847.84375
25.71,1669463847.859375
23.96,1669463847.875
22.32,1669463847.890625
20.87,1669463847.90625
19.63,1669463847.921875
18.55,1669463847.9375
17.5,1669463847.953125
16.36,1669463847.96875
15.03,1669463847.984375
13.47,1669463848.0
11.74,1669463848.015625
9.91,1669463848.03125
7.99,1669463848.046875
5.94,1669463848.0625
3.67,1669463848.078125
1.19,1669463848.09375
-1.42,1669463848.109375
-3.94,1669463848.125
-6.2,1669463848.140625
-8.17,1669463848.15625
-10.01,1669463848.171875
-12.04,1669463848.1875
-14.49,1669463848.203125
-17.39,1669463848.21875
-20.49,1669463848.234375
-23.42,1669463848.25
-25.87,1669463848.265625
-27.86,1669463848.28125
-29.76,1669463848.296875
-32.16,1669463848.3125
-35.57,1669463848.328125
-40.17,1669463848.34375
-45.6,1669463848.359375
-51.01,1669463848.375
-55.26,1669463848.390625
-57.14,1669463848.40625
-55.71,1669463848.421875
-50.55,1669463848.4375
-41.91,1669463848.453125
-30.71,1669463848.46875
-18.36,1669463848.484375
-6.43,1669463848.5
3.79,1669463848.515625
11.59,1669463848.53125
16.93,1669463848.546875
20.27,1669463848.5625
22.24,1669463848.578125
23.4,1669463848.59375
24.02,1669463848.609375
24.13,1669463848.625
23.67,1669463848.640625
22.68,1669463848.65625
21.38,1669463848.671875
20.07,1669463848.6875
19.12,1669463848.703125
18.75,1669463848.71875
19.03,1669463848.734375
19.81,1669463848.75
20.88,1669463848.765625
22.01,1669463848.78125
23.06,1669463848.796875
23.98,1669463848.8125
24.78,1669463848.828125
25.45,1669463848.84375
25.93,1669463848.859375
26.08,1669463848.875
25.77,1669463848.890625
24.94,1669463848.90625
23.61,1669463848.921875
21.91,1669463848.9375
20.06,1669463848.953125
18.26,1669463848.96875
16.63,1669463848.984375
15.19,1669463849.0
13.86,1669463849.015625
12.45,1669463849.03125
10.77,1669463849.046875
8.68,1669463849.0625
6.21,1669463849.078125
3.46,1669463849.09375
0.65,1669463849.109375
-2.06,1669463849.125
-4.58,1669463849.140625
-6.97,1669463849.15625
-9.36,1669463849.171875
-11.9,1669463849.1875
-14.68,1669463849.203125
-17.7,1669463849.21875
-20.86,1669463849.234375
-24.04,1669463849.25
-27.09,1669463849.265625
-29.93,1669463849.28125
-32.54,1669463849.296875
-35.04,1669463849.3125
-37.68,1669463849.328125
-40.77,1669463849.34375
-44.62,1669463849.359375
-49.41,1669463849.375
-54.95,1669463849.390625
-60.63,1669463849.40625
-65.31,1669463849.421875
-67.67,1669463849.4375
-66.49,1669463849.453125
-61.18,1669463849.46875
-51.98,1669463849.484375
-39.93,1669463849.5
-26.63,1669463849.515625
-13.67,1669463849.53125
-2.28,1669463849.546875
6.91,1669463849.5625
13.89,1669463849.578125
19.01,1669463849.59375
22.77,1669463849.609375
25.62,1669463849.625
27.8,1669463849.640625
29.41,1669463849.65625
30.46,1669463849.671875
30.95,1669463849.6875
31.01,1669463849.703125
30.83,1669463849.71875
30.63,1669463849.734375
30.53,1669463849.75
30.52,1669463849.765625
30.56,1669463849.78125
30.61,1669463849.796875
30.73,1669463849.8125
31.04,1669463849.828125
31.6,1669463849.84375
32.34,1669463849.859375
33.05,1669463849.875
33.48,1669463849.890625
33.42,1669463849.90625
32.87,1669463849.921875
31.91,1669463849.9375
30.68,1669463849.953125
29.22,1669463849.96875
27.54,1669463849.984375
25.58,1669463850.0
23.4,1669463850.015625
21.1,1669463850.03125
18.77,1669463850.046875
16.48,1669463850.0625
14.21,1669463850.078125
11.88,1669463850.09375
9.47,1669463850.109375
7.03,1669463850.125
4.68,1669463850.140625
2.55,1669463850.15625
0.66,1669463850.171875
-1.07,1669463850.1875
-2.72,1669463850.203125
-4.42,1669463850.21875
-6.19,1669463850.234375
-8.06,1669463850.25
-10.07,1669463850.265625
-12.32,1669463850.28125
-14.92,1669463850.296875
-17.93,1669463850.3125
-21.27,1669463850.328125
-24.7,1669463850.34375
-27.97,1669463850.359375
-30.88,1669463850.375
-33.45,1669463850.390625
-35.97,1669463850.40625
-38.9,1669463850.421875
-42.72,1669463850.4375
-47.67,1669463850.453125
-53.57,1669463850.46875
-59.64,1669463850.484375
-64.65,1669463850.5
-67.12,1669463850.515625
-65.79,1669463850.53125
-60.07,1669463850.546875
-50.27,1669463850.5625
-37.55,1669463850.578125
-23.64,1669463850.59375
-10.27,1669463850.609375
1.22,1669463850.625
10.18,1669463850.640625
16.64,1669463850.65625
21.05,1669463850.671875
24.02,1669463850.6875
26.07,1669463850.703125
27.58,1669463850.71875
28.78,1669463850.734375
29.83,1669463850.75
30.78,1669463850.765625
31.6,1669463850.78125
32.1,1669463850.796875
32.07,1669463850.8125
31.35,1669463850.828125
29.96,1669463850.84375
28.22,1669463850.859375
26.61,1669463850.875
25.62,1669463850.890625
25.53,1669463850.90625
26.29,1669463850.921875
27.55,1669463850.9375
28.82,1669463850.953125
29.69,1669463850.96875
29.93,1669463850.984375
29.51,1669463851.0
28.57,1669463851.015625
27.3,1669463851.03125
25.86,1669463851.046875
24.36,1669463851.0625
22.83,1669463851.078125
21.28,1669463851.09375
19.64,1669463851.109375
17.85,1669463851.125
15.91,1669463851.140625
13.85,1669463851.15625
11.79,1669463851.171875
9.84,1669463851.1875
8.08,1669463851.203125
6.48,1669463851.21875
4.92,1669463851.234375
3.26,1669463851.25
1.43,1669463851.265625
-0.6,1669463851.28125
-2.77,1669463851.296875
-5.02,1669463851.3125
-7.29,1669463851.328125
-9.58,1669463851.34375
-11.93,1669463851.359375
-14.43,1669463851.375
-17.11,1669463851.390625
-20.0,1669463851.40625
-23.01,1669463851.421875
-26.01,1669463851.4375
-28.81,1669463851.453125
-31.36,1669463851.46875
-33.66,1669463851.484375
-35.9,1669463851.5
-38.4,1669463851.515625
-41.51,1669463851.53125
-45.49,1669463851.546875
-50.32,1669463851.5625
-55.48,1669463851.578125
-59.95,1669463851.59375
-62.41,1669463851.609375
-61.58,1669463851.625
-56.74,1669463851.640625
-48.04,1669463851.65625
-36.53,1669463851.671875
-23.79,1669463851.6875
-11.43,1669463851.703125
-0.6,1669463851.71875
8.17,1669463851.734375
14.93,1669463851.75
19.96,1669463851.765625
23.56,1669463851.78125
25.9,1669463851.796875
27.11,1669463851.8125
27.38,1669463851.828125
26.98,1669463851.84375
26.21,1669463851.859375
25.35,1669463851.875
24.5,1669463851.890625
23.66,1669463851.90625
22.79,1669463851.921875
21.88,1669463851.9375
21.03,1669463851.953125
20.46,1669463851.96875
20.35,1669463851.984375
20.83,1669463852.0
21.86,1669463852.015625
23.2,1669463852.03125
24.52,1669463852.046875
25.47,1669463852.0625
25.8,1669463852.078125
25.39,1669463852.09375
24.33,1669463852.109375
22.81,1669463852.125
21.07,1669463852.140625
19.36,1669463852.15625
17.83,1669463852.171875
16.55,1669463852.1875
15.53,1669463852.203125
14.66,1669463852.21875
13.85,1669463852.234375
12.93,1669463852.25
11.75,1669463852.265625
10.19,1669463852.28125
8.25,1669463852.296875
5.98,1669463852.3125
3.59,1669463852.328125
1.27,1669463852.34375
-0.87,1669463852.359375
-2.81,1669463852.375
-4.7,1669463852.390625
-6.68,1669463852.40625
-8.86,1669463852.421875
-11.31,1669463852.4375
-13.95,1669463852.453125
-16.71,1669463852.46875
-19.49,1669463852.484375
-22.2,1669463852.5
-24.8,1669463852.515625
-27.28,1669463852.53125
-29.71,1669463852.546875
-32.35,1669463852.5625
-35.51,1669463852.578125
-39.48,1669463852.59375
-44.27,1669463852.609375
-49.43,1669463852.625
-54.01,1669463852.640625
-56.72,1669463852.65625
-56.4,1669463852.671875
-52.36,1669463852.6875
-44.67,1669463852.703125
-34.2,1669463852.71875
-22.36,1669463852.734375
-10.64,1669463852.75
-0.24,1669463852.765625
8.2,1669463852.78125
14.6,1669463852.796875
19.24,1669463852.8125
22.51,1669463852.828125
24.76,1669463852.84375
26.14,1669463852.859375
26.72,1669463852.875
26.53,1669463852.890625
25.7,1669463852.90625
24.46,1669463852.921875
23.14,1669463852.9375
22.01,1669463852.953125
21.27,1669463852.96875
20.95,1669463852.984375
21.02,1669463853.0
21.4,1669463853.015625
22.02,1669463853.03125
22.84,1669463853.046875
23.8,1669463853.0625
24.75,1669463853.078125
25.52,1669463853.09375
25.93,1669463853.109375
25.87,1669463853.125
25.34,1669463853.140625
24.47,1669463853.15625
23.4,1669463853.171875
22.19,1669463853.1875
20.86,1669463853.203125
19.39,1669463853.21875
17.78,1669463853.234375
16.05,1669463853.25
14.25,1669463853.265625
12.42,1669463853.28125
10.51,1669463853.296875
8.5,1669463853.3125
6.38,1669463853.328125
4.2,1669463853.34375
2.03,1669463853.359375
-0.04,1669463853.375
-2.0,1669463853.390625
-3.89,1669463853.40625
-5.78,1669463853.421875
-7.74,1669463853.4375
-9.87,1669463853.453125
-12.26,1669463853.46875
-15.03,1669463853.484375
-18.22,1669463853.5
-21.75,1669463853.515625
-25.41,1669463853.53125
-28.82,1669463853.546875
-31.71,1669463853.5625
-33.97,1669463853.578125
-35.78,1669463853.59375
-37.52,1669463853.609375
-39.65,1669463853.625
-42.59,1669463853.640625
-46.53,1669463853.65625
-51.39,1669463853.671875
-56.69,1669463853.6875
-61.59,1669463853.703125
-64.94,1669463853.71875
-65.53,1669463853.734375
-62.46,1669463853.75
-55.45,1669463853.765625
-45.1,1669463853.78125
-32.68,1669463853.796875
-19.82,1669463853.8125
-7.96,1669463853.828125
1.96,1669463853.84375
9.73,1669463853.859375
15.64,1669463853.875
20.18,1669463853.890625
23.79,1669463853.90625
26.71,1669463853.921875
28.98,1669463853.9375
30.62,1669463853.953125
31.68,1669463853.96875
32.31,1669463853.984375
32.66,1669463854.0
32.79,1669463854.015625
32.65,1669463854.03125
32.15,1669463854.046875
31.29,1669463854.0625
30.2,1669463854.078125
29.15,1669463854.09375
28.43,1669463854.109375
28.21,1669463854.125
28.46,1669463854.140625
29.01,1669463854.15625
29.56,1669463854.171875
29.83,1669463854.1875
29.63,1669463854.203125
28.88,1669463854.21875
27.67,1669463854.234375
26.17,1669463854.25
24.6,1669463854.265625
23.15,1669463854.28125
21.88,1669463854.296875
20.69,1669463854.3125
19.42,1669463854.328125
17.86,1669463854.34375
15.96,1669463854.359375
13.78,1669463854.375
11.49,1669463854.390625
9.27,1669463854.40625
7.2,1669463854.421875
5.27,1669463854.4375
3.42,1669463854.453125
1.57,1669463854.46875
-0.29,1669463854.484375
-2.16,1669463854.5
-4.05,1669463854.515625
-6.0,1669463854.53125
-8.16,1669463854.546875
-10.67,1669463854.5625
-13.62,1669463854.578125
-16.99,1669463854.59375
-20.62,1669463854.609375
-24.24,1669463854.625
-27.6,1669463854.640625
-30.55,1669463854.65625
-33.11,1669463854.671875
-35.44,1669463854.6875
-37.84,1669463854.703125
-40.64,1669463854.71875
-44.17,1669463854.734375
-48.61,1669463854.75
-53.91,1669463854.765625
-59.54,1669463854.78125
-64.5,1669463854.796875
-67.45,1669463854.8125
-67.05,1669463854.828125
-62.5,1669463854.84375
-53.81,1669463854.859375
-41.93,1669463854.875
-28.47,1669463854.890625
-15.14,1669463854.90625
-3.33,1669463854.921875
6.23,1669463854.9375
13.46,1669463854.953125
18.71,1669463854.96875
22.51,1669463854.984375
25.33,1669463855.0
27.5,1669463855.015625
29.21,1669463855.03125
30.46,1669463855.046875
31.21,1669463855.0625
31.4,1669463855.078125
31.05,1669463855.09375
30.26,1669463855.109375
29.22,1669463855.125
28.16,1669463855.140625
27.26,1669463855.15625
26.61,1669463855.171875
26.25,1669463855.1875
26.18,1669463855.203125
26.42,1669463855.21875
26.96,1669463855.234375
27.69,1669463855.25
28.42,1669463855.265625
28.86,1669463855.28125
28.76,1669463855.296875
28.02,1669463855.3125
26.73,1669463855.328125
25.13,1669463855.34375
23.53,1669463855.359375
22.1,1669463855.375
20.86,1669463855.390625
19.67,1669463855.40625
18.31,1669463855.421875
16.63,1669463855.4375
14.6,1669463855.453125
12.33,1669463855.46875
10.0,1669463855.484375
7.76,1669463855.5
5.68,1669463855.515625
3.73,1669463855.53125
1.81,1669463855.546875
-0.14,1669463855.5625
-2.13,1669463855.578125
-4.13,1669463855.59375
-6.1,1669463855.609375
-8.06,1669463855.625
-10.14,1669463855.640625
-12.44,1669463855.65625
-15.07,1669463855.671875
-17.96,1669463855.6875
-20.93,1669463855.703125
-23.67,1669463855.71875
-25.95,1669463855.734375
-27.64,1669463855.75
-28.88,1669463855.765625
-30.04,1669463855.78125
-31.64,1669463855.796875
-34.16,1669463855.8125
-37.83,1669463855.828125
-42.48,1669463855.84375
-47.52,1669463855.859375
-51.95,1669463855.875
-54.59,1669463855.890625
-54.4,1669463855.90625
-50.77,1669463855.921875
-43.74,1669463855.9375
-34.0,1669463855.953125
-22.68,1669463855.96875
-11.11,1669463855.984375
-0.4,1669463856.0
8.68,1669463856.015625
15.79,1669463856.03125
20.89,1669463856.046875
24.16,1669463856.0625
25.83,1669463856.078125
26.16,1669463856.09375
25.48,1669463856.109375
24.14,1669463856.125
22.53,1669463856.140625
20.99,1669463856.15625
19.78,1669463856.171875
19.03,1669463856.1875
18.77,1669463856.203125
18.98,1669463856.21875
19.63,1669463856.234375
20.65,1669463856.25
21.91,1669463856.265625
23.24,1669463856.28125
24.46,1669463856.296875
25.41,1669463856.3125
26.0,1669463856.328125
26.22,1669463856.34375
26.08,1669463856.359375
25.6,1669463856.375
24.8,1669463856.390625
23.62,1669463856.40625
22.05,1669463856.421875
20.12,1669463856.4375
17.94,1669463856.453125
15.69,1669463856.46875
13.57,1669463856.484375
11.7,1669463856.5
10.09,1669463856.515625
8.62,1669463856.53125
7.1,1669463856.546875
5.33,1669463856.5625
3.25,1669463856.578125
0.9,1669463856.59375
-1.58,1669463856.609375
-4.06,1669463856.625
-6.45,1669463856.640625
-8.8,1669463856.65625
-11.21,1669463856.671875
-13.82,1669463856.6875
-16.71,1669463856.703125
-19.9,1669463856.71875
-23.29,1669463856.734375
-26.72,1669463856.75
-29.97,1669463856.765625
-32.85,1669463856.78125
-35.25,1669463856.796875
-37.23,1669463856.8125
-39.06,1669463856.828125
-41.16,1669463856.84375
-43.94,1669463856.859375
-47.68,1669463856.875
-52.34,1669463856.890625
-57.41,1669463856.90625
-61.95,1669463856.921875
-64.76,1669463856.9375
-64.66,1669463856.953125
-60.85,1669463856.96875
-53.2,1669463856.984375
-42.34,1669463857.0
-29.5,1669463857.015625
-16.24,1669463857.03125
-3.99,1669463857.046875
6.29,1669463857.0625
14.19,1669463857.078125
19.82,1669463857.09375
23.64,1669463857.109375
26.14,1669463857.125
27.77,1669463857.140625
28.85,1669463857.15625
29.58,1669463857.171875
30.07,1669463857.1875
30.39,1669463857.203125
30.56,1669463857.21875
30.53,1669463857.234375
30.22,1669463857.25
29.57,1669463857.265625
28.61,1669463857.28125
27.53,1669463857.296875
26.59,1669463857.3125
26.09,1669463857.328125
26.14,1669463857.34375
26.67,1669463857.359375
27.42,1669463857.375
28.09,1669463857.390625
28.41,1669463857.40625
28.31,1669463857.421875
27.8,1669463857.4375
26.99,1669463857.453125
25.96,1669463857.46875
24.77,1669463857.484375
23.45,1669463857.5
21.97,1669463857.515625
20.36,1669463857.53125
18.65,1669463857.546875
16.88,1669463857.5625
15.11,1669463857.578125
13.4,1669463857.59375
11.76,1669463857.609375
10.13,1669463857.625
8.42,1669463857.640625
6.46,1669463857.65625
4.14,1669463857.671875
1.52,1669463857.6875
-1.21,1669463857.703125
-3.76,1669463857.71875
-5.92,1669463857.734375
-7.72,1669463857.75
-9.44,1669463857.765625
-11.48,1669463857.78125
-14.18,1669463857.796875
-17.59,1669463857.8125
-21.5,1669463857.828125
-25.48,1669463857.84375
-29.13,1669463857.859375
-32.24,1669463857.875
-34.87,1669463857.890625
-37.23,1669463857.90625
-39.65,1669463857.921875
-42.51,1669463857.9375
-46.19,1669463857.953125
-50.96,1669463857.96875
-56.82,1669463857.984375
-63.17,1669463858.0
-68.83,1669463858.015625
-72.15,1669463858.03125
-71.6,1669463858.046875
-66.31,1669463858.0625
-56.49,1669463858.078125
-43.36,1669463858.09375
-28.8,1669463858.109375
-14.63,1669463858.125
-2.19,1669463858.140625
7.89,1669463858.15625
15.62,1669463858.171875
21.34,1669463858.1875
25.47,1669463858.203125
28.4,1669463858.21875
30.43,1669463858.234375
31.85,1669463858.25
32.84,1669463858.265625
33.53,1669463858.28125
33.93,1669463858.296875
33.99,1669463858.3125
33.63,1669463858.328125
32.84,1669463858.34375
31.71,1669463858.359375
30.42,1669463858.375
29.23,1669463858.390625
