PPG GREEN,time
2135132.0,1669463780.913
2134428.0,1669463780.953
2134094.0,1669463780.993
2133525.0,1669463781.033
2132808.0,1669463781.073
2132751.0,1669463781.113
2132458.0,1669463781.153
2132157.0,1669463781.193
2132493.0,1669463781.233
2132206.0,1669463781.273
2132319.0,1669463781.313
2132550.0,1669463781.353
2132898.0,1669463781.393
2133206.0,1669463781.433
2133597.0,1669463781.473
2132460.0,1669463781.513
2130116.0,1669463781.553
2128754.0,1669463781.593
2127663.0,1669463781.633
2126801.0,1669463781.673
2126381.0,1669463781.713
2125849.0,1669463781.753
2125517.0,1669463781.793
2125193.0,1669463781.833
2124890.0,1669463781.873
2124332.0,1669463781.913
2124742.0,1669463781.953
2124789.0,1669463781.993
2124585.0,1669463782.033
2124873.0,1669463782.073
2125280.0,1669463782.113
2125951.0,1669463782.153
2126102.0,1669463782.193
2126849.0,1669463782.233
2127530.0,1669463782.273
2128219.0,1669463782.313
2127864.0,1669463782.353
2126204.0,1669463782.393
2124872.0,1669463782.433
2124010.0,1669463782.473
2122962.0,1669463782.513
2122923.0,1669463782.553
2122730.0,1669463782.593
2122614.0,1669463782.633
2122400.0,1669463782.673
2121970.0,1669463782.713
2122224.0,1669463782.753
2121763.0,1669463782.793
2121768.0,1669463782.833
2122116.0,1669463782.873
2122333.0,1669463782.913
2122763.0,1669463782.953
2122822.0,1669463782.993
2123413.0,1669463783.033
2123874.0,1669463783.073
2124627.0,1669463783.113
2125140.0,1669463783.153
2125371.0,1669463783.193
2124531.0,1669463783.233
2122759.0,1669463783.273
2121406.0,1669463783.313
2120733.0,1669463783.353
2119969.0,1669463783.393
2119413.0,1669463783.433
2119619.0,1669463783.473
2119019.0,1669463783.513
2119061.0,1669463783.553
2118715.0,1669463783.593
2118388.0,1669463783.633
2118955.0,1669463783.673
2119015.0,1669463783.713
2119318.0,1669463783.753
2119735.0,1669463783.793
2120251.0,1669463783.833
2120563.0,1669463783.873
2121340.0,1669463783.913
2121656.0,1669463783.953
2122596.0,1669463783.993
2123446.0,1669463784.033
2123738.0,1669463784.073
2123068.0,1669463784.113
2122039.0,1669463784.153
2120729.0,1669463784.193
2119891.0,1669463784.233
2118927.0,1669463784.273
2118379.0,1669463784.313
2118379.0,1669463784.353
2118456.0,1669463784.393
2118223.0,1669463784.433
2118390.0,1669463784.473
2118101.0,1669463784.513
2118734.0,1669463784.553
2118493.0,1669463784.593
2119220.0,1669463784.633
2119709.0,1669463784.673
2119949.0,1669463784.713
2120797.0,1669463784.753
2121251.0,1669463784.793
2122164.0,1669463784.833
2122985.0,1669463784.873
2123684.0,1669463784.913
2124470.0,1669463784.953
2125351.0,1669463784.993
2126310.0,1669463785.033
2127241.0,1669463785.073
2128489.0,1669463785.113
2127875.0,1669463785.153
2127328.0,1669463785.193
2126575.0,1669463785.233
2125790.0,1669463785.273
2125661.0,1669463785.313
2125328.0,1669463785.353
2125293.0,1669463785.393
2125429.0,1669463785.433
2125331.0,1669463785.473
2125276.0,1669463785.513
2125234.0,1669463785.553
2125872.0,1669463785.593
2125945.0,1669463785.633
2126339.0,1669463785.673
2127016.0,1669463785.713
2127467.0,1669463785.753
2127983.0,1669463785.793
2128418.0,1669463785.833
2129282.0,1669463785.873
2129973.0,1669463785.913
2130704.0,1669463785.953
2131515.0,1669463785.993
2132241.0,1669463786.033
2133278.0,1669463786.073
2133882.0,1669463786.113
2134757.0,1669463786.153
2135420.0,1669463786.193
2136114.0,1669463786.233
2135377.0,1669463786.273
2134425.0,1669463786.313
2133782.0,1669463786.353
2133206.0,1669463786.393
2132518.0,1669463786.433
2132332.0,1669463786.473
2132411.0,1669463786.513
2132368.0,1669463786.553
2132368.0,1669463786.593
2132094.0,1669463786.633
2132260.0,1669463786.673
2131969.0,1669463786.713
2132467.0,1669463786.753
2132495.0,1669463786.793
2132857.0,1669463786.833
2133041.0,1669463786.873
2133618.0,1669463786.913
2134448.0,1669463786.953
2134963.0,1669463786.993
2136040.0,1669463787.033
2136522.0,1669463787.073
2137028.0,1669463787.113
2137411.0,1669463787.153
2137916.0,1669463787.193
2138959.0,1669463787.233
2139269.0,1669463787.273
2139930.0,1669463787.313
2139712.0,1669463787.353
2138463.0,1669463787.393
2136957.0,1669463787.433
2136152.0,1669463787.473
2135090.0,1669463787.513
2134452.0,1669463787.553
2134105.0,1669463787.593
2133732.0,1669463787.633
2133147.0,1669463787.673
2132654.0,1669463787.713
2132223.0,1669463787.753
2132003.0,1669463787.793
2131510.0,1669463787.833
2131700.0,1669463787.873
2131727.0,1669463787.913
2131632.0,1669463787.953
2131934.0,1669463787.993
2132011.0,1669463788.033
2132189.0,1669463788.073
2132481.0,1669463788.153
2132132.0,1669463788.113
2132629.0,1669463788.193
2133674.0,1669463788.273
2134446.0,1669463788.353
2133903.0,1669463788.393
2132420.0,1669463788.433
2133754.0,1669463788.313
2133053.0,1669463788.233
2130230.0,1669463788.473
2128403.0,1669463788.513
2126789.0,1669463788.553
2124108.0,1669463788.633
2123068.0,1669463788.673
2122081.0,1669463788.713
2121016.0,1669463788.753
2125076.0,1669463788.593
2119970.0,1669463788.793
2118920.0,1669463788.833
2118299.0,1669463788.873
2117814.0,1669463788.913
2116946.0,1669463788.953
2116727.0,1669463788.993
2116530.0,1669463789.033
2116136.0,1669463789.073
2115901.0,1669463789.113
2115861.0,1669463789.193
2115982.0,1669463789.153
2115924.0,1669463789.233
2116115.0,1669463789.273
2116009.0,1669463789.313
2116689.0,1669463789.353
2116578.0,1669463789.393
2117166.0,1669463789.433
2116396.0,1669463789.473
2114705.0,1669463789.513
2111526.0,1669463789.553
2109394.0,1669463789.596
2106840.0,1669463789.635
2105187.0,1669463789.675
2103176.0,1669463789.717
2101856.0,1669463789.755
2100571.0,1669463789.795
2099388.0,1669463789.836
2097995.0,1669463789.875
2096796.0,1669463789.916
2095864.0,1669463789.957
2094767.0,1669463789.996
2093491.0,1669463790.077
2094109.0,1669463790.036
2093247.0,1669463790.117
2092678.0,1669463790.156
2092412.0,1669463790.197
2092297.0,1669463790.236
2091935.0,1669463790.276
2092292.0,1669463790.318
2091980.0,1669463790.396
2092100.0,1669463790.356
2092194.0,1669463790.437
2092363.0,1669463790.477
2092792.0,1669463790.517
2092425.0,1669463790.558
2090767.0,1669463790.597
2087454.0,1669463790.637
2085048.0,1669463790.678
2082258.0,1669463790.718
2080508.0,1669463790.757
2078483.0,1669463790.798
2076856.0,1669463790.837
2075400.0,1669463790.877
2074463.0,1669463790.919
2072680.0,1669463790.958
2071473.0,1669463790.998
2070520.0,1669463791.039
2069377.0,1669463791.078
2068698.0,1669463791.119
2068097.0,1669463791.159
2067575.0,1669463791.198
2067226.0,1669463791.238
2066926.0,1669463791.279
2066598.0,1669463791.319
2066577.0,1669463791.359
2066498.0,1669463791.4
2066208.0,1669463791.439
2066524.0,1669463791.479
2066541.0,1669463791.521
2063927.0,1669463791.679
2066884.0,1669463791.559
2066285.0,1669463791.64
2066798.0,1669463791.599
2060944.0,1669463791.72
2056326.0,1669463791.799
2058529.0,1669463791.76
2054559.0,1669463791.84
2053483.0,1669463791.881
2052344.0,1669463791.92
2051327.0,1669463791.96
2046139.0,1669463792.16
2045823.0,1669463792.2
2046880.0,1669463792.122
2045126.0,1669463792.321
2045035.0,1669463792.362
2044855.0,1669463792.401
2045255.0,1669463792.441
2045443.0,1669463792.482
2045491.0,1669463792.522
2045476.0,1669463792.281
2045914.0,1669463792.561
2045366.0,1669463792.242
2048858.0,1669463792.04
2046679.0,1669463792.641
2047675.0,1669463792.08
2046091.0,1669463792.602
2049766.0,1669463792.001
2045844.0,1669463792.681
2043311.0,1669463792.723
2040494.0,1669463792.761
2037641.0,1669463792.802
2035822.0,1669463792.843
2034114.0,1669463792.882
2032218.0,1669463792.923
2031184.0,1669463792.963
2030152.0,1669463793.002
2029117.0,1669463793.042
2028001.0,1669463793.083
2026863.0,1669463793.123
2026312.0,1669463793.162
2025758.0,1669463793.204
2025312.0,1669463793.243
2025247.0,1669463793.283
2024775.0,1669463793.325
2025004.0,1669463793.363
2024979.0,1669463793.403
2024963.0,1669463793.444
2025362.0,1669463793.483
2025710.0,1669463793.524
2026468.0,1669463793.565
2026913.0,1669463793.604
2027331.0,1669463793.644
2028246.0,1669463793.685
2028537.0,1669463793.725
2027844.0,1669463793.764
2025288.0,1669463793.805
2022466.0,1669463793.844
2020621.0,1669463793.884
2018604.0,1669463793.926
2016987.0,1669463793.965
2015298.0,1669463794.005
2014760.0,1669463794.046
2013721.0,1669463794.085
2012726.0,1669463794.126
2011955.0,1669463794.166
2011712.0,1669463794.205
2010961.0,1669463794.245
2010900.0,1669463794.287
2010691.0,1669463794.326
2010762.0,1669463794.366
2011242.0,1669463794.407
2011103.0,1669463794.446
2011600.0,1669463794.486
2012242.0,1669463794.529
2012711.0,1669463794.559
2013258.0,1669463794.599
2013971.0,1669463794.639
2014835.0,1669463794.678
2015519.0,1669463794.719
2016339.0,1669463794.76
2017438.0,1669463794.799
2018245.0,1669463794.839
2016601.0,1669463794.88
2014321.0,1669463794.92
2012473.0,1669463794.958
2010807.0,1669463794.999
2009657.0,1669463795.038
2008509.0,1669463795.078
2007847.0,1669463795.119
2007502.0,1669463795.158
2006778.0,1669463795.198
2006395.0,1669463795.239
2005850.0,1669463795.278
2005452.0,1669463795.319
2005602.0,1669463795.359
2005565.0,1669463795.398
2006204.0,1669463795.438
2006261.0,1669463795.479
2006589.0,1669463795.519
2007272.0,1669463795.559
2007972.0,1669463795.6
2008795.0,1669463795.639
2009556.0,1669463795.679
2010244.0,1669463795.721
2011271.0,1669463795.756
2012186.0,1669463795.796
2013193.0,1669463795.837
2014232.0,1669463795.877
2015260.0,1669463795.918
2014782.0,1669463795.959
2012745.0,1669463795.998
2010775.0,1669463796.038
2009650.0,1669463796.08
2008564.0,1669463796.12
2008259.0,1669463796.159
2007909.0,1669463796.201
2007865.0,1669463796.24
2007468.0,1669463796.279
2007024.0,1669463796.321
2006773.0,1669463796.359
2007041.0,1669463796.399
2006830.0,1669463796.44
2007330.0,1669463796.48
2007470.0,1669463796.52
2007948.0,1669463796.561
2008822.0,1669463796.6
2009170.0,1669463796.64
2010191.0,1669463796.681
2010623.0,1669463796.721
2011896.0,1669463796.76
2012343.0,1669463796.801
2013508.0,1669463796.84
2014228.0,1669463796.88
2015492.0,1669463796.922
2016259.0,1669463796.96
2016619.0,1669463797.0
2014549.0,1669463797.041
2012065.0,1669463797.08
2010618.0,1669463797.119
2009113.0,1669463797.16
2007639.0,1669463797.199
2007384.0,1669463797.239
2006556.0,1669463797.281
2005849.0,1669463797.321
2005743.0,1669463797.36
2004964.0,1669463797.402
2004703.0,1669463797.441
2004675.0,1669463797.479
2004533.0,1669463797.514
2004706.0,1669463797.553
2005030.0,1669463797.593
2005247.0,1669463797.634
2005700.0,1669463797.673
2006160.0,1669463797.714
2006951.0,1669463797.754
2007680.0,1669463797.793
2007963.0,1669463797.834
2009008.0,1669463797.875
2009867.0,1669463797.914
2010641.0,1669463797.954
2011629.0,1669463797.995
2012591.0,1669463798.034
2012681.0,1669463798.074
2010566.0,1669463798.116
2007646.0,1669463798.154
2005602.0,1669463798.194
2003332.0,1669463798.235
2002056.0,1669463798.269
2000560.0,1669463798.303
1999417.0,1669463798.342
1998725.0,1669463798.379
1997800.0,1669463798.419
1996827.0,1669463798.46
1995954.0,1669463798.5
1995843.0,1669463798.54
1995075.0,1669463798.581
1994830.0,1669463798.62
1995174.0,1669463798.66
1995277.0,1669463798.702
1995113.0,1669463798.742
1995443.0,1669463798.782
1996130.0,1669463798.823
1996098.0,1669463798.862
1996728.0,1669463798.903
1997241.0,1669463798.943
1997747.0,1669463798.982
1998366.0,1669463799.023
1999339.0,1669463799.064
1999791.0,1669463799.103
2000714.0,1669463799.143
2000225.0,1669463799.184
1997071.0,1669463799.223
1993786.0,1669463799.263
1991070.0,1669463799.305
1988565.0,1669463799.343
1986551.0,1669463799.383
1984953.0,1669463799.424
1983755.0,1669463799.461
1982681.0,1669463799.5
1981231.0,1669463799.54
1979871.0,1669463799.58
1978801.0,1669463799.62
1977817.0,1669463799.661
1977089.0,1669463799.701
1976844.0,1669463799.741
1976104.0,1669463799.782
1975901.0,1669463799.821
1976005.0,1669463799.859
1975960.0,1669463799.901
1975986.0,1669463799.94
1976392.0,1669463799.971
1976375.0,1669463800.012
1976872.0,1669463800.051
1977266.0,1669463800.092
1977521.0,1669463800.132
1977945.0,1669463800.171
1978715.0,1669463800.211
1978053.0,1669463800.252
1974500.0,1669463800.292
1970391.0,1669463800.331
1966913.0,1669463800.373
1964784.0,1669463800.412
1962658.0,1669463800.452
1960800.0,1669463800.494
1959809.0,1669463800.532
1958219.0,1669463800.572
1956446.0,1669463800.613
1955253.0,1669463800.652
1953975.0,1669463800.691
1952808.0,1669463800.732
1952290.0,1669463800.764
1951649.0,1669463800.803
1951109.0,1669463800.842
1951105.0,1669463800.881
1950924.0,1669463800.92
1950967.0,1669463800.961
1951160.0,1669463801.001
1951271.0,1669463801.041
1951739.0,1669463801.083
1952240.0,1669463801.122
1952636.0,1669463801.162
1952942.0,1669463801.203
1953931.0,1669463801.242
1954477.0,1669463801.285
1953543.0,1669463801.322
1948901.0,1669463801.361
1943778.0,1669463801.402
1939382.0,1669463801.443
1935830.0,1669463801.482
1932342.0,1669463801.522
1930009.0,1669463801.611
1927908.0,1669463801.65
1925919.0,1669463801.69
1923990.0,1669463801.732
1921812.0,1669463801.77
1919727.0,1669463801.81
1918507.0,1669463801.851
1917378.0,1669463801.89
1916481.0,1669463801.931
1916156.0,1669463801.972
1915767.0,1669463802.011
1915506.0,1669463802.051
1915278.0,1669463802.09
1915466.0,1669463802.13
1915388.0,1669463802.17
1915832.0,1669463802.211
1916376.0,1669463802.25
1916826.0,1669463802.29
1917444.0,1669463802.333
1918028.0,1669463802.371
1918785.0,1669463802.411
1919509.0,1669463802.45
1916672.0,1669463802.489
1911414.0,1669463802.53
1905796.0,1669463802.571
1901573.0,1669463802.61
1898064.0,1669463802.642
1898064.0,1669463802.684
1895161.0,1669463802.723
1892723.0,1669463802.763
1891018.0,1669463802.804
1889161.0,1669463802.843
1887340.0,1669463802.883
1885633.0,1669463802.925
1884098.0,1669463802.963
1883299.0,1669463803.003
1882472.0,1669463803.045
1882314.0,1669463803.084
1882282.0,1669463803.124
1882167.0,1669463803.165
1882434.0,1669463803.204
1882983.0,1669463803.244
1883150.0,1669463803.285
1884161.0,1669463803.325
1884689.0,1669463803.363
1885720.0,1669463803.399
1886935.0,1669463803.431
1887919.0,1669463803.468
1889198.0,1669463803.511
1890461.0,1669463803.549
1891083.0,1669463803.589
1888088.0,1669463803.63
1882954.0,1669463803.669
1878950.0,1669463803.71
1876047.0,1669463803.75
1873912.0,1669463803.79
1872584.0,1669463803.827
1871475.0,1669463803.868
1870729.0,1669463803.908
1869804.0,1669463803.947
1868861.0,1669463803.988
1868305.0,1669463804.027
1867756.0,1669463804.067
1868096.0,1669463804.109
1868129.0,1669463804.148
1868707.0,1669463804.188
1869390.0,1669463804.229
1871430.0,1669463804.309
1870266.0,1669463804.268
1872399.0,1669463804.349
1873771.0,1669463804.388
1875252.0,1669463804.428
1876565.0,1669463804.469
1878236.0,1669463804.509
1879707.0,1669463804.549
1883482.0,1669463804.629
1881510.0,1669463804.591
1883404.0,1669463804.669
1879763.0,1669463804.711
1876157.0,1669463804.751
1873930.0,1669463804.791
1872644.0,1669463804.832
1871610.0,1669463804.871
1871595.0,1669463804.912
1871450.0,1669463804.952
1871718.0,1669463804.991
1871400.0,1669463805.031
1871518.0,1669463805.072
1872166.0,1669463805.112
1872460.0,1669463805.152
1873855.0,1669463805.193
1874938.0,1669463805.232
1876033.0,1669463805.272
1877767.0,1669463805.314
1879536.0,1669463805.352
1881325.0,1669463805.392
1883122.0,1669463805.433
1885165.0,1669463805.472
1887243.0,1669463805.513
1889398.0,1669463805.553
1891548.0,1669463805.592
1893923.0,1669463805.633
1896102.0,1669463805.674
1898677.0,1669463805.711
1899996.0,1669463805.75
1898154.0,1669463805.792
1895101.0,1669463805.832
1893329.0,1669463805.871
1892437.0,1669463805.913
1891650.0,1669463805.952
1891362.0,1669463805.992
1891672.0,1669463806.031
1892270.0,1669463806.07
1892919.0,1669463806.11
1892870.0,1669463806.151
1893758.0,1669463806.19
1894263.0,1669463806.23
1895482.0,1669463806.266
1897041.0,1669463806.306
1898614.0,1669463806.345
1900239.0,1669463806.387
1902032.0,1669463806.426
1903885.0,1669463806.466
1905690.0,1669463806.507
1907798.0,1669463806.546
1909818.0,1669463806.586
1911771.0,1669463806.627
1914209.0,1669463806.666
1916475.0,1669463806.707
1918480.0,1669463806.748
1921209.0,1669463806.787
1923364.0,1669463806.827
1924687.0,1669463806.868
1923299.0,1669463806.908
1921075.0,1669463806.947
1919439.0,1669463806.984
1918806.0,1669463807.023
1918675.0,1669463807.057
1918706.0,1669463807.095
1919453.0,1669463807.131
1920028.0,1669463807.172
1920489.0,1669463807.213
1921097.0,1669463807.252
1921648.0,1669463807.293
1922739.0,1669463807.334
1923772.0,1669463807.373
1925146.0,1669463807.413
1926706.0,1669463807.455
1928703.0,1669463807.491
1928703.0,1669463807.528
1930043.0,1669463807.569
1931923.0,1669463807.608
1933810.0,1669463807.648
1935446.0,1669463807.69
1937683.0,1669463807.729
1939649.0,1669463807.769
1941814.0,1669463807.81
1943534.0,1669463807.849
1945917.0,1669463807.89
1947668.0,1669463807.93
1949980.0,1669463807.969
1950069.0,1669463808.009
1948353.0,1669463808.05
1946632.0,1669463808.09
1946480.0,1669463808.13
1946752.0,1669463808.171
1946833.0,1669463808.21
1947843.0,1669463808.251
1948826.0,1669463808.293
1949612.0,1669463808.332
1949895.0,1669463808.372
1950638.0,1669463808.413
1951722.0,1669463808.452
1953095.0,1669463808.493
1954475.0,1669463808.534
1955674.0,1669463808.573
1957131.0,1669463808.61
1958990.0,1669463808.651
1960434.0,1669463808.692
1962326.0,1669463808.722
1964026.0,1669463808.764
1965819.0,1669463808.803
1967915.0,1669463808.843
1969875.0,1669463808.885
1971576.0,1669463808.923
1973749.0,1669463808.963
1975423.0,1669463809.004
1977308.0,1669463809.043
1976645.0,1669463809.084
1974346.0,1669463809.124
1972651.0,1669463809.164
1971667.0,1669463809.204
1971207.0,1669463809.245
1970970.0,1669463809.285
1971447.0,1669463809.324
1971878.0,1669463809.365
1972062.0,1669463809.404
1972425.0,1669463809.44
1972607.0,1669463809.482
1973188.0,1669463809.514
1974160.0,1669463809.552
1974757.0,1669463809.593
1976232.0,1669463809.632
1977268.0,1669463809.673
1978313.0,1669463809.713
1979911.0,1669463809.752
1981275.0,1669463809.794
1982780.0,1669463809.834
1984205.0,1669463809.874
1985687.0,1669463809.914
1987368.0,1669463809.953
1988918.0,1669463809.992
1990786.0,1669463810.032
1992402.0,1669463810.074
1994006.0,1669463810.113
1994284.0,1669463810.153
1991993.0,1669463810.194
1989730.0,1669463810.233
1988079.0,1669463810.274
1987056.0,1669463810.314
1986444.0,1669463810.353
1986090.0,1669463810.393
1985867.0,1669463810.434
1986211.0,1669463810.474
1986091.0,1669463810.513
1986012.0,1669463810.554
1986333.0,1669463810.594
1986332.0,1669463810.634
1986956.0,1669463810.675
1987653.0,1669463810.714
1988497.0,1669463810.754
1989272.0,1669463810.796
1990158.0,1669463810.832
1991222.0,1669463810.873
1992374.0,1669463810.914
1993534.0,1669463810.953
1995040.0,1669463810.993
1996281.0,1669463811.035
1997291.0,1669463811.075
1998930.0,1669463811.114
2000105.0,1669463811.155
2001852.0,1669463811.192
2002713.0,1669463811.233
2000810.0,1669463811.274
1998066.0,1669463811.313
1996119.0,1669463811.353
1995023.0,1669463811.394
1994185.0,1669463811.433
1993391.0,1669463811.474
1993407.0,1669463811.514
1993144.0,1669463811.553
1992885.0,1669463811.593
1992559.0,1669463811.634
1992227.0,1669463811.674
1992320.0,1669463811.713
1992305.0,1669463811.754
1992507.0,1669463811.793
1993153.0,1669463811.834
1993410.0,1669463811.875
1994087.0,1669463811.914
1994633.0,1669463811.954
1995389.0,1669463811.995
1996408.0,1669463812.035
1996802.0,1669463812.076
1997805.0,1669463812.114
1998871.0,1669463812.153
2000031.0,1669463812.193
2000743.0,1669463812.235
2001348.0,1669463812.275
1999743.0,1669463812.314
1996126.0,1669463812.355
1993523.0,1669463812.392
1991604.0,1669463812.429
1990113.0,1669463812.471
1989388.0,1669463812.51
1988128.0,1669463812.55
1987821.0,1669463812.591
1987112.0,1669463812.63
1985982.0,1669463812.671
1985271.0,1669463812.711
1984818.0,1669463812.75
1984685.0,1669463812.79
1984505.0,1669463812.832
1984404.0,1669463812.871
1984804.0,1669463812.911
1985426.0,1669463812.991
1984987.0,1669463812.952
1985942.0,1669463813.031
1986974.0,1669463813.112
1986248.0,1669463813.073
1988461.0,1669463813.193
1987861.0,1669463813.152
1989302.0,1669463813.232
1990263.0,1669463813.273
1990688.0,1669463813.314
1984730.0,1669463813.394
1988926.0,1669463813.353
1980790.0,1669463813.435
1975458.0,1669463813.514
1977974.0,1669463813.474
1973208.0,1669463813.558
1972043.0,1669463813.597
1970566.0,1669463813.637
1969570.0,1669463813.679
1968251.0,1669463813.717
1966981.0,1669463813.757
1966334.0,1669463813.798
1965332.0,1669463813.837
1965054.0,1669463813.878
1964989.0,1669463813.919
1964860.0,1669463813.958
1964985.0,1669463813.998
1965403.0,1669463814.039
1965570.0,1669463814.078
1966047.0,1669463814.118
1966830.0,1669463814.159
1967264.0,1669463814.198
1967835.0,1669463814.238
1968851.0,1669463814.28
1969670.0,1669463814.318
1970458.0,1669463814.358
1970919.0,1669463814.4
1968677.0,1669463814.438
1965020.0,1669463814.479
1961689.0,1669463814.52
1958724.0,1669463814.559
1956730.0,1669463814.599
1954601.0,1669463814.638
1953379.0,1669463814.678
1952466.0,1669463814.718
1951901.0,1669463814.759
1950802.0,1669463814.799
1949714.0,1669463814.839
1948945.0,1669463814.873
1948779.0,1669463814.911
1948486.0,1669463814.951
1948867.0,1669463814.992
1949128.0,1669463815.032
1949282.0,1669463815.072
1949661.0,1669463815.113
1950416.0,1669463815.152
1950843.0,1669463815.192
1951554.0,1669463815.233
1952830.0,1669463815.273
1953649.0,1669463815.312
1954700.0,1669463815.353
1955931.0,1669463815.392
1956803.0,1669463815.432
1956907.0,1669463815.474
1954647.0,1669463815.513
1951582.0,1669463815.553
1949256.0,1669463815.595
1947977.0,1669463815.631
1946829.0,1669463815.672
1946102.0,1669463815.708
1945965.0,1669463815.747
1945394.0,1669463815.781
1944963.0,1669463815.82
1944511.0,1669463815.86
1944122.0,1669463815.899
1944330.0,1669463815.941
1944384.0,1669463815.979
1945080.0,1669463816.02
1945239.0,1669463816.062
1945886.0,1669463816.1
1946888.0,1669463816.14
1948682.0,1669463816.22
1947636.0,1669463816.181
1949494.0,1669463816.261
1950736.0,1669463816.301
1951837.0,1669463816.34
1953225.0,1669463816.38
1954557.0,1669463816.421
1955846.0,1669463816.461
1954858.0,1669463816.5
1952006.0,1669463816.542
1949241.0,1669463816.581
1946967.0,1669463816.621
1945387.0,1669463816.662
1944047.0,1669463816.701
1943468.0,1669463816.741
1942816.0,1669463816.782
1942753.0,1669463816.821
1941790.0,1669463816.86
1941520.0,1669463816.901
1941141.0,1669463816.94
1941109.0,1669463816.98
1941636.0,1669463817.021
1941961.0,1669463817.061
1942754.0,1669463817.101
1943450.0,1669463817.142
1944343.0,1669463817.181
1945199.0,1669463817.219
1946275.0,1669463817.261
1947503.0,1669463817.3
1948489.0,1669463817.331
1948489.0,1669463817.372
1950070.0,1669463817.411
1951296.0,1669463817.452
1952425.0,1669463817.493
1953520.0,1669463817.532
1955016.0,1669463817.572
1954228.0,1669463817.613
1951058.0,1669463817.653
1948269.0,1669463817.692
1945738.0,1669463817.733
1944228.0,1669463817.772
1942568.0,1669463817.812
1941880.0,1669463817.854
1941425.0,1669463817.893
1941170.0,1669463817.933
1940572.0,1669463817.974
1940015.0,1669463818.013
1940111.0,1669463818.051
1940392.0,1669463818.085
1940242.0,1669463818.124
1941151.0,1669463818.161
1941610.0,1669463818.2
1942636.0,1669463818.24
1943347.0,1669463818.279
1944341.0,1669463818.321
1945648.0,1669463818.36
1946539.0,1669463818.4
1948032.0,1669463818.44
1949338.0,1669463818.475
1950823.0,1669463818.515
1952309.0,1669463818.556
1953891.0,1669463818.595
1955494.0,1669463818.636
1956563.0,1669463818.677
1955073.0,1669463818.716
1952252.0,1669463818.756
1950250.0,1669463818.797
1948589.0,1669463818.837
1947913.0,1669463818.876
1947077.0,1669463818.917
1947272.0,1669463818.956
1947100.0,1669463818.996
1947262.0,1669463819.038
1947229.0,1669463819.077
1947493.0,1669463819.117
1947767.0,1669463819.158
1948157.0,1669463819.197
1949156.0,1669463819.238
1950047.0,1669463819.279
1951198.0,1669463819.318
1952293.0,1669463819.358
1953663.0,1669463819.4
1955100.0,1669463819.44
1956239.0,1669463819.48
1958090.0,1669463819.521
1959540.0,1669463819.56
1961272.0,1669463819.6
1963032.0,1669463819.642
1964941.0,1669463819.68
1966476.0,1669463819.717
1967880.0,1669463819.759
1967243.0,1669463819.798
1964759.0,1669463819.838
1963190.0,1669463819.879
1962369.0,1669463819.918
1961836.0,1669463819.958
1961493.0,1669463819.999
1961985.0,1669463820.039
1962171.0,1669463820.079
1962972.0,1669463820.12
1962949.0,1669463820.159
1963511.0,1669463820.199
1964310.0,1669463820.24
1965012.0,1669463820.279
1966080.0,1669463820.319
1967481.0,1669463820.36
1968769.0,1669463820.4
1970001.0,1669463820.441
1971580.0,1669463820.481
1973325.0,1669463820.52
1974606.0,1669463820.56
1976479.0,1669463820.601
1978366.0,1669463820.641
1980077.0,1669463820.681
1981637.0,1669463820.722
1983512.0,1669463820.762
1985304.0,1669463820.802
1987514.0,1669463820.843
1988131.0,1669463820.882
1986610.0,1669463820.914
1984571.0,1669463820.955
1982962.0,1669463820.994
1982615.0,1669463821.035
1981948.0,1669463821.075
1981515.0,1669463821.114
1982005.0,1669463821.155
1982198.0,1669463821.196
1982608.0,1669463821.235
1982854.0,1669463821.275
1983037.0,1669463821.316
1983817.0,1669463821.355
1984307.0,1669463821.395
1985696.0,1669463821.437
1986579.0,1669463821.475
1987680.0,1669463821.515
1988959.0,1669463821.556
1990171.0,1669463821.595
1991315.0,1669463821.637
1993018.0,1669463821.675
1994487.0,1669463821.709
1996182.0,1669463821.75
1997456.0,1669463821.784
1999066.0,1669463821.822
2000347.0,1669463821.862
2001911.0,1669463821.903
2003424.0,1669463821.942
2002666.0,1669463821.982
2000302.0,1669463822.023
1998162.0,1669463822.062
1997012.0,1669463822.102
1996041.0,1669463822.143
1995605.0,1669463822.182
1995706.0,1669463822.223
1995736.0,1669463822.263
1995604.0,1669463822.302
1995298.0,1669463822.342
1995327.0,1669463822.383
1995083.0,1669463822.423
1995360.0,1669463822.462
1995510.0,1669463822.504
1995864.0,1669463822.543
1996657.0,1669463822.583
1997248.0,1669463822.624
1997887.0,1669463822.663
1998643.0,1669463822.704
1999500.0,1669463822.745
2000304.0,1669463822.782
2001353.0,1669463822.823
2002334.0,1669463822.864
2003092.0,1669463822.903
2004500.0,1669463822.943
2004371.0,1669463822.984
2001815.0,1669463823.024
1998750.0,1669463823.063
1996029.0,1669463823.104
1994294.0,1669463823.143
1992716.0,1669463823.183
1991683.0,1669463823.225
1991169.0,1669463823.263
1990369.0,1669463823.303
1989429.0,1669463823.344
1988349.0,1669463823.383
1987676.0,1669463823.424
1987388.0,1669463823.465
1987224.0,1669463823.504
1986885.0,1669463823.544
1987166.0,1669463823.585
1987223.0,1669463823.624
1987438.0,1669463823.664
1987749.0,1669463823.705
1988404.0,1669463823.744
1988657.0,1669463823.782
1989458.0,1669463823.825
1989971.0,1669463823.863
1990568.0,1669463823.902
1991368.0,1669463823.947
1992178.0,1669463823.981
1991249.0,1669463824.023
1987572.0,1669463824.064
1983570.0,1669463824.103
1980715.0,1669463824.143
1977695.0,1669463824.184
1975339.0,1669463824.224
1973335.0,1669463824.264
1971957.0,1669463824.295
1971957.0,1669463824.334
1970653.0,1669463824.374
1969149.0,1669463824.416
1968032.0,1669463824.454
1966623.0,1669463824.495
1966124.0,1669463824.536
1965522.0,1669463824.575
1964953.0,1669463824.616
1965112.0,1669463824.656
1964870.0,1669463824.695
1965166.0,1669463824.735
1965242.0,1669463824.776
1965797.0,1669463824.816
1966084.0,1669463824.855
1967004.0,1669463824.897
1967670.0,1669463824.936
1968580.0,1669463824.976
1969235.0,1669463825.013
1970510.0,1669463825.045
1970956.0,1669463825.082
1969646.0,1669463825.124
1966542.0,1669463825.162
1963161.0,1669463825.203
1960713.0,1669463825.244
1958543.0,1669463825.283
1957188.0,1669463825.323
1955975.0,1669463825.364
1955228.0,1669463825.404
1954436.0,1669463825.444
1953704.0,1669463825.481
1952903.0,1669463825.52
1952559.0,1669463825.56
1952420.0,1669463825.602
1952662.0,1669463825.64
1952918.0,1669463825.68
1953556.0,1669463825.721
1954357.0,1669463825.76
1954886.0,1669463825.801
1955901.0,1669463825.841
1956732.0,1669463825.88
1957857.0,1669463825.92
1958779.0,1669463825.962
1960079.0,1669463826.001
1961226.0,1669463826.041
1962815.0,1669463826.082
1964345.0,1669463826.121
1965503.0,1669463826.161
1964521.0,1669463826.203
1962368.0,1669463826.241
1960981.0,1669463826.281
1960122.0,1669463826.322
1959826.0,1669463826.361
1959941.0,1669463826.402
1960388.0,1669463826.442
1960742.0,1669463826.481
1960787.0,1669463826.518
1961179.0,1669463826.56
1961624.0,1669463826.6
1962543.0,1669463826.639
1963794.0,1669463826.68
1964803.0,1669463826.72
1966169.0,1669463826.756
1967572.0,1669463826.798
1968904.0,1669463826.836
1970771.0,1669463826.876
1972219.0,1669463826.917
1973983.0,1669463826.956
1975509.0,1669463826.997
1977637.0,1669463827.037
1979313.0,1669463827.077
1981252.0,1669463827.117
1983406.0,1669463827.158
1984860.0,1669463827.198
1984874.0,1669463827.237
1983746.0,1669463827.278
1982569.0,1669463827.317
1982271.0,1669463827.357
1982335.0,1669463827.399
1982192.0,1669463827.438
1982645.0,1669463827.478
1983482.0,1669463827.52
1984462.0,1669463827.558
1985177.0,1669463827.6
1985835.0,1669463827.641
1987012.0,1669463827.68
1987963.0,1669463827.719
1989642.0,1669463827.761
1990888.0,1669463827.801
1992592.0,1669463827.84
1994226.0,1669463827.881
1995744.0,1669463827.921
1997704.0,1669463827.959
1999584.0,1669463827.996
2001241.0,1669463828.035
2003349.0,1669463828.075
2005011.0,1669463828.116
2006881.0,1669463828.155
2009032.0,1669463828.196
2010728.0,1669463828.236
2012834.0,1669463828.275
2013753.0,1669463828.315
2012698.0,1669463828.356
2012011.0,1669463828.396
2011876.0,1669463828.436
2011867.0,1669463828.477
2011973.0,1669463828.516
2012276.0,1669463828.556
2013197.0,1669463828.598
2014019.0,1669463828.636
2014653.0,1669463828.676
2015401.0,1669463828.718
2016314.0,1669463828.757
2017471.0,1669463828.798
2018372.0,1669463828.839
2019656.0,1669463828.878
2021289.0,1669463828.919
2022573.0,1669463828.961
2023886.0,1669463829.001
2025430.0,1669463829.04
2026897.0,1669463829.081
2028617.0,1669463829.12
2030297.0,1669463829.16
2031619.0,1669463829.202
2033139.0,1669463829.24
2035117.0,1669463829.28
2036669.0,1669463829.321
2038378.0,1669463829.361
2040086.0,1669463829.401
2040063.0,1669463829.442
2038448.0,1669463829.481
2037736.0,1669463829.521
2037029.0,1669463829.562
2037325.0,1669463829.602
2037322.0,1669463829.641
2037569.0,1669463829.682
2037949.0,1669463829.721
2038407.0,1669463829.761
2038553.0,1669463829.803
2038799.0,1669463829.841
2039519.0,1669463829.881
2039794.0,1669463829.923
2040459.0,1669463829.962
2041280.0,1669463830.003
2042124.0,1669463830.043
2042901.0,1669463830.083
2043994.0,1669463830.121
2045078.0,1669463830.162
2046225.0,1669463830.202
2046864.0,1669463830.241
2048241.0,1669463830.283
2049606.0,1669463830.322
2050594.0,1669463830.362
2051622.0,1669463830.404
2052876.0,1669463830.442
2051864.0,1669463830.482
2049638.0,1669463830.524
2047838.0,1669463830.563
2046176.0,1669463830.603
2045250.0,1669463830.644
2044485.0,1669463830.683
2044371.0,1669463830.723
2044186.0,1669463830.764
2043700.0,1669463830.804
2042987.0,1669463830.843
2042552.0,1669463830.884
2042647.0,1669463830.923
2042202.0,1669463830.963
2042455.0,1669463831.005
2042860.0,1669463831.043
2042963.0,1669463831.083
2043599.0,1669463831.125
2043796.0,1669463831.163
2044455.0,1669463831.202
2045070.0,1669463831.242
2045598.0,1669463831.282
2046451.0,1669463831.322
2047203.0,1669463831.363
2047706.0,1669463831.403
2048417.0,1669463831.443
2049304.0,1669463831.484
2048649.0,1669463831.521
2046022.0,1669463831.561
2042602.0,1669463831.603
2039729.0,1669463831.641
2037726.0,1669463831.681
2035485.0,1669463831.722
2033760.0,1669463831.761
2032642.0,1669463831.802
2031397.0,1669463831.842
2029788.0,1669463831.881
2028914.0,1669463831.922
2027490.0,1669463831.963
2026721.0,1669463832.002
2025811.0,1669463832.042
2025278.0,1669463832.083
2024785.0,1669463832.122
2024668.0,1669463832.162
2024562.0,1669463832.204
2024410.0,1669463832.242
2024240.0,1669463832.282
2024604.0,1669463832.323
2025029.0,1669463832.362
2024894.0,1669463832.403
2025408.0,1669463832.443
2025773.0,1669463832.482
2026455.0,1669463832.523
2026857.0,1669463832.564
2025699.0,1669463832.604
2021985.0,1669463832.643
2017519.0,1669463832.685
2014203.0,1669463832.724
2008540.0,1669463832.804
2011006.0,1669463832.762
2006516.0,1669463832.842
2004804.0,1669463832.883
2003188.0,1669463832.918
2001902.0,1669463832.957
1999893.0,1669463832.998
1998669.0,1669463833.038
1997540.0,1669463833.077
1996612.0,1669463833.117
1995827.0,1669463833.158
1995593.0,1669463833.198
1995104.0,1669463833.238
1994859.0,1669463833.279
1994807.0,1669463833.318
1994863.0,1669463833.358
1995184.0,1669463833.4
1995307.0,1669463833.438
1995833.0,1669463833.478
1996202.0,1669463833.519
1996654.0,1669463833.558
1997078.0,1669463833.6
1997717.0,1669463833.639
1995928.0,1669463833.675
1991687.0,1669463833.715
1988280.0,1669463833.75
1985653.0,1669463833.79
1983832.0,1669463833.825
1982323.0,1669463833.864
1981601.0,1669463833.903
1980508.0,1669463833.943
1979392.0,1669463833.986
1978552.0,1669463834.024
1977569.0,1669463834.064
1976988.0,1669463834.105
1976988.0,1669463834.138
1976772.0,1669463834.178
1976492.0,1669463834.219
1976791.0,1669463834.258
1976884.0,1669463834.298
1977010.0,1669463834.339
1977839.0,1669463834.379
1978316.0,1669463834.419
1978816.0,1669463834.46
1979863.0,1669463834.499
1980697.0,1669463834.539
1981755.0,1669463834.581
1982659.0,1669463834.619
1983467.0,1669463834.659
1984504.0,1669463834.7
1982224.0,1669463834.739
1978543.0,1669463834.78
1975359.0,1669463834.814
1973379.0,1669463834.852
1971723.0,1669463834.886
1970627.0,1669463834.924
1969532.0,1669463834.964
1969309.0,1669463835.003
1968625.0,1669463835.045
1967829.0,1669463835.084
1967539.0,1669463835.124
1967614.0,1669463835.166
1967337.0,1669463835.205
1967849.0,1669463835.245
1968351.0,1669463835.284
1968875.0,1669463835.323
1969626.0,1669463835.361
1970492.0,1669463835.402
1971856.0,1669463835.441
1972944.0,1669463835.481
1973835.0,1669463835.522
1975044.0,1669463835.562
1976528.0,1669463835.601
1977985.0,1669463835.642
1979419.0,1669463835.682
1981060.0,1669463835.722
1982093.0,1669463835.764
1979963.0,1669463835.802
1977148.0,1669463835.842
1975042.0,1669463835.883
1973551.0,1669463835.922
1972907.0,1669463835.963
1972178.0,1669463836.003
1971810.0,1669463836.042
1972130.0,1669463836.083
1972249.0,1669463836.125
1971766.0,1669463836.164
1971771.0,1669463836.203
1972447.0,1669463836.245
1972789.0,1669463836.284
1973759.0,1669463836.324
1974457.0,1669463836.366
1975472.0,1669463836.405
1976781.0,1669463836.445
1977879.0,1669463836.486
1979115.0,1669463836.525
1980649.0,1669463836.565
1981840.0,1669463836.606
1983561.0,1669463836.645
1985146.0,1669463836.685
1987183.0,1669463836.726
1988561.0,1669463836.766
1990347.0,1669463836.805
1991751.0,1669463836.846
1991135.0,1669463836.885
1988945.0,1669463836.926
1987515.0,1669463836.967
1986687.0,1669463837.006
1986346.0,1669463837.046
1986552.0,1669463837.087
1986580.0,1669463837.126
1987000.0,1669463837.167
1987420.0,1669463837.207
1987665.0,1669463837.246
1988053.0,1669463837.284
1988332.0,1669463837.325
1988933.0,1669463837.365
1989977.0,1669463837.404
1990704.0,1669463837.447
1992150.0,1669463837.487
1993031.0,1669463837.527
1994358.0,1669463837.568
1995652.0,1669463837.607
1997037.0,1669463837.647
1998431.0,1669463837.688
1999900.0,1669463837.727
2001684.0,1669463837.768
2002892.0,1669463837.808
2004574.0,1669463837.847
2005922.0,1669463837.887
2005371.0,1669463837.928
2002978.0,1669463837.968
2001481.0,1669463838.007
2000787.0,1669463838.049
2000157.0,1669463838.088
2000229.0,1669463838.128
1999990.0,1669463838.169
2000556.0,1669463838.208
2000484.0,1669463838.248
2000545.0,1669463838.289
2000793.0,1669463838.328
2001316.0,1669463838.369
2001621.0,1669463838.409
2002459.0,1669463838.448
2003151.0,1669463838.488
2004127.0,1669463838.529
2005039.0,1669463838.569
2006227.0,1669463838.608
2007375.0,1669463838.65
2008536.0,1669463838.689
2009609.0,1669463838.727
2010967.0,1669463838.769
2012051.0,1669463838.807
2013806.0,1669463838.844
2015059.0,1669463838.885
2016332.0,1669463838.924
2017192.0,1669463838.965
2015245.0,1669463839.006
2012734.0,1669463839.045
2010295.0,1669463839.085
2009053.0,1669463839.126
2007913.0,1669463839.166
2007063.0,1669463839.205
2006629.0,1669463839.246
2006154.0,1669463839.285
2005700.0,1669463839.325
2005315.0,1669463839.367
2005112.0,1669463839.405
2004620.0,1669463839.445
2004589.0,1669463839.487
2005068.0,1669463839.526
2005392.0,1669463839.567
2005814.0,1669463839.608
2006403.0,1669463839.647
2006862.0,1669463839.687
2007772.0,1669463839.729
2008716.0,1669463839.769
2009283.0,1669463839.808
2010120.0,1669463839.849
2011320.0,1669463839.889
2011975.0,1669463839.929
2012908.0,1669463839.971
2014305.0,1669463840.007
2014571.0,1669463840.048
2013432.0,1669463840.081
2010001.0,1669463840.12
2005052.0,1669463840.201
2006918.0,1669463840.16
2002880.0,1669463840.24
2001288.0,1669463840.28
2000432.0,1669463840.321
1999368.0,1669463840.361
1998864.0,1669463840.4
1997633.0,1669463840.441
1996830.0,1669463840.48
1996097.0,1669463840.52
1995782.0,1669463840.562
1995459.0,1669463840.601
1995280.0,1669463840.641
1995462.0,1669463840.682
1995379.0,1669463840.721
1995691.0,1669463840.762
1996248.0,1669463840.798
1997148.0,1669463840.87
1997441.0,1669463840.91
1996606.0,1669463840.837
1998980.0,1669463840.989
1998444.0,1669463840.95
1999392.0,1669463841.031
2000422.0,1669463841.07
2001419.0,1669463841.11
2000360.0,1669463841.152
1997100.0,1669463841.19
1991185.0,1669463841.271
1989722.0,1669463841.31
1988257.0,1669463841.351
1987153.0,1669463841.392
1993961.0,1669463841.23
1986645.0,1669463841.431
1985347.0,1669463841.471
1983948.0,1669463841.512
1983238.0,1669463841.552
1982182.0,1669463841.591
1981867.0,1669463841.632
1981057.0,1669463841.671
1980780.0,1669463841.711
1980685.0,1669463841.753
1980736.0,1669463841.791
1980907.0,1669463841.832
1981232.0,1669463841.873
1981419.0,1669463841.912
1981688.0,1669463841.953
1982306.0,1669463841.994
1982748.0,1669463842.033
1983282.0,1669463842.071
1984003.0,1669463842.11
1985004.0,1669463842.15
1984782.0,1669463842.19
1981886.0,1669463842.231
1977869.0,1669463842.27
1974330.0,1669463842.31
1971299.0,1669463842.353
1969171.0,1669463842.391
1966922.0,1669463842.431
1965332.0,1669463842.472
1964320.0,1669463842.511
1962725.0,1669463842.552
1961430.0,1669463842.593
1960192.0,1669463842.632
1959029.0,1669463842.672
1958341.0,1669463842.713
1957840.0,1669463842.753
1957632.0,1669463842.792
1957542.0,1669463842.833
1957646.0,1669463842.872
1957711.0,1669463842.912
1958183.0,1669463842.954
1958637.0,1669463842.992
1959101.0,1669463843.032
1959513.0,1669463843.074
1960246.0,1669463843.114
1961120.0,1669463843.152
1961829.0,1669463843.191
1962720.0,1669463843.23
1963415.0,1669463843.27
1961894.0,1669463843.312
1958283.0,1669463843.351
1954294.0,1669463843.391
1950990.0,1669463843.432
1948082.0,1669463843.471
1946098.0,1669463843.511
1944187.0,1669463843.552
1943009.0,1669463843.59
1942099.0,1669463843.632
1940973.0,1669463843.674
1939715.0,1669463843.713
1938898.0,1669463843.753
1938291.0,1669463843.794
1937729.0,1669463843.833
1937796.0,1669463843.873
1938143.0,1669463843.914
1938031.0,1669463843.954
1938701.0,1669463843.993
1939044.0,1669463844.034
1939740.0,1669463844.073
1940238.0,1669463844.113
1941290.0,1669463844.155
1942467.0,1669463844.194
1943145.0,1669463844.234
1944118.0,1669463844.275
1945479.0,1669463844.314
1946495.0,1669463844.355
1947795.0,1669463844.393
1947236.0,1669463844.429
1943491.0,1669463844.47
1940209.0,1669463844.512
1937918.0,1669463844.551
1935852.0,1669463844.591
1934542.0,1669463844.632
1934027.0,1669463844.671
1933254.0,1669463844.711
1932585.0,1669463844.754
1931838.0,1669463844.792
1931170.0,1669463844.831
1930788.0,1669463844.873
1930924.0,1669463844.912
1930921.0,1669463844.953
1931595.0,1669463844.993
1931908.0,1669463845.032
1932682.0,1669463845.072
1933314.0,1669463845.113
1934139.0,1669463845.153
1935311.0,1669463845.192
1936437.0,1669463845.234
1937476.0,1669463845.273
1938837.0,1669463845.313
1939954.0,1669463845.354
1941394.0,1669463845.393
1942738.0,1669463845.433
1943591.0,1669463845.474
1941577.0,1669463845.513
1938619.0,1669463845.554
1936211.0,1669463845.594
1934872.0,1669463845.631
1934165.0,1669463845.671
1933699.0,1669463845.712
1933483.0,1669463845.752
1933439.0,1669463845.792
1933332.0,1669463845.833
1933073.0,1669463845.872
1933034.0,1669463845.912
1933447.0,1669463845.955
1934189.0,1669463845.993
1934851.0,1669463846.031
1935822.0,1669463846.072
1937086.0,1669463846.103
1937086.0,1669463846.144
1938221.0,1669463846.185
1939497.0,1669463846.224
1940659.0,1669463846.264
1942076.0,1669463846.305
1943698.0,1669463846.344
1945317.0,1669463846.384
1946789.0,1669463846.425
1948707.0,1669463846.464
1950440.0,1669463846.504
1952124.0,1669463846.546
1951174.0,1669463846.584
1948737.0,1669463846.624
1945974.0,1669463846.666
1944307.0,1669463846.705
1943577.0,1669463846.745
1942527.0,1669463846.786
1942164.0,1669463846.822
1942357.0,1669463846.862
1941954.0,1669463846.897
1941860.0,1669463846.934
1942175.0,1669463846.971
1942592.0,1669463847.012
1942819.0,1669463847.051
1943810.0,1669463847.091
1944442.0,1669463847.133
1945727.0,1669463847.171
1947080.0,1669463847.212
1948350.0,1669463847.253
1949498.0,1669463847.291
1951091.0,1669463847.33
1952891.0,1669463847.37
1954277.0,1669463847.409
1956042.0,1669463847.449
1957603.0,1669463847.49
1959639.0,1669463847.53
1961570.0,1669463847.57
1963256.0,1669463847.611
1962986.0,1669463847.65
1960903.0,1669463847.69
1959107.0,1669463847.731
1957424.0,1669463847.77
1957041.0,1669463847.81
1956520.0,1669463847.851
1956241.0,1669463847.89
1956712.0,1669463847.931
1956979.0,1669463847.971
1957133.0,1669463848.01
1957238.0,1669463848.051
1957758.0,1669463848.092
1958277.0,1669463848.132
1959106.0,1669463848.171
1960505.0,1669463848.213
1961501.0,1669463848.252
1962818.0,1669463848.292
1964158.0,1669463848.334
1965590.0,1669463848.372
1967012.0,1669463848.413
1968631.0,1669463848.454
1970250.0,1669463848.49
1972003.0,1669463848.531
1973422.0,1669463848.571
1975472.0,1669463848.61
1977161.0,1669463848.65
1978536.0,1669463848.691
1977946.0,1669463848.731
1976233.0,1669463848.771
1975041.0,1669463848.812
1974741.0,1669463848.851
1974709.0,1669463848.891
1975182.0,1669463848.933
1975734.0,1669463848.971
1976466.0,1669463849.011
1976857.0,1669463849.052
1977173.0,1669463849.091
1977886.0,1669463849.132
1979046.0,1669463849.173
1979719.0,1669463849.212
1980721.0,1669463849.252
1982298.0,1669463849.293
1983613.0,1669463849.333
1984790.0,1669463849.372
1986550.0,1669463849.411
1987935.0,1669463849.45
1989409.0,1669463849.489
1990925.0,1669463849.528
1992710.0,1669463849.567
1994430.0,1669463849.606
1995924.0,1669463849.645
1997744.0,1669463849.684
1998674.0,1669463849.723
1997670.0,1669463849.762
1996879.0,1669463849.801
1996283.0,1669463849.84
1995881.0,1669463849.879
1995920.0,1669463849.918
1995735.0,1669463849.957
1995911.0,1669463849.996
1996123.0,1669463850.035
1996646.0,1669463850.074
1996799.0,1669463850.113
1996797.0,1669463850.152
1997757.0,1669463850.191
1998419.0,1669463850.23
1998986.0,1669463850.269
1999938.0,1669463850.308
2000920.0,1669463850.347
2002129.0,1669463850.386
2003422.0,1669463850.425
2004416.0,1669463850.464
2005952.0,1669463850.503
2007180.0,1669463850.542
2008529.0,1669463850.581
2010372.0,1669463850.62
2011686.0,1669463850.659
2013264.0,1669463850.698
2014644.0,1669463850.737
2014806.0,1669463850.776
2013145.0,1669463850.815
2011385.0,1669463850.854
2009856.0,1669463850.893
2008975.0,1669463850.932
2008056.0,1669463850.971
2007775.0,1669463851.01
2007760.0,1669463851.049
2007733.0,1669463851.088
2007770.0,1669463851.127
2007809.0,1669463851.166
2008304.0,1669463851.205
2008337.0,1669463851.244
2009262.0,1669463851.283
2009894.0,1669463851.322
2010633.0,1669463851.361
2011893.0,1669463851.4
2013202.0,1669463851.439
2014075.0,1669463851.478
2015225.0,1669463851.517
2016322.0,1669463851.556
2017948.0,1669463851.595
2019145.0,1669463851.634
2020620.0,1669463851.673
2021954.0,1669463851.712
2023476.0,1669463851.751
2024565.0,1669463851.79
2025799.0,1669463851.829
2025052.0,1669463851.868
2022978.0,1669463851.907
2021578.0,1669463851.946
2020499.0,1669463851.985
2019896.0,1669463852.024
2019610.0,1669463852.063
2019627.0,1669463852.102
2020086.0,1669463852.141
2019790.0,1669463852.18
2019813.0,1669463852.219
2019884.0,1669463852.258
2020157.0,1669463852.297
2020445.0,1669463852.336
2020813.0,1669463852.375
2021816.0,1669463852.414
2022342.0,1669463852.453
2023184.0,1669463852.492
2024197.0,1669463852.531
2024948.0,1669463852.57
2025741.0,1669463852.609
2026839.0,1669463852.648
2028137.0,1669463852.687
2029489.0,1669463852.726
2030803.0,1669463852.765
2031793.0,1669463852.804
2033257.0,1669463852.843
2032285.0,1669463852.882
2029999.0,1669463852.921
2028058.0,1669463852.96
2026862.0,1669463852.999
2026114.0,1669463853.038
2025354.0,1669463853.077
2025053.0,1669463853.116
2025243.0,1669463853.155
2025462.0,1669463853.194
2024998.0,1669463853.233
2024980.0,1669463853.272
2025039.0,1669463853.311
2025550.0,1669463853.35
2026215.0,1669463853.389
2026526.0,1669463853.428
2027412.0,1669463853.467
2028163.0,1669463853.506
2028887.0,1669463853.545
2029913.0,1669463853.584
2030741.0,1669463853.623
2031768.0,1669463853.662
2032912.0,1669463853.701
2033976.0,1669463853.74
2035225.0,1669463853.779
2036687.0,1669463853.818
2037563.0,1669463853.857
2038320.0,1669463853.896
2036771.0,1669463853.935
2034192.0,1669463853.974
2032258.0,1669463854.013
2030717.0,1669463854.052
2029503.0,1669463854.091
2028234.0,1669463854.13
2027672.0,1669463854.169
2027313.0,1669463854.208
2027057.0,1669463854.247
2026279.0,1669463854.286
2025701.0,1669463854.325
2025859.0,1669463854.365
2025693.0,1669463854.405
2025579.0,1669463854.445
2025918.0,1669463854.485
2025918.0,1669463854.525
2026342.0,1669463854.565
2026612.0,1669463854.605
2027117.0,1669463854.645
2027774.0,1669463854.685
2028464.0,1669463854.725
2029135.0,1669463854.765
2030242.0,1669463854.805
2031239.0,1669463854.845
2031883.0,1669463854.885
2033003.0,1669463854.925
2034051.0,1669463854.965
2034717.0,1669463855.005
2033387.0,1669463855.045
2030226.0,1669463855.085
2027659.0,1669463855.125
2025830.0,1669463855.165
2023842.0,1669463855.205
2022643.0,1669463855.245
2021409.0,1669463855.285
2020960.0,1669463855.325
2019825.0,1669463855.365
2018066.0,1669463855.445
2019030.0,1669463855.405
2017353.0,1669463855.485
2016998.0,1669463855.525
2017120.0,1669463855.565
2016713.0,1669463855.605
2016995.0,1669463855.645
2016806.0,1669463855.685
2017140.0,1669463855.725
2017486.0,1669463855.765
2018076.0,1669463855.805
2018618.0,1669463855.845
2019102.0,1669463855.885
2019826.0,1669463855.925
2021155.0,1669463856.005
2020361.0,1669463855.965
2022037.0,1669463856.045
2020945.0,1669463856.125
2022703.0,1669463856.085
2017939.0,1669463856.165
2014901.0,1669463856.205
2013119.0,1669463856.245
2011844.0,1669463856.285
2010736.0,1669463856.325
2010203.0,1669463856.365
2007431.0,1669463856.485
2009566.0,1669463856.405
2008627.0,1669463856.445
2006060.0,1669463856.565
2006886.0,1669463856.525
2005854.0,1669463856.605
2006030.0,1669463856.645
2005728.0,1669463856.685
2005865.0,1669463856.725
2006188.0,1669463856.765
2006564.0,1669463856.805
2007094.0,1669463856.845
2007475.0,1669463856.885
2007785.0,1669463856.925
2008347.0,1669463856.965
2009238.0,1669463857.005
2009836.0,1669463857.045
2010477.0,1669463857.085
2011353.0,1669463857.125
2009343.0,1669463857.165
2005686.0,1669463857.205
2002162.0,1669463857.245
1999090.0,1669463857.285
1996924.0,1669463857.325
1995210.0,1669463857.365
1993421.0,1669463857.405
1992297.0,1669463857.445
1991157.0,1669463857.485
1990056.0,1669463857.525
1988705.0,1669463857.565
1987739.0,1669463857.605
1987146.0,1669463857.645
1986774.0,1669463857.685
1986202.0,1669463857.725
1986152.0,1669463857.765
1986130.0,1669463857.805
1986340.0,1669463857.845
1986317.0,1669463857.885
1986593.0,1669463857.925
1987022.0,1669463857.965
1987588.0,1669463858.005
1988070.0,1669463858.045
1989116.0,1669463858.085
1989820.0,1669463858.125
1990506.0,1669463858.165
1991382.0,1669463858.205
1990258.0,1669463858.245
1986318.0,1669463858.285
1982402.0,1669463858.325
1982402.0,1669463858.365
1979186.0,1669463858.405
1976763.0,1669463858.445
1974666.0,1669463858.485
1972865.0,1669463858.525
1971853.0,1669463858.565
1970881.0,1669463858.605
1969286.0,1669463858.645
1968153.0,1669463858.685
1967143.0,1669463858.725
1966465.0,1669463858.765
1966205.0,1669463858.805
1965884.0,1669463858.845
1965786.0,1669463858.885
1966134.0,1669463858.925
1966055.0,1669463858.965
1966376.0,1669463859.005
1967060.0,1669463859.045
1967481.0,1669463859.085
1968124.0,1669463859.125
1968996.0,1669463859.165
1969722.0,1669463859.205
1970957.0,1669463859.245
1971674.0,1669463859.285
1972697.0,1669463859.325
1973180.0,1669463859.365
1970755.0,1669463859.405
1966562.0,1669463859.445
1963486.0,1669463859.485
1961524.0,1669463859.525
1959674.0,1669463859.565
1958377.0,1669463859.605
1957599.0,1669463859.645
1957016.0,1669463859.685
1955850.0,1669463859.725
1955115.0,1669463859.765
1954088.0,1669463859.805
1953526.0,1669463859.845
1953175.0,1669463859.885
1953293.0,1669463859.925
1953219.0,1669463859.965
1953647.0,1669463860.005
1954372.0,1669463860.045
1954365.0,1669463860.085
1955256.0,1669463860.125
1955902.0,1669463860.165
1956454.0,1669463860.205
1957741.0,1669463860.245
1958437.0,1669463860.285
1959501.0,1669463860.325
1960350.0,1669463860.365
1961202.0,1669463860.405
1958695.0,1669463860.445
1955126.0,1669463860.485
1951744.0,1669463860.525
1949555.0,1669463860.565
1947833.0,1669463860.605
1946882.0,1669463860.645
1946317.0,1669463860.685
1945761.0,1669463860.725
1945207.0,1669463860.765
1944500.0,1669463860.805
1944105.0,1669463860.845
1943552.0,1669463860.885
1943654.0,1669463860.925
1944146.0,1669463860.965
1944643.0,1669463861.005
1945240.0,1669463861.045
1946162.0,1669463861.085
1947136.0,1669463861.125
1947910.0,1669463861.165
1948923.0,1669463861.205
1950323.0,1669463861.245
1951572.0,1669463861.284
1953177.0,1669463861.323
1954299.0,1669463861.363
1955919.0,1669463861.405
1957585.0,1669463861.443
1957999.0,1669463861.483
1954947.0,1669463861.525
1951479.0,1669463861.564
1948945.0,1669463861.604
1947115.0,1669463861.645
1945407.0,1669463861.684
1944156.0,1669463861.724
1943697.0,1669463861.766
1943596.0,1669463861.806
1943347.0,1669463861.843
1943005.0,1669463861.877
1942738.0,1669463861.916
1943167.0,1669463861.952
1943328.0,1669463861.992
1943892.0,1669463862.03
1945005.0,1669463862.07
1945791.0,1669463862.111
1947078.0,1669463862.15
1948043.0,1669463862.191
1949181.0,1669463862.231
1950849.0,1669463862.27
1952348.0,1669463862.31
1953887.0,1669463862.351
1955860.0,1669463862.391
1957399.0,1669463862.43
1959250.0,1669463862.472
1961028.0,1669463862.511
1962787.0,1669463862.551
1962647.0,1669463862.593
1960425.0,1669463862.631
1957941.0,1669463862.671
1956380.0,1669463862.712
1955678.0,1669463862.751
1954862.0,1669463862.792
1955029.0,1669463862.832
1955009.0,1669463862.872
1955408.0,1669463862.912
1955592.0,1669463862.954
1955860.0,1669463862.993
1955991.0,1669463863.031
1956692.0,1669463863.072
1957648.0,1669463863.111
1958731.0,1669463863.151
1959769.0,1669463863.194
1961257.0,1669463863.232
1962305.0,1669463863.268
1962305.0,1669463863.31
1963718.0,1669463863.349
1965231.0,1669463863.389
1975318.0,1669463863.61
1976940.0,1669463863.651
1970149.0,1669463863.489
1976759.0,1669463863.69
1968305.0,1669463863.449
1974902.0,1669463863.73
1971785.0,1669463863.53
1973497.0,1669463863.772
1972930.0,1669463863.81
1973590.0,1669463863.57
1966971.0,1669463863.41
1973167.0,1669463863.891
1974877.0,1669463864.012
1975484.0,1669463864.051
1976333.0,1669463864.091
1972838.0,1669463863.85
1974694.0,1669463863.971
1973807.0,1669463863.93
1976976.0,1669463864.132
1978009.0,1669463864.172
1979033.0,1669463864.212
1980365.0,1669463864.253
1981894.0,1669463864.292
1983154.0,1669463864.332
1984343.0,1669463864.374
1986160.0,1669463864.411
1988141.0,1669463864.451
1989792.0,1669463864.488
1991138.0,1669463864.527
1993084.0,1669463864.567
1994887.0,1669463864.608
1996683.0,1669463864.647
1998536.0,1669463864.687
1999652.0,1669463864.728
1998706.0,1669463864.768
1996828.0,1669463864.807
1995241.0,1669463864.848
1994743.0,1669463864.887
1994091.0,1669463864.927
1993922.0,1669463864.969
1994172.0,1669463865.008
1994407.0,1669463865.048
1994635.0,1669463865.089
1994990.0,1669463865.128
1995172.0,1669463865.169
1995772.0,1669463865.21
1996223.0,1669463865.249
1997326.0,1669463865.289
1998405.0,1669463865.331
1999435.0,1669463865.37
2000358.0,1669463865.411
2001581.0,1669463865.452
2002886.0,1669463865.491
2004627.0,1669463865.531
2005856.0,1669463865.573
2007289.0,1669463865.612
2009014.0,1669463865.652
2010278.0,1669463865.693
2012027.0,1669463865.732
2013608.0,1669463865.773
2015318.0,1669463865.813
2015656.0,1669463865.852
2013841.0,1669463865.892
2011895.0,1669463865.933
2010836.0,1669463865.973
2009636.0,1669463866.012
2009267.0,1669463866.054
2008845.0,1669463866.093
2009042.0,1669463866.133
2009436.0,1669463866.174
2009292.0,1669463866.213
2009323.0,1669463866.253
2009568.0,1669463866.294
2009911.0,1669463866.333
2010385.0,1669463866.374
2011260.0,1669463866.414
2012177.0,1669463866.453
2012902.0,1669463866.494
2013759.0,1669463866.533
2014932.0,1669463866.573
2015799.0,1669463866.612
2017283.0,1669463866.653
2018368.0,1669463866.693
2019482.0,1669463866.733
2020709.0,1669463866.775
2021859.0,1669463866.813
2023627.0,1669463866.854
2024520.0,1669463866.893
2024612.0,1669463866.931
2022626.0,1669463866.964
2020678.0,1669463867.004
2019811.0,1669463867.043
2018888.0,1669463867.083
2018802.0,1669463867.124
2019040.0,1669463867.164
2019091.0,1669463867.203
2019032.0,1669463867.245
2018928.0,1669463867.284
2018851.0,1669463867.324
2019304.0,1669463867.366
2019594.0,1669463867.404
2020173.0,1669463867.444
2020885.0,1669463867.485
2021852.0,1669463867.524
2022455.0,1669463867.565
2023093.0,1669463867.605
2024267.0,1669463867.645
2025248.0,1669463867.678
2026108.0,1669463867.72
2027455.0,1669463867.755
2028610.0,1669463867.793
2029623.0,1669463867.834
2030849.0,1669463867.873
2032262.0,1669463867.914
2032579.0,1669463867.956
2030709.0,1669463867.994
2027931.0,1669463868.034
2025745.0,1669463868.076
2024299.0,1669463868.115
2022720.0,1669463868.154
2022133.0,1669463868.194
2021307.0,1669463868.233
2021029.0,1669463868.273
2020606.0,1669463868.315
2019864.0,1669463868.354
2019475.0,1669463868.394
2019249.0,1669463868.435
2019086.0,1669463868.474
2019334.0,1669463868.514
2019568.0,1669463868.556
2020378.0,1669463868.594
2020732.0,1669463868.634
2021351.0,1669463868.675
2021966.0,1669463868.714
2022654.0,1669463868.755
2023293.0,1669463868.795
2024336.0,1669463868.834
2025236.0,1669463868.874
2026363.0,1669463868.916
2027313.0,1669463868.956
2028627.0,1669463868.994
2029209.0,1669463869.035
2028118.0,1669463869.074
2025026.0,1669463869.114
2022125.0,1669463869.156
2020309.0,1669463869.195
2018613.0,1669463869.235
2017307.0,1669463869.276
2016419.0,1669463869.315
2015931.0,1669463869.354
2015240.0,1669463869.394
2015240.0,1669463869.428
2014421.0,1669463869.468
2014601.0,1669463869.51
2013659.0,1669463869.549
2013346.0,1669463869.589
2013541.0,1669463869.63
2013438.0,1669463869.669
2014010.0,1669463869.709
2013330.0,1669463869.751
2014419.0,1669463869.789
2015014.0,1669463869.829
2015587.0,1669463869.87
2016177.0,1669463869.909
2017288.0,1669463869.95
2018065.0,1669463869.991
2018983.0,1669463870.03
2019775.0,1669463870.07
2020885.0,1669463870.111
2021452.0,1669463870.148
2019949.0,1669463870.185
2017097.0,1669463870.219
2014824.0,1669463870.258
2013567.0,1669463870.296
2012576.0,1669463870.335
2012123.0,1669463870.374
2012127.0,1669463870.414
2012003.0,1669463870.456
2011746.0,1669463870.495
2011306.0,1669463870.536
2010826.0,1669463870.576
2011098.0,1669463870.615
2011383.0,1669463870.655
2011519.0,1669463870.697
2012084.0,1669463870.736
2012711.0,1669463870.776
2013358.0,1669463870.817
2014033.0,1669463870.856
2014954.0,1669463870.896
2016069.0,1669463870.938
2017189.0,1669463870.976
2017995.0,1669463871.016
2019090.0,1669463871.057
2020560.0,1669463871.096
2021469.0,1669463871.137
2022824.0,1669463871.177
2022852.0,1669463871.216
2020604.0,1669463871.256
2017578.0,1669463871.298
2015461.0,1669463871.334
2013921.0,1669463871.374
2012853.0,1669463871.415
2011904.0,1669463871.455
2011580.0,1669463871.495
2011099.0,1669463871.537
2010680.0,1669463871.575
2010311.0,1669463871.616
2009886.0,1669463871.657
2009896.0,1669463871.694
2010227.0,1669463871.735
2010497.0,1669463871.776
2010891.0,1669463871.815
2011478.0,1669463871.855
2012438.0,1669463871.89
2013247.0,1669463871.93
2014090.0,1669463871.969
2014805.0,1669463872.01
2015741.0,1669463872.049
2017180.0,1669463872.09
2018266.0,1669463872.131
2019321.0,1669463872.17
2020947.0,1669463872.21
2022207.0,1669463872.251
2023307.0,1669463872.29
2022835.0,1669463872.331
2020451.0,1669463872.371
2017607.0,1669463872.41
2015863.0,1669463872.45
2014594.0,1669463872.492
2013354.0,1669463872.531
2012666.0,1669463872.571
2012347.0,1669463872.61
2012238.0,1669463872.646
2011936.0,1669463872.679
2011652.0,1669463872.719
2011024.0,1669463872.755
2011146.0,1669463872.795
2011457.0,1669463872.837
2011872.0,1669463872.876
2012273.0,1669463872.917
2012963.0,1669463872.958
2013794.0,1669463872.997
2014319.0,1669463873.037
2014882.0,1669463873.077
2014882.0,1669463873.108
2016034.0,1669463873.148
2017281.0,1669463873.241
2018367.0,1669463873.28
2019107.0,1669463873.32
2020548.0,1669463873.362
2021308.0,1669463873.4
2022684.0,1669463873.44
2023210.0,1669463873.481
2021023.0,1669463873.52
2018326.0,1669463873.561
2016600.0,1669463873.601
2015538.0,1669463873.641
2014867.0,1669463873.681
2014839.0,1669463873.722
2014915.0,1669463873.761
2014577.0,1669463873.801
2013631.0,1669463873.872
2013889.0,1669463873.839
2013147.0,1669463873.909
2013300.0,1669463873.949
2013608.0,1669463873.987
2013998.0,1669463874.027
2014086.0,1669463874.069
2014679.0,1669463874.107
2015540.0,1669463874.148
2016086.0,1669463874.189
2016948.0,1669463874.228
2017791.0,1669463874.268
2018402.0,1669463874.309
2019470.0,1669463874.349
2020233.0,1669463874.389
2021098.0,1669463874.43
2022400.0,1669463874.469
2023099.0,1669463874.509
2021840.0,1669463874.551
2018589.0,1669463874.589
2015078.0,1669463874.629
2012815.0,1669463874.671
2010922.0,1669463874.71
2009279.0,1669463874.75
2008177.0,1669463874.791
2006946.0,1669463874.83
2006029.0,1669463874.87
2005097.0,1669463874.911
2003906.0,1669463874.951
2003100.0,1669463874.99
2002235.0,1669463875.031
2002186.0,1669463875.07
2001915.0,1669463875.11
2001773.0,1669463875.152
2001871.0,1669463875.187
2001938.0,1669463875.228
2002452.0,1669463875.269
2002651.0,1669463875.308
2003130.0,1669463875.348
2003611.0,1669463875.389
2004065.0,1669463875.428
2004870.0,1669463875.468
2005610.0,1669463875.509
2006293.0,1669463875.549
2007107.0,1669463875.589
2007247.0,1669463875.623
2003927.0,1669463875.662
2000090.0,1669463875.702
1996541.0,1669463875.744
1993393.0,1669463875.782
1991291.0,1669463875.822
1989148.0,1669463875.864
1987628.0,1669463875.903
1986524.0,1669463875.943
1985172.0,1669463875.984
1983450.0,1669463876.023
1982387.0,1669463876.063
1981253.0,1669463876.104
1980480.0,1669463876.144
1979725.0,1669463876.183
1979450.0,1669463876.224
1979238.0,1669463876.263
1979162.0,1669463876.3
1979257.0,1669463876.334
1979468.0,1669463876.373
1979839.0,1669463876.411
1980034.0,1669463876.45
1980651.0,1669463876.489
1981139.0,1669463876.53
1981549.0,1669463876.571
1982196.0,1669463876.61
1983107.0,1669463876.65
1983901.0,1669463876.692
1983932.0,1669463876.731
1981019.0,1669463876.771
1976877.0,1669463876.81
1973183.0,1669463876.844
1973183.0,1669463876.884
1970654.0,1669463876.926
1968902.0,1669463876.964
1967273.0,1669463877.004
1966668.0,1669463877.045
1965253.0,1669463877.084
1964050.0,1669463877.125
1962312.0,1669463877.165
1961322.0,1669463877.204
1960190.0,1669463877.245
1959718.0,1669463877.286
1959400.0,1669463877.325
1958948.0,1669463877.365
1959253.0,1669463877.406
1959249.0,1669463877.445
1959245.0,1669463877.485
1959472.0,1669463877.527
1959926.0,1669463877.564
1960640.0,1669463877.601
1960974.0,1669463877.636
1961798.0,1669463877.675
1962412.0,1669463877.709
1963481.0,1669463877.749
1964542.0,1669463877.789
1964099.0,1669463877.829
1960380.0,1669463877.87
1955599.0,1669463877.91
1952234.0,1669463877.949
1949434.0,1669463877.991
1947411.0,1669463878.03
1945344.0,1669463878.07
1944524.0,1669463878.112
1943376.0,1669463878.148
1942160.0,1669463878.179
1940803.0,1669463878.22
1939848.0,1669463878.259
1939164.0,1669463878.3
1938949.0,1669463878.341
1938781.0,1669463878.38
1938961.0,1669463878.42
1939359.0,1669463878.461
1939453.0,1669463878.501
1940070.0,1669463878.54
1940615.0,1669463878.581
1941588.0,1669463878.62
1942533.0,1669463878.66
1943267.0,1669463878.702
1944340.0,1669463878.74
1945624.0,1669463878.78
1946847.0,1669463878.822
1947989.0,1669463878.861
1949509.0,1669463878.894
1948152.0,1669463878.935
1943900.0,1669463878.972
1939550.0,1669463879.01
1936489.0,1669463879.052
1934444.0,1669463879.091
1932217.0,1669463879.131
1930729.0,1669463879.172
1929892.0,1669463879.211
1929406.0,1669463879.251
1928497.0,1669463879.294
1927742.0,1669463879.332
1926761.0,1669463879.369
1926761.0,1669463879.407
1926515.0,1669463879.446
1926710.0,1669463879.487
1927040.0,1669463879.527
1927466.0,1669463879.566
1928377.0,1669463879.606
1929339.0,1669463879.648
1930312.0,1669463879.687
1931107.0,1669463879.727
1932512.0,1669463879.768
1933854.0,1669463879.807
1935124.0,1669463879.847
1936489.0,1669463879.889
1937892.0,1669463879.927
1939774.0,1669463879.967
1940961.0,1669463880.008
1942558.0,1669463880.047
1942494.0,1669463880.088
1939041.0,1669463880.13
1935281.0,1669463880.169
1932840.0,1669463880.209
1930997.0,1669463880.251
1930192.0,1669463880.29
1929446.0,1669463880.33
1929323.0,1669463880.372
1929038.0,1669463880.411
1928691.0,1669463880.451
1927995.0,1669463880.492
1927794.0,1669463880.531
1928174.0,1669463880.571
1928581.0,1669463880.611
1929091.0,1669463880.646
1930302.0,1669463880.687
1931095.0,1669463880.727
1932112.0,1669463880.766
1933287.0,1669463880.806
1934595.0,1669463880.848
1935994.0,1669463880.887
1937242.0,1669463880.927
1938705.0,1669463880.968
1940476.0,1669463881.007
1942024.0,1669463881.047
1943704.0,1669463881.089
1945379.0,1669463881.127
1944697.0,1669463881.167
1941449.0,1669463881.209
1937965.0,1669463881.248
1936239.0,1669463881.288
1934888.0,1669463881.329
1934651.0,1669463881.365
1934092.0,1669463881.403
1934169.0,1669463881.439
1934370.0,1669463881.479
1933895.0,1669463881.513
1933687.0,1669463881.551
1933644.0,1669463881.591
1934240.0,1669463881.631
1934787.0,1669463881.673
1935728.0,1669463881.711
1936704.0,1669463881.752
1937691.0,1669463881.793
1938948.0,1669463881.83
1940233.0,1669463881.864
1941855.0,1669463881.904
1942843.0,1669463881.944
1944472.0,1669463881.984
1946274.0,1669463882.025
1947919.0,1669463882.064
1949474.0,1669463882.104
1951210.0,1669463882.145
1952980.0,1669463882.184
1951751.0,1669463882.224
1947846.0,1669463882.266
1944269.0,1669463882.304
1941920.0,1669463882.344
1939937.0,1669463882.385
1938429.0,1669463882.425
1937796.0,1669463882.465
1937234.0,1669463882.506
1936717.0,1669463882.545
1936131.0,1669463882.586
1935353.0,1669463882.622
1935457.0,1669463882.662
1935318.0,1669463882.694
1935745.0,1669463882.733
1936162.0,1669463882.772
1936959.0,1669463882.812
1937824.0,1669463882.853
1938785.0,1669463882.892
1939603.0,1669463882.933
1940628.0,1669463882.974
1942104.0,1669463883.013
1943720.0,1669463883.055
1944944.0,1669463883.095
1946185.0,1669463883.134
1948000.0,1669463883.174
1949385.0,1669463883.215
1950980.0,1669463883.255
1951083.0,1669463883.294
1947995.0,1669463883.336
1944065.0,1669463883.375
1941051.0,1669463883.415
1938951.0,1669463883.456
1937593.0,1669463883.495
1936543.0,1669463883.535
1936071.0,1669463883.576
1935730.0,1669463883.615
1935350.0,1669463883.656
1934711.0,1669463883.696
1934029.0,1669463883.735
1933682.0,1669463883.776
1934277.0,1669463883.815
1934424.0,1669463883.853
1934993.0,1669463883.893
1935773.0,1669463883.934
1936878.0,1669463883.973
1937775.0,1669463884.013
1938893.0,1669463884.055
1940014.0,1669463884.094
1941176.0,1669463884.134
1942760.0,1669463884.175
1944012.0,1669463884.212
1945420.0,1669463884.253
1946891.0,1669463884.293
1946891.0,1669463884.325
1948686.0,1669463884.365
1948135.0,1669463884.406
1945003.0,1669463884.446
1941731.0,1669463884.486
1939451.0,1669463884.527
1938122.0,1669463884.566
1937852.0,1669463884.606
1937909.0,1669463884.648
1937770.0,1669463884.686
1937549.0,1669463884.726
1936818.0,1669463884.806
1937301.0,1669463884.767
1936976.0,1669463884.847
1937453.0,1669463884.887
1938124.0,1669463884.926
1939127.0,1669463884.967
1939714.0,1669463885.002
1940874.0,1669463885.035
1942259.0,1669463885.072
1942994.0,1669463885.111
1944204.0,1669463885.15
1945815.0,1669463885.189
1947123.0,1669463885.228
1948719.0,1669463885.267
1950458.0,1669463885.306
1951904.0,1669463885.345
1953390.0,1669463885.384
1954539.0,1669463885.423
1951939.0,1669463885.462
1944546.0,1669463885.54
1947784.0,1669463885.501
1940944.0,1669463885.618
1939260.0,1669463885.657
1942361.0,1669463885.579
1938619.0,1669463885.696
1938429.0,1669463885.735
1937784.0,1669463885.774
1936774.0,1669463885.813
1936534.0,1669463885.852
1936552.0,1669463885.891
1936715.0,1669463885.93
1937211.0,1669463885.969
1937565.0,1669463886.008
1938214.0,1669463886.047
1939168.0,1669463886.086
1940467.0,1669463886.125
1941560.0,1669463886.164
1942851.0,1669463886.203
1944106.0,1669463886.242
1945273.0,1669463886.281
1946435.0,1669463886.32
1948177.0,1669463886.359
1949882.0,1669463886.398
1951834.0,1669463886.437
1952887.0,1669463886.476
1950551.0,1669463886.515
1947046.0,1669463886.554
1944448.0,1669463886.593
1942757.0,1669463886.632
1940023.0,1669463886.71
1939770.0,1669463886.749
1939896.0,1669463886.788
1940022.0,1669463886.827
1939765.0,1669463886.866
1939821.0,1669463886.905
1940293.0,1669463886.944
1940815.0,1669463886.983
1941473.0,1669463887.022
1942403.0,1669463887.061
1943708.0,1669463887.1
1944987.0,1669463887.139
1946224.0,1669463887.178
1947688.0,1669463887.217
1949247.0,1669463887.256
1941166.0,1669463886.671
1950941.0,1669463887.295
1952633.0,1669463887.334
1954650.0,1669463887.373
1958207.0,1669463887.451
1960333.0,1669463887.49
1961648.0,1669463887.529
1960271.0,1669463887.568
1957949.0,1669463887.607
1956150.0,1669463887.412
1956039.0,1669463887.685
1956699.0,1669463887.646
1956155.0,1669463887.763
1958160.0,1669463887.88
1958453.0,1669463887.919
1955769.0,1669463887.724
1956865.0,1669463887.802
1957703.0,1669463887.841
1958839.0,1669463887.958
1959587.0,1669463887.997
1960728.0,1669463888.036
1962117.0,1669463888.075
1963373.0,1669463888.114
1964943.0,1669463888.153
1966546.0,1669463888.192
1968124.0,1669463888.231
1969743.0,1669463888.27
1971674.0,1669463888.309
1973737.0,1669463888.348
1975507.0,1669463888.387
1977352.0,1669463888.426
1979600.0,1669463888.465
1981536.0,1669463888.504
1982713.0,1669463888.543
1981585.0,1669463888.582
1979738.0,1669463888.621
1978590.0,1669463888.66
1978297.0,1669463888.699
1978327.0,1669463888.738
1978710.0,1669463888.777
1979084.0,1669463888.816
1980138.0,1669463888.855
1980874.0,1669463888.894
1981568.0,1669463888.933
1982083.0,1669463888.972
1983188.0,1669463889.011
1984535.0,1669463889.05
1986039.0,1669463889.089
1987724.0,1669463889.128
1988964.0,1669463889.167
1990689.0,1669463889.206
1992638.0,1669463889.245
1994607.0,1669463889.284
1996237.0,1669463889.323
1998163.0,1669463889.363
2000076.0,1669463889.403
2002374.0,1669463889.443
2003955.0,1669463889.483
2006297.0,1669463889.523
2008379.0,1669463889.563
2009761.0,1669463889.603
2008395.0,1669463889.643
2007084.0,1669463889.683
2006384.0,1669463889.723
2006461.0,1669463889.763
2006515.0,1669463889.803
2006854.0,1669463889.843
2007542.0,1669463889.883
2008626.0,1669463889.923
2009361.0,1669463889.963
2009984.0,1669463890.003
2011008.0,1669463890.043
2012219.0,1669463890.083
2013441.0,1669463890.123
2014534.0,1669463890.163
2016046.0,1669463890.203
2017685.0,1669463890.243
2019488.0,1669463890.283
2021043.0,1669463890.323
2022881.0,1669463890.363
2024359.0,1669463890.403
2026109.0,1669463890.443
2028096.0,1669463890.483
2029900.0,1669463890.523
2031902.0,1669463890.563
2035650.0,1669463890.643
2034080.0,1669463890.603
2037754.0,1669463890.683
2037770.0,1669463890.723
2036565.0,1669463890.763
2035586.0,1669463890.803
2035384.0,1669463890.843
2035741.0,1669463890.883
2035826.0,1669463890.923
2036620.0,1669463890.963
2037465.0,1669463891.003
2038023.0,1669463891.043
2038786.0,1669463891.083
2039681.0,1669463891.123
2040190.0,1669463891.163
2041032.0,1669463891.203
2042212.0,1669463891.243
2043246.0,1669463891.283
2044394.0,1669463891.323
2045988.0,1669463891.363
2047230.0,1669463891.403
2048766.0,1669463891.443
2050251.0,1669463891.483
2051536.0,1669463891.523
2052885.0,1669463891.563
2054713.0,1669463891.603
2056097.0,1669463891.643
2057449.0,1669463891.683
2057449.0,1669463891.723
2059152.0,1669463891.763
2059216.0,1669463891.803
2057964.0,1669463891.843
2056969.0,1669463891.883
2056719.0,1669463891.923
2056746.0,1669463891.963
2057381.0,1669463892.003
2058193.0,1669463892.043
2058810.0,1669463892.083
2059194.0,1669463892.123
2059437.0,1669463892.163
2059757.0,1669463892.203
2060689.0,1669463892.243
2061411.0,1669463892.283
2062148.0,1669463892.323
2063238.0,1669463892.363
2064307.0,1669463892.403
2065331.0,1669463892.443
2066630.0,1669463892.483
2067800.0,1669463892.523
2068852.0,1669463892.563
2070389.0,1669463892.603
2071873.0,1669463892.643
2073116.0,1669463892.683
2074620.0,1669463892.723
2076022.0,1669463892.763
2076430.0,1669463892.803
2075295.0,1669463892.843
2073689.0,1669463892.883
2072644.0,1669463892.923
2072236.0,1669463892.963
2071777.0,1669463893.003
2071698.0,1669463893.043
2071929.0,1669463893.083
2072189.0,1669463893.123
2072417.0,1669463893.163
2072169.0,1669463893.203
2072902.0,1669463893.243
2073111.0,1669463893.283
2073364.0,1669463893.323
2074559.0,1669463893.363
2075040.0,1669463893.403
2076027.0,1669463893.443
2077092.0,1669463893.483
2077567.0,1669463893.523
2078650.0,1669463893.563
2079671.0,1669463893.603
2081053.0,1669463893.643
2082543.0,1669463893.683
2083549.0,1669463893.723
2084555.0,1669463893.763
2086206.0,1669463893.803
2086639.0,1669463893.843
2085538.0,1669463893.883
2083720.0,1669463893.923
2082646.0,1669463893.963
2081832.0,1669463894.003
2081184.0,1669463894.043
2080697.0,1669463894.083
2080803.0,1669463894.123
2080861.0,1669463894.163
2081052.0,1669463894.203
2080819.0,1669463894.243
2080939.0,1669463894.283
2080820.0,1669463894.323
2081355.0,1669463894.363
2081927.0,1669463894.403
2082477.0,1669463894.443
2082900.0,1669463894.483
2083780.0,1669463894.523
2084621.0,1669463894.563
2085626.0,1669463894.603
2086322.0,1669463894.643
2087279.0,1669463894.683
2088384.0,1669463894.723
2089368.0,1669463894.763
2090300.0,1669463894.803
2091542.0,1669463894.843
2092708.0,1669463894.883
2092794.0,1669463894.923
2091631.0,1669463894.963
2089341.0,1669463895.043
2090341.0,1669463895.003
2088707.0,1669463895.083
2088617.0,1669463895.123
2088671.0,1669463895.163
2088469.0,1669463895.203
2088462.0,1669463895.243
2088616.0,1669463895.283
2088691.0,1669463895.323
2089015.0,1669463895.363
2089287.0,1669463895.403
2089722.0,1669463895.443
2090268.0,1669463895.483
2090856.0,1669463895.523
2091619.0,1669463895.563
2092412.0,1669463895.603
2093045.0,1669463895.643
2093721.0,1669463895.683
2094675.0,1669463895.723
2095801.0,1669463895.763
2096633.0,1669463895.803
2097793.0,1669463895.843
2098863.0,1669463895.883
2099896.0,1669463895.923
2099895.0,1669463895.963
2098577.0,1669463896.003
2097058.0,1669463896.043
2096773.0,1669463896.083
2095994.0,1669463896.123
2095552.0,1669463896.163
2095489.0,1669463896.203
2095939.0,1669463896.243
2095577.0,1669463896.283
2095891.0,1669463896.323
2096063.0,1669463896.363
2095945.0,1669463896.403
2096341.0,1669463896.443
2097516.0,1669463896.523
2098594.0,1669463896.603
2096775.0,1669463896.483
2097744.0,1669463896.563
2099178.0,1669463896.643
2100244.0,1669463896.683
2100869.0,1669463896.763
2102590.0,1669463896.843
2100869.0,1669463896.723
2101847.0,1669463896.803
2103445.0,1669463896.883
2104528.0,1669463896.923
2105486.0,1669463896.963
2106449.0,1669463897.044
2107469.0,1669463897.083
2107761.0,1669463897.123
2106123.0,1669463897.165
2103715.0,1669463897.243
2104839.0,1669463897.203
2102563.0,1669463897.323
2102926.0,1669463897.284
2101684.0,1669463897.364
2101946.0,1669463897.405
2101849.0,1669463897.444
2101606.0,1669463897.526
2101657.0,1669463897.484
2101465.0,1669463897.566
2101236.0,1669463897.606
2101865.0,1669463897.647
2101858.0,1669463897.686
2102340.0,1669463897.726
2102742.0,1669463897.769
2103380.0,1669463897.807
2104187.0,1669463897.847
2104491.0,1669463897.889
2105395.0,1669463897.928
2106135.0,1669463897.969
2106883.0,1669463898.008
2107634.0,1669463898.044
2108254.0,1669463898.084
2109412.0,1669463898.126
2109998.0,1669463898.165
2110671.0,1669463898.205
2109554.0,1669463898.246
2107578.0,1669463898.285
2106399.0,1669463898.325
2105470.0,1669463898.367
2104344.0,1669463898.405
2104066.0,1669463898.445
2103547.0,1669463898.486
2103531.0,1669463898.525
2103140.0,1669463898.566
2102520.0,1669463898.606
2102318.0,1669463898.645
2102276.0,1669463898.685
2102168.0,1669463898.727
2102429.0,1669463898.767
2102568.0,1669463898.807
2102910.0,1669463898.848
2103400.0,1669463898.887
2103723.0,1669463898.927
2104428.0,1669463898.97
2104909.0,1669463899.008
2105425.0,1669463899.048
2106011.0,1669463899.09
2106621.0,1669463899.129
2107326.0,1669463899.17
2108238.0,1669463899.211
2108875.0,1669463899.239
2108821.0,1669463899.28
2107707.0,1669463899.321
2105964.0,1669463899.36
2104608.0,1669463899.4
2104082.0,1669463899.441
2103739.0,1669463899.48
2103593.0,1669463899.52
2103077.0,1669463899.562
2102744.0,1669463899.6
2102606.0,1669463899.64
2102140.0,1669463899.682
2102365.0,1669463899.721
2102075.0,1669463899.761
2102293.0,1669463899.802
2102542.0,1669463899.841
2102913.0,1669463899.881
2103284.0,1669463899.922
2103739.0,1669463899.956
2104350.0,1669463899.989
2104586.0,1669463900.028
2105413.0,1669463900.067
2105773.0,1669463900.107
2106687.0,1669463900.149
2107356.0,1669463900.188
2107963.0,1669463900.228
2108768.0,1669463900.271
2108007.0,1669463900.309
2105646.0,1669463900.348
2103911.0,1669463900.388
2102414.0,1669463900.427
2101183.0,1669463900.47
2100269.0,1669463900.511
2099948.0,1669463900.551
2099359.0,1669463900.59
2098638.0,1669463900.631
2098481.0,1669463900.67
2097922.0,1669463900.71
2097528.0,1669463900.752
2097250.0,1669463900.791
2097519.0,1669463900.831
2097353.0,1669463900.872
2097489.0,1669463900.911
2097759.0,1669463900.951
2098137.0,1669463900.992
2098166.0,1669463901.031
2099136.0,1669463901.112
2098622.0,1669463901.071
2099749.0,1669463901.152
2100224.0,1669463901.191
2101032.0,1669463901.232
2101647.0,1669463901.271
2102496.0,1669463901.311
2101529.0,1669463901.353
2099599.0,1669463901.392
2097257.0,1669463901.432
2095455.0,1669463901.468
2094385.0,1669463901.508
2093330.0,1669463901.548
2092194.0,1669463901.589
2091768.0,1669463901.628
2091571.0,1669463901.668
2090849.0,1669463901.701
2090086.0,1669463901.741
2089504.0,1669463901.78
2089245.0,1669463901.821
2089041.0,1669463901.86
2088903.0,1669463901.9
2089131.0,1669463901.942
2089131.0,1669463901.981
2089436.0,1669463902.021
2089516.0,1669463902.062
2090142.0,1669463902.101
2090458.0,1669463902.142
2090741.0,1669463902.182
2091584.0,1669463902.221
2092056.0,1669463902.261
2092073.0,1669463902.302
2089811.0,1669463902.342
2087354.0,1669463902.381
2085359.0,1669463902.418
2083886.0,1669463902.451
2082124.0,1669463902.489
2081294.0,1669463902.531
2080713.0,1669463902.569
2080064.0,1669463902.609
2079140.0,1669463902.651
2078600.0,1669463902.69
2077891.0,1669463902.731
2077139.0,1669463902.772
2076819.0,1669463902.811
2076591.0,1669463902.849
2076658.0,1669463902.89
2076427.0,1669463902.93
2076489.0,1669463902.969
2076766.0,1669463903.01
2077008.0,1669463903.049
2077233.0,1669463903.089
2077898.0,1669463903.131
2078183.0,1669463903.169
2077425.0,1669463903.209
2074686.0,1669463903.25
2071979.0,1669463903.289
2069528.0,1669463903.33
2067800.0,1669463903.371
2066224.0,1669463903.41
2064905.0,1669463903.45
2064308.0,1669463903.491
2063202.0,1669463903.53
2062207.0,1669463903.57
2061411.0,1669463903.611
2060387.0,1669463903.651
2060286.0,1669463903.691
2059642.0,1669463903.733
2059550.0,1669463903.771
2059288.0,1669463903.809
2059091.0,1669463903.851
2059067.0,1669463903.89
2059390.0,1669463903.931
2059517.0,1669463903.972
2059695.0,1669463904.011
2060262.0,1669463904.051
2060546.0,1669463904.092
2060656.0,1669463904.132
2061043.0,1669463904.167
2061043.0,1669463904.208
2058656.0,1669463904.247
2055635.0,1669463904.287
2053751.0,1669463904.329
2052098.0,1669463904.367
2050823.0,1669463904.407
2050128.0,1669463904.449
2049597.0,1669463904.488
2048453.0,1669463904.569
2047084.0,1669463904.648
2047671.0,1669463904.608
2049005.0,1669463904.528
2046998.0,1669463904.689
2046546.0,1669463904.728
2046687.0,1669463904.768
2046930.0,1669463904.809
2047407.0,1669463904.889
2047114.0,1669463904.848
2048532.0,1669463904.97
2047846.0,1669463904.931
2048559.0,1669463905.01
2049371.0,1669463905.051
2050155.0,1669463905.09
2050858.0,1669463905.131
2051128.0,1669463905.172
2049420.0,1669463905.211
2047190.0,1669463905.251
2044763.0,1669463905.293
2043587.0,1669463905.332
2042434.0,1669463905.371
2041896.0,1669463905.407
2041722.0,1669463905.446
2041145.0,1669463905.486
2040796.0,1669463905.528
2040355.0,1669463905.566
2039818.0,1669463905.606
2039820.0,1669463905.647
2039920.0,1669463905.686
2040351.0,1669463905.727
2040569.0,1669463905.767
2041156.0,1669463905.806
2041593.0,1669463905.846
2042226.0,1669463905.888
2042852.0,1669463905.927
2043991.0,1669463905.967
2044773.0,1669463906.008
2045656.0,1669463906.047
2046978.0,1669463906.088
2047886.0,1669463906.13
2048228.0,1669463906.169
2046773.0,1669463906.209
2044629.0,1669463906.251
2042755.0,1669463906.29
2041480.0,1669463906.331
2040505.0,1669463906.372
2039659.0,1669463906.411
2038944.0,1669463906.451
2038748.0,1669463906.492
2038459.0,1669463906.532
2038136.0,1669463906.572
2037822.0,1669463906.612
2037734.0,1669463906.651
2037990.0,1669463906.691
2038374.0,1669463906.733
2038926.0,1669463906.771
2039510.0,1669463906.812
2040335.0,1669463906.853
2040803.0,1669463906.892
2041559.0,1669463906.932
2042541.0,1669463906.973
2043480.0,1669463907.012
2044884.0,1669463907.052
2045662.0,1669463907.093
2046805.0,1669463907.133
2047909.0,1669463907.172
2049294.0,1669463907.213
2049163.0,1669463907.252
2047162.0,1669463907.292
2045440.0,1669463907.335
2044008.0,1669463907.371
2043375.0,1669463907.411
2042618.0,1669463907.452
2042184.0,1669463907.491
2042037.0,1669463907.532
2042100.0,1669463907.573
2042064.0,1669463907.612
2042073.0,1669463907.652
2041666.0,1669463907.694
2042049.0,1669463907.733
2042327.0,1669463907.773
2042995.0,1669463907.814
2043272.0,1669463907.843
2044008.0,1669463907.883
2044821.0,1669463907.925
2045635.0,1669463907.964
2046413.0,1669463908.004
2047382.0,1669463908.045
2048141.0,1669463908.084
2049273.0,1669463908.124
2050422.0,1669463908.165
2051751.0,1669463908.204
2052798.0,1669463908.244
2054093.0,1669463908.285
2053775.0,1669463908.325
2050603.0,1669463908.405
2052123.0,1669463908.364
2049720.0,1669463908.485
2049874.0,1669463908.444
2049373.0,1669463908.526
2049490.0,1669463908.566
2049984.0,1669463908.603
2049800.0,1669463908.673
2049809.0,1669463908.638
2049890.0,1669463908.712
2049974.0,1669463908.752
2050455.0,1669463908.791
2051022.0,1669463908.831
2051705.0,1669463908.873
2052479.0,1669463908.913
2053071.0,1669463908.952
2054048.0,1669463908.997
2054958.0,1669463909.037
2055872.0,1669463909.077
2056732.0,1669463909.118
2057659.0,1669463909.157
2058749.0,1669463909.197
2059964.0,1669463909.238
2060746.0,1669463909.277
2061977.0,1669463909.318
2061202.0,1669463909.358
2059310.0,1669463909.397
2057749.0,1669463909.437
2056871.0,1669463909.478
2055532.0,1669463909.518
2055223.0,1669463909.557
2054835.0,1669463909.598
2054776.0,1669463909.637
2054832.0,1669463909.677
2054581.0,1669463909.72
2054619.0,1669463909.759
2054230.0,1669463909.798
2054653.0,1669463909.839
2055180.0,1669463909.879
2055752.0,1669463909.919
2055947.0,1669463909.959
2056616.0,1669463909.999
2057517.0,1669463910.039
2057944.0,1669463910.08
2058766.0,1669463910.12
2059604.0,1669463910.16
2060378.0,1669463910.201
2061344.0,1669463910.237
2062389.0,1669463910.277
2063161.0,1669463910.319
2064266.0,1669463910.357
2065298.0,1669463910.397
2064645.0,1669463910.438
2062806.0,1669463910.477
2060524.0,1669463910.518
2058877.0,1669463910.559
2057333.0,1669463910.598
2056461.0,1669463910.638
2055703.0,1669463910.679
2055137.0,1669463910.718
2054678.0,1669463910.758
2054105.0,1669463910.799
2053614.0,1669463910.838
2053154.0,1669463910.878
2053114.0,1669463910.921
2052535.0,1669463910.959
2052756.0,1669463910.999
2053162.0,1669463911.04
2053638.0,1669463911.079
2053904.0,1669463911.12
2054193.0,1669463911.16
2054771.0,1669463911.199
2055452.0,1669463911.239
2056236.0,1669463911.28
2056724.0,1669463911.32
2057717.0,1669463911.36
2058215.0,1669463911.401
2059016.0,1669463911.44
2060234.0,1669463911.48
2059894.0,1669463911.52
2058026.0,1669463911.554
2055554.0,1669463911.594
2053554.0,1669463911.635
2052031.0,1669463911.675
2051013.0,1669463911.715
2049993.0,1669463911.756
2049377.0,1669463911.795
2048788.0,1669463911.835
2048041.0,1669463911.876
2047506.0,1669463911.916
2046900.0,1669463911.955
2046363.0,1669463911.996
2046118.0,1669463912.035
2046346.0,1669463912.076
2045999.0,1669463912.117
2046163.0,1669463912.156
2046669.0,1669463912.196
2046782.0,1669463912.238
2046835.0,1669463912.277
2047442.0,1669463912.318
2048040.0,1669463912.359
2048207.0,1669463912.398
2048649.0,1669463912.439
2049612.0,1669463912.48
2049955.0,1669463912.519
2050118.0,1669463912.559
2048570.0,1669463912.6
2045720.0,1669463912.639
2042989.0,1669463912.679
2041463.0,1669463912.721
2040035.0,1669463912.759
2038724.0,1669463912.799
2038339.0,1669463912.84
2037622.0,1669463912.879
2036389.0,1669463912.92
2035521.0,1669463912.96
2035054.0,1669463913.0
2034147.0,1669463913.04
2033814.0,1669463913.081
2033898.0,1669463913.12
2033704.0,1669463913.16
2033922.0,1669463913.201
2034120.0,1669463913.24
2034320.0,1669463913.28
2034727.0,1669463913.322
2035340.0,1669463913.4
2035017.0,1669463913.36
2036228.0,1669463913.441
2036991.0,1669463913.481
2037537.0,1669463913.522
2037977.0,1669463913.562
2038890.0,1669463913.601
2037337.0,1669463913.641
2034184.0,1669463913.682
2031248.0,1669463913.719
2028740.0,1669463913.758
2026589.0,1669463913.799
2024813.0,1669463913.839
2023580.0,1669463913.879
2022533.0,1669463913.92
2021459.0,1669463913.959
2020456.0,1669463913.999
2019721.0,1669463914.04
2018375.0,1669463914.079
2017827.0,1669463914.12
2017471.0,1669463914.16
2017801.0,1669463914.199
2017343.0,1669463914.239
2017778.0,1669463914.32
2017439.0,1669463914.28
2018028.0,1669463914.36
2018272.0,1669463914.401
2018975.0,1669463914.44
2019333.0,1669463914.48
2020080.0,1669463914.522
2020438.0,1669463914.56
2021494.0,1669463914.6
2022212.0,1669463914.641
2022566.0,1669463914.68
2021653.0,1669463914.721
2018595.0,1669463914.761
2015178.0,1669463914.8
2013077.0,1669463914.84
2011003.0,1669463914.881
2009400.0,1669463914.921
2008318.0,1669463914.961
2007420.0,1669463915.002
2006398.0,1669463915.041
2005118.0,1669463915.081
2004473.0,1669463915.123
2003442.0,1669463915.161
2003015.0,1669463915.201
2002881.0,1669463915.242
2002804.0,1669463915.281
2002754.0,1669463915.322
2002847.0,1669463915.362
2003017.0,1669463915.401
2003285.0,1669463915.442
2003742.0,1669463915.483
2004351.0,1669463915.522
2004908.0,1669463915.562
2005723.0,1669463915.603
2006196.0,1669463915.642
2007095.0,1669463915.682
2008089.0,1669463915.724
2007630.0,1669463915.763
2005503.0,1669463915.801
2002611.0,1669463915.842
2000482.0,1669463915.881
1999097.0,1669463915.922
1997529.0,1669463915.962
1997153.0,1669463916.002
1996524.0,1669463916.042
1996099.0,1669463916.083
1995294.0,1669463916.121
1994974.0,1669463916.161
1994617.0,1669463916.202
1994541.0,1669463916.241
1994621.0,1669463916.281
1995052.0,1669463916.323
1995570.0,1669463916.361
1995830.0,1669463916.401
1996629.0,1669463916.442
1997180.0,1669463916.481
1997964.0,1669463916.522
1999041.0,1669463916.563
1999754.0,1669463916.602
2000704.0,1669463916.642
2001811.0,1669463916.683
2003213.0,1669463916.722
2004324.0,1669463916.762
2004484.0,1669463916.803
2002729.0,1669463916.842
2000215.0,1669463916.882
1997791.0,1669463916.924
1996423.0,1669463916.963
1994955.0,1669463917.003
1994019.0,1669463917.044
1993460.0,1669463917.083
1993361.0,1669463917.124
1992930.0,1669463917.164
1992790.0,1669463917.203
1992301.0,1669463917.244
1992642.0,1669463917.283
1992905.0,1669463917.323
1993212.0,1669463917.362
1994058.0,1669463917.394
1994992.0,1669463917.433
1995525.0,1669463917.474
1996558.0,1669463917.515
1997805.0,1669463917.554
1998941.0,1669463917.594
1999994.0,1669463917.635
2001578.0,1669463917.674
2002693.0,1669463917.715
2003894.0,1669463917.755
2005614.0,1669463917.794
2007341.0,1669463917.834
2008531.0,1669463917.876
2008689.0,1669463917.915
2007137.0,1669463917.955
2005225.0,1669463917.996
2003921.0,1669463918.035
2003260.0,1669463918.076
2002613.0,1669463918.118
2002304.0,1669463918.152
2002443.0,1669463918.185
2002625.0,1669463918.224
2002774.0,1669463918.263
2002682.0,1669463918.304
2002964.0,1669463918.345
2003761.0,1669463918.384
2004505.0,1669463918.424
2005120.0,1669463918.466
2006418.0,1669463918.505
2007358.0,1669463918.545
2008317.0,1669463918.583
2008317.0,1669463918.62
2009325.0,1669463918.66
2010878.0,1669463918.702
2011995.0,1669463918.741
2013725.0,1669463918.781
2015071.0,1669463918.822
2016583.0,1669463918.861
2017827.0,1669463918.902
2019316.0,1669463918.942
2021039.0,1669463918.981
2022351.0,1669463919.021
2022012.0,1669463919.062
2020536.0,1669463919.102
2019700.0,1669463919.141
2019442.0,1669463919.183
2019414.0,1669463919.222
2019808.0,1669463919.262
2020255.0,1669463919.304
2020568.0,1669463919.343
2021092.0,1669463919.382
2021330.0,1669463919.424
2021682.0,1669463919.463
2022357.0,1669463919.504
2023273.0,1669463919.545
2024488.0,1669463919.584
2025144.0,1669463919.624
2026350.0,1669463919.666
2028500.0,1669463919.745
2027569.0,1669463919.705
2029913.0,1669463919.786
2032819.0,1669463919.859
2030988.0,1669463919.825
2033953.0,1669463919.901
2037028.0,1669463919.979
2035406.0,1669463919.939
2039967.0,1669463920.059
2041273.0,1669463920.1
2040492.0,1669463920.141
2038329.0,1669463920.02
2038790.0,1669463920.18
2037245.0,1669463920.22
2036543.0,1669463920.261
2035285.0,1669463920.34
2035839.0,1669463920.301
2035373.0,1669463920.381
2035554.0,1669463920.42
2035883.0,1669463920.46
2035762.0,1669463920.502
2035853.0,1669463920.537
2036214.0,1669463920.578
2036281.0,1669463920.615
2037109.0,1669463920.645
2037638.0,1669463920.686
2038475.0,1669463920.724
2039317.0,1669463920.763
2040262.0,1669463920.804
2041386.0,1669463920.845
2042505.0,1669463920.885
2043447.0,1669463920.924
2044678.0,1669463920.963
2045780.0,1669463921.002
2047142.0,1669463921.041
2048217.0,1669463921.08
2049201.0,1669463921.119
2050933.0,1669463921.158
2051784.0,1669463921.197
2050776.0,1669463921.236
2048813.0,1669463921.275
2046809.0,1669463921.314
2045394.0,1669463921.353
2044613.0,1669463921.392
2043728.0,1669463921.431
2043403.0,1669463921.47
2043195.0,1669463921.509
2042874.0,1669463921.548
2042560.0,1669463921.587
2042236.0,1669463921.626
2041821.0,1669463921.665
2041923.0,1669463921.704
2042079.0,1669463921.744
2042110.0,1669463921.784
2042374.0,1669463921.824
2043284.0,1669463921.904
2042853.0,1669463921.864
2043979.0,1669463921.944
2044247.0,1669463921.984
2045039.0,1669463922.024
2045851.0,1669463922.064
2046800.0,1669463922.104
2047360.0,1669463922.144
2048300.0,1669463922.184
2049321.0,1669463922.224
2050091.0,1669463922.264
2049697.0,1669463922.304
2047040.0,1669463922.344
2044749.0,1669463922.384
2042556.0,1669463922.424
2040418.0,1669463922.504
2041238.0,1669463922.464
2039759.0,1669463922.544
2039015.0,1669463922.584
2038005.0,1669463922.624
2037253.0,1669463922.664
2036102.0,1669463922.704
2035437.0,1669463922.744
2035080.0,1669463922.784
2034581.0,1669463922.824
2034338.0,1669463922.864
2034191.0,1669463922.904
2034134.0,1669463922.984
2034208.0,1669463922.944
2034374.0,1669463923.024
2034526.0,1669463923.064
2035337.0,1669463923.184
2034578.0,1669463923.104
2035101.0,1669463923.144
2021602.0,1669463923.504
2036533.0,1669463923.264
2036618.0,1669463923.304
2034300.0,1669463923.344
2030581.0,1669463923.384
2035935.0,1669463923.224
2024135.0,1669463923.464
2019134.0,1669463923.544
2026897.0,1669463923.424
2017587.0,1669463923.584
2016396.0,1669463923.624
2014469.0,1669463923.664
2011129.0,1669463923.744
2013017.0,1669463923.704
2010394.0,1669463923.784
2008981.0,1669463923.824
2008047.0,1669463923.864
2007452.0,1669463923.904
2007039.0,1669463923.944
2006663.0,1669463923.984
2006624.0,1669463924.024
2006064.0,1669463924.064
2006260.0,1669463924.104
2006426.0,1669463924.144
2006687.0,1669463924.184
2006566.0,1669463924.224
2006808.0,1669463924.264
2007255.0,1669463924.304
2007714.0,1669463924.344
2006111.0,1669463924.384
2002152.0,1669463924.424
1997451.0,1669463924.464
1993322.0,1669463924.504
1990201.0,1669463924.544
1987468.0,1669463924.584
1984796.0,1669463924.624
1982828.0,1669463924.664
1980984.0,1669463924.704
1978990.0,1669463924.744
1976743.0,1669463924.784
1975384.0,1669463924.824
1973826.0,1669463924.864
1972654.0,1669463924.904
1971861.0,1669463924.944
1971345.0,1669463924.984
1970751.0,1669463925.024
1970195.0,1669463925.064
1969937.0,1669463925.104
1970108.0,1669463925.144
1969697.0,1669463925.184
1969915.0,1669463925.224
1970466.0,1669463925.264
1970828.0,1669463925.304
1970949.0,1669463925.344
1971569.0,1669463925.384
1972477.0,1669463925.424
1970941.0,1669463925.464
1966569.0,1669463925.504
1962365.0,1669463925.544
1958962.0,1669463925.584
1956472.0,1669463925.624
1954082.0,1669463925.664
1952731.0,1669463925.704
1951613.0,1669463925.744
1949981.0,1669463925.784
1948559.0,1669463925.824
1946861.0,1669463925.864
1945943.0,1669463925.904
1944935.0,1669463925.944
1944661.0,1669463925.984
1944399.0,1669463926.024
1944282.0,1669463926.064
1944374.0,1669463926.104
1944834.0,1669463926.144
1945005.0,1669463926.184
1945526.0,1669463926.224
1946112.0,1669463926.264
1947024.0,1669463926.304
1947632.0,1669463926.344
1948526.0,1669463926.384
1949363.0,1669463926.424
1950725.0,1669463926.464
1949538.0,1669463926.504
1945762.0,1669463926.544
1941650.0,1669463926.584
1938831.0,1669463926.624
1936451.0,1669463926.664
1934446.0,1669463926.704
1933322.0,1669463926.744
1932755.0,1669463926.784
1931752.0,1669463926.824
1930970.0,1669463926.864
1930324.0,1669463926.904
1929592.0,1669463926.944
1929608.0,1669463926.984
1929996.0,1669463927.024
1930310.0,1669463927.064
1930866.0,1669463927.104
1931792.0,1669463927.144
1932946.0,1669463927.184
1933953.0,1669463927.224
1934858.0,1669463927.264
1936076.0,1669463927.304
1937532.0,1669463927.344
1939120.0,1669463927.384
1940453.0,1669463927.424
1942123.0,1669463927.464
1943742.0,1669463927.504
1945300.0,1669463927.544
1946443.0,1669463927.584
1944625.0,1669463927.624
1941080.0,1669463927.664
1938299.0,1669463927.704
1936362.0,1669463927.744
1934788.0,1669463927.784
1933725.0,1669463927.824
1933063.0,1669463927.864
1932927.0,1669463927.904
1933087.0,1669463927.944
1932539.0,1669463927.984
1932468.0,1669463928.024
1932995.0,1669463928.064
1933550.0,1669463928.104
1934129.0,1669463928.144
1935278.0,1669463928.184
1936646.0,1669463928.224
1937658.0,1669463928.264
1939148.0,1669463928.304
1940786.0,1669463928.344
1942193.0,1669463928.384
1943830.0,1669463928.424
1945900.0,1669463928.464
1947409.0,1669463928.504
1949515.0,1669463928.544
1951143.0,1669463928.584
1953073.0,1669463928.624
1955088.0,1669463928.664
1956625.0,1669463928.704
1955470.0,1669463928.744
1952401.0,1669463928.784
1950582.0,1669463928.824
1949779.0,1669463928.864
1949129.0,1669463928.904
1948846.0,1669463928.944
1949306.0,1669463928.984
1949823.0,1669463929.024
1950258.0,1669463929.064
1950180.0,1669463929.104
1950795.0,1669463929.144
1951516.0,1669463929.184
1953103.0,1669463929.224
1953926.0,1669463929.264
1955184.0,1669463929.304
1956485.0,1669463929.344
1958024.0,1669463929.384
1959880.0,1669463929.424
1961194.0,1669463929.464
1963030.0,1669463929.504
1966884.0,1669463929.584
1964644.0,1669463929.544
1968754.0,1669463929.624
1970406.0,1669463929.664
1972440.0,1669463929.704
1974306.0,1669463929.744
1975862.0,1669463929.784
1974471.0,1669463929.824
1971967.0,1669463929.864
1970278.0,1669463929.904
1968882.0,1669463929.944
1968295.0,1669463929.984
1968047.0,1669463930.024
1967867.0,1669463930.064
1968206.0,1669463930.104
1968400.0,1669463930.144
1968451.0,1669463930.184
1968506.0,1669463930.224
1969008.0,1669463930.264
1969664.0,1669463930.304
1970358.0,1669463930.344
1970773.0,1669463930.384
1969931.0,1669463930.424
1968753.0,1669463930.464
1966807.0,1669463930.504
1965396.0,1669463930.544
1964822.0,1669463930.584
1965140.0,1669463930.624
1965659.0,1669463930.664
1967146.0,1669463930.704
1968943.0,1669463930.744
1970777.0,1669463930.784
1972595.0,1669463930.824
1974536.0,1669463930.864
1972984.0,1669463930.904
1970404.0,1669463930.944
1968312.0,1669463930.984
1967281.0,1669463931.024
1966766.0,1669463931.064
1966044.0,1669463931.104
1966221.0,1669463931.144
1966661.0,1669463931.184
1966944.0,1669463931.224
1967215.0,1669463931.264
1967112.0,1669463931.304
1967865.0,1669463931.344
1968664.0,1669463931.384
1969458.0,1669463931.424
1970392.0,1669463931.464
1971609.0,1669463931.504
1972992.0,1669463931.544
1974154.0,1669463931.584
1975394.0,1669463931.624
1977017.0,1669463931.664
1978157.0,1669463931.704
1979441.0,1669463931.744
1981167.0,1669463931.784
1982588.0,1669463931.824
1983917.0,1669463931.864
1985071.0,1669463931.904
1984109.0,1669463931.944
1981235.0,1669463931.984
1978690.0,1669463932.024
1977017.0,1669463932.064
1975829.0,1669463932.104
1975060.0,1669463932.144
1974876.0,1669463932.184
1974931.0,1669463932.224
1974404.0,1669463932.264
1973605.0,1669463932.304
1973164.0,1669463932.344
1973347.0,1669463932.384
1973351.0,1669463932.424
1973791.0,1669463932.464
1974414.0,1669463932.504
1974729.0,1669463932.544
1975482.0,1669463932.584
1976110.0,1669463932.624
1977110.0,1669463932.664
1977891.0,1669463932.704
1979065.0,1669463932.744
1979995.0,1669463932.784
1981086.0,1669463932.824
1982491.0,1669463932.864
1983525.0,1669463932.904
1983193.0,1669463932.99
1979790.0,1669463933.029
1976085.0,1669463933.069
1973308.0,1669463933.111
1971262.0,1669463933.149
1969440.0,1669463933.189
1968517.0,1669463933.231
1967468.0,1669463933.27
1966799.0,1669463933.31
1965886.0,1669463933.351
1964962.0,1669463933.39
1964384.0,1669463933.43
1963852.0,1669463933.471
1963578.0,1669463933.511
1963654.0,1669463933.55
1964054.0,1669463933.591
1964301.0,1669463933.63
1965019.0,1669463933.67
1965451.0,1669463933.712
1966295.0,1669463933.75
1967180.0,1669463933.791
1967844.0,1669463933.832
1968707.0,1669463933.871
1969937.0,1669463933.911
1971053.0,1669463933.952
1972148.0,1669463933.991
1971726.0,1669463934.031
1968442.0,1669463934.072
1965547.0,1669463934.112
1962908.0,1669463934.151
1961082.0,1669463934.192
1959346.0,1669463934.231
1958727.0,1669463934.271
1958049.0,1669463934.313
1957446.0,1669463934.352
1956845.0,1669463934.392
1956459.0,1669463934.433
1956480.0,1669463934.472
1956423.0,1669463934.512
1956834.0,1669463934.553
1957891.0,1669463934.592
1958027.0,1669463934.632
1959108.0,1669463934.673
1959956.0,1669463934.713
1961147.0,1669463934.752
1962415.0,1669463934.793
1963617.0,1669463934.832
1965137.0,1669463934.872
1966393.0,1669463934.914
1967897.0,1669463934.953
1969272.0,1669463934.993
1970736.0,1669463935.034
1971140.0,1669463935.073
1969343.0,1669463935.114
1966963.0,1669463935.154
1965396.0,1669463935.193
1964212.0,1669463935.233
1963367.0,1669463935.274
1962958.0,1669463935.314
1963330.0,1669463935.353
1963499.0,1669463935.394
1963577.0,1669463935.433
1963904.0,1669463935.474
1964262.0,1669463935.515
1964870.0,1669463935.554
1965489.0,1669463935.594
1966793.0,1669463935.635
1968155.0,1669463935.674
1969800.0,1669463935.715
1970938.0,1669463935.755
1972317.0,1669463935.794
1973877.0,1669463935.834
1975680.0,1669463935.875
1977298.0,1669463935.915
1979332.0,1669463935.954
1981065.0,1669463935.995
1982795.0,1669463936.035
1984510.0,1669463936.075
1985409.0,1669463936.116
1983904.0,1669463936.155
1982414.0,1669463936.195
1981834.0,1669463936.236
1981686.0,1669463936.275
1981528.0,1669463936.316
1982239.0,1669463936.356
1982704.0,1669463936.395
1983341.0,1669463936.435
1983893.0,1669463936.476
1984521.0,1669463936.516
1985490.0,1669463936.556
1986496.0,1669463936.597
1987776.0,1669463936.636
1989033.0,1669463936.676
1990656.0,1669463936.718
1992043.0,1669463936.756
1993571.0,1669463936.796
1995270.0,1669463936.837
1997031.0,1669463936.876
1999070.0,1669463936.917
2000739.0,1669463936.957
2002371.0,1669463936.996
2004234.0,1669463937.036
2003936.0,1669463937.077
2002315.0,1669463937.117
2001400.0,1669463937.157
2000690.0,1669463937.198
2000981.0,1669463937.237
2001276.0,1669463937.277
2001744.0,1669463937.319
2002639.0,1669463937.357
2003295.0,1669463937.397
2003764.0,1669463937.438
2004769.0,1669463937.477
2005614.0,1669463937.518
2006561.0,1669463937.559
2007842.0,1669463937.598
2009046.0,1669463937.638
2010645.0,1669463937.679
2012206.0,1669463937.719
2013731.0,1669463937.758
2015474.0,1669463937.799
2016793.0,1669463937.838
2018529.0,1669463937.878
2020372.0,1669463937.92
2022066.0,1669463937.958
2023881.0,1669463937.998
2024577.0,1669463938.04
2023493.0,1669463938.079
2022218.0,1669463938.119
2021716.0,1669463938.16
2021956.0,1669463938.199
2022039.0,1669463938.239
2022747.0,1669463938.28
2023629.0,1669463938.32
2023988.0,1669463938.359
2024567.0,1669463938.4
2025142.0,1669463938.439
2025819.0,1669463938.48
2026799.0,1669463938.521
2027670.0,1669463938.56
2029288.0,1669463938.6
2030530.0,1669463938.641
2031524.0,1669463938.68
2031514.0,1669463938.721
2031684.0,1669463938.761
2031582.0,1669463938.8
2032071.0,1669463938.84
2032772.0,1669463938.881
2034007.0,1669463938.921
2035881.0,1669463938.961
2038136.0,1669463939.002
2038660.0,1669463939.041
2036927.0,1669463939.081
2035936.0,1669463939.123
2035011.0,1669463939.161
2035123.0,1669463939.201
2034838.0,1669463939.242
2035241.0,1669463939.281
2035707.0,1669463939.322
2035913.0,1669463939.362
2036141.0,1669463939.401
2036533.0,1669463939.442
2037054.0,1669463939.483
2037827.0,1669463939.522
2038460.0,1669463939.562
2039651.0,1669463939.603
2040477.0,1669463939.642
2041437.0,1669463939.682
2042615.0,1669463939.724
2043721.0,1669463939.762
2044811.0,1669463939.802
2046264.0,1669463939.843
2047700.0,1669463939.883
2048812.0,1669463939.923
2050221.0,1669463939.964
2051815.0,1669463940.003
2052375.0,1669463940.043
2050858.0,1669463940.084
2048789.0,1669463940.124
2046726.0,1669463940.163
2045778.0,1669463940.204
2044772.0,1669463940.243
2044028.0,1669463940.283
2043875.0,1669463940.325
2044058.0,1669463940.364
2043928.0,1669463940.404
2043453.0,1669463940.445
2043708.0,1669463940.484
2043537.0,1669463940.525
2044083.0,1669463940.565
2044293.0,1669463940.604
2044964.0,1669463940.644
2045736.0,1669463940.685
2046617.0,1669463940.725
2047393.0,1669463940.765
2048310.0,1669463940.806
2049229.0,1669463940.845
2050617.0,1669463940.885
2051355.0,1669463940.927
2052675.0,1669463940.965
2053659.0,1669463941.005
2055090.0,1669463941.046
2055330.0,1669463941.085
2053433.0,1669463941.126
2051030.0,1669463941.166
2049193.0,1669463941.205
2048082.0,1669463941.245
2047457.0,1669463941.287
2046955.0,1669463941.326
2046750.0,1669463941.366
2046716.0,1669463941.407
2046458.0,1669463941.446
2046011.0,1669463941.486
2045955.0,1669463941.528
2045654.0,1669463941.566
2045925.0,1669463941.606
2046318.0,1669463941.648
2046977.0,1669463941.687
2047207.0,1669463941.727
2047698.0,1669463941.768
2048917.0,1669463941.807
2049436.0,1669463941.847
2050063.0,1669463941.888
2050904.0,1669463941.928
2051564.0,1669463941.967
2052431.0,1669463942.008
2053610.0,1669463942.047
2052384.0,1669463942.088
2049696.0,1669463942.129
2047693.0,1669463942.168
2046014.0,1669463942.208
2044869.0,1669463942.249
2044516.0,1669463942.288
2044138.0,1669463942.329
2043610.0,1669463942.369
2042776.0,1669463942.408
2042189.0,1669463942.448
2041815.0,1669463942.489
2041166.0,1669463942.529
2041445.0,1669463942.569
2041153.0,1669463942.61
2041450.0,1669463942.649
2041423.0,1669463942.689
2041930.0,1669463942.731
2042130.0,1669463942.769
2042465.0,1669463942.809
2043311.0,1669463942.85
2043752.0,1669463942.889
2044521.0,1669463942.93
2045152.0,1669463942.971
2045558.0,1669463943.01
2043016.0,1669463943.05
2039182.0,1669463943.091
2036452.0,1669463943.131
2034016.0,1669463943.17
2031910.0,1669463943.211
2030469.0,1669463943.25
2029336.0,1669463943.29
2028259.0,1669463943.332
2027067.0,1669463943.371
2025973.0,1669463943.411
2024741.0,1669463943.452
2024050.0,1669463943.491
2023381.0,1669463943.532
2023122.0,1669463943.572
2023100.0,1669463943.611
2022900.0,1669463943.651
2022955.0,1669463943.692
2023165.0,1669463943.732
2023353.0,1669463943.772
2023807.0,1669463943.813
2023961.0,1669463943.852
2024766.0,1669463943.892
2025325.0,1669463943.934
2025802.0,1669463943.972
2024788.0,1669463944.012
2021554.0,1669463944.053
2018120.0,1669463944.092
2015189.0,1669463944.133
2012844.0,1669463944.174
2010603.0,1669463944.213
2009070.0,1669463944.253
2008092.0,1669463944.294
2006837.0,1669463944.334
2005649.0,1669463944.373
2004595.0,1669463944.414
2003742.0,1669463944.453
2003108.0,1669463944.493
2003137.0,1669463944.535
2003009.0,1669463944.574
2002928.0,1669463944.614
2002738.0,1669463944.655
2003026.0,1669463944.694
2003559.0,1669463944.735
2003760.0,1669463944.775
2004388.0,1669463944.814
2004976.0,1669463944.854
2005468.0,1669463944.896
2005977.0,1669463944.935
2006642.0,1669463944.975
2007360.0,1669463945.014
2006131.0,1669463945.053
2002856.0,1669463945.092
1999423.0,1669463945.131
1997192.0,1669463945.17
1995569.0,1669463945.209
1993399.0,1669463945.287
1994410.0,1669463945.248
1991799.0,1669463945.365
1992849.0,1669463945.326
1990936.0,1669463945.404
1989745.0,1669463945.443
1989179.0,1669463945.482
1988860.0,1669463945.56
1988664.0,1669463945.521
1988827.0,1669463945.599
1988980.0,1669463945.638
1989228.0,1669463945.677
1989344.0,1669463945.716
1989846.0,1669463945.755
1990625.0,1669463945.794
1991154.0,1669463945.833
1991902.0,1669463945.872
1992824.0,1669463945.911
1993717.0,1669463945.95
1994456.0,1669463945.989
1993144.0,1669463946.028
1990456.0,1669463946.067
1987471.0,1669463946.106
1985583.0,1669463946.145
1983577.0,1669463946.184
1982533.0,1669463946.223
1982009.0,1669463946.262
1981206.0,1669463946.301
1980790.0,1669463946.34
1979981.0,1669463946.379
1979812.0,1669463946.418
1979529.0,1669463946.457
1979735.0,1669463946.496
1980067.0,1669463946.535
1980870.0,1669463946.574
1981478.0,1669463946.613
1981844.0,1669463946.652
1982867.0,1669463946.691
1983924.0,1669463946.73
1985230.0,1669463946.769
1986377.0,1669463946.808
1987373.0,1669463946.847
1988866.0,1669463946.886
1990171.0,1669463946.925
1991766.0,1669463946.964
1993417.0,1669463947.003
1994471.0,1669463947.042
1994445.0,1669463947.081
1992220.0,1669463947.12
1989896.0,1669463947.159
1988366.0,1669463947.198
1986995.0,1669463947.237
1985841.0,1669463947.276
1985662.0,1669463947.315
1985293.0,1669463947.354
1985458.0,1669463947.393
1985330.0,1669463947.432
1985396.0,1669463947.471
1985634.0,1669463947.51
1986794.0,1669463947.588
1985929.0,1669463947.549
1987872.0,1669463947.627
1988814.0,1669463947.666
1991117.0,1669463947.744
1990020.0,1669463947.705
1992494.0,1669463947.783
1995054.0,1669463947.861
1997951.0,1669463947.939
1993667.0,1669463947.822
1996534.0,1669463947.9
1999366.0,1669463947.978
2001086.0,1669463948.017
2002810.0,1669463948.056
2004419.0,1669463948.095
2005965.0,1669463948.134
2007779.0,1669463948.173
2007651.0,1669463948.212
2005726.0,1669463948.251
2004285.0,1669463948.29
2003714.0,1669463948.329
2002967.0,1669463948.368
2002449.0,1669463948.407
2002618.0,1669463948.446
2002992.0,1669463948.485
2003525.0,1669463948.524
2003769.0,1669463948.563
2003886.0,1669463948.602
2004115.0,1669463948.641
2005032.0,1669463948.68
2006090.0,1669463948.719
2006969.0,1669463948.758
2007967.0,1669463948.797
2009253.0,1669463948.836
2010436.0,1669463948.875
2012107.0,1669463948.914
2013309.0,1669463948.953
2014535.0,1669463948.992
2016009.0,1669463949.031
2017494.0,1669463949.07
2019122.0,1669463949.109
2020686.0,1669463949.148
2022266.0,1669463949.187
2023853.0,1669463949.226
2025095.0,1669463949.265
2023739.0,1669463949.304
2022379.0,1669463949.343
2021615.0,1669463949.382
2021280.0,1669463949.421
2021271.0,1669463949.46
2022014.0,1669463949.499
2022409.0,1669463949.538
2022777.0,1669463949.577
2023084.0,1669463949.616
2023472.0,1669463949.655
2023873.0,1669463949.694
2024351.0,1669463949.733
2025339.0,1669463949.772
2026389.0,1669463949.811
2027369.0,1669463949.851
2028786.0,1669463949.891
2030017.0,1669463949.931
2030947.0,1669463949.971
2032622.0,1669463950.011
2033746.0,1669463950.051
2035199.0,1669463950.091
2036507.0,1669463950.131
2038260.0,1669463950.171
2039620.0,1669463950.211
2041133.0,1669463950.251
2042834.0,1669463950.291
2043205.0,1669463950.331
2041628.0,1669463950.371
2039670.0,1669463950.411
2037952.0,1669463950.451
2036826.0,1669463950.491
2035972.0,1669463950.531
2035352.0,1669463950.571
2034946.0,1669463950.611
2034948.0,1669463950.651
2034480.0,1669463950.691
2034391.0,1669463950.731
2034084.0,1669463950.771
2033941.0,1669463950.811
2034262.0,1669463950.851
2034539.0,1669463950.891
2035117.0,1669463950.931
2035851.0,1669463950.971
2036689.0,1669463951.011
2037070.0,1669463951.051
2038026.0,1669463951.091
2038639.0,1669463951.131
2039850.0,1669463951.171
2040907.0,1669463951.211
2041563.0,1669463951.251
2042707.0,1669463951.291
2043762.0,1669463951.331
2044878.0,1669463951.371
2046101.0,1669463951.411
2045682.0,1669463951.451
2042627.0,1669463951.491
2040120.0,1669463951.531
2038320.0,1669463951.571
2036465.0,1669463951.611
2035128.0,1669463951.651
2034375.0,1669463951.691
2033297.0,1669463951.731
2032847.0,1669463951.771
2031885.0,1669463951.811
2030890.0,1669463951.851
2030493.0,1669463951.891
2029929.0,1669463951.931
2029891.0,1669463951.971
2029635.0,1669463952.011
2029637.0,1669463952.051
2029818.0,1669463952.091
2029877.0,1669463952.131
2030580.0,1669463952.171
2030711.0,1669463952.211
2031095.0,1669463952.251
2031734.0,1669463952.291
2032127.0,1669463952.331
2032669.0,1669463952.371
2033507.0,1669463952.411
2034195.0,1669463952.451
2034829.0,1669463952.491
2033523.0,1669463952.531
2030109.0,1669463952.571
2026964.0,1669463952.611
2024543.0,1669463952.651
2022971.0,1669463952.691
2021509.0,1669463952.731
2020750.0,1669463952.771
2019973.0,1669463952.811
2018826.0,1669463952.851
2017584.0,1669463952.891
2016331.0,1669463952.931
2015803.0,1669463952.971
2015313.0,1669463953.011
2014883.0,1669463953.051
2014453.0,1669463953.091
2014474.0,1669463953.131
2014468.0,1669463953.171
2014352.0,1669463953.211
2014686.0,1669463953.251
2014895.0,1669463953.291
2014965.0,1669463953.331
2015634.0,1669463953.371
2015856.0,1669463953.411
2016532.0,1669463953.451
2017041.0,1669463953.491
2017624.0,1669463953.531
2014645.0,1669463953.571
2010388.0,1669463953.611
2005996.0,1669463953.651
2002742.0,1669463953.691
1999788.0,1669463953.731
1997310.0,1669463953.771
1995034.0,1669463953.811
1993133.0,1669463953.851
1993133.0,1669463953.891
1991522.0,1669463953.931
1989912.0,1669463953.971
1987751.0,1669463954.011
1986523.0,1669463954.051
1985408.0,1669463954.091
1984626.0,1669463954.131
1984060.0,1669463954.171
1983798.0,1669463954.211
1983106.0,1669463954.251
1983099.0,1669463954.291
1983217.0,1669463954.371
1983626.0,1669463954.451
1984663.0,1669463954.531
1985579.0,1669463954.611
1985544.0,1669463954.651
1982211.0,1669463954.691
1977277.0,1669463954.731
1973531.0,1669463954.771
1983158.0,1669463954.331
1983456.0,1669463954.411
1983927.0,1669463954.491
1985285.0,1669463954.571
1970310.0,1669463954.811
1967321.0,1669463954.851
1964858.0,1669463954.891
1963072.0,1669463954.931
1961822.0,1669463954.971
1960018.0,1669463955.011
1958429.0,1669463955.051
1956728.0,1669463955.091
1955692.0,1669463955.131
1954661.0,1669463955.171
1954195.0,1669463955.211
1953820.0,1669463955.251
1953738.0,1669463955.291
1953918.0,1669463955.331
1953685.0,1669463955.371
1953932.0,1669463955.411
1954403.0,1669463955.451
1954756.0,1669463955.491
1954928.0,1669463955.531
1955891.0,1669463955.571
1956711.0,1669463955.611
1957405.0,1669463955.651
1957921.0,1669463955.691
1956122.0,1669463955.731
1952086.0,1669463955.771
1948487.0,1669463955.811
1946320.0,1669463955.851
1944593.0,1669463955.891
1943201.0,1669463955.931
1942334.0,1669463955.971
1941511.0,1669463956.011
1940432.0,1669463956.051
1939209.0,1669463956.091
1938574.0,1669463956.131
1938087.0,1669463956.171
1938165.0,1669463956.211
1938021.0,1669463956.251
1938500.0,1669463956.291
1938971.0,1669463956.331
1939627.0,1669463956.371
1940261.0,1669463956.411
1941120.0,1669463956.451
1942138.0,1669463956.491
1942996.0,1669463956.531
1944293.0,1669463956.571
1945303.0,1669463956.611
1946731.0,1669463956.651
1947939.0,1669463956.691
1947910.0,1669463956.731
1945108.0,1669463956.771
1941682.0,1669463956.811
1938946.0,1669463956.851
1936866.0,1669463956.892
1935214.0,1669463956.931
1934025.0,1669463956.971
1933591.0,1669463957.013
1933245.0,1669463957.052
1932655.0,1669463957.092
1932415.0,1669463957.133
1932365.0,1669463957.172
1932290.0,1669463957.213
1932810.0,1669463957.253
1933763.0,1669463957.292
1934774.0,1669463957.333
1935848.0,1669463957.374
1937150.0,1669463957.414
1938526.0,1669463957.454
1939897.0,1669463957.495
1941348.0,1669463957.535
1943009.0,1669463957.57
1944910.0,1669463957.612
1946707.0,1669463957.651
1948577.0,1669463957.691
1950663.0,1669463957.732
1952806.0,1669463957.771
1954379.0,1669463957.812
1953766.0,1669463957.852
1951586.0,1669463957.891
1949778.0,1669463957.931
1948544.0,1669463957.972
1947953.0,1669463958.012
1947465.0,1669463958.052
1947859.0,1669463958.093
1947991.0,1669463958.132
1948564.0,1669463958.172
1949009.0,1669463958.214
1949721.0,1669463958.252
1950330.0,1669463958.285
1951566.0,1669463958.32
1952818.0,1669463958.357
1954395.0,1669463958.397
1955837.0,1669463958.439
1957377.0,1669463958.477
1959182.0,1669463958.517
1961096.0,1669463958.559
1963044.0,1669463958.599
1964849.0,1669463958.638
1966907.0,1669463958.68
1969344.0,1669463958.717
1971343.0,1669463958.757
1973664.0,1669463958.798
1973664.0,1669463958.834
1976010.0,1669463958.874
1980565.0,1669463958.954
1980986.0,1669463958.995
1978422.0,1669463958.915
1979787.0,1669463959.035
1979469.0,1669463959.074
1979555.0,1669463959.114
1979646.0,1669463959.155
1980377.0,1669463959.195
1981422.0,1669463959.235
1982871.0,1669463959.276
1983621.0,1669463959.315
1984323.0,1669463959.355
1985499.0,1669463959.397
1986356.0,1669463959.435
1987594.0,1669463959.475
1989253.0,1669463959.517
1994253.0,1669463959.638
1995957.0,1669463959.677
1992343.0,1669463959.598
1997685.0,1669463959.717
1990614.0,1669463959.556
1999886.0,1669463959.758
2001411.0,1669463959.798
2003475.0,1669463959.838
2005697.0,1669463959.879
2007838.0,1669463959.918
2009596.0,1669463959.958
2011631.0,1669463960.001
2012032.0,1669463960.069
2011242.0,1669463960.11
2010742.0,1669463960.149
2012875.0,1669463960.029
2011147.0,1669463960.19
2011261.0,1669463960.231
2011694.0,1669463960.27
2012715.0,1669463960.31
2013753.0,1669463960.351
2014312.0,1669463960.391
2014995.0,1669463960.43
2015986.0,1669463960.471
2016979.0,1669463960.51
2018289.0,1669463960.55
2019440.0,1669463960.592
2020948.0,1669463960.63
2022464.0,1669463960.67
2024169.0,1669463960.711
2025289.0,1669463960.75
2027089.0,1669463960.788
2028600.0,1669463960.821
2030493.0,1669463960.857
2032180.0,1669463960.897
2033725.0,1669463960.939
2035456.0,1669463960.978
2040909.0,1669463961.099
2039059.0,1669463961.059
2037580.0,1669463961.018
2040814.0,1669463961.139
2039325.0,1669463961.179
2037286.0,1669463961.26
2038093.0,1669463961.217
2036975.0,1669463961.302
2037536.0,1669463961.422
2036901.0,1669463961.381
2036850.0,1669463961.341
2037924.0,1669463961.461
2038069.0,1669463961.501
2038401.0,1669463961.542
2039153.0,1669463961.621
2039851.0,1669463961.662
2038668.0,1669463961.582
2041002.0,1669463961.701
2044034.0,1669463961.822
2046393.0,1669463961.903
2041799.0,1669463961.741
2044909.0,1669463961.862
2042844.0,1669463961.783
2047327.0,1669463961.942
2048637.0,1669463961.981
2050099.0,1669463962.019
2051618.0,1669463962.058
2052901.0,1669463962.098
2054033.0,1669463962.139
2056823.0,1669463962.218
2055793.0,1669463962.179
2052690.0,1669463962.339
2054442.0,1669463962.299
2051693.0,1669463962.381
2050862.0,1669463962.419
2050696.0,1669463962.46
2050619.0,1669463962.495
2056142.0,1669463962.259
2050625.0,1669463962.534
2050414.0,1669463962.575
2050233.0,1669463962.615
2050037.0,1669463962.654
2050322.0,1669463962.694
2050257.0,1669463962.735
2050659.0,1669463962.775
2050966.0,1669463962.815
2051477.0,1669463962.856
2051991.0,1669463962.895
2052430.0,1669463962.935
2053179.0,1669463962.977
2053913.0,1669463963.015
2054719.0,1669463963.055
2055732.0,1669463963.096
2057323.0,1669463963.176
2058510.0,1669463963.281
2056325.0,1669463963.135
2058317.0,1669463963.21
2059246.0,1669463963.249
2055821.0,1669463963.32
2053271.0,1669463963.36
2051516.0,1669463963.399
2050088.0,1669463963.441
2049009.0,1669463963.48
2047307.0,1669463963.6
2047307.0,1669463963.634
2048710.0,1669463963.52
2046448.0,1669463963.675
2045672.0,1669463963.714
2047639.0,1669463963.562
2045466.0,1669463963.755
2044764.0,1669463963.795
2044766.0,1669463963.834
2044880.0,1669463963.915
2044609.0,1669463963.874
2045019.0,1669463963.955
2045430.0,1669463963.995
2046452.0,1669463964.075
2045595.0,1669463964.036
2046808.0,1669463964.115
2047376.0,1669463964.157
2047775.0,1669463964.195
2048634.0,1669463964.235
2049611.0,1669463964.276
2050120.0,1669463964.316
2050213.0,1669463964.397
2050625.0,1669463964.357
