bvp,time
-1.32,1625051751.03125
2.84,1625051751.046875
13.88,1625051751.0625
31.93,1625051751.078125
54.87,1625051751.09375
78.73,1625051751.109375
99.19,1625051751.125
113.31,1625051751.140625
120.73,1625051751.15625
123.44,1625051751.171875
124.45,1625051751.1875
126.07,1625051751.203125
128.89,1625051751.21875
131.74,1625051751.234375
132.68,1625051751.25
130.09,1625051751.265625
123.33,1625051751.28125
112.8,1625051751.296875
99.61,1625051751.3125
85.2,1625051751.328125
71.11,1625051751.34375
58.66,1625051751.359375
48.51,1625051751.375
40.42,1625051751.390625
33.32,1625051751.40625
25.89,1625051751.421875
17.29,1625051751.4375
7.61,1625051751.453125
-2.24,1625051751.46875
-11.28,1625051751.484375
-19.24,1625051751.5
-26.89,1625051751.515625
-35.55,1625051751.53125
-46.21,1625051751.546875
-58.71,1625051751.5625
-71.57,1625051751.578125
-82.76,1625051751.59375
-90.63,1625051751.609375
-94.73,1625051751.625
-95.84,1625051751.640625
-95.38,1625051751.65625
-94.53,1625051751.671875
-93.81,1625051751.6875
-93.14,1625051751.703125
-92.29,1625051751.71875
-91.27,1625051751.734375
-90.41,1625051751.75
-90.06,1625051751.765625
-90.3,1625051751.78125
-90.85,1625051751.796875
-91.32,1625051751.8125
-91.55,1625051751.828125
-91.83,1625051751.84375
-92.76,1625051751.859375
-94.86,1625051751.875
-98.14,1625051751.890625
-101.9,1625051751.90625
-104.87,1625051751.921875
-105.63,1625051751.9375
-103.09,1625051751.953125
-96.79,1625051751.96875
-86.76,1625051751.984375
-73.32,1625051752.0
-56.72,1625051752.015625
-36.98,1625051752.03125
-14.16,1625051752.046875
11.36,1625051752.0625
38.57,1625051752.078125
66.0,1625051752.09375
92.27,1625051752.109375
116.67,1625051752.125
139.45,1625051752.140625
161.48,1625051752.15625
183.48,1625051752.171875
205.44,1625051752.1875
226.51,1625051752.203125
245.57,1625051752.21875
261.96,1625051752.234375
275.87,1625051752.25
288.0,1625051752.265625
298.84,1625051752.28125
307.99,1625051752.296875
314.14,1625051752.3125
315.59,1625051752.328125
310.98,1625051752.34375
299.77,1625051752.359375
282.21,1625051752.375
258.87,1625051752.390625
230.36,1625051752.40625
197.21,1625051752.421875
160.09,1625051752.4375
119.95,1625051752.453125
77.85,1625051752.46875
34.61,1625051752.484375
-9.54,1625051752.5
-54.72,1625051752.515625
-100.73,1625051752.53125
-146.31,1625051752.546875
-188.82,1625051752.5625
-224.82,1625051752.578125
-251.25,1625051752.59375
-266.65,1625051752.609375
-271.69,1625051752.625
-268.76,1625051752.640625
-260.88,1625051752.65625
-250.57,1625051752.671875
-239.22,1625051752.6875
-227.22,1625051752.703125
-214.63,1625051752.71875
-201.77,1625051752.734375
-189.35,1625051752.75
-178.15,1625051752.765625
-168.53,1625051752.78125
-160.19,1625051752.796875
-152.27,1625051752.8125
-143.85,1625051752.828125
-134.35,1625051752.84375
-123.78,1625051752.859375
-112.64,1625051752.875
-101.69,1625051752.890625
-91.54,1625051752.90625
-82.58,1625051752.921875
-74.83,1625051752.9375
-68.14,1625051752.953125
-62.24,1625051752.96875
-56.86,1625051752.984375
-51.82,1625051753.0
-47.02,1625051753.015625
-42.38,1625051753.03125
-37.89,1625051753.046875
-33.59,1625051753.0625
-29.53,1625051753.078125
-25.87,1625051753.09375
-22.73,1625051753.109375
-20.16,1625051753.125
-18.11,1625051753.140625
-16.4,1625051753.15625
-14.82,1625051753.171875
-13.16,1625051753.1875
-11.31,1625051753.203125
-9.33,1625051753.21875
-7.44,1625051753.234375
-6.01,1625051753.25
-5.53,1625051753.265625
-6.44,1625051753.28125
-8.94,1625051753.296875
-12.7,1625051753.3125
-16.81,1625051753.328125
-19.83,1625051753.34375
-20.24,1625051753.359375
-16.95,1625051753.375
-9.84,1625051753.390625
0.06,1625051753.40625
10.82,1625051753.421875
20.24,1625051753.4375
26.54,1625051753.453125
28.88,1625051753.46875
27.43,1625051753.484375
23.16,1625051753.5
17.3,1625051753.515625
10.91,1625051753.53125
4.68,1625051753.546875
-1.04,1625051753.5625
-6.09,1625051753.578125
-10.32,1625051753.59375
-13.57,1625051753.609375
-15.69,1625051753.625
-16.71,1625051753.640625
-16.87,1625051753.65625
-16.51,1625051753.671875
-16.01,1625051753.6875
-15.55,1625051753.703125
-15.09,1625051753.71875
-14.46,1625051753.734375
-13.5,1625051753.75
-12.22,1625051753.765625
-10.83,1625051753.78125
-9.73,1625051753.796875
-9.26,1625051753.8125
-9.6,1625051753.828125
-10.66,1625051753.84375
-12.11,1625051753.859375
-13.49,1625051753.875
-14.4,1625051753.890625
-14.58,1625051753.90625
-14.04,1625051753.921875
-12.99,1625051753.9375
-11.84,1625051753.953125
-10.96,1625051753.96875
-10.66,1625051753.984375
-11.04,1625051754.0
-11.99,1625051754.015625
-13.24,1625051754.03125
-14.47,1625051754.046875
-15.38,1625051754.0625
-15.85,1625051754.078125
-15.84,1625051754.09375
-15.42,1625051754.109375
-14.62,1625051754.125
-13.43,1625051754.140625
-11.8,1625051754.15625
-9.67,1625051754.171875
-7.08,1625051754.1875
-4.2,1625051754.203125
-1.3,1625051754.21875
1.29,1625051754.234375
3.35,1625051754.25
4.77,1625051754.265625
5.57,1625051754.28125
5.85,1625051754.296875
5.74,1625051754.3125
5.42,1625051754.328125
5.09,1625051754.34375
4.98,1625051754.359375
5.28,1625051754.375
6.02,1625051754.390625
7.13,1625051754.40625
8.35,1625051754.421875
9.37,1625051754.4375
9.96,1625051754.453125
10.01,1625051754.46875
9.56,1625051754.484375
8.78,1625051754.5
7.85,1625051754.515625
6.95,1625051754.53125
6.2,1625051754.546875
5.66,1625051754.5625
5.3,1625051754.578125
5.07,1625051754.59375
4.91,1625051754.609375
4.73,1625051754.625
4.48,1625051754.640625
4.13,1625051754.65625
3.61,1625051754.671875
2.88,1625051754.6875
1.94,1625051754.703125
0.85,1625051754.71875
-0.24,1625051754.734375
-1.19,1625051754.75
-1.87,1625051754.765625
-2.29,1625051754.78125
-2.58,1625051754.796875
-2.85,1625051754.8125
-3.18,1625051754.828125
-3.5,1625051754.84375
-3.64,1625051754.859375
-3.44,1625051754.875
-2.78,1625051754.890625
-1.68,1625051754.90625
-0.25,1625051754.921875
1.31,1625051754.9375
2.81,1625051754.953125
4.09,1625051754.96875
5.05,1625051754.984375
5.69,1625051755.0
6.07,1625051755.015625
6.28,1625051755.03125
6.43,1625051755.046875
6.59,1625051755.0625
6.79,1625051755.078125
7.03,1625051755.09375
7.32,1625051755.109375
7.67,1625051755.125
8.05,1625051755.140625
8.39,1625051755.15625
8.53,1625051755.171875
8.29,1625051755.1875
7.62,1625051755.203125
6.6,1625051755.21875
5.47,1625051755.234375
4.52,1625051755.25
3.95,1625051755.265625
3.78,1625051755.28125
3.84,1625051755.296875
3.86,1625051755.3125
3.62,1625051755.328125
3.07,1625051755.34375
2.27,1625051755.359375
1.41,1625051755.375
0.61,1625051755.390625
-0.1,1625051755.40625
-0.81,1625051755.421875
-1.59,1625051755.4375
-2.44,1625051755.453125
-3.24,1625051755.46875
-3.8,1625051755.484375
-4.03,1625051755.5
-3.95,1625051755.515625
-3.73,1625051755.53125
-3.59,1625051755.546875
-3.65,1625051755.5625
-3.85,1625051755.578125
-4.06,1625051755.59375
-4.09,1625051755.609375
-3.88,1625051755.625
-3.45,1625051755.640625
-2.89,1625051755.65625
-2.23,1625051755.671875
-1.44,1625051755.6875
-0.43,1625051755.703125
0.86,1625051755.71875
2.4,1625051755.734375
4.06,1625051755.75
5.62,1625051755.765625
6.89,1625051755.78125
7.71,1625051755.796875
8.07,1625051755.8125
8.09,1625051755.828125
7.98,1625051755.84375
7.99,1625051755.859375
8.25,1625051755.875
8.73,1625051755.890625
9.22,1625051755.90625
9.44,1625051755.921875
9.22,1625051755.9375
8.58,1625051755.953125
7.73,1625051755.96875
6.97,1625051755.984375
6.5,1625051756.0
6.39,1625051756.015625
6.55,1625051756.03125
6.79,1625051756.046875
6.96,1625051756.0625
6.96,1625051756.078125
6.73,1625051756.09375
6.28,1625051756.109375
5.64,1625051756.125
4.88,1625051756.140625
4.12,1625051756.15625
3.41,1625051756.171875
2.78,1625051756.1875
2.17,1625051756.203125
1.45,1625051756.21875
0.53,1625051756.234375
-0.61,1625051756.25
-1.88,1625051756.265625
-3.12,1625051756.28125
-4.15,1625051756.296875
-4.86,1625051756.3125
-5.2,1625051756.328125
-5.18,1625051756.34375
-4.86,1625051756.359375
-4.29,1625051756.375
-3.53,1625051756.390625
-2.62,1625051756.40625
-1.61,1625051756.421875
-0.52,1625051756.4375
0.62,1625051756.453125
1.74,1625051756.46875
2.81,1625051756.484375
3.79,1625051756.5
4.68,1625051756.515625
5.5,1625051756.53125
6.25,1625051756.546875
6.9,1625051756.5625
7.38,1625051756.578125
7.64,1625051756.59375
7.66,1625051756.609375
7.49,1625051756.625
7.25,1625051756.640625
7.01,1625051756.65625
6.84,1625051756.671875
6.75,1625051756.6875
6.68,1625051756.703125
6.59,1625051756.71875
6.48,1625051756.734375
6.37,1625051756.75
6.29,1625051756.765625
6.23,1625051756.78125
6.17,1625051756.796875
6.05,1625051756.8125
5.82,1625051756.828125
5.49,1625051756.84375
5.05,1625051756.859375
4.57,1625051756.875
4.07,1625051756.890625
3.58,1625051756.90625
3.05,1625051756.921875
2.48,1625051756.9375
1.84,1625051756.953125
1.13,1625051756.96875
0.41,1625051756.984375
-0.27,1625051757.0
-0.85,1625051757.015625
-1.38,1625051757.03125
-1.89,1625051757.046875
-2.49,1625051757.0625
-3.21,1625051757.078125
-4.04,1625051757.09375
-4.85,1625051757.109375
-5.46,1625051757.125
-5.68,1625051757.140625
-5.4,1625051757.15625
-4.62,1625051757.171875
-3.46,1625051757.1875
-2.14,1625051757.203125
-0.87,1625051757.21875
0.22,1625051757.234375
1.15,1625051757.25
1.99,1625051757.265625
2.89,1625051757.28125
3.85,1625051757.296875
4.82,1625051757.3125
5.65,1625051757.328125
6.19,1625051757.34375
6.4,1625051757.359375
6.34,1625051757.375
6.12,1625051757.390625
5.86,1625051757.40625
5.59,1625051757.421875
5.29,1625051757.4375
4.95,1625051757.453125
4.61,1625051757.46875
4.4,1625051757.484375
4.47,1625051757.5
4.89,1625051757.515625
5.55,1625051757.53125
6.2,1625051757.546875
6.58,1625051757.5625
6.51,1625051757.578125
6.04,1625051757.59375
5.36,1625051757.609375
4.67,1625051757.625
4.08,1625051757.640625
3.53,1625051757.65625
2.89,1625051757.671875
2.08,1625051757.6875
1.17,1625051757.703125
0.36,1625051757.71875
-0.16,1625051757.734375
-0.32,1625051757.75
-0.26,1625051757.765625
-0.18,1625051757.78125
-0.29,1625051757.796875
-0.62,1625051757.8125
-1.06,1625051757.828125
-1.42,1625051757.84375
-1.56,1625051757.859375
-1.5,1625051757.875
-1.33,1625051757.890625
-1.22,1625051757.90625
-1.21,1625051757.921875
-1.27,1625051757.9375
-1.26,1625051757.953125
-1.08,1625051757.96875
-0.7,1625051757.984375
-0.16,1625051758.0
0.41,1625051758.015625
0.96,1625051758.03125
1.45,1625051758.046875
1.9,1625051758.0625
2.35,1625051758.078125
2.8,1625051758.09375
3.18,1625051758.109375
3.43,1625051758.125
3.55,1625051758.140625
3.55,1625051758.15625
3.53,1625051758.171875
3.59,1625051758.1875
3.78,1625051758.203125
4.07,1625051758.21875
4.36,1625051758.234375
4.55,1625051758.25
4.59,1625051758.265625
4.52,1625051758.28125
4.43,1625051758.296875
4.41,1625051758.3125
4.45,1625051758.328125
4.45,1625051758.34375
4.28,1625051758.359375
3.87,1625051758.375
3.24,1625051758.390625
2.53,1625051758.40625
1.88,1625051758.421875
1.35,1625051758.4375
0.91,1625051758.453125
0.46,1625051758.46875
-0.06,1625051758.484375
-0.61,1625051758.5
-1.08,1625051758.515625
-1.34,1625051758.53125
-1.41,1625051758.546875
-1.39,1625051758.5625
-1.45,1625051758.578125
-1.72,1625051758.59375
-2.18,1625051758.609375
-2.69,1625051758.625
-3.06,1625051758.640625
-3.15,1625051758.65625
-2.92,1625051758.671875
-2.41,1625051758.6875
-1.73,1625051758.703125
-0.9,1625051758.71875
0.06,1625051758.734375
1.15,1625051758.75
2.34,1625051758.765625
3.5,1625051758.78125
4.46,1625051758.796875
5.11,1625051758.8125
5.45,1625051758.828125
5.62,1625051758.84375
5.78,1625051758.859375
6.03,1625051758.875
6.34,1625051758.890625
6.58,1625051758.90625
6.61,1625051758.921875
6.38,1625051758.9375
5.96,1625051758.953125
5.51,1625051758.96875
5.2,1625051758.984375
5.07,1625051759.0
5.05,1625051759.015625
5.03,1625051759.03125
4.92,1625051759.046875
4.72,1625051759.0625
4.5,1625051759.078125
4.36,1625051759.09375
4.32,1625051759.109375
4.33,1625051759.125
4.28,1625051759.140625
4.09,1625051759.15625
3.71,1625051759.171875
3.18,1625051759.1875
2.59,1625051759.203125
2.06,1625051759.21875
1.67,1625051759.234375
1.47,1625051759.25
1.42,1625051759.265625
1.41,1625051759.28125
1.33,1625051759.296875
1.04,1625051759.3125
0.49,1625051759.328125
-0.26,1625051759.34375
-1.1,1625051759.359375
-1.83,1625051759.375
-2.27,1625051759.390625
-2.31,1625051759.40625
-2.0,1625051759.421875
-1.45,1625051759.4375
-0.81,1625051759.453125
-0.23,1625051759.46875
0.26,1625051759.484375
0.7,1625051759.5
1.16,1625051759.515625
1.67,1625051759.53125
2.22,1625051759.546875
2.7,1625051759.5625
3.03,1625051759.578125
3.21,1625051759.59375
3.3,1625051759.609375
3.42,1625051759.625
3.66,1625051759.640625
3.98,1625051759.65625
4.26,1625051759.671875
4.36,1625051759.6875
4.24,1625051759.703125
3.94,1625051759.71875
3.62,1625051759.734375
3.44,1625051759.75
3.5,1625051759.765625
3.8,1625051759.78125
4.21,1625051759.796875
4.59,1625051759.8125
4.8,1625051759.828125
4.79,1625051759.84375
4.59,1625051759.859375
4.27,1625051759.875
3.91,1625051759.890625
3.57,1625051759.90625
3.27,1625051759.921875
3.0,1625051759.9375
2.73,1625051759.953125
2.42,1625051759.96875
2.06,1625051759.984375
1.6,1625051760.0
1.07,1625051760.015625
0.49,1625051760.03125
-0.11,1625051760.046875
-0.7,1625051760.0625
-1.26,1625051760.078125
-1.79,1625051760.09375
-2.32,1625051760.109375
-2.84,1625051760.125
-3.32,1625051760.140625
-3.65,1625051760.15625
-3.72,1625051760.171875
-3.41,1625051760.1875
-2.72,1625051760.203125
-1.73,1625051760.21875
-0.58,1625051760.234375
0.57,1625051760.25
1.61,1625051760.265625
2.5,1625051760.28125
3.25,1625051760.296875
3.91,1625051760.3125
4.49,1625051760.328125
5.02,1625051760.34375
5.54,1625051760.359375
6.09,1625051760.375
6.69,1625051760.390625
7.26,1625051760.40625
7.69,1625051760.421875
7.82,1625051760.4375
7.61,1625051760.453125
7.12,1625051760.46875
6.58,1625051760.484375
6.18,1625051760.5
6.02,1625051760.515625
6.05,1625051760.53125
6.06,1625051760.546875
5.87,1625051760.5625
5.42,1625051760.578125
4.82,1625051760.59375
4.26,1625051760.609375
3.87,1625051760.625
3.65,1625051760.640625
3.47,1625051760.65625
3.18,1625051760.671875
2.67,1625051760.6875
2.02,1625051760.703125
1.34,1625051760.71875
0.78,1625051760.734375
0.38,1625051760.75
0.11,1625051760.765625
-0.15,1625051760.78125
-0.5,1625051760.796875
-0.94,1625051760.8125
-1.4,1625051760.828125
-1.74,1625051760.84375
-1.87,1625051760.859375
-1.75,1625051760.875
-1.42,1625051760.890625
-0.98,1625051760.90625
-0.49,1625051760.921875
0.06,1625051760.9375
0.7,1625051760.953125
1.47,1625051760.96875
2.34,1625051760.984375
3.21,1625051761.0
3.97,1625051761.015625
4.58,1625051761.03125
5.04,1625051761.046875
5.43,1625051761.0625
5.78,1625051761.078125
6.09,1625051761.09375
6.27,1625051761.109375
6.27,1625051761.125
6.11,1625051761.140625
5.93,1625051761.15625
5.87,1625051761.171875
6.02,1625051761.1875
6.36,1625051761.203125
6.74,1625051761.21875
6.97,1625051761.234375
6.91,1625051761.25
6.54,1625051761.265625
5.96,1625051761.28125
5.3,1625051761.296875
4.67,1625051761.3125
4.14,1625051761.328125
3.68,1625051761.34375
3.24,1625051761.359375
2.78,1625051761.375
2.3,1625051761.390625
1.84,1625051761.40625
1.39,1625051761.421875
0.9,1625051761.4375
0.31,1625051761.453125
-0.41,1625051761.46875
-1.24,1625051761.484375
-2.01,1625051761.5
-2.6,1625051761.515625
-2.9,1625051761.53125
-2.95,1625051761.546875
-2.86,1625051761.5625
-2.72,1625051761.578125
-2.53,1625051761.59375
-2.17,1625051761.609375
-1.51,1625051761.625
-0.48,1625051761.640625
0.86,1625051761.65625
2.32,1625051761.671875
3.68,1625051761.6875
4.77,1625051761.703125
5.54,1625051761.71875
6.02,1625051761.734375
6.3,1625051761.75
6.45,1625051761.765625
6.5,1625051761.78125
6.46,1625051761.796875
6.28,1625051761.8125
5.94,1625051761.828125
5.42,1625051761.84375
4.79,1625051761.859375
4.15,1625051761.875
3.65,1625051761.890625
3.38,1625051761.90625
3.36,1625051761.921875
3.49,1625051761.9375
3.66,1625051761.953125
3.75,1625051761.96875
3.71,1625051761.984375
3.55,1625051762.0
3.31,1625051762.015625
3.01,1625051762.03125
2.64,1625051762.046875
2.17,1625051762.0625
1.53,1625051762.078125
0.71,1625051762.09375
-0.28,1625051762.109375
-1.37,1625051762.125
-2.45,1625051762.140625
-3.42,1625051762.15625
-4.22,1625051762.171875
-4.87,1625051762.1875
-5.5,1625051762.203125
-6.2,1625051762.21875
-6.99,1625051762.234375
-7.74,1625051762.25
-8.19,1625051762.265625
-8.09,1625051762.28125
-7.35,1625051762.296875
-6.07,1625051762.3125
-4.49,1625051762.328125
-2.9,1625051762.34375
-1.45,1625051762.359375
-0.17,1625051762.375
1.01,1625051762.390625
2.14,1625051762.40625
3.22,1625051762.421875
4.17,1625051762.4375
4.88,1625051762.453125
5.32,1625051762.46875
5.55,1625051762.484375
5.67,1625051762.5
5.77,1625051762.515625
5.9,1625051762.53125
6.02,1625051762.546875
6.06,1625051762.5625
5.95,1625051762.578125
5.62,1625051762.59375
5.11,1625051762.609375
4.53,1625051762.625
4.02,1625051762.640625
3.7,1625051762.65625
3.59,1625051762.671875
3.6,1625051762.6875
3.56,1625051762.703125
3.3,1625051762.71875
2.74,1625051762.734375
1.92,1625051762.75
0.97,1625051762.765625
0.04,1625051762.78125
-0.77,1625051762.796875
-1.41,1625051762.8125
-1.9,1625051762.828125
-2.3,1625051762.84375
-2.67,1625051762.859375
-3.12,1625051762.875
-3.74,1625051762.890625
-4.59,1625051762.90625
-5.62,1625051762.921875
-6.66,1625051762.9375
-7.46,1625051762.953125
-7.77,1625051762.96875
-7.4,1625051762.984375
-6.35,1625051763.0
-4.78,1625051763.015625
-2.93,1625051763.03125
-1.06,1625051763.046875
0.64,1625051763.0625
2.08,1625051763.078125
3.25,1625051763.09375
4.23,1625051763.109375
5.07,1625051763.125
5.79,1625051763.140625
6.36,1625051763.15625
6.72,1625051763.171875
6.82,1625051763.1875
6.71,1625051763.203125
6.49,1625051763.21875
6.3,1625051763.234375
6.24,1625051763.25
6.28,1625051763.265625
6.29,1625051763.28125
6.1,1625051763.296875
5.58,1625051763.3125
4.76,1625051763.328125
3.81,1625051763.34375
2.99,1625051763.359375
2.54,1625051763.375
2.58,1625051763.390625
3.02,1625051763.40625
3.59,1625051763.421875
4.0,1625051763.4375
4.0,1625051763.453125
3.53,1625051763.46875
2.73,1625051763.484375
1.8,1625051763.5
0.91,1625051763.515625
0.1,1625051763.53125
-0.73,1625051763.546875
-1.71,1625051763.5625
-2.95,1625051763.578125
-4.35,1625051763.59375
-5.7,1625051763.609375
-6.78,1625051763.625
-7.45,1625051763.640625
-7.71,1625051763.65625
-7.66,1625051763.671875
-7.4,1625051763.6875
-6.94,1625051763.703125
-6.16,1625051763.71875
-4.96,1625051763.734375
-3.33,1625051763.75
-1.42,1625051763.765625
0.48,1625051763.78125
2.11,1625051763.796875
3.34,1625051763.8125
4.19,1625051763.828125
4.83,1625051763.84375
5.41,1625051763.859375
5.98,1625051763.875
6.48,1625051763.890625
6.78,1625051763.90625
6.83,1625051763.921875
6.64,1625051763.9375
6.36,1625051763.953125
6.12,1625051763.96875
5.98,1625051763.984375
5.9,1625051764.0
5.79,1625051764.015625
5.58,1625051764.03125
5.29,1625051764.046875
5.02,1625051764.0625
4.88,1625051764.078125
4.92,1625051764.09375
5.08,1625051764.109375
5.23,1625051764.125
5.24,1625051764.140625
5.0,1625051764.15625
4.54,1625051764.171875
3.94,1625051764.1875
3.29,1625051764.203125
2.66,1625051764.21875
2.04,1625051764.234375
1.37,1625051764.25
0.57,1625051764.265625
-0.4,1625051764.28125
-1.52,1625051764.296875
-2.68,1625051764.3125
-3.74,1625051764.328125
-4.56,1625051764.34375
-5.12,1625051764.359375
-5.52,1625051764.375
-5.93,1625051764.390625
-6.5,1625051764.40625
-7.3,1625051764.421875
-8.26,1625051764.4375
-9.18,1625051764.453125
-9.82,1625051764.46875
-9.98,1625051764.484375
-9.49,1625051764.5
-8.34,1625051764.515625
-6.62,1625051764.53125
-4.52,1625051764.546875
-2.26,1625051764.5625
-0.08,1625051764.578125
1.87,1625051764.59375
3.5,1625051764.609375
4.81,1625051764.625
5.8,1625051764.640625
6.45,1625051764.65625
6.74,1625051764.671875
6.66,1625051764.6875
6.29,1625051764.703125
5.8,1625051764.71875
5.39,1625051764.734375
5.2,1625051764.75
5.26,1625051764.765625
5.49,1625051764.78125
5.71,1625051764.796875
5.79,1625051764.8125
5.66,1625051764.828125
5.37,1625051764.84375
5.02,1625051764.859375
4.71,1625051764.875
4.5,1625051764.890625
4.36,1625051764.90625
4.23,1625051764.921875
4.04,1625051764.9375
3.74,1625051764.953125
3.34,1625051764.96875
2.84,1625051764.984375
2.26,1625051765.0
1.63,1625051765.015625
0.98,1625051765.03125
0.35,1625051765.046875
-0.29,1625051765.0625
-0.98,1625051765.078125
-1.79,1625051765.09375
-2.77,1625051765.109375
-3.84,1625051765.125
-4.87,1625051765.140625
-5.67,1625051765.15625
-6.12,1625051765.171875
-6.27,1625051765.1875
-6.28,1625051765.203125
-6.38,1625051765.21875
-6.76,1625051765.234375
-7.38,1625051765.25
-8.05,1625051765.265625
-8.51,1625051765.28125
-8.52,1625051765.296875
-8.0,1625051765.3125
-7.01,1625051765.328125
-5.66,1625051765.34375
-4.05,1625051765.359375
-2.28,1625051765.375
-0.42,1625051765.390625
1.39,1625051765.40625
2.97,1625051765.421875
4.18,1625051765.4375
4.92,1625051765.453125
5.23,1625051765.46875
5.23,1625051765.484375
5.09,1625051765.5
4.91,1625051765.515625
4.76,1625051765.53125
4.61,1625051765.546875
4.44,1625051765.5625
4.23,1625051765.578125
4.04,1625051765.59375
3.9,1625051765.609375
3.85,1625051765.625
3.91,1625051765.640625
4.05,1625051765.65625
4.24,1625051765.671875
4.4,1625051765.6875
4.48,1625051765.703125
4.42,1625051765.71875
4.22,1625051765.734375
3.9,1625051765.75
3.5,1625051765.765625
3.05,1625051765.78125
2.54,1625051765.796875
1.92,1625051765.8125
1.15,1625051765.828125
0.25,1625051765.84375
-0.74,1625051765.859375
-1.69,1625051765.875
-2.5,1625051765.890625
-3.17,1625051765.90625
-3.7,1625051765.921875
-4.22,1625051765.9375
-4.78,1625051765.953125
-5.39,1625051765.96875
-5.96,1625051765.984375
-6.42,1625051766.0
-6.73,1625051766.015625
-6.98,1625051766.03125
-7.31,1625051766.046875
-7.86,1625051766.0625
-8.6,1625051766.078125
-9.35,1625051766.09375
-9.79,1625051766.109375
-9.62,1625051766.125
-8.68,1625051766.140625
-7.03,1625051766.15625
-4.94,1625051766.171875
-2.72,1625051766.1875
-0.64,1625051766.203125
1.14,1625051766.21875
2.62,1625051766.234375
3.85,1625051766.25
4.84,1625051766.265625
5.58,1625051766.28125
6.01,1625051766.296875
6.1,1625051766.3125
5.9,1625051766.328125
5.53,1625051766.34375
5.16,1625051766.359375
4.9,1625051766.375
4.83,1625051766.390625
4.88,1625051766.40625
4.95,1625051766.421875
4.94,1625051766.4375
4.83,1625051766.453125
4.66,1625051766.46875
4.51,1625051766.484375
4.44,1625051766.5
4.42,1625051766.515625
4.39,1625051766.53125
4.22,1625051766.546875
3.84,1625051766.5625
3.24,1625051766.578125
2.49,1625051766.59375
1.71,1625051766.609375
0.98,1625051766.625
0.31,1625051766.640625
-0.35,1625051766.65625
-1.04,1625051766.671875
-1.79,1625051766.6875
-2.55,1625051766.703125
-3.26,1625051766.71875
-3.88,1625051766.734375
-4.44,1625051766.75
-5.07,1625051766.765625
-5.85,1625051766.78125
-6.81,1625051766.796875
-7.83,1625051766.8125
-8.74,1625051766.828125
-9.34,1625051766.84375
-9.51,1625051766.859375
-9.26,1625051766.875
-8.66,1625051766.890625
-7.76,1625051766.90625
-6.59,1625051766.921875
-5.15,1625051766.9375
-3.46,1625051766.953125
-1.64,1625051766.96875
0.14,1625051766.984375
1.7,1625051767.0
2.9,1625051767.015625
3.72,1625051767.03125
4.2,1625051767.046875
4.37,1625051767.0625
4.26,1625051767.078125
3.88,1625051767.09375
3.27,1625051767.109375
2.55,1625051767.125
1.89,1625051767.140625
1.45,1625051767.15625
1.32,1625051767.171875
1.47,1625051767.1875
1.78,1625051767.203125
2.1,1625051767.21875
2.36,1625051767.234375
2.54,1625051767.25
2.65,1625051767.265625
2.69,1625051767.28125
2.6,1625051767.296875
2.3,1625051767.3125
1.75,1625051767.328125
0.96,1625051767.34375
0.01,1625051767.359375
-0.96,1625051767.375
-1.85,1625051767.390625
-2.6,1625051767.40625
-3.21,1625051767.421875
-3.75,1625051767.4375
-4.31,1625051767.453125
-4.96,1625051767.46875
-5.73,1625051767.484375
-6.64,1625051767.5
-7.66,1625051767.515625
-8.75,1625051767.53125
-9.8,1625051767.546875
-10.69,1625051767.5625
-11.23,1625051767.578125
-11.26,1625051767.59375
-10.65,1625051767.609375
-9.4,1625051767.625
-7.63,1625051767.640625
-5.55,1625051767.65625
-3.42,1625051767.671875
-1.5,1625051767.6875
0.09,1625051767.703125
1.26,1625051767.71875
2.04,1625051767.734375
2.48,1625051767.75
2.7,1625051767.765625
2.82,1625051767.78125
2.93,1625051767.796875
3.02,1625051767.8125
2.99,1625051767.828125
2.69,1625051767.84375
2.09,1625051767.859375
1.28,1625051767.875
0.5,1625051767.890625
0.03,1625051767.90625
0.01,1625051767.921875
0.37,1625051767.9375
0.89,1625051767.953125
1.26,1625051767.96875
1.3,1625051767.984375
1.04,1625051768.0
0.6,1625051768.015625
0.18,1625051768.03125
-0.14,1625051768.046875
-0.39,1625051768.0625
-0.72,1625051768.078125
-1.24,1625051768.09375
-1.97,1625051768.109375
-2.86,1625051768.125
-3.78,1625051768.140625
-4.62,1625051768.15625
-5.34,1625051768.171875
-5.98,1625051768.1875
-6.63,1625051768.203125
-7.38,1625051768.21875
-8.19,1625051768.234375
-8.95,1625051768.25
-9.5,1625051768.265625
-9.64,1625051768.28125
-9.25,1625051768.296875
-8.28,1625051768.3125
-6.74,1625051768.328125
-4.74,1625051768.34375
-2.44,1625051768.359375
-0.1,1625051768.375
1.97,1625051768.390625
3.52,1625051768.40625
4.39,1625051768.421875
4.64,1625051768.4375
4.45,1625051768.453125
4.1,1625051768.46875
3.75,1625051768.484375
3.42,1625051768.5
3.04,1625051768.515625
2.53,1625051768.53125
1.93,1625051768.546875
1.37,1625051768.5625
1.0,1625051768.578125
0.85,1625051768.59375
0.83,1625051768.609375
0.74,1625051768.625
0.4,1625051768.640625
-0.2,1625051768.65625
-0.9,1625051768.671875
-1.49,1625051768.6875
-1.82,1625051768.703125
-1.89,1625051768.71875
-1.87,1625051768.734375
-1.99,1625051768.75
-2.38,1625051768.765625
-3.07,1625051768.78125
-3.96,1625051768.796875
-4.92,1625051768.8125
-5.87,1625051768.828125
-6.79,1625051768.84375
-7.71,1625051768.859375
-8.64,1625051768.875
-9.57,1625051768.890625
-10.43,1625051768.90625
-11.14,1625051768.921875
-11.63,1625051768.9375
-11.82,1625051768.953125
-11.65,1625051768.96875
-11.04,1625051768.984375
-9.95,1625051769.0
-8.39,1625051769.015625
-6.5,1625051769.03125
-4.49,1625051769.046875
-2.61,1625051769.0625
-1.06,1625051769.078125
0.11,1625051769.09375
0.93,1625051769.109375
1.53,1625051769.125
1.98,1625051769.140625
2.32,1625051769.15625
2.49,1625051769.171875
2.45,1625051769.1875
2.24,1625051769.203125
1.98,1625051769.21875
1.85,1625051769.234375
1.97,1625051769.25
2.35,1625051769.265625
2.87,1625051769.28125
3.31,1625051769.296875
3.51,1625051769.3125
3.42,1625051769.328125
3.13,1625051769.34375
2.8,1625051769.359375
2.54,1625051769.375
2.37,1625051769.390625
2.21,1625051769.40625
1.92,1625051769.421875
1.43,1625051769.4375
0.77,1625051769.453125
0.06,1625051769.46875
-0.56,1625051769.484375
-1.0,1625051769.5
-1.31,1625051769.515625
-1.59,1625051769.53125
-1.99,1625051769.546875
-2.59,1625051769.5625
-3.38,1625051769.578125
-4.26,1625051769.59375
-5.13,1625051769.609375
-5.9,1625051769.625
-6.51,1625051769.640625
-6.92,1625051769.65625
-7.02,1625051769.671875
-6.75,1625051769.6875
-6.03,1625051769.703125
-4.88,1625051769.71875
-3.45,1625051769.734375
-1.93,1625051769.75
-0.49,1625051769.765625
0.77,1625051769.78125
1.88,1625051769.796875
2.92,1625051769.8125
3.94,1625051769.828125
4.88,1625051769.84375
5.6,1625051769.859375
5.95,1625051769.875
5.9,1625051769.890625
5.56,1625051769.90625
5.14,1625051769.921875
4.82,1625051769.9375
4.68,1625051769.953125
4.69,1625051769.96875
4.75,1625051769.984375
4.77,1625051770.0
4.74,1625051770.015625
4.73,1625051770.03125
4.79,1625051770.046875
4.88,1625051770.0625
4.88,1625051770.078125
4.66,1625051770.09375
4.16,1625051770.109375
3.46,1625051770.125
2.74,1625051770.140625
2.18,1625051770.15625
1.85,1625051770.171875
1.69,1625051770.1875
1.56,1625051770.203125
1.31,1625051770.21875
0.88,1625051770.234375
0.3,1625051770.25
-0.42,1625051770.265625
-1.25,1625051770.28125
-2.19,1625051770.296875
-3.22,1625051770.3125
-4.25,1625051770.328125
-5.16,1625051770.34375
-5.82,1625051770.359375
-6.24,1625051770.375
-6.5,1625051770.390625
-6.78,1625051770.40625
-7.15,1625051770.421875
-7.56,1625051770.4375
-7.79,1625051770.453125
-7.57,1625051770.46875
-6.69,1625051770.484375
-5.12,1625051770.5
-3.01,1625051770.515625
-0.66,1625051770.53125
1.62,1625051770.546875
3.57,1625051770.5625
5.03,1625051770.578125
5.99,1625051770.59375
6.56,1625051770.609375
6.88,1625051770.625
7.09,1625051770.640625
7.25,1625051770.65625
7.28,1625051770.671875
7.1,1625051770.6875
6.63,1625051770.703125
5.91,1625051770.71875
5.08,1625051770.734375
4.31,1625051770.75
3.73,1625051770.765625
3.36,1625051770.78125
3.1,1625051770.796875
2.82,1625051770.8125
2.41,1625051770.828125
1.79,1625051770.84375
0.98,1625051770.859375
-0.01,1625051770.875
-1.14,1625051770.890625
-2.37,1625051770.90625
-3.64,1625051770.921875
-4.96,1625051770.9375
-6.35,1625051770.953125
-7.89,1625051770.96875
-9.65,1625051770.984375
-11.71,1625051771.0
-14.04,1625051771.015625
-16.58,1625051771.03125
-19.24,1625051771.046875
-21.93,1625051771.0625
-24.59,1625051771.078125
-27.17,1625051771.09375
-29.58,1625051771.109375
-31.73,1625051771.125
-33.52,1625051771.140625
-34.9,1625051771.15625
-35.85,1625051771.171875
-36.37,1625051771.1875
-36.37,1625051771.203125
-35.65,1625051771.21875
-33.84,1625051771.234375
-30.58,1625051771.25
-25.67,1625051771.265625
-19.19,1625051771.28125
-11.54,1625051771.296875
-3.29,1625051771.3125
4.95,1625051771.328125
12.74,1625051771.34375
19.8,1625051771.359375
25.99,1625051771.375
31.16,1625051771.390625
35.16,1625051771.40625
37.82,1625051771.421875
39.15,1625051771.4375
39.27,1625051771.453125
38.52,1625051771.46875
37.24,1625051771.484375
35.76,1625051771.5
34.24,1625051771.515625
32.76,1625051771.53125
31.3,1625051771.546875
29.85,1625051771.5625
28.35,1625051771.578125
26.76,1625051771.59375
25.03,1625051771.609375
23.17,1625051771.625
21.2,1625051771.640625
19.19,1625051771.65625
17.25,1625051771.671875
15.42,1625051771.6875
13.72,1625051771.703125
12.09,1625051771.71875
10.44,1625051771.734375
8.72,1625051771.75
6.89,1625051771.765625
5.01,1625051771.78125
3.14,1625051771.796875
1.39,1625051771.8125
-0.19,1625051771.828125
-1.56,1625051771.84375
-2.76,1625051771.859375
-3.87,1625051771.875
-5.01,1625051771.890625
-6.24,1625051771.90625
-7.6,1625051771.921875
-9.06,1625051771.9375
-10.54,1625051771.953125
-11.93,1625051771.96875
-13.04,1625051771.984375
-13.66,1625051772.0
-13.58,1625051772.015625
-12.66,1625051772.03125
-10.93,1625051772.046875
-8.56,1625051772.0625
-5.91,1625051772.078125
-3.35,1625051772.09375
-1.18,1625051772.109375
0.5,1625051772.125
1.72,1625051772.140625
2.66,1625051772.15625
3.43,1625051772.171875
4.06,1625051772.1875
4.48,1625051772.203125
4.6,1625051772.21875
4.42,1625051772.234375
4.04,1625051772.25
3.61,1625051772.265625
3.29,1625051772.28125
3.11,1625051772.296875
3.02,1625051772.3125
2.94,1625051772.328125
2.82,1625051772.34375
2.66,1625051772.359375
2.53,1625051772.375
2.46,1625051772.390625
2.4,1625051772.40625
2.27,1625051772.421875
1.99,1625051772.4375
1.54,1625051772.453125
1.01,1625051772.46875
0.53,1625051772.484375
0.23,1625051772.5
0.08,1625051772.515625
-0.01,1625051772.53125
-0.21,1625051772.546875
-0.66,1625051772.5625
-1.39,1625051772.578125
-2.34,1625051772.59375
-3.39,1625051772.609375
-4.42,1625051772.625
-5.32,1625051772.640625
-6.07,1625051772.65625
-6.68,1625051772.671875
-7.18,1625051772.6875
-7.67,1625051772.703125
-8.24,1625051772.71875
-8.96,1625051772.734375
-9.76,1625051772.75
-10.44,1625051772.765625
-10.68,1625051772.78125
-10.2,1625051772.796875
-8.87,1625051772.8125
-6.83,1625051772.828125
-4.41,1625051772.84375
-2.06,1625051772.859375
-0.13,1625051772.875
1.27,1625051772.890625
2.23,1625051772.90625
2.98,1625051772.921875
3.7,1625051772.9375
4.49,1625051772.953125
5.25,1625051772.96875
5.86,1625051772.984375
6.23,1625051773.0
6.38,1625051773.015625
6.41,1625051773.03125
6.45,1625051773.046875
6.51,1625051773.0625
6.53,1625051773.078125
6.4,1625051773.09375
6.06,1625051773.109375
5.61,1625051773.125
5.19,1625051773.140625
4.98,1625051773.15625
5.0,1625051773.171875
5.17,1625051773.1875
5.29,1625051773.203125
5.22,1625051773.21875
4.9,1625051773.234375
4.38,1625051773.25
3.77,1625051773.265625
3.17,1625051773.28125
2.61,1625051773.296875
2.07,1625051773.3125
1.52,1625051773.328125
0.92,1625051773.34375
0.29,1625051773.359375
-0.35,1625051773.375
-1.0,1625051773.390625
-1.66,1625051773.40625
-2.38,1625051773.421875
-3.18,1625051773.4375
-4.06,1625051773.453125
-5.0,1625051773.46875
-5.92,1625051773.484375
-6.74,1625051773.5
-7.4,1625051773.515625
-7.88,1625051773.53125
-8.12,1625051773.546875
-8.06,1625051773.5625
-7.62,1625051773.578125
-6.71,1625051773.59375
-5.32,1625051773.609375
-3.53,1625051773.625
-1.54,1625051773.640625
0.38,1625051773.65625
2.06,1625051773.671875
3.43,1625051773.6875
4.58,1625051773.703125
5.66,1625051773.71875
6.77,1625051773.734375
7.89,1625051773.75
8.84,1625051773.765625
9.4,1625051773.78125
9.39,1625051773.796875
8.83,1625051773.8125
7.91,1625051773.828125
6.88,1625051773.84375
6.02,1625051773.859375
5.48,1625051773.875
5.27,1625051773.890625
5.35,1625051773.90625
5.6,1625051773.921875
5.92,1625051773.9375
6.21,1625051773.953125
6.32,1625051773.96875
6.16,1625051773.984375
5.68,1625051774.0
4.94,1625051774.015625
4.06,1625051774.03125
3.19,1625051774.046875
2.4,1625051774.0625
1.67,1625051774.078125
0.9,1625051774.09375
0.0,1625051774.109375
-1.06,1625051774.125
-2.21,1625051774.140625
-3.32,1625051774.15625
-4.31,1625051774.171875
-5.14,1625051774.1875
-5.87,1625051774.203125
-6.59,1625051774.21875
-7.34,1625051774.234375
-8.11,1625051774.25
-8.83,1625051774.265625
-9.41,1625051774.28125
-9.82,1625051774.296875
-10.0,1625051774.3125
-9.92,1625051774.328125
-9.51,1625051774.34375
-8.69,1625051774.359375
-7.42,1625051774.375
-5.71,1625051774.390625
-3.74,1625051774.40625
-1.73,1625051774.421875
0.12,1625051774.4375
1.68,1625051774.453125
2.95,1625051774.46875
3.98,1625051774.484375
4.82,1625051774.5
5.47,1625051774.515625
5.85,1625051774.53125
5.87,1625051774.546875
5.51,1625051774.5625
4.87,1625051774.578125
4.09,1625051774.59375
3.34,1625051774.609375
2.73,1625051774.625
2.28,1625051774.640625
1.99,1625051774.65625
1.82,1625051774.671875
1.78,1625051774.6875
1.85,1625051774.703125
2.01,1625051774.71875
2.18,1625051774.734375
2.24,1625051774.75
2.07,1625051774.765625
1.6,1625051774.78125
0.88,1625051774.796875
-0.0,1625051774.8125
-0.94,1625051774.828125
-1.9,1625051774.84375
-2.91,1625051774.859375
-4.05,1625051774.875
-5.33,1625051774.890625
-6.65,1625051774.90625
-7.89,1625051774.921875
-8.9,1625051774.9375
-9.67,1625051774.953125
-10.32,1625051774.96875
-11.02,1625051774.984375
-11.89,1625051775.0
-12.9,1625051775.015625
-13.86,1625051775.03125
-14.52,1625051775.046875
-14.67,1625051775.0625
-14.23,1625051775.078125
-13.23,1625051775.09375
-11.77,1625051775.109375
-9.98,1625051775.125
-7.97,1625051775.140625
-5.86,1625051775.15625
-3.79,1625051775.171875
-1.85,1625051775.1875
-0.1,1625051775.203125
1.45,1625051775.21875
2.83,1625051775.234375
4.04,1625051775.25
5.02,1625051775.265625
5.64,1625051775.28125
5.82,1625051775.296875
5.54,1625051775.3125
4.94,1625051775.328125
4.23,1625051775.34375
3.63,1625051775.359375
3.33,1625051775.375
3.36,1625051775.390625
3.67,1625051775.40625
4.05,1625051775.421875
4.33,1625051775.4375
4.41,1625051775.453125
4.28,1625051775.46875
4.06,1625051775.484375
3.86,1625051775.5
3.73,1625051775.515625
3.65,1625051775.53125
3.5,1625051775.546875
3.17,1625051775.5625
2.65,1625051775.578125
2.01,1625051775.59375
1.38,1625051775.609375
0.85,1625051775.625
0.4,1625051775.640625
-0.1,1625051775.65625
-0.79,1625051775.671875
-1.77,1625051775.6875
-2.99,1625051775.703125
-4.31,1625051775.71875
-5.54,1625051775.734375
-6.56,1625051775.75
-7.3,1625051775.765625
-7.78,1625051775.78125
-8.04,1625051775.796875
-8.05,1625051775.8125
-7.76,1625051775.828125
-7.1,1625051775.84375
-6.05,1625051775.859375
-4.66,1625051775.875
-3.03,1625051775.890625
-1.26,1625051775.90625
0.54,1625051775.921875
2.32,1625051775.9375
4.01,1625051775.953125
5.57,1625051775.96875
6.9,1625051775.984375
7.93,1625051776.0
8.58,1625051776.015625
8.87,1625051776.03125
8.82,1625051776.046875
8.49,1625051776.0625
7.94,1625051776.078125
7.27,1625051776.09375
6.59,1625051776.109375
6.08,1625051776.125
5.9,1625051776.140625
6.09,1625051776.15625
6.58,1625051776.171875
7.14,1625051776.1875
7.5,1625051776.203125
7.45,1625051776.21875
6.98,1625051776.234375
6.2,1625051776.25
5.3,1625051776.265625
4.42,1625051776.28125
3.57,1625051776.296875
2.68,1625051776.3125
1.69,1625051776.328125
0.61,1625051776.34375
-0.48,1625051776.359375
-1.48,1625051776.375
-2.33,1625051776.390625
-3.07,1625051776.40625
-3.79,1625051776.421875
-4.59,1625051776.4375
-5.5,1625051776.453125
-6.49,1625051776.46875
-7.48,1625051776.484375
-8.36,1625051776.5
-9.03,1625051776.515625
-9.35,1625051776.53125
-9.2,1625051776.546875
-8.5,1625051776.5625
-7.24,1625051776.578125
-5.51,1625051776.59375
-3.45,1625051776.609375
-1.22,1625051776.625
1.0,1625051776.640625
3.08,1625051776.65625
4.87,1625051776.671875
6.23,1625051776.6875
7.08,1625051776.703125
7.36,1625051776.71875
7.14,1625051776.734375
6.59,1625051776.75
5.87,1625051776.765625
5.16,1625051776.78125
4.57,1625051776.796875
4.16,1625051776.8125
3.89,1625051776.828125
3.72,1625051776.84375
3.55,1625051776.859375
3.32,1625051776.875
3.04,1625051776.890625
2.74,1625051776.90625
2.5,1625051776.921875
2.37,1625051776.9375
2.34,1625051776.953125
2.3,1625051776.96875
2.13,1625051776.984375
1.73,1625051777.0
1.1,1625051777.015625
0.31,1625051777.03125
-0.57,1625051777.046875
-1.48,1625051777.0625
-2.45,1625051777.078125
-3.52,1625051777.09375
-4.72,1625051777.109375
-6.02,1625051777.125
-7.32,1625051777.140625
-8.54,1625051777.15625
-9.63,1625051777.171875
-10.59,1625051777.1875
-11.39,1625051777.203125
-11.93,1625051777.21875
-12.04,1625051777.234375
-11.51,1625051777.25
-10.22,1625051777.265625
-8.19,1625051777.28125
-5.67,1625051777.296875
-3.0,1625051777.3125
-0.55,1625051777.328125
1.46,1625051777.34375
2.99,1625051777.359375
4.15,1625051777.375
5.08,1625051777.390625
5.87,1625051777.40625
6.46,1625051777.421875
6.72,1625051777.4375
6.53,1625051777.453125
5.89,1625051777.46875
4.98,1625051777.484375
4.06,1625051777.5
3.41,1625051777.515625
3.14,1625051777.53125
3.22,1625051777.546875
3.47,1625051777.5625
3.7,1625051777.578125
3.78,1625051777.59375
3.65,1625051777.609375
3.35,1625051777.625
2.94,1625051777.640625
2.43,1625051777.65625
1.83,1625051777.671875
1.11,1625051777.6875
0.24,1625051777.703125
-0.72,1625051777.71875
-1.69,1625051777.734375
-2.55,1625051777.75
-3.21,1625051777.765625
-3.69,1625051777.78125
-4.1,1625051777.796875
-4.61,1625051777.8125
-5.41,1625051777.828125
-6.57,1625051777.84375
-8.03,1625051777.859375
-9.59,1625051777.875
-10.99,1625051777.890625
-11.91,1625051777.90625
-12.14,1625051777.921875
-11.55,1625051777.9375
-10.17,1625051777.953125
-8.18,1625051777.96875
-5.85,1625051777.984375
-3.49,1625051778.0
-1.34,1625051778.015625
0.48,1625051778.03125
1.99,1625051778.046875
3.25,1625051778.0625
4.31,1625051778.078125
5.15,1625051778.09375
5.69,1625051778.109375
5.86,1625051778.125
5.69,1625051778.140625
5.27,1625051778.15625
4.71,1625051778.171875
4.12,1625051778.1875
3.54,1625051778.203125
2.97,1625051778.21875
2.46,1625051778.234375
2.03,1625051778.25
1.77,1625051778.265625
1.7,1625051778.28125
1.8,1625051778.296875
1.98,1625051778.3125
2.12,1625051778.328125
2.08,1625051778.34375
1.76,1625051778.359375
1.11,1625051778.375
0.19,1625051778.390625
-0.92,1625051778.40625
-2.03,1625051778.421875
-3.01,1625051778.4375
-3.73,1625051778.453125
-4.21,1625051778.46875
-4.55,1625051778.484375
-4.93,1625051778.5
-5.55,1625051778.515625
-6.53,1625051778.53125
-7.9,1625051778.546875
-9.49,1625051778.5625
-11.07,1625051778.578125
-12.31,1625051778.59375
-12.91,1625051778.609375
-12.69,1625051778.625
-11.62,1625051778.640625
-9.83,1625051778.65625
-7.57,1625051778.671875
-5.15,1625051778.6875
-2.87,1625051778.703125
-0.94,1625051778.71875
0.54,1625051778.734375
1.57,1625051778.75
2.25,1625051778.765625
2.7,1625051778.78125
3.06,1625051778.796875
3.43,1625051778.8125
3.84,1625051778.828125
4.26,1625051778.84375
4.62,1625051778.859375
4.8,1625051778.875
4.71,1625051778.890625
4.36,1625051778.90625
3.82,1625051778.921875
3.27,1625051778.9375
2.88,1625051778.953125
2.79,1625051778.96875
2.99,1625051778.984375
3.33,1625051779.0
3.62,1625051779.015625
3.67,1625051779.03125
3.43,1625051779.046875
2.91,1625051779.0625
2.19,1625051779.078125
1.35,1625051779.09375
0.4,1625051779.109375
-0.66,1625051779.125
-1.79,1625051779.140625
-2.9,1625051779.15625
-3.9,1625051779.171875
-4.67,1625051779.1875
-5.23,1625051779.203125
-5.64,1625051779.21875
-6.02,1625051779.234375
-6.4,1625051779.25
-6.72,1625051779.265625
-6.77,1625051779.28125
-6.33,1625051779.296875
-5.22,1625051779.3125
-3.49,1625051779.328125
-1.32,1625051779.34375
0.96,1625051779.359375
3.07,1625051779.375
4.84,1625051779.390625
6.29,1625051779.40625
7.55,1625051779.421875
8.74,1625051779.4375
9.89,1625051779.453125
10.92,1625051779.46875
11.69,1625051779.484375
12.1,1625051779.5
12.13,1625051779.515625
11.86,1625051779.53125
11.39,1625051779.546875
10.78,1625051779.5625
10.08,1625051779.578125
9.31,1625051779.59375
8.52,1625051779.609375
7.79,1625051779.625
7.19,1625051779.640625
6.75,1625051779.65625
6.43,1625051779.671875
6.16,1625051779.6875
5.87,1625051779.703125
5.47,1625051779.71875
4.91,1625051779.734375
4.12,1625051779.75
3.08,1625051779.765625
1.84,1625051779.78125
0.52,1625051779.796875
-0.69,1625051779.8125
-1.68,1625051779.828125
-2.44,1625051779.84375
-3.11,1625051779.859375
-3.86,1625051779.875
-4.84,1625051779.890625
-6.03,1625051779.90625
-7.31,1625051779.921875
-8.53,1625051779.9375
-9.57,1625051779.953125
-10.36,1625051779.96875
-10.85,1625051779.984375
-10.99,1625051780.0
-10.65,1625051780.015625
-9.72,1625051780.03125
-8.16,1625051780.046875
-6.06,1625051780.0625
-3.6,1625051780.078125
-1.01,1625051780.09375
1.46,1625051780.109375
3.63,1625051780.125
5.35,1625051780.140625
6.58,1625051780.15625
7.35,1625051780.171875
7.73,1625051780.1875
7.82,1625051780.203125
7.68,1625051780.21875
7.3,1625051780.234375
6.69,1625051780.25
5.91,1625051780.265625
5.16,1625051780.28125
4.64,1625051780.296875
4.52,1625051780.3125
4.78,1625051780.328125
5.19,1625051780.34375
5.46,1625051780.359375
5.36,1625051780.375
4.84,1625051780.390625
4.1,1625051780.40625
3.41,1625051780.421875
2.94,1625051780.4375
2.68,1625051780.453125
2.4,1625051780.46875
1.84,1625051780.484375
0.86,1625051780.5
-0.48,1625051780.515625
-1.95,1625051780.53125
-3.24,1625051780.546875
-4.16,1625051780.5625
-4.71,1625051780.578125
-5.12,1625051780.59375
-5.66,1625051780.609375
-6.57,1625051780.625
-7.87,1625051780.640625
-9.37,1625051780.65625
-10.7,1625051780.671875
-11.54,1625051780.6875
-11.62,1625051780.703125
-10.88,1625051780.71875
-9.39,1625051780.734375
-7.32,1625051780.75
-4.88,1625051780.765625
-2.3,1625051780.78125
0.22,1625051780.796875
2.51,1625051780.8125
4.42,1625051780.828125
5.85,1625051780.84375
6.72,1625051780.859375
7.0,1625051780.875
6.75,1625051780.890625
6.07,1625051780.90625
5.18,1625051780.921875
4.31,1625051780.9375
3.67,1625051780.953125
3.32,1625051780.96875
3.17,1625051780.984375
3.06,1625051781.0
2.84,1625051781.015625
2.48,1625051781.03125
2.11,1625051781.046875
1.85,1625051781.0625
1.78,1625051781.078125
1.82,1625051781.09375
1.83,1625051781.109375
1.68,1625051781.125
1.33,1625051781.140625
0.83,1625051781.15625
0.25,1625051781.171875
-0.39,1625051781.1875
-1.18,1625051781.203125
-2.23,1625051781.21875
-3.61,1625051781.234375
-5.2,1625051781.25
-6.81,1625051781.265625
-8.2,1625051781.28125
-9.27,1625051781.296875
-10.07,1625051781.3125
-10.79,1625051781.328125
-11.59,1625051781.34375
-12.48,1625051781.359375
-13.3,1625051781.375
-13.7,1625051781.390625
-13.38,1625051781.40625
-12.17,1625051781.421875
-10.18,1625051781.4375
-7.7,1625051781.453125
-5.06,1625051781.46875
-2.54,1625051781.484375
-0.3,1625051781.5
1.64,1625051781.515625
3.25,1625051781.53125
4.48,1625051781.546875
5.23,1625051781.5625
5.45,1625051781.578125
5.18,1625051781.59375
4.63,1625051781.609375
4.06,1625051781.625
3.7,1625051781.640625
3.63,1625051781.65625
3.76,1625051781.671875
3.93,1625051781.6875
3.94,1625051781.703125
3.74,1625051781.71875
3.4,1625051781.734375
3.08,1625051781.75
2.92,1625051781.765625
2.94,1625051781.78125
3.07,1625051781.796875
3.19,1625051781.8125
3.15,1625051781.828125
2.9,1625051781.84375
2.43,1625051781.859375
1.79,1625051781.875
1.0,1625051781.890625
0.11,1625051781.90625
-0.86,1625051781.921875
-1.83,1625051781.9375
-2.73,1625051781.953125
-3.51,1625051781.96875
-4.2,1625051781.984375
-4.89,1625051782.0
-5.71,1625051782.015625
-6.75,1625051782.03125
-7.97,1625051782.046875
-9.24,1625051782.0625
-10.31,1625051782.078125
-10.9,1625051782.09375
-10.81,1625051782.109375
-9.95,1625051782.125
-8.33,1625051782.140625
-6.09,1625051782.15625
-3.43,1625051782.171875
-0.66,1625051782.1875
1.93,1625051782.203125
4.08,1625051782.21875
5.63,1625051782.234375
6.61,1625051782.25
7.13,1625051782.265625
7.41,1625051782.28125
7.61,1625051782.296875
7.77,1625051782.3125
7.88,1625051782.328125
7.86,1625051782.34375
7.67,1625051782.359375
7.34,1625051782.375
6.95,1625051782.390625
6.53,1625051782.40625
6.13,1625051782.421875
5.7,1625051782.4375
5.23,1625051782.453125
4.7,1625051782.46875
4.14,1625051782.484375
3.62,1625051782.5
3.19,1625051782.515625
2.91,1625051782.53125
2.73,1625051782.546875
2.58,1625051782.5625
2.34,1625051782.578125
1.91,1625051782.59375
1.25,1625051782.609375
0.42,1625051782.625
-0.43,1625051782.640625
-1.17,1625051782.65625
-1.72,1625051782.671875
-2.11,1625051782.6875
-2.47,1625051782.703125
-2.94,1625051782.71875
-3.64,1625051782.734375
-4.57,1625051782.75
-5.67,1625051782.765625
-6.77,1625051782.78125
-7.71,1625051782.796875
-8.25,1625051782.8125
-8.19,1625051782.828125
-7.41,1625051782.84375
-5.9,1625051782.859375
-3.8,1625051782.875
-1.37,1625051782.890625
1.1,1625051782.90625
3.38,1625051782.921875
5.36,1625051782.9375
7.01,1625051782.953125
8.42,1625051782.96875
9.61,1625051782.984375
10.53,1625051783.0
11.13,1625051783.015625
11.31,1625051783.03125
11.06,1625051783.046875
10.49,1625051783.0625
9.74,1625051783.078125
8.94,1625051783.09375
8.19,1625051783.109375
7.47,1625051783.125
6.74,1625051783.140625
5.96,1625051783.15625
5.19,1625051783.171875
4.52,1625051783.1875
4.06,1625051783.203125
3.88,1625051783.21875
3.91,1625051783.234375
4.04,1625051783.25
4.12,1625051783.265625
4.02,1625051783.28125
3.68,1625051783.296875
3.05,1625051783.3125
2.15,1625051783.328125
0.98,1625051783.34375
-0.4,1625051783.359375
-1.9,1625051783.375
-3.39,1625051783.390625
-4.72,1625051783.40625
-5.8,1625051783.421875
-6.57,1625051783.4375
-7.09,1625051783.453125
-7.44,1625051783.46875
-7.78,1625051783.484375
-8.21,1625051783.5
-8.8,1625051783.515625
-9.48,1625051783.53125
-10.07,1625051783.546875
-10.35,1625051783.5625
-10.06,1625051783.578125
-9.09,1625051783.59375
-7.44,1625051783.609375
-5.32,1625051783.625
-2.96,1625051783.640625
-0.65,1625051783.65625
1.45,1625051783.671875
3.24,1625051783.6875
4.66,1625051783.703125
5.68,1625051783.71875
6.27,1625051783.734375
6.4,1625051783.75
6.12,1625051783.765625
5.52,1625051783.78125
4.75,1625051783.796875
3.94,1625051783.8125
3.23,1625051783.828125
2.73,1625051783.84375
2.49,1625051783.859375
2.54,1625051783.875
2.8,1625051783.890625
3.15,1625051783.90625
3.41,1625051783.921875
3.42,1625051783.9375
3.1,1625051783.953125
2.46,1625051783.96875
1.63,1625051783.984375
0.78,1625051784.0
0.01,1625051784.015625
-0.62,1625051784.03125
-1.14,1625051784.046875
-1.61,1625051784.0625
-2.07,1625051784.078125
-2.53,1625051784.09375
-2.96,1625051784.109375
-3.4,1625051784.125
-3.88,1625051784.140625
-4.52,1625051784.15625
-5.4,1625051784.171875
-6.51,1625051784.1875
-7.7,1625051784.203125
-8.69,1625051784.21875
-9.19,1625051784.234375
-8.97,1625051784.25
-8.02,1625051784.265625
-6.47,1625051784.28125
-4.57,1625051784.296875
-2.57,1625051784.3125
-0.65,1625051784.328125
1.12,1625051784.34375
2.74,1625051784.359375
4.18,1625051784.375
5.4,1625051784.390625
6.29,1625051784.40625
6.78,1625051784.421875
6.82,1625051784.4375
6.47,1625051784.453125
5.84,1625051784.46875
5.09,1625051784.484375
4.38,1625051784.5
3.84,1625051784.515625
3.54,1625051784.53125
3.48,1625051784.546875
3.57,1625051784.5625
3.64,1625051784.578125
3.54,1625051784.59375
3.19,1625051784.609375
2.59,1625051784.625
1.87,1625051784.640625
1.16,1625051784.65625
0.55,1625051784.671875
0.02,1625051784.6875
-0.49,1625051784.703125
-1.07,1625051784.71875
-1.75,1625051784.734375
-2.51,1625051784.75
-3.28,1625051784.765625
-4.05,1625051784.78125
-4.87,1625051784.796875
-5.83,1625051784.8125
-7.0,1625051784.828125
-8.36,1625051784.84375
-9.76,1625051784.859375
-10.97,1625051784.875
-11.77,1625051784.890625
-12.0,1625051784.90625
-11.6,1625051784.921875
-10.64,1625051784.9375
-9.26,1625051784.953125
-7.63,1625051784.96875
-5.92,1625051784.984375
-4.24,1625051785.0
-2.65,1625051785.015625
-1.15,1625051785.03125
0.28,1625051785.046875
1.63,1625051785.0625
2.84,1625051785.078125
3.77,1625051785.09375
4.29,1625051785.109375
4.31,1625051785.125
3.89,1625051785.140625
3.18,1625051785.15625
2.4,1625051785.171875
1.77,1625051785.1875
1.39,1625051785.203125
1.3,1625051785.21875
1.42,1625051785.234375
1.65,1625051785.25
1.86,1625051785.265625
1.96,1625051785.28125
1.91,1625051785.296875
1.68,1625051785.3125
1.3,1625051785.328125
0.81,1625051785.34375
0.26,1625051785.359375
-0.34,1625051785.375
-0.96,1625051785.390625
-1.63,1625051785.40625
-2.35,1625051785.421875
-3.13,1625051785.4375
-3.95,1625051785.453125
-4.81,1625051785.46875
-5.69,1625051785.484375
-6.62,1625051785.5
-7.58,1625051785.515625
-8.54,1625051785.53125
-9.41,1625051785.546875
-10.08,1625051785.5625
-10.42,1625051785.578125
-10.36,1625051785.59375
-9.84,1625051785.609375
-8.89,1625051785.625
-7.58,1625051785.640625
-6.0,1625051785.65625
-4.25,1625051785.671875
-2.4,1625051785.6875
-0.53,1625051785.703125
1.25,1625051785.71875
2.85,1625051785.734375
4.16,1625051785.75
5.09,1625051785.765625
5.62,1625051785.78125
5.75,1625051785.796875
5.55,1625051785.8125
5.13,1625051785.828125
4.64,1625051785.84375
4.21,1625051785.859375
3.95,1625051785.875
3.92,1625051785.890625
4.07,1625051785.90625
4.26,1625051785.921875
4.35,1625051785.9375
4.2,1625051785.953125
3.8,1625051785.96875
3.24,1625051785.984375
2.68,1625051786.0
2.25,1625051786.015625
2.01,1625051786.03125
1.91,1625051786.046875
1.79,1625051786.0625
1.53,1625051786.078125
1.06,1625051786.09375
0.38,1625051786.109375
-0.44,1625051786.125
-1.36,1625051786.140625
-2.32,1625051786.15625
-3.29,1625051786.171875
-4.22,1625051786.1875
-5.05,1625051786.203125
-5.76,1625051786.21875
-6.38,1625051786.234375
-6.98,1625051786.25
-7.65,1625051786.265625
-8.39,1625051786.28125
-9.1,1625051786.296875
-9.6,1625051786.3125
-9.64,1625051786.328125
-9.05,1625051786.34375
-7.77,1625051786.359375
-5.89,1625051786.375
-3.6,1625051786.390625
-1.17,1625051786.40625
1.14,1625051786.421875
3.12,1625051786.4375
4.68,1625051786.453125
5.81,1625051786.46875
6.58,1625051786.484375
7.1,1625051786.5
7.44,1625051786.515625
7.66,1625051786.53125
7.76,1625051786.546875
7.74,1625051786.5625
7.59,1625051786.578125
7.36,1625051786.59375
7.05,1625051786.609375
6.69,1625051786.625
6.3,1625051786.640625
5.95,1625051786.65625
5.7,1625051786.671875
5.66,1625051786.6875
5.87,1625051786.703125
6.32,1625051786.71875
6.9,1625051786.734375
7.43,1625051786.75
7.7,1625051786.765625
7.57,1625051786.78125
6.97,1625051786.796875
5.96,1625051786.8125
4.73,1625051786.828125
3.5,1625051786.84375
2.45,1625051786.859375
1.65,1625051786.875
1.02,1625051786.890625
0.38,1625051786.90625
-0.43,1625051786.921875
-1.49,1625051786.9375
-2.72,1625051786.953125
-3.94,1625051786.96875
-5.02,1625051786.984375
-5.87,1625051787.0
-6.56,1625051787.015625
-7.21,1625051787.03125
-7.92,1625051787.046875
-8.7,1625051787.0625
-9.49,1625051787.078125
-10.18,1625051787.09375
-10.65,1625051787.109375
-10.82,1625051787.125
-10.61,1625051787.140625
-9.99,1625051787.15625
-8.92,1625051787.171875
-7.44,1625051787.1875
-5.61,1625051787.203125
-3.59,1625051787.21875
-1.56,1625051787.234375
0.31,1625051787.25
1.83,1625051787.265625
2.88,1625051787.28125
3.44,1625051787.296875
3.58,1625051787.3125
3.42,1625051787.328125
3.13,1625051787.34375
2.82,1625051787.359375
2.51,1625051787.375
2.21,1625051787.390625
1.89,1625051787.40625
1.6,1625051787.421875
1.4,1625051787.4375
1.32,1625051787.453125
1.38,1625051787.46875
1.49,1625051787.484375
1.58,1625051787.5
1.56,1625051787.515625
1.46,1625051787.53125
1.34,1625051787.546875
1.26,1625051787.5625
1.22,1625051787.578125
1.13,1625051787.59375
0.86,1625051787.609375
0.31,1625051787.625
-0.53,1625051787.640625
-1.54,1625051787.65625
-2.53,1625051787.671875
-3.36,1625051787.6875
-3.96,1625051787.703125
-4.4,1625051787.71875
-4.82,1625051787.734375
-5.35,1625051787.75
-6.05,1625051787.765625
-6.86,1625051787.78125
-7.64,1625051787.796875
-8.2,1625051787.8125
-8.39,1625051787.828125
-8.16,1625051787.84375
-7.52,1625051787.859375
-6.57,1625051787.875
-5.41,1625051787.890625
-4.17,1625051787.90625
-2.89,1625051787.921875
-1.61,1625051787.9375
-0.34,1625051787.953125
0.9,1625051787.96875
2.07,1625051787.984375
3.06,1625051788.0
3.77,1625051788.015625
4.12,1625051788.03125
4.16,1625051788.046875
4.01,1625051788.0625
3.85,1625051788.078125
3.8,1625051788.09375
3.86,1625051788.109375
3.9,1625051788.125
3.72,1625051788.140625
3.25,1625051788.15625
2.54,1625051788.171875
1.81,1625051788.1875
1.32,1625051788.203125
1.21,1625051788.21875
1.42,1625051788.234375
1.72,1625051788.25
1.9,1625051788.265625
1.79,1625051788.28125
1.43,1625051788.296875
0.96,1625051788.3125
0.57,1625051788.328125
0.35,1625051788.34375
0.27,1625051788.359375
0.21,1625051788.375
0.03,1625051788.390625
-0.33,1625051788.40625
-0.82,1625051788.421875
-1.29,1625051788.4375
-1.61,1625051788.453125
-1.69,1625051788.46875
-1.58,1625051788.484375
-1.4,1625051788.5
-1.26,1625051788.515625
-1.19,1625051788.53125
-1.08,1625051788.546875
-0.82,1625051788.5625
-0.34,1625051788.578125
0.36,1625051788.59375
1.14,1625051788.609375
1.9,1625051788.625
2.56,1625051788.640625
3.15,1625051788.65625
3.67,1625051788.671875
4.07,1625051788.6875
4.2,1625051788.703125
3.85,1625051788.71875
2.89,1625051788.734375
1.35,1625051788.75
-0.58,1625051788.765625
-2.57,1625051788.78125
-4.37,1625051788.796875
-5.87,1625051788.8125
-7.1,1625051788.828125
-8.25,1625051788.84375
-9.5,1625051788.859375
-10.99,1625051788.875
-12.74,1625051788.890625
-14.69,1625051788.90625
-16.72,1625051788.921875
-18.76,1625051788.9375
-20.73,1625051788.953125
-22.57,1625051788.96875
-24.24,1625051788.984375
-25.62,1625051789.0
-26.61,1625051789.015625
-27.04,1625051789.03125
-26.79,1625051789.046875
-25.75,1625051789.0625
-23.86,1625051789.078125
-21.14,1625051789.09375
-17.64,1625051789.109375
-13.44,1625051789.125
-8.57,1625051789.140625
-3.11,1625051789.15625
2.85,1625051789.171875
9.15,1625051789.1875
15.52,1625051789.203125
21.63,1625051789.21875
27.15,1625051789.234375
31.81,1625051789.25
35.43,1625051789.265625
37.94,1625051789.28125
39.33,1625051789.296875
39.67,1625051789.3125
39.07,1625051789.328125
37.7,1625051789.34375
35.71,1625051789.359375
33.32,1625051789.375
30.72,1625051789.390625
28.13,1625051789.40625
25.74,1625051789.421875
23.7,1625051789.4375
22.06,1625051789.453125
20.76,1625051789.46875
19.64,1625051789.484375
18.48,1625051789.5
17.16,1625051789.515625
15.67,1625051789.53125
14.11,1625051789.546875
12.61,1625051789.5625
11.22,1625051789.578125
9.88,1625051789.59375
8.43,1625051789.609375
6.69,1625051789.625
4.64,1625051789.640625
2.36,1625051789.65625
0.06,1625051789.671875
-2.06,1625051789.6875
-3.85,1625051789.703125
-5.26,1625051789.71875
-6.3,1625051789.734375
-6.97,1625051789.75
-7.25,1625051789.765625
-7.09,1625051789.78125
-6.46,1625051789.796875
-5.42,1625051789.8125
-4.13,1625051789.828125
-2.74,1625051789.84375
-1.41,1625051789.859375
-0.2,1625051789.875
0.86,1625051789.890625
1.78,1625051789.90625
2.49,1625051789.921875
2.89,1625051789.9375
2.88,1625051789.953125
2.4,1625051789.96875
1.57,1625051789.984375
0.55,1625051790.0
-0.43,1625051790.015625
-1.19,1625051790.03125
-1.7,1625051790.046875
-2.01,1625051790.0625
-2.28,1625051790.078125
-2.59,1625051790.09375
-2.96,1625051790.109375
-3.32,1625051790.125
-3.59,1625051790.140625
-3.73,1625051790.15625
-3.81,1625051790.171875
-3.98,1625051790.1875
-4.33,1625051790.203125
-4.88,1625051790.21875
-5.55,1625051790.234375
-6.22,1625051790.25
-6.79,1625051790.265625
-7.32,1625051790.28125
-7.9,1625051790.296875
-8.58,1625051790.3125
-9.26,1625051790.328125
-9.69,1625051790.34375
-9.57,1625051790.359375
-8.75,1625051790.375
-7.27,1625051790.390625
-5.38,1625051790.40625
-3.37,1625051790.421875
-1.44,1625051790.4375
0.36,1625051790.453125
2.09,1625051790.46875
3.76,1625051790.484375
5.25,1625051790.5
6.35,1625051790.515625
6.86,1625051790.53125
6.72,1625051790.546875
6.11,1625051790.5625
5.27,1625051790.578125
4.46,1625051790.59375
3.81,1625051790.609375
3.28,1625051790.625
2.79,1625051790.640625
2.28,1625051790.65625
1.77,1625051790.671875
1.34,1625051790.6875
1.06,1625051790.703125
0.89,1625051790.71875
0.74,1625051790.734375
0.48,1625051790.75
0.05,1625051790.765625
-0.52,1625051790.78125
-1.15,1625051790.796875
-1.76,1625051790.8125
-2.36,1625051790.828125
-3.06,1625051790.84375
-3.93,1625051790.859375
-4.97,1625051790.875
-6.01,1625051790.890625
-6.79,1625051790.90625
-7.04,1625051790.921875
-6.61,1625051790.9375
-5.52,1625051790.953125
-3.97,1625051790.96875
-2.23,1625051790.984375
-0.54,1625051791.0
0.97,1625051791.015625
2.26,1625051791.03125
3.38,1625051791.046875
4.38,1625051791.0625
5.27,1625051791.078125
5.96,1625051791.09375
6.34,1625051791.109375
6.31,1625051791.125
5.84,1625051791.140625
5.05,1625051791.15625
4.12,1625051791.171875
3.29,1625051791.1875
2.7,1625051791.203125
2.38,1625051791.21875
2.27,1625051791.234375
2.23,1625051791.25
2.18,1625051791.265625
2.05,1625051791.28125
1.81,1625051791.296875
1.43,1625051791.3125
0.9,1625051791.328125
0.2,1625051791.34375
-0.62,1625051791.359375
-1.47,1625051791.375
-2.28,1625051791.390625
-3.0,1625051791.40625
-3.69,1625051791.421875
-4.38,1625051791.4375
-5.09,1625051791.453125
-5.66,1625051791.46875
-5.9,1625051791.484375
-5.61,1625051791.5
-4.72,1625051791.515625
-3.37,1625051791.53125
-1.82,1625051791.546875
-0.37,1625051791.5625
0.84,1625051791.578125
1.84,1625051791.59375
2.76,1625051791.609375
3.72,1625051791.625
4.7,1625051791.640625
5.54,1625051791.65625
6.0,1625051791.671875
5.91,1625051791.6875
5.25,1625051791.703125
4.18,1625051791.71875
2.98,1625051791.734375
1.95,1625051791.75
1.29,1625051791.765625
1.07,1625051791.78125
1.21,1625051791.796875
1.55,1625051791.8125
1.88,1625051791.828125
2.07,1625051791.84375
2.07,1625051791.859375
1.89,1625051791.875
1.61,1625051791.890625
1.25,1625051791.90625
0.82,1625051791.921875
0.3,1625051791.9375
-0.33,1625051791.953125
-1.06,1625051791.96875
-1.83,1625051791.984375
-2.55,1625051792.0
-3.1,1625051792.015625
-3.36,1625051792.03125
-3.25,1625051792.046875
-2.74,1625051792.0625
-1.91,1625051792.078125
-0.88,1625051792.09375
0.19,1625051792.109375
1.17,1625051792.125
1.99,1625051792.140625
2.67,1625051792.15625
3.21,1625051792.171875
3.64,1625051792.1875
3.96,1625051792.203125
4.12,1625051792.21875
4.09,1625051792.234375
3.83,1625051792.25
3.32,1625051792.265625
2.54,1625051792.28125
1.56,1625051792.296875
0.5,1625051792.3125
-0.47,1625051792.328125
-1.21,1625051792.34375
-1.7,1625051792.359375
-2.02,1625051792.375
-2.3,1625051792.390625
-2.66,1625051792.40625
-3.1,1625051792.421875
-3.55,1625051792.4375
-3.91,1625051792.453125
-4.19,1625051792.46875
-4.44,1625051792.484375
-4.79,1625051792.5
-5.32,1625051792.515625
-6.05,1625051792.53125
-6.87,1625051792.546875
-7.65,1625051792.5625
-8.28,1625051792.578125
-8.63,1625051792.59375
-8.63,1625051792.609375
-8.23,1625051792.625
-7.46,1625051792.640625
-6.4,1625051792.65625
-5.15,1625051792.671875
-3.87,1625051792.6875
-2.62,1625051792.703125
-1.47,1625051792.71875
-0.4,1625051792.734375
0.56,1625051792.75
1.35,1625051792.765625
1.88,1625051792.78125
2.07,1625051792.796875
1.93,1625051792.8125
1.53,1625051792.828125
1.03,1625051792.84375
0.58,1625051792.859375
0.25,1625051792.875
0.05,1625051792.890625
-0.07,1625051792.90625
-0.17,1625051792.921875
-0.24,1625051792.9375
-0.25,1625051792.953125
-0.2,1625051792.96875
-0.11,1625051792.984375
-0.09,1625051793.0
-0.22,1625051793.015625
-0.52,1625051793.03125
-0.89,1625051793.046875
-1.17,1625051793.0625
-1.21,1625051793.078125
-0.94,1625051793.09375
-0.44,1625051793.109375
0.16,1625051793.125
0.74,1625051793.140625
1.27,1625051793.15625
1.79,1625051793.171875
2.39,1625051793.1875
3.08,1625051793.203125
3.8,1625051793.21875
4.4,1625051793.234375
4.79,1625051793.25
4.96,1625051793.265625
4.96,1625051793.28125
4.89,1625051793.296875
4.78,1625051793.3125
4.6,1625051793.328125
4.29,1625051793.34375
3.83,1625051793.359375
3.27,1625051793.375
2.7,1625051793.390625
2.2,1625051793.40625
1.86,1625051793.421875
1.67,1625051793.4375
1.67,1625051793.453125
1.82,1625051793.46875
2.1,1625051793.484375
2.44,1625051793.5
2.7,1625051793.515625
2.73,1625051793.53125
2.42,1625051793.546875
1.77,1625051793.5625
0.88,1625051793.578125
-0.04,1625051793.59375
-0.81,1625051793.609375
-1.32,1625051793.625
-1.54,1625051793.640625
-1.53,1625051793.65625
-1.41,1625051793.671875
-1.28,1625051793.6875
-1.25,1625051793.703125
-1.33,1625051793.71875
-1.51,1625051793.734375
-1.7,1625051793.75
-1.76,1625051793.765625
-1.57,1625051793.78125
-1.02,1625051793.796875
-0.09,1625051793.8125
1.08,1625051793.828125
2.32,1625051793.84375
3.36,1625051793.859375
4.0,1625051793.875
4.16,1625051793.890625
3.87,1625051793.90625
3.29,1625051793.921875
2.63,1625051793.9375
2.08,1625051793.953125
1.73,1625051793.96875
1.56,1625051793.984375
1.43,1625051794.0
1.17,1625051794.015625
0.62,1625051794.03125
-0.29,1625051794.046875
-1.49,1625051794.0625
-2.83,1625051794.078125
-4.09,1625051794.09375
-5.11,1625051794.109375
-5.8,1625051794.125
-6.19,1625051794.140625
-6.41,1625051794.15625
-6.59,1625051794.171875
-6.87,1625051794.1875
-7.28,1625051794.203125
-7.79,1625051794.21875
-8.37,1625051794.234375
-8.97,1625051794.25
-9.56,1625051794.265625
-10.17,1625051794.28125
-10.75,1625051794.296875
-11.24,1625051794.3125
-11.56,1625051794.328125
-11.65,1625051794.34375
-11.49,1625051794.359375
-11.15,1625051794.375
-10.8,1625051794.390625
-10.55,1625051794.40625
-10.44,1625051794.421875
-10.37,1625051794.4375
-10.14,1625051794.453125
-9.55,1625051794.46875
-8.51,1625051794.484375
-7.13,1625051794.5
-5.64,1625051794.515625
-4.3,1625051794.53125
-3.24,1625051794.546875
-2.43,1625051794.5625
-1.72,1625051794.578125
-0.98,1625051794.59375
-0.21,1625051794.609375
0.46,1625051794.625
0.83,1625051794.640625
0.83,1625051794.65625
0.53,1625051794.671875
0.19,1625051794.6875
0.04,1625051794.703125
0.19,1625051794.71875
0.57,1625051794.734375
1.0,1625051794.75
1.33,1625051794.765625
1.47,1625051794.78125
1.5,1625051794.796875
1.51,1625051794.8125
1.55,1625051794.828125
1.62,1625051794.84375
1.64,1625051794.859375
1.59,1625051794.875
1.44,1625051794.890625
1.23,1625051794.90625
1.01,1625051794.921875
0.81,1625051794.9375
0.62,1625051794.953125
0.4,1625051794.96875
0.12,1625051794.984375
-0.21,1625051795.0
-0.56,1625051795.015625
-0.88,1625051795.03125
-1.12,1625051795.046875
-1.29,1625051795.0625
-1.48,1625051795.078125
-1.76,1625051795.09375
-2.16,1625051795.109375
-2.6,1625051795.125
-2.89,1625051795.140625
-2.83,1625051795.15625
-2.33,1625051795.171875
-1.44,1625051795.1875
-0.35,1625051795.203125
0.73,1625051795.21875
1.66,1625051795.234375
2.45,1625051795.25
3.16,1625051795.265625
3.82,1625051795.28125
4.41,1625051795.296875
4.8,1625051795.3125
4.89,1625051795.328125
4.64,1625051795.34375
4.17,1625051795.359375
3.68,1625051795.375
3.32,1625051795.390625
3.2,1625051795.40625
3.25,1625051795.421875
3.37,1625051795.4375
3.41,1625051795.453125
3.33,1625051795.46875
3.12,1625051795.484375
2.84,1625051795.5
2.51,1625051795.515625
2.11,1625051795.53125
1.63,1625051795.546875
1.03,1625051795.5625
0.41,1625051795.578125
-0.11,1625051795.59375
-0.41,1625051795.609375
-0.5,1625051795.625
-0.46,1625051795.640625
-0.49,1625051795.65625
-0.75,1625051795.671875
-1.26,1625051795.6875
-1.95,1625051795.703125
-2.65,1625051795.71875
-3.25,1625051795.734375
-3.76,1625051795.75
-4.26,1625051795.765625
-4.82,1625051795.78125
-5.44,1625051795.796875
-6.0,1625051795.8125
-6.36,1625051795.828125
-6.42,1625051795.84375
-6.18,1625051795.859375
-5.72,1625051795.875
-5.14,1625051795.890625
-4.43,1625051795.90625
-3.54,1625051795.921875
-2.38,1625051795.9375
-0.95,1625051795.953125
0.63,1625051795.96875
2.1,1625051795.984375
3.21,1625051796.0
3.79,1625051796.015625
3.82,1625051796.03125
3.46,1625051796.046875
2.95,1625051796.0625
2.54,1625051796.078125
2.39,1625051796.09375
2.54,1625051796.109375
2.92,1625051796.125
3.38,1625051796.140625
3.78,1625051796.15625
3.98,1625051796.171875
3.93,1625051796.1875
3.66,1625051796.203125
3.22,1625051796.21875
2.75,1625051796.234375
2.35,1625051796.25
2.07,1625051796.265625
1.9,1625051796.28125
1.75,1625051796.296875
1.52,1625051796.3125
1.17,1625051796.328125
0.68,1625051796.34375
0.1,1625051796.359375
-0.5,1625051796.375
-1.12,1625051796.390625
-1.74,1625051796.40625
-2.34,1625051796.421875
-2.86,1625051796.4375
-3.22,1625051796.453125
-3.31,1625051796.46875
-3.06,1625051796.484375
-2.46,1625051796.5
-1.57,1625051796.515625
-0.5,1625051796.53125
0.57,1625051796.546875
1.47,1625051796.5625
2.09,1625051796.578125
2.41,1625051796.59375
2.52,1625051796.609375
2.54,1625051796.625
2.6,1625051796.640625
2.73,1625051796.65625
2.86,1625051796.671875
2.83,1625051796.6875
2.57,1625051796.703125
2.11,1625051796.71875
1.58,1625051796.734375
1.14,1625051796.75
0.83,1625051796.765625
0.55,1625051796.78125
0.13,1625051796.796875
-0.52,1625051796.8125
-1.35,1625051796.828125
-2.12,1625051796.84375
-2.63,1625051796.859375
-2.78,1625051796.875
-2.71,1625051796.890625
-2.66,1625051796.90625
-2.88,1625051796.921875
-3.44,1625051796.9375
-4.25,1625051796.953125
-5.14,1625051796.96875
-5.94,1625051796.984375
-6.66,1625051797.0
-7.35,1625051797.015625
-8.05,1625051797.03125
-8.7,1625051797.046875
-9.09,1625051797.0625
-9.04,1625051797.078125
-8.46,1625051797.09375
-7.44,1625051797.109375
-6.16,1625051797.125
-4.79,1625051797.140625
-3.48,1625051797.15625
-2.27,1625051797.171875
-1.16,1625051797.1875
-0.19,1625051797.203125
0.61,1625051797.21875
1.18,1625051797.234375
1.51,1625051797.25
1.64,1625051797.265625
1.62,1625051797.28125
1.54,1625051797.296875
1.46,1625051797.3125
1.41,1625051797.328125
1.41,1625051797.34375
1.47,1625051797.359375
1.56,1625051797.375
1.65,1625051797.390625
1.67,1625051797.40625
1.57,1625051797.421875
1.31,1625051797.4375
0.94,1625051797.453125
0.54,1625051797.46875
0.17,1625051797.484375
-0.11,1625051797.5
-0.34,1625051797.515625
-0.57,1625051797.53125
-0.89,1625051797.546875
-1.37,1625051797.5625
-2.04,1625051797.578125
-2.88,1625051797.59375
-3.86,1625051797.609375
-4.92,1625051797.625
-5.92,1625051797.640625
-6.74,1625051797.65625
-7.24,1625051797.671875
-7.32,1625051797.6875
-6.98,1625051797.703125
-6.27,1625051797.71875
-5.33,1625051797.734375
-4.29,1625051797.75
-3.25,1625051797.765625
-2.29,1625051797.78125
-1.44,1625051797.796875
-0.71,1625051797.8125
-0.07,1625051797.828125
0.49,1625051797.84375
1.01,1625051797.859375
1.47,1625051797.875
1.78,1625051797.890625
1.86,1625051797.90625
1.67,1625051797.921875
1.25,1625051797.9375
0.79,1625051797.953125
0.52,1625051797.96875
0.58,1625051797.984375
0.97,1625051798.0
1.52,1625051798.015625
2.02,1625051798.03125
2.3,1625051798.046875
2.32,1625051798.0625
2.12,1625051798.078125
1.77,1625051798.09375
1.31,1625051798.109375
0.74,1625051798.125
0.06,1625051798.140625
-0.7,1625051798.15625
-1.49,1625051798.171875
-2.26,1625051798.1875
-2.99,1625051798.203125
-3.69,1625051798.21875
-4.35,1625051798.234375
-4.94,1625051798.25
-5.36,1625051798.265625
-5.51,1625051798.28125
-5.27,1625051798.296875
-4.56,1625051798.3125
-3.4,1625051798.328125
-1.88,1625051798.34375
-0.18,1625051798.359375
1.45,1625051798.375
2.83,1625051798.390625
3.85,1625051798.40625
4.51,1625051798.421875
4.92,1625051798.4375
5.18,1625051798.453125
5.38,1625051798.46875
5.49,1625051798.484375
5.45,1625051798.5
5.2,1625051798.515625
4.74,1625051798.53125
4.14,1625051798.546875
3.51,1625051798.5625
2.97,1625051798.578125
2.57,1625051798.59375
2.31,1625051798.609375
2.16,1625051798.625
2.09,1625051798.640625
2.07,1625051798.65625
2.07,1625051798.671875
2.07,1625051798.6875
2.04,1625051798.703125
1.91,1625051798.71875
1.67,1625051798.734375
1.32,1625051798.75
0.9,1625051798.765625
0.44,1625051798.78125
-0.04,1625051798.796875
-0.57,1625051798.8125
-1.2,1625051798.828125
-1.92,1625051798.84375
-2.61,1625051798.859375
-3.06,1625051798.875
-3.07,1625051798.890625
-2.53,1625051798.90625
-1.51,1625051798.921875
-0.27,1625051798.9375
0.95,1625051798.953125
1.94,1625051798.96875
2.7,1625051798.984375
3.37,1625051799.0
4.09,1625051799.015625
4.91,1625051799.03125
5.74,1625051799.046875
6.41,1625051799.0625
6.76,1625051799.078125
6.75,1625051799.09375
6.5,1625051799.109375
6.17,1625051799.125
5.92,1625051799.140625
5.8,1625051799.15625
5.81,1625051799.171875
5.89,1625051799.1875
6.0,1625051799.203125
6.11,1625051799.21875
6.19,1625051799.234375
6.17,1625051799.25
6.03,1625051799.265625
5.76,1625051799.28125
5.41,1625051799.296875
5.09,1625051799.3125
4.87,1625051799.328125
4.71,1625051799.34375
4.5,1625051799.359375
4.08,1625051799.375
3.38,1625051799.390625
2.45,1625051799.40625
1.4,1625051799.421875
0.35,1625051799.4375
-0.61,1625051799.453125
-1.5,1625051799.46875
-2.32,1625051799.484375
-2.97,1625051799.5
-3.22,1625051799.515625
-2.84,1625051799.53125
-1.72,1625051799.546875
0.01,1625051799.5625
2.04,1625051799.578125
3.99,1625051799.59375
5.58,1625051799.609375
6.74,1625051799.625
7.55,1625051799.640625
8.13,1625051799.65625
8.51,1625051799.671875
8.6,1625051799.6875
8.29,1625051799.703125
7.57,1625051799.71875
6.61,1625051799.734375
5.67,1625051799.75
4.94,1625051799.765625
4.48,1625051799.78125
4.18,1625051799.796875
3.85,1625051799.8125
3.38,1625051799.828125
2.76,1625051799.84375
2.09,1625051799.859375
1.46,1625051799.875
0.88,1625051799.890625
0.29,1625051799.90625
-0.36,1625051799.921875
-1.06,1625051799.9375
-1.71,1625051799.953125
-2.21,1625051799.96875
-2.55,1625051799.984375
-2.83,1625051800.0
-3.22,1625051800.015625
-3.88,1625051800.03125
-4.84,1625051800.046875
-6.0,1625051800.0625
-7.13,1625051800.078125
-8.0,1625051800.09375
-8.41,1625051800.109375
-8.25,1625051800.125
-7.53,1625051800.140625
-6.35,1625051800.15625
-4.81,1625051800.171875
-3.03,1625051800.1875
-1.09,1625051800.203125
0.95,1625051800.21875
2.97,1625051800.234375
4.85,1625051800.25
6.38,1625051800.265625
7.38,1625051800.28125
7.77,1625051800.296875
7.56,1625051800.3125
6.9,1625051800.328125
5.99,1625051800.34375
4.99,1625051800.359375
4.03,1625051800.375
3.16,1625051800.390625
2.42,1625051800.40625
1.83,1625051800.421875
1.41,1625051800.4375
1.11,1625051800.453125
0.87,1625051800.46875
0.61,1625051800.484375
0.28,1625051800.5
-0.1,1625051800.515625
-0.45,1625051800.53125
-0.71,1625051800.546875
-0.9,1625051800.5625
-1.11,1625051800.578125
-1.45,1625051800.59375
-2.02,1625051800.609375
-2.78,1625051800.625
-3.64,1625051800.640625
-4.51,1625051800.65625
-5.34,1625051800.671875
-6.17,1625051800.6875
-7.02,1625051800.703125
-7.8,1625051800.71875
-8.31,1625051800.734375
-8.25,1625051800.75
-7.42,1625051800.765625
-5.77,1625051800.78125
-3.51,1625051800.796875
-1.01,1625051800.8125
1.36,1625051800.828125
3.33,1625051800.84375
4.84,1625051800.859375
5.9,1625051800.875
6.6,1625051800.890625
6.95,1625051800.90625
6.97,1625051800.921875
6.67,1625051800.9375
6.08,1625051800.953125
5.31,1625051800.96875
4.48,1625051800.984375
3.7,1625051801.0
3.07,1625051801.015625
2.66,1625051801.03125
2.48,1625051801.046875
2.48,1625051801.0625
2.53,1625051801.078125
2.49,1625051801.09375
2.25,1625051801.109375
1.79,1625051801.125
1.17,1625051801.140625
0.51,1625051801.15625
-0.12,1625051801.171875
-0.7,1625051801.1875
-1.29,1625051801.203125
-1.97,1625051801.21875
-2.75,1625051801.234375
-3.62,1625051801.25
-4.53,1625051801.265625
-5.46,1625051801.28125
-6.39,1625051801.296875
-7.28,1625051801.3125
-8.04,1625051801.328125
-8.48,1625051801.34375
-8.42,1625051801.359375
-7.68,1625051801.375
-6.21,1625051801.390625
-4.1,1625051801.40625
-1.54,1625051801.421875
1.18,1625051801.4375
3.73,1625051801.453125
5.83,1625051801.46875
7.29,1625051801.484375
8.02,1625051801.5
8.1,1625051801.515625
7.69,1625051801.53125
7.02,1625051801.546875
6.23,1625051801.5625
5.42,1625051801.578125
4.6,1625051801.59375
3.76,1625051801.609375
2.94,1625051801.625
2.24,1625051801.640625
1.76,1625051801.65625
1.56,1625051801.671875
1.58,1625051801.6875
1.68,1625051801.703125
1.67,1625051801.71875
1.41,1625051801.734375
0.87,1625051801.75
0.11,1625051801.765625
-0.77,1625051801.78125
-1.7,1625051801.796875
-2.68,1625051801.8125
-3.69,1625051801.828125
-4.71,1625051801.84375
-5.64,1625051801.859375
-6.39,1625051801.875
-6.92,1625051801.890625
-7.29,1625051801.90625
-7.67,1625051801.921875
-8.14,1625051801.9375
-8.69,1625051801.953125
-9.17,1625051801.96875
-9.37,1625051801.984375
-9.12,1625051802.0
-8.36,1625051802.015625
-7.13,1625051802.03125
-5.5,1625051802.046875
-3.58,1625051802.0625
-1.44,1625051802.078125
0.75,1625051802.09375
2.8,1625051802.109375
4.46,1625051802.125
5.58,1625051802.140625
6.13,1625051802.15625
6.22,1625051802.171875
6.06,1625051802.1875
5.82,1625051802.203125
5.57,1625051802.21875
5.29,1625051802.234375
4.92,1625051802.25
4.43,1625051802.265625
3.86,1625051802.28125
3.28,1625051802.296875
2.76,1625051802.3125
2.37,1625051802.328125
2.14,1625051802.34375
2.05,1625051802.359375
2.03,1625051802.375
1.99,1625051802.390625
1.79,1625051802.40625
1.3,1625051802.421875
0.51,1625051802.4375
-0.5,1625051802.453125
-1.54,1625051802.46875
-2.41,1625051802.484375
-3.0,1625051802.5
-3.33,1625051802.515625
-3.56,1625051802.53125
-3.84,1625051802.546875
-4.33,1625051802.5625
-5.04,1625051802.578125
-5.94,1625051802.59375
-6.89,1625051802.609375
-7.75,1625051802.625
-8.35,1625051802.640625
-8.5,1625051802.65625
-8.09,1625051802.671875
-7.01,1625051802.6875
-5.31,1625051802.703125
-3.12,1625051802.71875
-0.7,1625051802.734375
1.72,1625051802.75
3.92,1625051802.765625
5.79,1625051802.78125
7.24,1625051802.796875
8.27,1625051802.8125
8.9,1625051802.828125
9.16,1625051802.84375
9.14,1625051802.859375
8.92,1625051802.875
8.59,1625051802.890625
8.16,1625051802.90625
7.62,1625051802.921875
6.97,1625051802.9375
6.24,1625051802.953125
5.52,1625051802.96875
4.88,1625051802.984375
4.41,1625051803.0
4.1,1625051803.015625
3.9,1625051803.03125
3.77,1625051803.046875
3.71,1625051803.0625
3.7,1625051803.078125
3.74,1625051803.09375
3.7,1625051803.109375
3.44,1625051803.125
2.82,1625051803.140625
1.83,1625051803.15625
0.59,1625051803.171875
-0.62,1625051803.1875
-1.55,1625051803.203125
-2.12,1625051803.21875
-2.41,1625051803.234375
-2.68,1625051803.25
-3.18,1625051803.265625
-4.03,1625051803.28125
-5.17,1625051803.296875
-6.39,1625051803.3125
-7.41,1625051803.328125
-8.01,1625051803.34375
-8.06,1625051803.359375
-7.54,1625051803.375
-6.47,1625051803.390625
-4.9,1625051803.40625
-2.95,1625051803.421875
-0.76,1625051803.4375
1.44,1625051803.453125
3.41,1625051803.46875
4.96,1625051803.484375
6.02,1625051803.5
6.61,1625051803.515625
6.87,1625051803.53125
6.89,1625051803.546875
6.75,1625051803.5625
6.43,1625051803.578125
5.9,1625051803.59375
5.14,1625051803.609375
4.22,1625051803.625
3.31,1625051803.640625
2.6,1625051803.65625
2.24,1625051803.671875
2.25,1625051803.6875
2.53,1625051803.703125
2.88,1625051803.71875
3.13,1625051803.734375
3.18,1625051803.75
3.05,1625051803.765625
2.84,1625051803.78125
2.64,1625051803.796875
2.46,1625051803.8125
2.22,1625051803.828125
1.86,1625051803.84375
1.34,1625051803.859375
0.7,1625051803.875
0.01,1625051803.890625
-0.67,1625051803.90625
-1.35,1625051803.921875
-2.09,1625051803.9375
-2.87,1625051803.953125
-3.65,1625051803.96875
-4.34,1625051803.984375
-4.91,1625051804.0
-5.4,1625051804.015625
-5.97,1625051804.03125
-6.73,1625051804.046875
-7.67,1625051804.0625
-8.59,1625051804.078125
-9.17,1625051804.09375
-9.1,1625051804.109375
-8.2,1625051804.125
-6.53,1625051804.140625
-4.3,1625051804.15625
-1.84,1625051804.171875
0.56,1625051804.1875
2.67,1625051804.203125
4.35,1625051804.21875
5.55,1625051804.234375
6.31,1625051804.25
6.66,1625051804.265625
6.7,1625051804.28125
6.45,1625051804.296875
5.97,1625051804.3125
5.32,1625051804.328125
4.6,1625051804.34375
3.93,1625051804.359375
3.47,1625051804.375
3.3,1625051804.390625
3.37,1625051804.40625
3.57,1625051804.421875
3.74,1625051804.4375
3.78,1625051804.453125
3.69,1625051804.46875
3.53,1625051804.484375
3.36,1625051804.5
3.16,1625051804.515625
2.86,1625051804.53125
2.38,1625051804.546875
1.68,1625051804.5625
0.84,1625051804.578125
-0.01,1625051804.59375
-0.78,1625051804.609375
-1.41,1625051804.625
-1.92,1625051804.640625
-2.35,1625051804.65625
-2.75,1625051804.671875
-3.19,1625051804.6875
-3.74,1625051804.703125
-4.45,1625051804.71875
-5.34,1625051804.734375
-6.32,1625051804.75
-7.25,1625051804.765625
-7.97,1625051804.78125
-8.37,1625051804.796875
-8.42,1625051804.8125
-8.12,1625051804.828125
-7.5,1625051804.84375
-6.52,1625051804.859375
-5.16,1625051804.875
-3.44,1625051804.890625
-1.48,1625051804.90625
0.53,1625051804.921875
2.41,1625051804.9375
4.12,1625051804.953125
5.68,1625051804.96875
7.2,1625051804.984375
8.66,1625051805.0
9.93,1625051805.015625
10.78,1625051805.03125
11.02,1625051805.046875
10.63,1625051805.0625
9.75,1625051805.078125
8.67,1625051805.09375
7.71,1625051805.109375
7.07,1625051805.125
6.76,1625051805.140625
6.66,1625051805.15625
6.57,1625051805.171875
6.3,1625051805.1875
5.78,1625051805.203125
5.08,1625051805.21875
4.3,1625051805.234375
3.6,1625051805.25
3.04,1625051805.265625
2.6,1625051805.28125
2.22,1625051805.296875
1.79,1625051805.3125
1.23,1625051805.328125
0.54,1625051805.34375
-0.26,1625051805.359375
-1.14,1625051805.375
-2.04,1625051805.390625
-2.9,1625051805.40625
-3.7,1625051805.421875
-4.38,1625051805.4375
-4.96,1625051805.453125
-5.51,1625051805.46875
-6.09,1625051805.484375
-6.79,1625051805.5
-7.6,1625051805.515625
-8.42,1625051805.53125
-9.07,1625051805.546875
-9.36,1625051805.5625
-9.17,1625051805.578125
-8.49,1625051805.59375
-7.36,1625051805.609375
-5.86,1625051805.625
-4.07,1625051805.640625
-2.07,1625051805.65625
0.01,1625051805.671875
2.02,1625051805.6875
3.74,1625051805.703125
5.01,1625051805.71875
5.71,1625051805.734375
5.81,1625051805.75
5.41,1625051805.765625
4.65,1625051805.78125
3.67,1625051805.796875
2.62,1625051805.8125
1.64,1625051805.828125
0.87,1625051805.84375
0.4,1625051805.859375
0.25,1625051805.875
0.34,1625051805.890625
0.5,1625051805.90625
0.55,1625051805.921875
0.39,1625051805.9375
-0.0,1625051805.953125
-0.55,1625051805.96875
-1.13,1625051805.984375
-1.69,1625051806.0
-2.2,1625051806.015625
-2.69,1625051806.03125
-3.19,1625051806.046875
-3.69,1625051806.0625
-4.17,1625051806.078125
-4.65,1625051806.09375
-5.2,1625051806.109375
-5.91,1625051806.125
-6.85,1625051806.140625
-8.04,1625051806.15625
-9.37,1625051806.171875
-10.68,1625051806.1875
-11.73,1625051806.203125
-12.34,1625051806.21875
-12.34,1625051806.234375
-11.68,1625051806.25
-10.37,1625051806.265625
-8.53,1625051806.28125
-6.37,1625051806.296875
-4.12,1625051806.3125
-2.03,1625051806.328125
-0.24,1625051806.34375
1.17,1625051806.359375
2.23,1625051806.375
2.97,1625051806.390625
3.45,1625051806.40625
3.69,1625051806.421875
3.68,1625051806.4375
3.44,1625051806.453125
3.02,1625051806.46875
2.51,1625051806.484375
2.02,1625051806.5
1.59,1625051806.515625
1.23,1625051806.53125
0.87,1625051806.546875
0.46,1625051806.5625
0.0,1625051806.578125
-0.44,1625051806.59375
-0.75,1625051806.609375
-0.83,1625051806.625
-0.72,1625051806.640625
-0.54,1625051806.65625
-0.46,1625051806.671875
-0.6,1625051806.6875
-1.01,1625051806.703125
-1.65,1625051806.71875
-2.5,1625051806.734375
-3.53,1625051806.75
-4.74,1625051806.765625
-6.1,1625051806.78125
-7.55,1625051806.796875
-8.96,1625051806.8125
-10.24,1625051806.828125
-11.32,1625051806.84375
-12.14,1625051806.859375
-12.64,1625051806.875
-12.73,1625051806.890625
-12.29,1625051806.90625
-11.25,1625051806.921875
-9.66,1625051806.9375
-7.71,1625051806.953125
-5.63,1625051806.96875
-3.66,1625051806.984375
-1.91,1625051807.0
-0.37,1625051807.015625
1.04,1625051807.03125
2.34,1625051807.046875
3.48,1625051807.0625
4.33,1625051807.078125
4.77,1625051807.09375
4.74,1625051807.109375
4.37,1625051807.125
3.83,1625051807.140625
3.32,1625051807.15625
2.93,1625051807.171875
2.65,1625051807.1875
2.42,1625051807.203125
2.19,1625051807.21875
1.99,1625051807.234375
1.91,1625051807.25
2.01,1625051807.265625
2.24,1625051807.28125
2.45,1625051807.296875
2.44,1625051807.3125
2.11,1625051807.328125
1.47,1625051807.34375
0.67,1625051807.359375
-0.09,1625051807.375
-0.69,1625051807.390625
-1.1,1625051807.40625
-1.44,1625051807.421875
-1.83,1625051807.4375
-2.41,1625051807.453125
-3.25,1625051807.46875
-4.36,1625051807.484375
-5.66,1625051807.5
-6.98,1625051807.515625
-8.07,1625051807.53125
-8.65,1625051807.546875
-8.53,1625051807.5625
-7.64,1625051807.578125
-6.09,1625051807.59375
-4.15,1625051807.609375
-2.13,1625051807.625
-0.3,1625051807.640625
1.21,1625051807.65625
2.43,1625051807.671875
3.46,1625051807.6875
4.38,1625051807.703125
5.19,1625051807.71875
5.82,1625051807.734375
6.14,1625051807.75
6.1,1625051807.765625
5.74,1625051807.78125
5.17,1625051807.796875
4.6,1625051807.8125
4.17,1625051807.828125
3.94,1625051807.84375
3.87,1625051807.859375
3.85,1625051807.875
3.8,1625051807.890625
3.67,1625051807.90625
3.44,1625051807.921875
3.12,1625051807.9375
2.69,1625051807.953125
2.14,1625051807.96875
1.49,1625051807.984375
0.82,1625051808.0
0.22,1625051808.015625
-0.23,1625051808.03125
-0.49,1625051808.046875
-0.67,1625051808.0625
-0.92,1625051808.078125
-1.38,1625051808.09375
-2.14,1625051808.109375
-3.13,1625051808.125
-4.23,1625051808.140625
-5.32,1625051808.15625
-6.29,1625051808.171875
-7.07,1625051808.1875
-7.6,1625051808.203125
-7.74,1625051808.21875
-7.37,1625051808.234375
-6.36,1625051808.25
-4.71,1625051808.265625
-2.58,1625051808.28125
-0.27,1625051808.296875
1.9,1625051808.3125
3.66,1625051808.328125
4.95,1625051808.34375
5.86,1625051808.359375
6.52,1625051808.375
7.05,1625051808.390625
7.45,1625051808.40625
7.66,1625051808.421875
7.56,1625051808.4375
7.16,1625051808.453125
6.54,1625051808.46875
5.87,1625051808.484375
5.33,1625051808.5
4.97,1625051808.515625
4.76,1625051808.53125
4.6,1625051808.546875
4.38,1625051808.5625
4.05,1625051808.578125
3.65,1625051808.59375
3.23,1625051808.609375
2.79,1625051808.625
2.33,1625051808.640625
1.8,1625051808.65625
1.15,1625051808.671875
0.43,1625051808.6875
-0.26,1625051808.703125
-0.84,1625051808.71875
-1.24,1625051808.734375
-1.5,1625051808.75
-1.78,1625051808.765625
-2.24,1625051808.78125
-3.05,1625051808.796875
-4.26,1625051808.8125
-5.8,1625051808.828125
-7.48,1625051808.84375
-9.04,1625051808.859375
-10.17,1625051808.875
-10.63,1625051808.890625
-10.25,1625051808.90625
-9.0,1625051808.921875
-7.01,1625051808.9375
-4.55,1625051808.953125
-1.96,1625051808.96875
0.46,1625051808.984375
2.51,1625051809.0
4.12,1625051809.015625
5.36,1625051809.03125
6.33,1625051809.046875
7.12,1625051809.0625
7.72,1625051809.078125
8.08,1625051809.09375
8.13,1625051809.109375
7.86,1625051809.125
7.33,1625051809.140625
6.66,1625051809.15625
5.94,1625051809.171875
5.22,1625051809.1875
4.52,1625051809.203125
3.86,1625051809.21875
3.32,1625051809.234375
3.0,1625051809.25
2.98,1625051809.265625
3.28,1625051809.28125
3.75,1625051809.296875
4.19,1625051809.3125
4.37,1625051809.328125
4.16,1625051809.34375
3.55,1625051809.359375
2.65,1625051809.375
1.63,1625051809.390625
0.62,1625051809.40625
-0.27,1625051809.421875
-1.04,1625051809.4375
-1.74,1625051809.453125
-2.46,1625051809.46875
-3.3,1625051809.484375
-4.32,1625051809.5
-5.47,1625051809.515625
-6.62,1625051809.53125
-7.56,1625051809.546875
-8.09,1625051809.5625
-8.05,1625051809.578125
-7.35,1625051809.59375
-6.01,1625051809.609375
-4.16,1625051809.625
-1.95,1625051809.640625
0.42,1625051809.65625
2.76,1625051809.671875
4.9,1625051809.6875
6.72,1625051809.703125
8.15,1625051809.71875
9.16,1625051809.734375
9.73,1625051809.75
9.85,1625051809.765625
9.58,1625051809.78125
9.0,1625051809.796875
8.25,1625051809.8125
7.49,1625051809.828125
6.84,1625051809.84375
6.31,1625051809.859375
5.89,1625051809.875
5.53,1625051809.890625
5.22,1625051809.90625
4.98,1625051809.921875
4.85,1625051809.9375
4.79,1625051809.953125
4.77,1625051809.96875
4.67,1625051809.984375
4.43,1625051810.0
4.0,1625051810.015625
3.41,1625051810.03125
2.67,1625051810.046875
1.81,1625051810.0625
0.81,1625051810.078125
-0.29,1625051810.09375
-1.44,1625051810.109375
-2.51,1625051810.125
-3.4,1625051810.140625
-4.06,1625051810.15625
-4.58,1625051810.171875
-5.11,1625051810.1875
-5.85,1625051810.203125
-6.88,1625051810.21875
-8.15,1625051810.234375
-9.39,1625051810.25
-10.28,1625051810.265625
-10.46,1625051810.28125
-9.77,1625051810.296875
-8.24,1625051810.3125
-6.09,1625051810.328125
-3.62,1625051810.34375
-1.11,1625051810.359375
1.28,1625051810.375
3.46,1625051810.390625
5.39,1625051810.40625
6.96,1625051810.421875
8.06,1625051810.4375
8.56,1625051810.453125
8.43,1625051810.46875
7.81,1625051810.484375
6.92,1625051810.5
6.06,1625051810.515625
5.39,1625051810.53125
4.97,1625051810.546875
4.7,1625051810.5625
4.44,1625051810.578125
4.08,1625051810.59375
3.58,1625051810.609375
2.98,1625051810.625
2.37,1625051810.640625
1.83,1625051810.65625
1.41,1625051810.671875
1.08,1625051810.6875
0.78,1625051810.703125
0.37,1625051810.71875
-0.23,1625051810.734375
-1.09,1625051810.75
-2.16,1625051810.765625
-3.32,1625051810.78125
-4.37,1625051810.796875
-5.15,1625051810.8125
-5.62,1625051810.828125
-5.91,1625051810.84375
-6.25,1625051810.859375
-6.85,1625051810.875
-7.84,1625051810.890625
-9.12,1625051810.90625
-10.4,1625051810.921875
-11.32,1625051810.9375
-11.48,1625051810.953125
-10.52,1625051810.96875
-8.19,1625051810.984375
-4.44,1625051811.0
0.48,1625051811.015625
5.98,1625051811.03125
11.17,1625051811.046875
15.11,1625051811.0625
17.07,1625051811.078125
16.83,1625051811.09375
14.72,1625051811.109375
11.49,1625051811.125
7.98,1625051811.140625
4.79,1625051811.15625
2.21,1625051811.171875
0.2,1625051811.1875
-1.37,1625051811.203125
-2.57,1625051811.21875
-3.38,1625051811.234375
-3.71,1625051811.25
-3.55,1625051811.265625
-3.05,1625051811.28125
-2.48,1625051811.296875
-2.14,1625051811.3125
-2.24,1625051811.328125
-2.79,1625051811.34375
-3.62,1625051811.359375
-4.45,1625051811.375
-5.06,1625051811.390625
-5.38,1625051811.40625
-5.53,1625051811.421875
-5.77,1625051811.4375
-6.33,1625051811.453125
-7.34,1625051811.46875
-8.7,1625051811.484375
-10.17,1625051811.5
-11.53,1625051811.515625
-12.62,1625051811.53125
-13.38,1625051811.546875
-13.83,1625051811.5625
-13.9,1625051811.578125
-13.47,1625051811.59375
-12.39,1625051811.609375
-10.61,1625051811.625
-8.27,1625051811.640625
-5.65,1625051811.65625
-3.11,1625051811.671875
-0.89,1625051811.6875
0.96,1625051811.703125
2.53,1625051811.71875
3.96,1625051811.734375
5.25,1625051811.75
6.28,1625051811.765625
6.88,1625051811.78125
6.94,1625051811.796875
6.53,1625051811.8125
5.86,1625051811.828125
5.18,1625051811.84375
4.68,1625051811.859375
4.37,1625051811.875
4.16,1625051811.890625
3.94,1625051811.90625
3.68,1625051811.921875
3.43,1625051811.9375
3.29,1625051811.953125
3.31,1625051811.96875
3.45,1625051811.984375
3.56,1625051812.0
3.49,1625051812.015625
3.14,1625051812.03125
2.51,1625051812.046875
1.7,1625051812.0625
0.85,1625051812.078125
0.07,1625051812.09375
-0.63,1625051812.109375
-1.31,1625051812.125
-2.08,1625051812.140625
-3.05,1625051812.15625
-4.24,1625051812.171875
-5.61,1625051812.1875
-7.0,1625051812.203125
-8.22,1625051812.21875
-9.04,1625051812.234375
-9.29,1625051812.25
-8.85,1625051812.265625
-7.69,1625051812.28125
-5.91,1625051812.296875
-3.67,1625051812.3125
-1.21,1625051812.328125
1.24,1625051812.34375
3.49,1625051812.359375
5.43,1625051812.375
6.98,1625051812.390625
8.15,1625051812.40625
8.93,1625051812.421875
9.31,1625051812.4375
9.3,1625051812.453125
8.9,1625051812.46875
8.25,1625051812.484375
7.48,1625051812.5
6.8,1625051812.515625
6.34,1625051812.53125
6.16,1625051812.546875
6.15,1625051812.5625
6.16,1625051812.578125
6.02,1625051812.59375
5.66,1625051812.609375
5.12,1625051812.625
4.53,1625051812.640625
3.98,1625051812.65625
3.54,1625051812.671875
3.18,1625051812.6875
2.8,1625051812.703125
2.32,1625051812.71875
1.68,1625051812.734375
0.88,1625051812.75
-0.06,1625051812.765625
-1.12,1625051812.78125
-2.24,1625051812.796875
-3.38,1625051812.8125
-4.51,1625051812.828125
-5.61,1625051812.84375
-6.67,1625051812.859375
-7.7,1625051812.875
-8.68,1625051812.890625
-9.55,1625051812.90625
-10.19,1625051812.921875
-10.43,1625051812.9375
-10.1,1625051812.953125
-9.06,1625051812.96875
-7.28,1625051812.984375
-4.81,1625051813.0
-1.86,1625051813.015625
1.24,1625051813.03125
4.17,1625051813.046875
6.66,1625051813.0625
8.59,1625051813.078125
9.96,1625051813.09375
10.89,1625051813.109375
11.45,1625051813.125
11.66,1625051813.140625
11.45,1625051813.15625
10.83,1625051813.171875
9.88,1625051813.1875
8.82,1625051813.203125
7.89,1625051813.21875
7.28,1625051813.234375
7.01,1625051813.25
6.97,1625051813.265625
6.97,1625051813.28125
6.86,1625051813.296875
6.61,1625051813.3125
6.26,1625051813.328125
5.88,1625051813.34375
5.5,1625051813.359375
5.08,1625051813.375
4.54,1625051813.390625
3.82,1625051813.40625
2.92,1625051813.421875
1.89,1625051813.4375
0.82,1625051813.453125
-0.22,1625051813.46875
-1.18,1625051813.484375
-2.08,1625051813.5
-2.95,1625051813.515625
-3.83,1625051813.53125
-4.74,1625051813.546875
-5.7,1625051813.5625
-6.68,1625051813.578125
-7.68,1625051813.59375
-8.6,1625051813.609375
-9.33,1625051813.625
-9.7,1625051813.640625
-9.54,1625051813.65625
-8.73,1625051813.671875
-7.26,1625051813.6875
-5.27,1625051813.703125
-2.98,1625051813.71875
-0.68,1625051813.734375
1.4,1625051813.75
3.14,1625051813.765625
4.52,1625051813.78125
5.56,1625051813.796875
6.29,1625051813.8125
6.72,1625051813.828125
6.81,1625051813.84375
6.56,1625051813.859375
6.03,1625051813.875
5.28,1625051813.890625
4.46,1625051813.90625
3.63,1625051813.921875
2.89,1625051813.9375
2.28,1625051813.953125
1.85,1625051813.96875
1.63,1625051813.984375
1.61,1625051814.0
1.76,1625051814.015625
1.96,1625051814.03125
2.08,1625051814.046875
1.99,1625051814.0625
1.61,1625051814.078125
0.94,1625051814.09375
0.06,1625051814.109375
-0.95,1625051814.125
-1.98,1625051814.140625
-2.98,1625051814.15625
-3.91,1625051814.171875
-4.79,1625051814.1875
-5.64,1625051814.203125
-6.51,1625051814.21875
-7.5,1625051814.234375
-8.7,1625051814.25
-10.13,1625051814.265625
-11.74,1625051814.28125
-13.29,1625051814.296875
-14.45,1625051814.3125
-14.88,1625051814.328125
-14.35,1625051814.34375
-12.91,1625051814.359375
-10.79,1625051814.375
-8.38,1625051814.390625
-6.01,1625051814.40625
-3.89,1625051814.421875
-2.07,1625051814.4375
-0.49,1625051814.453125
0.89,1625051814.46875
2.08,1625051814.484375
3.08,1625051814.5
3.88,1625051814.515625
4.44,1625051814.53125
4.76,1625051814.546875
4.82,1625051814.5625
4.63,1625051814.578125
4.2,1625051814.59375
3.63,1625051814.609375
3.04,1625051814.625
2.59,1625051814.640625
2.36,1625051814.65625
2.35,1625051814.671875
2.44,1625051814.6875
2.49,1625051814.703125
2.36,1625051814.71875
2.02,1625051814.734375
1.54,1625051814.75
1.05,1625051814.765625
0.66,1625051814.78125
0.4,1625051814.796875
0.23,1625051814.8125
0.0,1625051814.828125
-0.37,1625051814.84375
-0.95,1625051814.859375
-1.71,1625051814.875
-2.56,1625051814.890625
-3.41,1625051814.90625
-4.24,1625051814.921875
-5.06,1625051814.9375
-5.91,1625051814.953125
-6.81,1625051814.96875
-7.69,1625051814.984375
-8.4,1625051815.0
-8.75,1625051815.015625
-8.53,1625051815.03125
-7.64,1625051815.046875
-6.08,1625051815.0625
-3.96,1625051815.078125
-1.54,1625051815.09375
0.91,1625051815.109375
3.15,1625051815.125
5.07,1625051815.140625
6.65,1625051815.15625
7.99,1625051815.171875
9.18,1625051815.1875
10.24,1625051815.203125
11.11,1625051815.21875
11.64,1625051815.234375
11.74,1625051815.25
11.38,1625051815.265625
10.64,1625051815.28125
9.7,1625051815.296875
8.73,1625051815.3125
7.86,1625051815.328125
7.17,1625051815.34375
6.67,1625051815.359375
6.37,1625051815.375
6.26,1625051815.390625
6.32,1625051815.40625
6.49,1625051815.421875
6.64,1625051815.4375
6.64,1625051815.453125
6.36,1625051815.46875
5.68,1625051815.484375
4.57,1625051815.5
3.08,1625051815.515625
1.3,1625051815.53125
-0.6,1625051815.546875
-2.45,1625051815.5625
-4.12,1625051815.578125
-5.57,1625051815.59375
-6.77,1625051815.609375
-7.74,1625051815.625
-8.52,1625051815.640625
-9.15,1625051815.65625
-9.67,1625051815.671875
-10.17,1625051815.6875
-10.67,1625051815.703125
-11.15,1625051815.71875
-11.46,1625051815.734375
-11.4,1625051815.75
-10.78,1625051815.765625
-9.53,1625051815.78125
-7.72,1625051815.796875
-5.54,1625051815.8125
-3.21,1625051815.828125
-0.92,1625051815.84375
1.24,1625051815.859375
3.23,1625051815.875
5.0,1625051815.890625
6.5,1625051815.90625
7.59,1625051815.921875
8.18,1625051815.9375
8.26,1625051815.953125
7.91,1625051815.96875
7.35,1625051815.984375
6.79,1625051816.0
6.4,1625051816.015625
6.21,1625051816.03125
6.11,1625051816.046875
5.93,1625051816.0625
5.53,1625051816.078125
4.87,1625051816.09375
4.03,1625051816.109375
3.15,1625051816.125
2.35,1625051816.140625
1.67,1625051816.15625
1.05,1625051816.171875
0.4,1625051816.1875
-0.41,1625051816.203125
-1.39,1625051816.21875
-2.5,1625051816.234375
-3.65,1625051816.25
-4.75,1625051816.265625
-5.74,1625051816.28125
-6.66,1625051816.296875
-7.63,1625051816.3125
-8.74,1625051816.328125
-10.07,1625051816.34375
-11.54,1625051816.359375
-13.0,1625051816.375
-14.19,1625051816.390625
-14.91,1625051816.40625
-15.04,1625051816.421875
-14.59,1625051816.4375
-13.64,1625051816.453125
-12.31,1625051816.46875
-10.71,1625051816.484375
-8.93,1625051816.5
-7.0,1625051816.515625
-4.97,1625051816.53125
-2.89,1625051816.546875
-0.84,1625051816.5625
1.07,1625051816.578125
2.72,1625051816.59375
3.98,1625051816.609375
4.78,1625051816.625
5.08,1625051816.640625
4.95,1625051816.65625
4.5,1625051816.671875
3.9,1625051816.6875
3.3,1625051816.703125
2.82,1625051816.71875
2.55,1625051816.734375
2.51,1625051816.75
2.66,1625051816.765625
2.94,1625051816.78125
3.25,1625051816.796875
3.52,1625051816.8125
3.7,1625051816.828125
3.79,1625051816.84375
3.77,1625051816.859375
3.61,1625051816.875
3.25,1625051816.890625
2.69,1625051816.90625
1.92,1625051816.921875
1.03,1625051816.9375
0.09,1625051816.953125
-0.84,1625051816.96875
-1.75,1625051816.984375
-2.66,1625051817.0
-3.6,1625051817.015625
-4.61,1625051817.03125
-5.74,1625051817.046875
-7.03,1625051817.0625
-8.47,1625051817.078125
-9.89,1625051817.09375
-10.99,1625051817.109375
-11.36,1625051817.125
-10.68,1625051817.140625
-8.89,1625051817.15625
-6.28,1625051817.171875
-3.33,1625051817.1875
-0.54,1625051817.203125
1.78,1625051817.21875
3.59,1625051817.234375
5.03,1625051817.25
6.25,1625051817.265625
7.29,1625051817.28125
8.02,1625051817.296875
8.32,1625051817.3125
8.15,1625051817.328125
7.62,1625051817.34375
6.95,1625051817.359375
6.32,1625051817.375
5.82,1625051817.390625
5.39,1625051817.40625
4.93,1625051817.421875
4.39,1625051817.4375
3.8,1625051817.453125
3.29,1625051817.46875
2.96,1625051817.484375
2.86,1625051817.5
2.91,1625051817.515625
2.96,1625051817.53125
2.86,1625051817.546875
2.53,1625051817.5625
1.94,1625051817.578125
1.14,1625051817.59375
0.17,1625051817.609375
-0.9,1625051817.625
-1.99,1625051817.640625
-3.02,1625051817.65625
-3.94,1625051817.671875
-4.76,1625051817.6875
-5.54,1625051817.703125
-6.37,1625051817.71875
-7.27,1625051817.734375
-8.16,1625051817.75
-8.9,1625051817.765625
-9.3,1625051817.78125
-9.28,1625051817.796875
-8.82,1625051817.8125
-7.97,1625051817.828125
-6.82,1625051817.84375
-5.39,1625051817.859375
-3.7,1625051817.875
-1.73,1625051817.890625
0.47,1625051817.90625
2.76,1625051817.921875
4.95,1625051817.9375
6.79,1625051817.953125
8.11,1625051817.96875
8.83,1625051817.984375
8.99,1625051818.0
8.72,1625051818.015625
8.19,1625051818.03125
7.54,1625051818.046875
6.84,1625051818.0625
6.11,1625051818.078125
5.37,1625051818.09375
4.66,1625051818.109375
4.05,1625051818.125
3.63,1625051818.140625
3.44,1625051818.15625
3.45,1625051818.171875
3.57,1625051818.1875
3.69,1625051818.203125
3.73,1625051818.21875
3.64,1625051818.234375
3.43,1625051818.25
3.07,1625051818.265625
2.56,1625051818.28125
1.87,1625051818.296875
0.98,1625051818.3125
-0.1,1625051818.328125
-1.34,1625051818.34375
-2.69,1625051818.359375
-4.06,1625051818.375
-5.36,1625051818.390625
-6.52,1625051818.40625
-7.49,1625051818.421875
-8.28,1625051818.4375
-8.87,1625051818.453125
-9.26,1625051818.46875
-9.32,1625051818.484375
-8.91,1625051818.5
-7.84,1625051818.515625
-6.1,1625051818.53125
-3.8,1625051818.546875
-1.21,1625051818.5625
1.35,1625051818.578125
3.67,1625051818.59375
5.66,1625051818.609375
7.35,1625051818.625
8.79,1625051818.640625
9.96,1625051818.65625
10.73,1625051818.671875
10.97,1625051818.6875
10.61,1625051818.703125
9.74,1625051818.71875
8.56,1625051818.734375
7.37,1625051818.75
6.38,1625051818.765625
5.7,1625051818.78125
5.26,1625051818.796875
4.96,1625051818.8125
4.6,1625051818.828125
4.08,1625051818.84375
3.35,1625051818.859375
2.47,1625051818.875
1.55,1625051818.890625
0.71,1625051818.90625
0.05,1625051818.921875
-0.4,1625051818.9375
-0.69,1625051818.953125
-0.91,1625051818.96875
-1.16,1625051818.984375
-1.52,1625051819.0
-2.04,1625051819.015625
-2.72,1625051819.03125
-3.55,1625051819.046875
-4.57,1625051819.0625
-5.77,1625051819.078125
-7.11,1625051819.09375
-8.5,1625051819.109375
-9.71,1625051819.125
-10.51,1625051819.140625
-10.68,1625051819.15625
-10.12,1625051819.171875
-8.83,1625051819.1875
-6.96,1625051819.203125
-4.7,1625051819.21875
-2.25,1625051819.234375
0.19,1625051819.25
2.49,1625051819.265625
4.51,1625051819.28125
6.13,1625051819.296875
7.24,1625051819.3125
7.78,1625051819.328125
7.74,1625051819.34375
7.18,1625051819.359375
6.24,1625051819.375
5.07,1625051819.390625
3.86,1625051819.40625
2.77,1625051819.421875
1.94,1625051819.4375
1.44,1625051819.453125
1.28,1625051819.46875
1.42,1625051819.484375
1.74,1625051819.5
2.09,1625051819.515625
2.32,1625051819.53125
2.29,1625051819.546875
1.93,1625051819.5625
1.26,1625051819.578125
0.34,1625051819.59375
-0.72,1625051819.609375
-1.78,1625051819.625
-2.79,1625051819.640625
-3.69,1625051819.65625
-4.48,1625051819.671875
-5.18,1625051819.6875
-5.84,1625051819.703125
-6.53,1625051819.71875
-7.3,1625051819.734375
-8.22,1625051819.75
-9.24,1625051819.765625
-10.25,1625051819.78125
-11.01,1625051819.796875
-11.24,1625051819.8125
-10.71,1625051819.828125
-9.39,1625051819.84375
-7.41,1625051819.859375
-5.04,1625051819.875
-2.59,1625051819.890625
-0.31,1625051819.90625
1.66,1625051819.921875
3.28,1625051819.9375
4.54,1625051819.953125
5.44,1625051819.96875
5.97,1625051819.984375
6.16,1625051820.0
6.06,1625051820.015625
5.77,1625051820.03125
5.34,1625051820.046875
4.81,1625051820.0625
4.17,1625051820.078125
3.43,1625051820.09375
2.63,1625051820.109375
1.89,1625051820.125
1.32,1625051820.140625
0.98,1625051820.15625
0.86,1625051820.171875
0.84,1625051820.1875
0.77,1625051820.203125
0.51,1625051820.21875
0.02,1625051820.234375
-0.67,1625051820.25
-1.46,1625051820.265625
-2.3,1625051820.28125
-3.16,1625051820.296875
-4.1,1625051820.3125
-5.18,1625051820.328125
-6.4,1625051820.34375
-7.73,1625051820.359375
-9.06,1625051820.375
-10.34,1625051820.390625
-11.52,1625051820.40625
-12.58,1625051820.421875
-13.46,1625051820.4375
-14.03,1625051820.453125
-14.06,1625051820.46875
-13.33,1625051820.484375
-11.74,1625051820.5
-9.38,1625051820.515625
-6.56,1625051820.53125
-3.67,1625051820.546875
-1.07,1625051820.5625
1.03,1625051820.578125
2.62,1625051820.59375
3.81,1625051820.609375
4.71,1625051820.625
5.41,1625051820.640625
5.88,1625051820.65625
6.06,1625051820.671875
5.94,1625051820.6875
5.56,1625051820.703125
5.03,1625051820.71875
4.46,1625051820.734375
3.94,1625051820.75
3.49,1625051820.765625
3.16,1625051820.78125
2.98,1625051820.796875
3.0,1625051820.8125
3.2,1625051820.828125
3.47,1625051820.84375
3.64,1625051820.859375
3.55,1625051820.875
3.15,1625051820.890625
2.49,1625051820.90625
1.72,1625051820.921875
0.94,1625051820.9375
0.17,1625051820.953125
-0.64,1625051820.96875
-1.55,1625051820.984375
-2.56,1625051821.0
-3.57,1625051821.015625
-4.5,1625051821.03125
-5.36,1625051821.046875
-6.2,1625051821.0625
-7.13,1625051821.078125
-8.12,1625051821.09375
-8.99,1625051821.109375
-9.42,1625051821.125
-9.08,1625051821.140625
-7.81,1625051821.15625
-5.67,1625051821.171875
-2.95,1625051821.1875
-0.07,1625051821.203125
2.56,1625051821.21875
4.72,1625051821.234375
6.36,1625051821.25
7.56,1625051821.265625
8.44,1625051821.28125
9.04,1625051821.296875
9.34,1625051821.3125
9.28,1625051821.328125
8.91,1625051821.34375
8.35,1625051821.359375
7.76,1625051821.375
7.3,1625051821.390625
6.99,1625051821.40625
6.73,1625051821.421875
6.38,1625051821.4375
5.89,1625051821.453125
5.31,1625051821.46875
4.77,1625051821.484375
4.38,1625051821.5
4.15,1625051821.515625
3.97,1625051821.53125
3.65,1625051821.546875
3.07,1625051821.5625
2.22,1625051821.578125
1.24,1625051821.59375
0.3,1625051821.609375
-0.48,1625051821.625
-1.11,1625051821.640625
-1.69,1625051821.65625
-2.36,1625051821.671875
-3.23,1625051821.6875
-4.34,1625051821.703125
-5.64,1625051821.71875
-7.07,1625051821.734375
-8.56,1625051821.75
-9.95,1625051821.765625
-11.04,1625051821.78125
-11.54,1625051821.796875
-11.17,1625051821.8125
-9.81,1625051821.828125
-7.57,1625051821.84375
-4.76,1625051821.859375
-1.79,1625051821.875
0.96,1625051821.890625
3.31,1625051821.90625
5.22,1625051821.921875
6.69,1625051821.9375
7.76,1625051821.953125
8.42,1625051821.96875
8.65,1625051821.984375
8.52,1625051822.0
8.19,1625051822.015625
7.87,1625051822.03125
7.72,1625051822.046875
7.79,1625051822.0625
7.97,1625051822.078125
8.05,1625051822.09375
7.85,1625051822.109375
7.32,1625051822.125
6.55,1625051822.140625
5.76,1625051822.15625
5.16,1625051822.171875
4.87,1625051822.1875
4.84,1625051822.203125
4.87,1625051822.21875
4.74,1625051822.234375
4.28,1625051822.25
3.47,1625051822.265625
2.41,1625051822.28125
1.26,1625051822.296875
0.16,1625051822.3125
-0.84,1625051822.328125
-1.77,1625051822.34375
-2.67,1625051822.359375
-3.53,1625051822.375
-4.32,1625051822.390625
-5.01,1625051822.40625
-5.64,1625051822.421875
-6.34,1625051822.4375
-7.23,1625051822.453125
-8.3,1625051822.46875
-9.35,1625051822.484375
-9.99,1625051822.5
-9.81,1625051822.515625
-8.55,1625051822.53125
-6.28,1625051822.546875
-3.33,1625051822.5625
-0.18,1625051822.578125
2.74,1625051822.59375
5.16,1625051822.609375
7.02,1625051822.625
8.34,1625051822.640625
9.25,1625051822.65625
9.84,1625051822.671875
10.2,1625051822.6875
10.39,1625051822.703125
10.45,1625051822.71875
10.38,1625051822.734375
10.17,1625051822.75
9.82,1625051822.765625
9.35,1625051822.78125
8.86,1625051822.796875
8.41,1625051822.8125
8.03,1625051822.828125
7.72,1625051822.84375
7.43,1625051822.859375
7.1,1625051822.875
6.7,1625051822.890625
6.23,1625051822.90625
5.65,1625051822.921875
4.94,1625051822.9375
4.04,1625051822.953125
2.93,1625051822.96875
1.65,1625051822.984375
0.32,1625051823.0
-0.91,1625051823.015625
-1.89,1625051823.03125
-2.58,1625051823.046875
-3.07,1625051823.0625
-3.57,1625051823.078125
-4.27,1625051823.09375
-5.3,1625051823.109375
-6.62,1625051823.125
-8.06,1625051823.140625
-9.36,1625051823.15625
-10.32,1625051823.171875
-10.81,1625051823.1875
-10.78,1625051823.203125
-10.15,1625051823.21875
-8.88,1625051823.234375
-6.97,1625051823.25
-4.53,1625051823.265625
-1.84,1625051823.28125
0.76,1625051823.296875
2.98,1625051823.3125
4.67,1625051823.328125
5.84,1625051823.34375
6.6,1625051823.359375
7.02,1625051823.375
7.08,1625051823.390625
6.7,1625051823.40625
5.85,1625051823.421875
4.6,1625051823.4375
3.17,1625051823.453125
1.84,1625051823.46875
0.84,1625051823.484375
0.24,1625051823.5
0.01,1625051823.515625
0.03,1625051823.53125
0.17,1625051823.546875
0.32,1625051823.5625
0.44,1625051823.578125
0.45,1625051823.59375
0.29,1625051823.609375
-0.11,1625051823.625
-0.85,1625051823.640625
-1.96,1625051823.65625
-3.43,1625051823.671875
-5.17,1625051823.6875
-7.06,1625051823.703125
-8.94,1625051823.71875
-10.69,1625051823.734375
-12.23,1625051823.75
-13.53,1625051823.765625
-14.66,1625051823.78125
-15.75,1625051823.796875
-16.94,1625051823.8125
-18.24,1625051823.828125
-19.59,1625051823.84375
-20.73,1625051823.859375
-21.36,1625051823.875
-21.23,1625051823.890625
-20.28,1625051823.90625
-18.65,1625051823.921875
-16.66,1625051823.9375
-14.71,1625051823.953125
-13.08,1625051823.96875
-11.94,1625051823.984375
-11.32,1625051824.0
-11.16,1625051824.015625
-11.39,1625051824.03125
-11.94,1625051824.046875
-12.79,1625051824.0625
-13.85,1625051824.078125
-15.07,1625051824.09375
-16.37,1625051824.109375
-17.69,1625051824.125
-19.0,1625051824.140625
-20.26,1625051824.15625
-21.39,1625051824.171875
-22.26,1625051824.1875
-22.65,1625051824.203125
-22.32,1625051824.21875
-21.04,1625051824.234375
-18.69,1625051824.25
-15.27,1625051824.265625
-10.93,1625051824.28125
-5.94,1625051824.296875
-0.63,1625051824.3125
4.61,1625051824.328125
9.45,1625051824.34375
13.61,1625051824.359375
16.95,1625051824.375
19.43,1625051824.390625
21.1,1625051824.40625
22.05,1625051824.421875
22.36,1625051824.4375
22.05,1625051824.453125
21.11,1625051824.46875
19.55,1625051824.484375
17.44,1625051824.5
15.0,1625051824.515625
12.57,1625051824.53125
10.5,1625051824.546875
9.09,1625051824.5625
8.49,1625051824.578125
8.66,1625051824.59375
9.41,1625051824.609375
10.46,1625051824.625
11.51,1625051824.640625
12.39,1625051824.65625
12.99,1625051824.671875
13.32,1625051824.6875
13.41,1625051824.703125
13.26,1625051824.71875
12.89,1625051824.734375
12.26,1625051824.75
11.41,1625051824.765625
10.43,1625051824.78125
9.48,1625051824.796875
8.69,1625051824.8125
8.13,1625051824.828125
7.79,1625051824.84375
7.57,1625051824.859375
7.35,1625051824.875
7.05,1625051824.890625
6.65,1625051824.90625
6.19,1625051824.921875
5.72,1625051824.9375
5.29,1625051824.953125
4.89,1625051824.96875
4.5,1625051824.984375
4.07,1625051825.0
3.61,1625051825.015625
3.14,1625051825.03125
2.69,1625051825.046875
2.28,1625051825.0625
1.89,1625051825.078125
1.45,1625051825.09375
0.89,1625051825.109375
0.16,1625051825.125
-0.72,1625051825.140625
-1.63,1625051825.15625
-2.42,1625051825.171875
-2.92,1625051825.1875
-3.02,1625051825.203125
-2.65,1625051825.21875
-1.84,1625051825.234375
-0.7,1625051825.25
0.62,1625051825.265625
1.96,1625051825.28125
3.2,1625051825.296875
4.27,1625051825.3125
5.16,1625051825.328125
5.87,1625051825.34375
6.42,1625051825.359375
6.83,1625051825.375
7.08,1625051825.390625
7.16,1625051825.40625
7.04,1625051825.421875
6.68,1625051825.4375
6.09,1625051825.453125
5.32,1625051825.46875
4.52,1625051825.484375
3.83,1625051825.5
3.43,1625051825.515625
3.36,1625051825.53125
3.55,1625051825.546875
3.83,1625051825.5625
4.02,1625051825.578125
4.01,1625051825.59375
3.84,1625051825.609375
3.59,1625051825.625
3.34,1625051825.640625
3.07,1625051825.65625
2.74,1625051825.671875
2.26,1625051825.6875
1.63,1625051825.703125
0.92,1625051825.71875
0.2,1625051825.734375
-0.49,1625051825.75
-1.19,1625051825.765625
-1.94,1625051825.78125
-2.69,1625051825.796875
-3.25,1625051825.8125
-3.35,1625051825.828125
-2.79,1625051825.84375
-1.55,1625051825.859375
0.11,1625051825.875
1.75,1625051825.890625
2.95,1625051825.90625
3.54,1625051825.921875
3.61,1625051825.9375
3.49,1625051825.953125
3.55,1625051825.96875
3.97,1625051825.984375
4.69,1625051826.0
5.43,1625051826.015625
5.87,1625051826.03125
5.84,1625051826.046875
5.39,1625051826.0625
4.73,1625051826.078125
4.14,1625051826.09375
3.78,1625051826.109375
3.68,1625051826.125
3.77,1625051826.140625
3.91,1625051826.15625
4.02,1625051826.171875
4.06,1625051826.1875
4.02,1625051826.203125
3.89,1625051826.21875
3.64,1625051826.234375
3.26,1625051826.25
2.71,1625051826.265625
1.94,1625051826.28125
0.97,1625051826.296875
-0.17,1625051826.3125
-1.36,1625051826.328125
-2.49,1625051826.34375
-3.44,1625051826.359375
-4.2,1625051826.375
-4.82,1625051826.390625
-5.42,1625051826.40625
-6.0,1625051826.421875
-6.44,1625051826.4375
-6.49,1625051826.453125
-5.88,1625051826.46875
-4.49,1625051826.484375
-2.42,1625051826.5
0.03,1625051826.515625
2.49,1625051826.53125
4.69,1625051826.546875
6.52,1625051826.5625
8.04,1625051826.578125
9.38,1625051826.59375
10.57,1625051826.609375
11.51,1625051826.625
11.99,1625051826.640625
11.83,1625051826.65625
10.99,1625051826.671875
9.67,1625051826.6875
8.21,1625051826.703125
6.94,1625051826.71875
6.07,1625051826.734375
5.57,1625051826.75
5.29,1625051826.765625
5.03,1625051826.78125
4.68,1625051826.796875
4.25,1625051826.8125
3.76,1625051826.828125
3.2,1625051826.84375
2.48,1625051826.859375
1.46,1625051826.875
0.13,1625051826.890625
-1.41,1625051826.90625
-2.93,1625051826.921875
-4.28,1625051826.9375
-5.41,1625051826.953125
-6.52,1625051826.96875
-7.84,1625051826.984375
-9.53,1625051827.0
-11.5,1625051827.015625
-13.4,1625051827.03125
-14.72,1625051827.046875
-15.01,1625051827.0625
-14.08,1625051827.078125
-12.03,1625051827.09375
-9.21,1625051827.109375
-6.06,1625051827.125
-2.98,1625051827.140625
-0.26,1625051827.15625
1.94,1625051827.171875
3.54,1625051827.1875
4.52,1625051827.203125
4.9,1625051827.21875
4.78,1625051827.234375
4.32,1625051827.25
3.68,1625051827.265625
2.99,1625051827.28125
2.28,1625051827.296875
1.54,1625051827.3125
0.75,1625051827.328125
-0.05,1625051827.34375
-0.79,1625051827.359375
-1.33,1625051827.375
-1.59,1625051827.390625
-1.6,1625051827.40625
-1.47,1625051827.421875
-1.4,1625051827.4375
-1.57,1625051827.453125
-2.11,1625051827.46875
-3.01,1625051827.484375
-4.18,1625051827.5
-5.52,1625051827.515625
-6.93,1625051827.53125
-8.35,1625051827.546875
-9.72,1625051827.5625
-10.99,1625051827.578125
-12.08,1625051827.59375
-12.98,1625051827.609375
-13.7,1625051827.625
-14.32,1625051827.640625
-14.85,1625051827.65625
-15.22,1625051827.671875
-15.25,1625051827.6875
-14.67,1625051827.703125
-13.36,1625051827.71875
-11.35,1625051827.734375
-8.92,1625051827.75
-6.44,1625051827.765625
-4.21,1625051827.78125
-2.34,1625051827.796875
-0.77,1625051827.8125
0.66,1625051827.828125
2.03,1625051827.84375
3.28,1625051827.859375
4.26,1625051827.875
4.81,1625051827.890625
4.91,1625051827.90625
4.68,1625051827.921875
4.35,1625051827.9375
4.17,1625051827.953125
4.21,1625051827.96875
4.39,1625051827.984375
4.55,1625051828.0
4.52,1625051828.015625
4.28,1625051828.03125
3.95,1625051828.046875
3.74,1625051828.0625
3.78,1625051828.078125
4.03,1625051828.09375
4.31,1625051828.109375
4.36,1625051828.125
3.99,1625051828.140625
3.22,1625051828.15625
2.18,1625051828.171875
1.08,1625051828.1875
0.06,1625051828.203125
-0.82,1625051828.21875
-1.61,1625051828.234375
-2.35,1625051828.25
-3.06,1625051828.265625
-3.75,1625051828.28125
-4.45,1625051828.296875
-5.22,1625051828.3125
-6.13,1625051828.328125
-7.23,1625051828.34375
-8.43,1625051828.359375
-9.54,1625051828.375
-10.25,1625051828.390625
-10.24,1625051828.40625
-9.35,1625051828.421875
-7.57,1625051828.4375
-5.13,1625051828.453125
-2.39,1625051828.46875
0.28,1625051828.484375
2.61,1625051828.5
4.51,1625051828.515625
6.0,1625051828.53125
7.17,1625051828.546875
8.13,1625051828.5625
8.91,1625051828.578125
9.45,1625051828.59375
9.7,1625051828.609375
9.6,1625051828.625
9.17,1625051828.640625
8.49,1625051828.65625
7.69,1625051828.671875
6.92,1625051828.6875
6.29,1625051828.703125
5.85,1625051828.71875
5.57,1625051828.734375
5.37,1625051828.75
5.23,1625051828.765625
5.14,1625051828.78125
5.16,1625051828.796875
5.31,1625051828.8125
5.56,1625051828.828125
5.77,1625051828.84375
5.76,1625051828.859375
5.4,1625051828.875
4.67,1625051828.890625
3.64,1625051828.90625
2.45,1625051828.921875
1.24,1625051828.9375
0.09,1625051828.953125
-0.98,1625051828.96875
-2.0,1625051828.984375
-2.98,1625051829.0
-3.9,1625051829.015625
-4.7,1625051829.03125
-5.36,1625051829.046875
-5.85,1625051829.0625
-6.25,1625051829.078125
-6.68,1625051829.09375
-7.28,1625051829.109375
-8.1,1625051829.125
-9.02,1625051829.140625
-9.69,1625051829.15625
-9.73,1625051829.171875
-8.8,1625051829.1875
-6.84,1625051829.203125
-4.1,1625051829.21875
-1.05,1625051829.234375
1.85,1625051829.25
4.31,1625051829.265625
6.3,1625051829.28125
7.94,1625051829.296875
9.35,1625051829.3125
10.5,1625051829.328125
11.25,1625051829.34375
11.41,1625051829.359375
10.89,1625051829.375
9.81,1625051829.390625
8.41,1625051829.40625
7.01,1625051829.421875
5.87,1625051829.4375
5.11,1625051829.453125
4.71,1625051829.46875
4.58,1625051829.484375
4.59,1625051829.5
4.67,1625051829.515625
4.78,1625051829.53125
4.88,1625051829.546875
4.92,1625051829.5625
4.8,1625051829.578125
4.44,1625051829.59375
3.77,1625051829.609375
2.84,1625051829.625
1.79,1625051829.640625
0.75,1625051829.65625
-0.19,1625051829.671875
-1.06,1625051829.6875
-1.91,1625051829.703125
-2.78,1625051829.71875
-3.65,1625051829.734375
-4.48,1625051829.75
-5.21,1625051829.765625
-5.84,1625051829.78125
-6.46,1625051829.796875
-7.17,1625051829.8125
-8.0,1625051829.828125
-8.9,1625051829.84375
-9.71,1625051829.859375
-10.27,1625051829.875
-10.45,1625051829.890625
-10.17,1625051829.90625
-9.4,1625051829.921875
-8.18,1625051829.9375
-6.57,1625051829.953125
-4.71,1625051829.96875
-2.71,1625051829.984375
-0.7,1625051830.0
1.25,1625051830.015625
3.09,1625051830.03125
4.75,1625051830.046875
6.11,1625051830.0625
7.03,1625051830.078125
7.41,1625051830.09375
7.2,1625051830.109375
6.51,1625051830.125
5.53,1625051830.140625
4.49,1625051830.15625
3.52,1625051830.171875
2.7,1625051830.1875
2.03,1625051830.203125
1.52,1625051830.21875
1.21,1625051830.234375
1.15,1625051830.25
1.36,1625051830.265625
1.75,1625051830.28125
2.1,1625051830.296875
2.17,1625051830.3125
1.79,1625051830.328125
0.92,1625051830.34375
-0.31,1625051830.359375
-1.68,1625051830.375
-2.95,1625051830.390625
-4.03,1625051830.40625
-4.94,1625051830.421875
-5.79,1625051830.4375
-6.7,1625051830.453125
-7.76,1625051830.46875
-8.97,1625051830.484375
-10.31,1625051830.5
-11.68,1625051830.515625
-13.0,1625051830.53125
-14.13,1625051830.546875
-14.92,1625051830.5625
-15.23,1625051830.578125
-14.95,1625051830.59375
-14.05,1625051830.609375
-12.59,1625051830.625
-10.69,1625051830.640625
-8.52,1625051830.65625
-6.22,1625051830.671875
-3.94,1625051830.6875
-1.82,1625051830.703125
0.0,1625051830.71875
1.44,1625051830.734375
2.43,1625051830.75
2.99,1625051830.765625
3.18,1625051830.78125
3.08,1625051830.796875
2.75,1625051830.8125
