PPG GREEN,time
1524066.0,1625051751.05
1523916.0,1625051751.09
1523892.0,1625051751.132
1523487.0,1625051751.17
1523654.0,1625051751.21
1524300.0,1625051751.251
1524889.0,1625051751.29
1525649.0,1625051751.331
1525853.0,1625051751.365
1525915.0,1625051751.404
1526377.0,1625051751.44
1526281.0,1625051751.478
1525649.0,1625051751.519
1524579.0,1625051751.558
1523929.0,1625051751.6
1523399.0,1625051751.639
1523077.0,1625051751.679
1522623.0,1625051751.721
1522225.0,1625051751.76
1521779.0,1625051751.8
1521404.0,1625051751.841
1521088.0,1625051751.88
1520925.0,1625051751.921
1520711.0,1625051751.96
1520508.0,1625051751.999
1520551.0,1625051752.039
1520348.0,1625051752.081
1520069.0,1625051752.12
1519592.0,1625051752.16
1517591.0,1625051752.201
1515779.0,1625051752.24
1514176.0,1625051752.281
1513152.0,1625051752.321
1513122.0,1625051752.359
1513929.0,1625051752.399
1514958.0,1625051752.441
1516247.0,1625051752.48
1516896.0,1625051752.521
1517623.0,1625051752.562
1518330.0,1625051752.601
1518926.0,1625051752.641
1519171.0,1625051752.68
1519396.0,1625051752.72
1519247.0,1625051752.76
1519819.0,1625051752.801
1520104.0,1625051752.84
1520586.0,1625051752.88
1519910.0,1625051752.923
1519163.0,1625051752.961
1518452.0,1625051752.999
1518096.0,1625051753.041
1517975.0,1625051753.08
1517885.0,1625051753.121
1517953.0,1625051753.161
1517683.0,1625051753.2
1517491.0,1625051753.241
1517567.0,1625051753.282
1517869.0,1625051753.322
1518087.0,1625051753.359
1518466.0,1625051753.401
1519118.0,1625051753.44
1519725.0,1625051753.48
1520275.0,1625051753.522
1520926.0,1625051753.561
1521341.0,1625051753.601
1521527.0,1625051753.642
1520513.0,1625051753.679
1520141.0,1625051753.72
1519800.0,1625051753.761
1520037.0,1625051753.8
1520414.0,1625051753.84
1520702.0,1625051753.882
1521141.0,1625051753.922
1521500.0,1625051753.961
1521667.0,1625051754.001
1522073.0,1625051754.038
1522541.0,1625051754.079
1522786.0,1625051754.121
1523149.0,1625051754.16
1523888.0,1625051754.2
1524484.0,1625051754.241
1525027.0,1625051754.28
1525656.0,1625051754.321
1526224.0,1625051754.362
1525685.0,1625051754.401
1525110.0,1625051754.441
1524473.0,1625051754.483
1524126.0,1625051754.52
1524128.0,1625051754.56
1524479.0,1625051754.601
1524636.0,1625051754.64
1524906.0,1625051754.681
1525160.0,1625051754.723
1525404.0,1625051754.761
1525893.0,1625051754.802
1526550.0,1625051754.841
1527104.0,1625051754.88
1527810.0,1625051754.921
1528450.0,1625051754.962
1529068.0,1625051755.001
1529811.0,1625051755.041
1530306.0,1625051755.083
1530478.0,1625051755.122
1529829.0,1625051755.162
1529089.0,1625051755.201
1528114.0,1625051755.24
1527816.0,1625051755.28
1527681.0,1625051755.323
1528090.0,1625051755.361
1528264.0,1625051755.401
1527984.0,1625051755.482
1528161.0,1625051755.442
1528185.0,1625051755.531
1528156.0,1625051755.571
1528603.0,1625051755.61
1528982.0,1625051755.65
1529401.0,1625051755.691
1529532.0,1625051755.731
1529980.0,1625051755.77
1530516.0,1625051755.811
1530923.0,1625051755.85
1531244.0,1625051755.891
1531162.0,1625051755.932
1530186.0,1625051755.971
1529597.0,1625051756.011
1528996.0,1625051756.05
1528699.0,1625051756.089
1528723.0,1625051756.131
1529001.0,1625051756.171
1529039.0,1625051756.21
1528795.0,1625051756.25
1528628.0,1625051756.292
1528998.0,1625051756.332
1529105.0,1625051756.371
1529200.0,1625051756.41
1529711.0,1625051756.449
1530066.0,1625051756.49
1530305.0,1625051756.532
1530776.0,1625051756.57
1530968.0,1625051756.608
1531377.0,1625051756.649
1531144.0,1625051756.688
1530293.0,1625051756.73
1529485.0,1625051756.77
1529016.0,1625051756.809
1528634.0,1625051756.85
1528665.0,1625051756.891
1528749.0,1625051756.931
1528864.0,1625051756.97
1528914.0,1625051757.012
1528581.0,1625051757.051
1528794.0,1625051757.091
1529099.0,1625051757.133
1529467.0,1625051757.17
1529829.0,1625051757.21
1530012.0,1625051757.251
1530677.0,1625051757.29
1530930.0,1625051757.331
1531336.0,1625051757.372
1531631.0,1625051757.411
1531099.0,1625051757.451
1530023.0,1625051757.493
1528978.0,1625051757.531
1528315.0,1625051757.57
1527710.0,1625051757.611
1527553.0,1625051757.651
1527561.0,1625051757.691
1527566.0,1625051757.733
1527179.0,1625051757.771
1527031.0,1625051757.812
1526980.0,1625051757.851
1526945.0,1625051757.89
1526860.0,1625051757.931
1527266.0,1625051757.972
1527405.0,1625051758.011
1527682.0,1625051758.051
1527793.0,1625051758.093
1527975.0,1625051758.132
1528344.0,1625051758.172
1527418.0,1625051758.211
1526112.0,1625051758.25
1525275.0,1625051758.291
1524559.0,1625051758.333
1524082.0,1625051758.371
1524157.0,1625051758.411
1523749.0,1625051758.453
1523599.0,1625051758.492
1523276.0,1625051758.533
1523071.0,1625051758.572
1522934.0,1625051758.61
1522735.0,1625051758.651
1522962.0,1625051758.692
1523020.0,1625051758.732
1523053.0,1625051758.772
1523041.0,1625051758.813
1523373.0,1625051758.852
1523461.0,1625051758.89
1523476.0,1625051758.933
1522709.0,1625051758.971
1521461.0,1625051759.011
1520590.0,1625051759.053
1519721.0,1625051759.092
1519290.0,1625051759.132
1519185.0,1625051759.17
1519028.0,1625051759.21
1518581.0,1625051759.25
1518295.0,1625051759.292
1518009.0,1625051759.331
1518057.0,1625051759.371
1518139.0,1625051759.412
1518352.0,1625051759.451
1518327.0,1625051759.492
1518474.0,1625051759.534
1518816.0,1625051759.572
1519205.0,1625051759.612
1519147.0,1625051759.654
1518709.0,1625051759.691
1517299.0,1625051759.732
1516382.0,1625051759.773
1515881.0,1625051759.812
1515505.0,1625051759.852
1515535.0,1625051759.893
1515307.0,1625051759.933
1515255.0,1625051759.973
1515157.0,1625051760.012
1514886.0,1625051760.051
1515190.0,1625051760.091
1515230.0,1625051760.134
1515207.0,1625051760.172
1515804.0,1625051760.212
1516041.0,1625051760.254
1516213.0,1625051760.293
1516452.0,1625051760.334
1515990.0,1625051760.372
1514680.0,1625051760.411
1513878.0,1625051760.451
1513328.0,1625051760.493
1512883.0,1625051760.533
1513045.0,1625051760.572
1513223.0,1625051760.614
1513051.0,1625051760.652
1512905.0,1625051760.693
1512963.0,1625051760.733
1513235.0,1625051760.771
1513641.0,1625051760.812
1514018.0,1625051760.853
1514322.0,1625051760.892
1514999.0,1625051760.933
1515449.0,1625051760.974
1515764.0,1625051761.013
1514990.0,1625051761.053
1513771.0,1625051761.093
1512837.0,1625051761.132
1512254.0,1625051761.172
1511907.0,1625051761.213
1512102.0,1625051761.252
1512205.0,1625051761.293
1512230.0,1625051761.335
1512093.0,1625051761.373
1512185.0,1625051761.413
1512313.0,1625051761.453
1512801.0,1625051761.492
1513240.0,1625051761.533
1513674.0,1625051761.573
1514282.0,1625051761.612
1514784.0,1625051761.653
1515325.0,1625051761.696
1515034.0,1625051761.733
1514056.0,1625051761.773
1513305.0,1625051761.814
1512609.0,1625051761.853
1512222.0,1625051761.893
1512399.0,1625051761.934
1512737.0,1625051761.972
1512687.0,1625051762.012
1512772.0,1625051762.054
1512746.0,1625051762.093
1513059.0,1625051762.134
1513465.0,1625051762.174
1513922.0,1625051762.213
1514559.0,1625051762.254
1514950.0,1625051762.293
1515582.0,1625051762.333
1516064.0,1625051762.372
1516665.0,1625051762.414
1516748.0,1625051762.453
1515790.0,1625051762.493
1515010.0,1625051762.535
1514620.0,1625051762.574
1514423.0,1625051762.614
1514449.0,1625051762.653
1514841.0,1625051762.692
1515117.0,1625051762.733
1515134.0,1625051762.774
1515305.0,1625051762.813
1515352.0,1625051762.853
1515853.0,1625051762.895
1516210.0,1625051762.935
1516852.0,1625051762.972
1517444.0,1625051763.014
1517910.0,1625051763.053
1518373.0,1625051763.093
1518844.0,1625051763.135
1519656.0,1625051763.173
1520276.0,1625051763.214
1520158.0,1625051763.255
1519572.0,1625051763.294
1518861.0,1625051763.333
1518528.0,1625051763.374
1518417.0,1625051763.413
1518595.0,1625051763.453
1518987.0,1625051763.495
1519213.0,1625051763.534
1519070.0,1625051763.574
1519458.0,1625051763.615
1520014.0,1625051763.692
1520524.0,1625051763.735
1519637.0,1625051763.654
1520987.0,1625051763.773
1521497.0,1625051763.813
1522693.0,1625051763.894
1523596.0,1625051763.976
1524488.0,1625051764.012
1524657.0,1625051764.053
1523044.0,1625051763.935
1522232.0,1625051763.855
1523428.0,1625051764.134
1523846.0,1625051764.094
1522955.0,1625051764.174
1522753.0,1625051764.215
1522879.0,1625051764.253
1523304.0,1625051764.291
1523641.0,1625051764.334
1523737.0,1625051764.372
1523818.0,1625051764.412
1523977.0,1625051764.454
1524529.0,1625051764.493
1525010.0,1625051764.534
1525289.0,1625051764.575
1525834.0,1625051764.614
1526340.0,1625051764.654
1526935.0,1625051764.695
1527219.0,1625051764.735
1527750.0,1625051764.773
1528019.0,1625051764.814
1528528.0,1625051764.853
1528093.0,1625051764.894
1527390.0,1625051764.936
1526843.0,1625051764.974
1526341.0,1625051765.014
1526657.0,1625051765.056
1526804.0,1625051765.095
1527025.0,1625051765.134
1527032.0,1625051765.175
1527102.0,1625051765.214
1527293.0,1625051765.254
1527326.0,1625051765.295
1527709.0,1625051765.335
1528219.0,1625051765.375
1528544.0,1625051765.416
1529028.0,1625051765.455
1529697.0,1625051765.493
1530240.0,1625051765.535
1530615.0,1625051765.574
1531129.0,1625051765.614
1530872.0,1625051765.655
1530161.0,1625051765.694
1529476.0,1625051765.736
1529145.0,1625051765.776
1529218.0,1625051765.813
1529507.0,1625051765.854
1529628.0,1625051765.895
1529697.0,1625051765.935
1529724.0,1625051765.974
1529715.0,1625051766.016
1530033.0,1625051766.055
1530218.0,1625051766.095
1530546.0,1625051766.137
1530798.0,1625051766.173
1531176.0,1625051766.214
1531598.0,1625051766.255
1531883.0,1625051766.294
1532081.0,1625051766.335
1531642.0,1625051766.376
1530669.0,1625051766.415
1529901.0,1625051766.455
1529053.0,1625051766.497
1529067.0,1625051766.534
1528972.0,1625051766.574
1528933.0,1625051766.615
1528733.0,1625051766.654
1528474.0,1625051766.695
1528164.0,1625051766.737
1528225.0,1625051766.775
1528206.0,1625051766.818
1528278.0,1625051766.859
1528288.0,1625051766.899
1528761.0,1625051766.937
1528922.0,1625051766.975
1528733.0,1625051767.014
1528420.0,1625051767.054
1527232.0,1625051767.096
1525910.0,1625051767.136
1525170.0,1625051767.175
1524638.0,1625051767.217
1524425.0,1625051767.256
1524217.0,1625051767.296
1523660.0,1625051767.336
1523522.0,1625051767.374
1523320.0,1625051767.415
1523279.0,1625051767.456
1523371.0,1625051767.495
1523307.0,1625051767.526
1523311.0,1625051767.566
1523474.0,1625051767.606
1523861.0,1625051767.646
1523811.0,1625051767.687
1523286.0,1625051767.726
1521579.0,1625051767.766
1520270.0,1625051767.807
1519006.0,1625051767.846
1517975.0,1625051767.886
1517606.0,1625051767.928
1517110.0,1625051767.966
1516769.0,1625051768.007
1516438.0,1625051768.048
1515808.0,1625051768.087
1515430.0,1625051768.129
1515465.0,1625051768.169
1515210.0,1625051768.208
1515553.0,1625051768.249
1515339.0,1625051768.29
1515518.0,1625051768.33
1515817.0,1625051768.369
1515552.0,1625051768.409
1514078.0,1625051768.448
1512444.0,1625051768.488
1511359.0,1625051768.53
1510132.0,1625051768.568
1509364.0,1625051768.609
1509066.0,1625051768.65
1508550.0,1625051768.689
1507877.0,1625051768.728
1507589.0,1625051768.769
1507453.0,1625051768.808
1507227.0,1625051768.848
1507088.0,1625051768.89
1507162.0,1625051768.93
1507150.0,1625051768.969
1507393.0,1625051769.011
1507507.0,1625051769.05
1507351.0,1625051769.088
1507695.0,1625051769.13
1508094.0,1625051769.168
1507356.0,1625051769.209
1505908.0,1625051769.25
1504673.0,1625051769.289
1503433.0,1625051769.33
1502563.0,1625051769.37
1502268.0,1625051769.406
1502215.0,1625051769.447
1501929.0,1625051769.489
1501704.0,1625051769.528
1501571.0,1625051769.563
1501292.0,1625051769.604
1501580.0,1625051769.643
1501831.0,1625051769.684
1502080.0,1625051769.725
1502375.0,1625051769.764
1502731.0,1625051769.804
1503036.0,1625051769.845
1503412.0,1625051769.884
1504068.0,1625051769.925
1504403.0,1625051769.965
1503790.0,1625051770.004
1502822.0,1625051770.044
1501839.0,1625051770.086
1501416.0,1625051770.125
1501321.0,1625051770.165
1501323.0,1625051770.206
1501728.0,1625051770.244
1501708.0,1625051770.285
1501971.0,1625051770.325
1502044.0,1625051770.361
1502417.0,1625051770.401
1502986.0,1625051770.439
1503405.0,1625051770.468
1504038.0,1625051770.509
1504563.0,1625051770.55
1504956.0,1625051770.589
1505870.0,1625051770.629
1506482.0,1625051770.67
1507241.0,1625051770.71
1506874.0,1625051770.748
1505615.0,1625051770.828
1506049.0,1625051770.789
1505454.0,1625051770.868
1505637.0,1625051770.91
1506119.0,1625051770.949
1506407.0,1625051770.989
1506977.0,1625051771.03
1506975.0,1625051771.069
1507188.0,1625051771.11
1507904.0,1625051771.151
1508483.0,1625051771.188
1509192.0,1625051771.228
1509967.0,1625051771.269
1510748.0,1625051771.309
1512295.0,1625051771.389
1511606.0,1625051771.348
1512991.0,1625051771.429
1513863.0,1625051771.469
1514251.0,1625051771.511
1513649.0,1625051771.549
1512995.0,1625051771.59
1512613.0,1625051771.631
1512292.0,1625051771.668
1512513.0,1625051771.709
1513251.0,1625051771.789
1513716.0,1625051771.829
1513993.0,1625051771.87
1513086.0,1625051771.75
1514378.0,1625051771.91
1514919.0,1625051771.948
1515457.0,1625051771.989
1516235.0,1625051772.028
1517068.0,1625051772.068
1517574.0,1625051772.11
1518336.0,1625051772.148
1518965.0,1625051772.189
1519861.0,1625051772.23
1520570.0,1625051772.269
1520561.0,1625051772.31
1520237.0,1625051772.351
1519593.0,1625051772.39
1519367.0,1625051772.43
1519273.0,1625051772.469
1519486.0,1625051772.509
1519984.0,1625051772.549
1520254.0,1625051772.59
1520638.0,1625051772.629
1520813.0,1625051772.67
1521024.0,1625051772.712
1521509.0,1625051772.75
1522242.0,1625051772.789
1522740.0,1625051772.83
1523590.0,1625051772.869
1524266.0,1625051772.91
1524849.0,1625051772.951
1525489.0,1625051772.99
1526224.0,1625051773.03
1526598.0,1625051773.07
1526036.0,1625051773.11
1525415.0,1625051773.149
1525364.0,1625051773.19
1525095.0,1625051773.229
1525459.0,1625051773.269
1525928.0,1625051773.311
1526325.0,1625051773.349
1526350.0,1625051773.39
1526772.0,1625051773.431
1527373.0,1625051773.47
1527764.0,1625051773.511
1528380.0,1625051773.552
1528936.0,1625051773.589
1529564.0,1625051773.629
1530245.0,1625051773.67
1530779.0,1625051773.71
1531353.0,1625051773.749
1531842.0,1625051773.79
1531681.0,1625051773.829
1530660.0,1625051773.869
1530126.0,1625051773.911
1529664.0,1625051773.949
1529363.0,1625051773.99
1529753.0,1625051774.031
1529799.0,1625051774.07
1530093.0,1625051774.111
1529974.0,1625051774.152
1530279.0,1625051774.191
1530304.0,1625051774.231
1530501.0,1625051774.272
1530940.0,1625051774.311
1531209.0,1625051774.351
1531600.0,1625051774.392
1532158.0,1625051774.429
1532684.0,1625051774.47
1532776.0,1625051774.511
1532779.0,1625051774.55
1531750.0,1625051774.59
1530780.0,1625051774.631
1529716.0,1625051774.67
1529178.0,1625051774.712
1529119.0,1625051774.752
1528924.0,1625051774.791
1529003.0,1625051774.829
1528746.0,1625051774.871
1528606.0,1625051774.91
1528364.0,1625051774.95
1528817.0,1625051774.991
1529018.0,1625051775.03
1529230.0,1625051775.07
1529371.0,1625051775.112
1529830.0,1625051775.15
1530012.0,1625051775.191
1530384.0,1625051775.232
1530307.0,1625051775.271
1529174.0,1625051775.312
1528348.0,1625051775.352
1527572.0,1625051775.392
1527076.0,1625051775.43
1527105.0,1625051775.471
1527061.0,1625051775.511
1527007.0,1625051775.551
1526668.0,1625051775.592
1526959.0,1625051775.631
1526906.0,1625051775.671
1527015.0,1625051775.713
1527356.0,1625051775.75
1527540.0,1625051775.79
1527776.0,1625051775.831
1528139.0,1625051775.871
1528678.0,1625051775.912
1528715.0,1625051775.952
1528115.0,1625051775.991
1527011.0,1625051776.032
1525848.0,1625051776.072
1525478.0,1625051776.112
1525085.0,1625051776.152
1525148.0,1625051776.192
1524966.0,1625051776.231
1524924.0,1625051776.271
1524521.0,1625051776.313
1524572.0,1625051776.352
1524732.0,1625051776.39
1525064.0,1625051776.432
1525130.0,1625051776.471
1525460.0,1625051776.512
1525796.0,1625051776.552
1526019.0,1625051776.592
1526372.0,1625051776.632
1525650.0,1625051776.672
1524338.0,1625051776.712
1523188.0,1625051776.751
1522537.0,1625051776.791
1522152.0,1625051776.83
1522081.0,1625051776.871
1522021.0,1625051776.913
1521842.0,1625051776.951
1521364.0,1625051776.991
1521477.0,1625051777.033
1521533.0,1625051777.069
1521730.0,1625051777.11
1522101.0,1625051777.151
1522583.0,1625051777.19
1522650.0,1625051777.231
1523026.0,1625051777.272
1523625.0,1625051777.312
1522909.0,1625051777.351
1521435.0,1625051777.392
1520040.0,1625051777.431
1519055.0,1625051777.471
1518110.0,1625051777.513
1517845.0,1625051777.552
1517485.0,1625051777.592
1517182.0,1625051777.633
1516956.0,1625051777.672
1516524.0,1625051777.711
1516223.0,1625051777.752
1516152.0,1625051777.791
1516421.0,1625051777.831
1516434.0,1625051777.872
1516860.0,1625051777.912
1517234.0,1625051777.951
1517353.0,1625051777.992
1516953.0,1625051778.031
1515769.0,1625051778.071
1514614.0,1625051778.113
1513381.0,1625051778.151
1512879.0,1625051778.192
1512601.0,1625051778.233
1512642.0,1625051778.272
1512644.0,1625051778.313
1512398.0,1625051778.354
1512109.0,1625051778.393
1512050.0,1625051778.431
1512434.0,1625051778.472
1512756.0,1625051778.512
1513090.0,1625051778.552
1513686.0,1625051778.593
1514221.0,1625051778.632
1514658.0,1625051778.673
1515171.0,1625051778.715
1515042.0,1625051778.753
1513874.0,1625051778.791
1513141.0,1625051778.833
1512409.0,1625051778.872
1512506.0,1625051778.913
1512619.0,1625051778.953
1512976.0,1625051778.992
1513149.0,1625051779.033
1513388.0,1625051779.073
1513524.0,1625051779.113
1514313.0,1625051779.153
1515872.0,1625051779.193
1517130.0,1625051779.232
1517639.0,1625051779.273
1518302.0,1625051779.315
1518857.0,1625051779.353
1519386.0,1625051779.393
1519114.0,1625051779.433
1518373.0,1625051779.472
1517548.0,1625051779.507
1516911.0,1625051779.547
1516907.0,1625051779.586
1517145.0,1625051779.626
1517347.0,1625051779.667
1517623.0,1625051779.707
1518019.0,1625051779.746
1518161.0,1625051779.787
1518475.0,1625051779.826
1519222.0,1625051779.866
1519753.0,1625051779.908
1520540.0,1625051779.946
1521928.0,1625051780.028
1521187.0,1625051779.987
1522531.0,1625051780.067
1522985.0,1625051780.108
1522392.0,1625051780.149
1521882.0,1625051780.188
1521269.0,1625051780.226
1520897.0,1625051780.267
1521313.0,1625051780.307
1521982.0,1625051780.346
1522203.0,1625051780.387
1522654.0,1625051780.427
1522856.0,1625051780.467
1523278.0,1625051780.509
1524666.0,1625051780.588
1526091.0,1625051780.668
1526839.0,1625051780.707
1527568.0,1625051780.747
1523940.0,1625051780.547
1525472.0,1625051780.629
1528551.0,1625051780.827
1528046.0,1625051780.787
1526796.0,1625051780.907
1527711.0,1625051780.867
1526453.0,1625051780.947
1526410.0,1625051780.987
1526694.0,1625051781.027
1527131.0,1625051781.066
1527557.0,1625051781.108
1527928.0,1625051781.147
1528081.0,1625051781.187
1528787.0,1625051781.228
1529119.0,1625051781.267
1529964.0,1625051781.308
1530735.0,1625051781.349
1531426.0,1625051781.388
1532067.0,1625051781.426
1533086.0,1625051781.468
1533798.0,1625051781.508
1534099.0,1625051781.547
1533485.0,1625051781.588
1532894.0,1625051781.628
1532331.0,1625051781.668
1532233.0,1625051781.71
1532306.0,1625051781.749
1532890.0,1625051781.787
1533195.0,1625051781.828
1533588.0,1625051781.867
1533943.0,1625051781.908
1534451.0,1625051781.949
1534956.0,1625051781.988
1535777.0,1625051782.028
1536347.0,1625051782.069
1536981.0,1625051782.108
1537812.0,1625051782.149
1538574.0,1625051782.187
1539337.0,1625051782.227
1540021.0,1625051782.267
1539701.0,1625051782.309
1539346.0,1625051782.348
1538963.0,1625051782.388
1538919.0,1625051782.429
1539226.0,1625051782.468
1539849.0,1625051782.509
1540386.0,1625051782.55
1540971.0,1625051782.587
1541035.0,1625051782.627
1541636.0,1625051782.668
1542249.0,1625051782.708
1542902.0,1625051782.747
1543364.0,1625051782.788
1544220.0,1625051782.827
1544910.0,1625051782.867
1545749.0,1625051782.909
1546160.0,1625051782.947
1546069.0,1625051782.988
1545677.0,1625051783.029
1545059.0,1625051783.068
1544977.0,1625051783.109
1545226.0,1625051783.15
1545518.0,1625051783.189
1545967.0,1625051783.229
1546398.0,1625051783.27
1546597.0,1625051783.309
1546802.0,1625051783.349
1547327.0,1625051783.39
1547753.0,1625051783.427
1548321.0,1625051783.468
1548787.0,1625051783.51
1549380.0,1625051783.548
1549947.0,1625051783.588
1550428.0,1625051783.63
1549542.0,1625051783.669
1548834.0,1625051783.71
1548161.0,1625051783.751
1547673.0,1625051783.788
1547844.0,1625051783.828
1548027.0,1625051783.869
1548100.0,1625051783.908
1548187.0,1625051783.948
1548330.0,1625051783.988
1548461.0,1625051784.028
1548817.0,1625051784.068
1549150.0,1625051784.109
1549673.0,1625051784.148
1550218.0,1625051784.188
1550833.0,1625051784.229
1551151.0,1625051784.269
1551417.0,1625051784.31
1550568.0,1625051784.35
1549167.0,1625051784.389
1548158.0,1625051784.43
1547633.0,1625051784.469
1547255.0,1625051784.509
1547399.0,1625051784.548
1547269.0,1625051784.59
1547144.0,1625051784.629
1546849.0,1625051784.669
1546686.0,1625051784.711
1546804.0,1625051784.747
1547215.0,1625051784.788
1547597.0,1625051784.829
1547799.0,1625051784.868
1548000.0,1625051784.909
1548383.0,1625051784.949
1548523.0,1625051784.988
1548990.0,1625051785.029
1548584.0,1625051785.069
1547261.0,1625051785.109
1546031.0,1625051785.149
1545157.0,1625051785.191
1544413.0,1625051785.23
1544521.0,1625051785.27
1544279.0,1625051785.312
1543908.0,1625051785.35
1543932.0,1625051785.391
1543822.0,1625051785.432
1543505.0,1625051785.471
1543613.0,1625051785.511
1544031.0,1625051785.552
1544332.0,1625051785.591
1544409.0,1625051785.631
1544779.0,1625051785.672
1545143.0,1625051785.712
1545508.0,1625051785.751
1545802.0,1625051785.792
1546020.0,1625051785.831
1545610.0,1625051785.871
1544442.0,1625051785.913
1543420.0,1625051785.951
1542542.0,1625051785.991
1542298.0,1625051786.032
1542367.0,1625051786.071
1542429.0,1625051786.112
1542394.0,1625051786.153
1542337.0,1625051786.192
1542431.0,1625051786.228
1542439.0,1625051786.269
1542787.0,1625051786.309
1543399.0,1625051786.349
1543874.0,1625051786.39
1544269.0,1625051786.429
1544785.0,1625051786.469
1545053.0,1625051786.511
1545450.0,1625051786.55
1544496.0,1625051786.631
1545609.0,1625051786.59
1542758.0,1625051786.71
1543661.0,1625051786.67
1542242.0,1625051786.75
1542490.0,1625051786.83
1542374.0,1625051786.949
1542339.0,1625051786.99
1542256.0,1625051786.91
1542363.0,1625051786.87
1542310.0,1625051786.789
1542739.0,1625051787.029
1542956.0,1625051787.069
1543358.0,1625051787.111
1544183.0,1625051787.19
1543860.0,1625051787.149
1544031.0,1625051787.27
1544419.0,1625051787.231
1543031.0,1625051787.309
1542008.0,1625051787.35
1541646.0,1625051787.389
1541112.0,1625051787.429
1541292.0,1625051787.47
1541769.0,1625051787.51
1541655.0,1625051787.55
1541496.0,1625051787.591
1541576.0,1625051787.63
1541696.0,1625051787.671
1542087.0,1625051787.713
1542828.0,1625051787.751
1543064.0,1625051787.789
1543668.0,1625051787.831
1543611.0,1625051787.87
1542800.0,1625051787.911
1541776.0,1625051787.951
1540919.0,1625051787.991
1540198.0,1625051788.031
1539595.0,1625051788.071
1539163.0,1625051788.111
1538598.0,1625051788.151
1537973.0,1625051788.191
1537340.0,1625051788.23
1537082.0,1625051788.271
1536861.0,1625051788.313
1536894.0,1625051788.351
1536674.0,1625051788.392
1536531.0,1625051788.431
1536253.0,1625051788.47
1535333.0,1625051788.511
1534174.0,1625051788.551
1533020.0,1625051788.591
1532647.0,1625051788.631
1532961.0,1625051788.671
1533288.0,1625051788.709
1533656.0,1625051788.749
1533766.0,1625051788.79
1533672.0,1625051788.829
1534075.0,1625051788.869
1534108.0,1625051788.91
1534808.0,1625051788.949
1535283.0,1625051788.989
1535616.0,1625051789.03
1535344.0,1625051789.069
1534059.0,1625051789.11
1532878.0,1625051789.15
1531614.0,1625051789.189
1531002.0,1625051789.229
1530744.0,1625051789.27
1530964.0,1625051789.31
1531124.0,1625051789.349
1531023.0,1625051789.391
1531060.0,1625051789.43
1531212.0,1625051789.47
1531514.0,1625051789.512
1531598.0,1625051789.551
1532177.0,1625051789.591
1532277.0,1625051789.632
1531151.0,1625051789.671
1529793.0,1625051789.712
1528559.0,1625051789.753
1527924.0,1625051789.792
1527858.0,1625051789.83
1528045.0,1625051789.871
1528022.0,1625051789.911
1528123.0,1625051789.951
1528220.0,1625051789.991
1528284.0,1625051790.031
1528602.0,1625051790.07
1528952.0,1625051790.112
1529309.0,1625051790.151
1529696.0,1625051790.191
1528838.0,1625051790.232
1527493.0,1625051790.272
1526515.0,1625051790.313
1526071.0,1625051790.353
1526128.0,1625051790.392
1526801.0,1625051790.431
1527040.0,1625051790.472
1527187.0,1625051790.512
1527420.0,1625051790.551
1527652.0,1625051790.592
1528342.0,1625051790.632
1528821.0,1625051790.672
1529665.0,1625051790.714
1530174.0,1625051790.753
1529645.0,1625051790.791
1528577.0,1625051790.832
1527860.0,1625051790.871
1528056.0,1625051790.912
1528536.0,1625051790.953
1529308.0,1625051790.992
1529901.0,1625051791.032
1530169.0,1625051791.073
1530084.0,1625051791.113
1530451.0,1625051791.151
1531133.0,1625051791.192
1531912.0,1625051791.231
1532908.0,1625051791.271
1533326.0,1625051791.313
1532659.0,1625051791.352
1531974.0,1625051791.392
1531638.0,1625051791.433
1531804.0,1625051791.472
1532418.0,1625051791.517
1533513.0,1625051791.558
1534574.0,1625051791.597
1535327.0,1625051791.637
1535890.0,1625051791.678
1536282.0,1625051791.718
1536487.0,1625051791.757
1536676.0,1625051791.798
1536893.0,1625051791.837
1536539.0,1625051791.877
1535260.0,1625051791.919
1533576.0,1625051791.957
1532271.0,1625051791.997
1531212.0,1625051792.036
1531178.0,1625051792.075
1530757.0,1625051792.116
1530983.0,1625051792.157
1530629.0,1625051792.196
1530659.0,1625051792.236
1530663.0,1625051792.277
1530597.0,1625051792.317
1531232.0,1625051792.356
1532069.0,1625051792.398
1532402.0,1625051792.434
1531961.0,1625051792.474
1530250.0,1625051792.516
1528691.0,1625051792.555
1527746.0,1625051792.595
1527632.0,1625051792.637
1528373.0,1625051792.676
1529334.0,1625051792.717
1531034.0,1625051792.757
1532949.0,1625051792.797
1534254.0,1625051792.837
1535996.0,1625051792.877
1537546.0,1625051792.917
1538914.0,1625051792.956
1540203.0,1625051792.997
1541290.0,1625051793.036
1542782.0,1625051793.076
1544016.0,1625051793.118
1544655.0,1625051793.156
1544396.0,1625051793.197
1543813.0,1625051793.238
1543773.0,1625051793.277
1544098.0,1625051793.318
1545113.0,1625051793.359
1545896.0,1625051793.396
1546742.0,1625051793.436
1547462.0,1625051793.477
1548190.0,1625051793.517
1549080.0,1625051793.557
1550150.0,1625051793.598
1551105.0,1625051793.637
1552238.0,1625051793.678
1553595.0,1625051793.718
1554760.0,1625051793.756
1555970.0,1625051793.797
1556891.0,1625051793.838
1557318.0,1625051793.877
1556843.0,1625051793.918
1556857.0,1625051793.959
1556818.0,1625051793.998
1557415.0,1625051794.038
1558214.0,1625051794.078
1558939.0,1625051794.118
1559210.0,1625051794.158
1559644.0,1625051794.198
1559978.0,1625051794.238
1560521.0,1625051794.278
1561924.0,1625051794.32
1563068.0,1625051794.356
1564679.0,1625051794.397
1566127.0,1625051794.438
1567983.0,1625051794.477
1570107.0,1625051794.518
1571671.0,1625051794.559
1572278.0,1625051794.598
1573588.0,1625051794.638
1574684.0,1625051794.679
1575678.0,1625051794.719
1576651.0,1625051794.757
1577423.0,1625051794.798
1578389.0,1625051794.837
1578759.0,1625051794.877
1579142.0,1625051794.919
1579668.0,1625051794.958
1580311.0,1625051794.996
1580918.0,1625051795.038
1581457.0,1625051795.077
1582049.0,1625051795.117
1582491.0,1625051795.158
1582377.0,1625051795.197
1581467.0,1625051795.237
1580955.0,1625051795.278
1580628.0,1625051795.318
1580743.0,1625051795.357
1581001.0,1625051795.398
1581254.0,1625051795.438
1581376.0,1625051795.478
1581338.0,1625051795.52
1581432.0,1625051795.558
1581597.0,1625051795.599
1581476.0,1625051795.638
1581930.0,1625051795.677
1582002.0,1625051795.718
1582488.0,1625051795.759
1582361.0,1625051795.798
1581140.0,1625051795.838
1580102.0,1625051795.879
1579077.0,1625051795.919
1578618.0,1625051795.957
1578817.0,1625051795.998
1578717.0,1625051796.038
1578507.0,1625051796.078
1578004.0,1625051796.12
1577745.0,1625051796.158
1577232.0,1625051796.199
1577347.0,1625051796.24
1577659.0,1625051796.279
1577587.0,1625051796.318
1577724.0,1625051796.358
1577202.0,1625051796.398
1575887.0,1625051796.438
1573879.0,1625051796.479
1572568.0,1625051796.519
1571640.0,1625051796.559
1571147.0,1625051796.6
1570947.0,1625051796.639
1570635.0,1625051796.677
1570061.0,1625051796.719
1569435.0,1625051796.758
1569021.0,1625051796.798
1568850.0,1625051796.84
1568625.0,1625051796.879
1568535.0,1625051796.92
1568739.0,1625051796.96
1568497.0,1625051796.999
1567130.0,1625051797.038
1565271.0,1625051797.079
1563648.0,1625051797.118
1562574.0,1625051797.158
1561834.0,1625051797.199
1561332.0,1625051797.238
1560756.0,1625051797.278
1560345.0,1625051797.32
1559678.0,1625051797.358
1559281.0,1625051797.399
1558606.0,1625051797.44
1558745.0,1625051797.479
1558416.0,1625051797.52
1558507.0,1625051797.558
1558412.0,1625051797.597
1557253.0,1625051797.637
1557253.0,1625051797.677
1555544.0,1625051797.718
1553898.0,1625051797.758
1552786.0,1625051797.799
1551960.0,1625051797.838
1551587.0,1625051797.878
1550946.0,1625051797.92
1550420.0,1625051797.958
1549805.0,1625051797.998
1549414.0,1625051798.04
1548976.0,1625051798.079
1548898.0,1625051798.12
1548947.0,1625051798.16
1549262.0,1625051798.199
1549464.0,1625051798.24
1549132.0,1625051798.28
1547549.0,1625051798.32
1546187.0,1625051798.36
1545099.0,1625051798.401
1544589.0,1625051798.438
1544486.0,1625051798.478
1544627.0,1625051798.52
1544642.0,1625051798.559
1544190.0,1625051798.599
1544108.0,1625051798.64
1543942.0,1625051798.68
1543998.0,1625051798.721
1544637.0,1625051798.759
1544935.0,1625051798.799
1545350.0,1625051798.839
1545718.0,1625051798.879
1544877.0,1625051798.919
1543794.0,1625051798.959
1542868.0,1625051798.999
1542443.0,1625051799.039
1542184.0,1625051799.078
1542591.0,1625051799.12
1542625.0,1625051799.159
1542506.0,1625051799.199
1542217.0,1625051799.24
1542431.0,1625051799.279
1542692.0,1625051799.32
1543141.0,1625051799.361
1544055.0,1625051799.441
1544511.0,1625051799.48
1543951.0,1625051799.52
1543472.0,1625051799.4
1542877.0,1625051799.559
1541791.0,1625051799.6
1541391.0,1625051799.64
1541508.0,1625051799.68
1541563.0,1625051799.722
1541691.0,1625051799.76
1541935.0,1625051799.801
1541729.0,1625051799.84
1542018.0,1625051799.879
1542388.0,1625051799.92
1542596.0,1625051799.961
1543022.0,1625051800.0
1543632.0,1625051800.04
1544170.0,1625051800.08
1544136.0,1625051800.12
1543013.0,1625051800.16
1542325.0,1625051800.2
1541577.0,1625051800.239
1541599.0,1625051800.28
1541817.0,1625051800.322
1542190.0,1625051800.36
1542316.0,1625051800.4
1542592.0,1625051800.442
1542817.0,1625051800.481
1542916.0,1625051800.52
1543342.0,1625051800.56
1543674.0,1625051800.6
1544490.0,1625051800.64
1545098.0,1625051800.68
1545462.0,1625051800.72
1544169.0,1625051800.8
1545309.0,1625051800.759
1542756.0,1625051800.879
1543220.0,1625051800.839
1542083.0,1625051800.921
1542492.0,1625051800.96
1542699.0,1625051801.0
1542602.0,1625051801.08
1542733.0,1625051801.121
1542893.0,1625051801.041
1542939.0,1625051801.162
1543071.0,1625051801.201
1543504.0,1625051801.239
1544195.0,1625051801.32
1544967.0,1625051801.359
1545260.0,1625051801.401
1545109.0,1625051801.44
1543853.0,1625051801.281
1543673.0,1625051801.48
1542929.0,1625051801.522
1542059.0,1625051801.561
1541907.0,1625051801.601
1541880.0,1625051801.642
1542204.0,1625051801.682
1542221.0,1625051801.72
1542173.0,1625051801.761
1541990.0,1625051801.8
1542161.0,1625051801.84
1542666.0,1625051801.881
1543071.0,1625051801.921
1543334.0,1625051801.96
1543910.0,1625051802.001
1544336.0,1625051802.04
1545015.0,1625051802.08
1544980.0,1625051802.122
1544296.0,1625051802.16
1543475.0,1625051802.2
1542557.0,1625051802.242
1541802.0,1625051802.281
1542000.0,1625051802.322
1541999.0,1625051802.362
1542218.0,1625051802.402
1542242.0,1625051802.44
1542108.0,1625051802.481
1542222.0,1625051802.521
1542347.0,1625051802.561
1542760.0,1625051802.602
1543276.0,1625051802.641
1543452.0,1625051802.679
1543902.0,1625051802.721
1544450.0,1625051802.759
1544876.0,1625051802.8
1545199.0,1625051802.841
1544904.0,1625051802.88
1543724.0,1625051802.921
1542814.0,1625051802.962
1542356.0,1625051803.001
1542069.0,1625051803.041
1542377.0,1625051803.121
1542237.0,1625051803.081
1542145.0,1625051803.16
1541918.0,1625051803.201
1542126.0,1625051803.24
1542348.0,1625051803.322
1543217.0,1625051803.401
1542750.0,1625051803.361
1543463.0,1625051803.442
1542305.0,1625051803.28
1543978.0,1625051803.482
1544315.0,1625051803.521
1545024.0,1625051803.562
1545367.0,1625051803.601
1544503.0,1625051803.641
1543509.0,1625051803.682
1542352.0,1625051803.722
1542072.0,1625051803.761
1542010.0,1625051803.802
1542090.0,1625051803.841
1542053.0,1625051803.881
1542052.0,1625051803.923
1541734.0,1625051803.961
1541877.0,1625051804.001
1542179.0,1625051804.041
1542317.0,1625051804.08
1542853.0,1625051804.121
1543170.0,1625051804.161
1543600.0,1625051804.201
1544015.0,1625051804.241
1544513.0,1625051804.281
1544956.0,1625051804.321
1544351.0,1625051804.361
1543333.0,1625051804.402
1542588.0,1625051804.441
1542294.0,1625051804.524
1542150.0,1625051804.482
1542617.0,1625051804.56
1542733.0,1625051804.641
1542775.0,1625051804.6
1542733.0,1625051804.681
1543347.0,1625051804.802
1542881.0,1625051804.722
1543657.0,1625051804.842
1544068.0,1625051804.882
1544619.0,1625051804.922
1544835.0,1625051804.961
1543005.0,1625051804.762
1545124.0,1625051805.001
1543202.0,1625051805.081
1541933.0,1625051805.161
1541735.0,1625051805.201
1544166.0,1625051805.04
1542174.0,1625051805.123
1541734.0,1625051805.24
1541731.0,1625051805.28
1541771.0,1625051805.321
1541371.0,1625051805.361
1541382.0,1625051805.4
1541551.0,1625051805.441
1541726.0,1625051805.482
1542058.0,1625051805.522
1542184.0,1625051805.561
1542491.0,1625051805.603
1542780.0,1625051805.642
1541937.0,1625051805.682
1540298.0,1625051805.722
1539264.0,1625051805.761
1538029.0,1625051805.801
1537540.0,1625051805.842
1537425.0,1625051805.881
1537052.0,1625051805.922
1536703.0,1625051805.963
1536140.0,1625051806.002
1535976.0,1625051806.042
1535588.0,1625051806.083
1535813.0,1625051806.123
1535583.0,1625051806.161
1535749.0,1625051806.203
1535745.0,1625051806.242
1535886.0,1625051806.282
1535325.0,1625051806.324
1533811.0,1625051806.363
1532004.0,1625051806.401
1530661.0,1625051806.442
1529813.0,1625051806.481
1528970.0,1625051806.522
1528619.0,1625051806.563
1528250.0,1625051806.602
1527555.0,1625051806.642
1526997.0,1625051806.683
1526484.0,1625051806.723
1526578.0,1625051806.762
1526430.0,1625051806.803
1526203.0,1625051806.842
1526356.0,1625051806.882
1526358.0,1625051806.924
1526560.0,1625051806.963
1525430.0,1625051807.003
1523411.0,1625051807.042
1521730.0,1625051807.081
1520492.0,1625051807.122
1519600.0,1625051807.163
1519049.0,1625051807.202
1518775.0,1625051807.242
1518177.0,1625051807.283
1517631.0,1625051807.323
1517363.0,1625051807.362
1516773.0,1625051807.403
1516608.0,1625051807.443
1516607.0,1625051807.483
1516561.0,1625051807.525
1516806.0,1625051807.557
1517047.0,1625051807.638
1516892.0,1625051807.597
1514032.0,1625051807.718
1516108.0,1625051807.677
1512473.0,1625051807.758
1511271.0,1625051807.797
1510452.0,1625051807.837
1510463.0,1625051807.878
1510060.0,1625051807.918
1509494.0,1625051807.957
1509102.0,1625051807.999
1508627.0,1625051808.038
1508580.0,1625051808.078
1508687.0,1625051808.119
1508801.0,1625051808.158
1508891.0,1625051808.198
1509163.0,1625051808.239
1509605.0,1625051808.279
1509691.0,1625051808.318
1508896.0,1625051808.359
1507388.0,1625051808.396
1505996.0,1625051808.43
1504954.0,1625051808.466
1504411.0,1625051808.503
1504222.0,1625051808.543
1504208.0,1625051808.584
1504162.0,1625051808.623
1503693.0,1625051808.664
1503527.0,1625051808.706
1503711.0,1625051808.744
1503950.0,1625051808.784
1504344.0,1625051808.824
1504652.0,1625051808.863
1505217.0,1625051808.904
1505728.0,1625051808.945
1506188.0,1625051808.984
1506636.0,1625051809.024
1505442.0,1625051809.065
1504277.0,1625051809.105
1503655.0,1625051809.145
1503260.0,1625051809.184
1503398.0,1625051809.223
1503783.0,1625051809.263
1503606.0,1625051809.306
1503926.0,1625051809.344
1503892.0,1625051809.384
1504465.0,1625051809.425
1504845.0,1625051809.465
1505453.0,1625051809.506
1505806.0,1625051809.544
1506749.0,1625051809.583
1507264.0,1625051809.624
1507976.0,1625051809.665
1507373.0,1625051809.705
1506187.0,1625051809.745
1505508.0,1625051809.786
1505051.0,1625051809.825
1505204.0,1625051809.863
1505650.0,1625051809.905
1506053.0,1625051809.944
1505958.0,1625051809.984
1506290.0,1625051810.025
1506623.0,1625051810.064
1507209.0,1625051810.106
1507852.0,1625051810.146
1508562.0,1625051810.185
1509153.0,1625051810.223
1510029.0,1625051810.265
1510942.0,1625051810.305
1510697.0,1625051810.343
1509489.0,1625051810.385
1508377.0,1625051810.424
1507610.0,1625051810.465
1507169.0,1625051810.507
1507274.0,1625051810.545
1507776.0,1625051810.585
1507888.0,1625051810.627
1507841.0,1625051810.663
1507951.0,1625051810.705
1508070.0,1625051810.745
1508559.0,1625051810.784
1508932.0,1625051810.825
1509537.0,1625051810.866
1509988.0,1625051810.906
1510641.0,1625051810.945
1511284.0,1625051810.985
1510455.0,1625051811.024
1509187.0,1625051811.064
1508179.0,1625051811.106
1507468.0,1625051811.145
1507337.0,1625051811.185
1507336.0,1625051811.226
1507588.0,1625051811.265
1507296.0,1625051811.306
1507495.0,1625051811.345
1507640.0,1625051811.384
1507959.0,1625051811.424
1508397.0,1625051811.466
1508771.0,1625051811.506
1509589.0,1625051811.545
1510007.0,1625051811.586
1510875.0,1625051811.625
1511173.0,1625051811.666
1511089.0,1625051811.706
1509846.0,1625051811.744
1508683.0,1625051811.784
1507953.0,1625051811.826
1507746.0,1625051811.865
1507875.0,1625051811.906
1507848.0,1625051811.947
1508066.0,1625051811.986
1508076.0,1625051812.026
1508311.0,1625051812.065
1508459.0,1625051812.105
1508915.0,1625051812.145
1509636.0,1625051812.186
1510096.0,1625051812.225
1510942.0,1625051812.265
1511633.0,1625051812.308
1512423.0,1625051812.346
1512895.0,1625051812.386
1512121.0,1625051812.425
1510956.0,1625051812.464
1510406.0,1625051812.506
1510235.0,1625051812.546
1510265.0,1625051812.585
1510659.0,1625051812.625
1510981.0,1625051812.667
1510849.0,1625051812.707
1511338.0,1625051812.744
1511696.0,1625051812.786
1512291.0,1625051812.825
1512766.0,1625051812.865
1513583.0,1625051812.908
1514130.0,1625051812.943
1514943.0,1625051812.983
1515798.0,1625051813.025
1516397.0,1625051813.064
1515781.0,1625051813.105
1514765.0,1625051813.146
1514296.0,1625051813.185
1513913.0,1625051813.225
1514007.0,1625051813.267
1514522.0,1625051813.307
1514681.0,1625051813.346
1514789.0,1625051813.388
1514753.0,1625051813.427
1515171.0,1625051813.465
1515600.0,1625051813.507
1516153.0,1625051813.545
1516781.0,1625051813.586
1517263.0,1625051813.627
1517649.0,1625051813.666
1518359.0,1625051813.707
1519025.0,1625051813.748
1518824.0,1625051813.785
1517601.0,1625051813.825
1516528.0,1625051813.867
1515575.0,1625051813.906
1515134.0,1625051813.946
1515130.0,1625051813.987
1515157.0,1625051814.026
1515419.0,1625051814.067
1515254.0,1625051814.109
1515485.0,1625051814.145
1515970.0,1625051814.185
1516533.0,1625051814.227
1517231.0,1625051814.266
1517870.0,1625051814.307
1518592.0,1625051814.348
1518672.0,1625051814.387
1518984.0,1625051814.427
1519627.0,1625051814.468
1518936.0,1625051814.506
1517628.0,1625051814.546
1516312.0,1625051814.587
1515966.0,1625051814.626
1515709.0,1625051814.666
1516102.0,1625051814.709
1516417.0,1625051814.747
1516558.0,1625051814.787
1516770.0,1625051814.827
1516919.0,1625051814.866
1517296.0,1625051814.907
1518018.0,1625051814.947
1518900.0,1625051814.986
1519582.0,1625051815.027
1520627.0,1625051815.068
1521667.0,1625051815.108
1522771.0,1625051815.147
1523150.0,1625051815.187
1522415.0,1625051815.226
1521720.0,1625051815.266
1521209.0,1625051815.308
1521080.0,1625051815.347
1521325.0,1625051815.387
1521798.0,1625051815.428
1521747.0,1625051815.464
1522094.0,1625051815.503
1522054.0,1625051815.543
1522408.0,1625051815.582
1522687.0,1625051815.622
1523086.0,1625051815.663
1523692.0,1625051815.703
1523845.0,1625051815.742
1524157.0,1625051815.784
1524796.0,1625051815.823
1524677.0,1625051815.863
1523149.0,1625051815.904
1521743.0,1625051815.942
1520404.0,1625051815.983
1519682.0,1625051816.024
1519539.0,1625051816.064
1519645.0,1625051816.105
1519750.0,1625051816.146
1519583.0,1625051816.185
1519459.0,1625051816.225
1519514.0,1625051816.267
1519838.0,1625051816.307
1520266.0,1625051816.346
1520964.0,1625051816.387
1521329.0,1625051816.426
1521986.0,1625051816.467
1522755.0,1625051816.509
1522819.0,1625051816.547
1521711.0,1625051816.588
1520069.0,1625051816.629
1519346.0,1625051816.668
1518622.0,1625051816.707
1518312.0,1625051816.748
1518259.0,1625051816.787
1518271.0,1625051816.827
1518138.0,1625051816.869
1517854.0,1625051816.908
1517987.0,1625051816.948
1518049.0,1625051816.989
1518571.0,1625051817.028
1518924.0,1625051817.066
1519470.0,1625051817.109
1519996.0,1625051817.147
1520654.0,1625051817.187
1521198.0,1625051817.229
1519974.0,1625051817.268
1518951.0,1625051817.309
1517899.0,1625051817.349
1517574.0,1625051817.388
1517809.0,1625051817.427
1517907.0,1625051817.468
1518065.0,1625051817.508
1518079.0,1625051817.547
1518071.0,1625051817.589
1518098.0,1625051817.628
1518593.0,1625051817.668
1518999.0,1625051817.71
1519650.0,1625051817.747
1520112.0,1625051817.787
1520940.0,1625051817.828
1521675.0,1625051817.867
1521750.0,1625051817.909
1520533.0,1625051817.949
1519630.0,1625051817.988
1519259.0,1625051818.028
1519138.0,1625051818.066
1519636.0,1625051818.106
1520080.0,1625051818.145
1520241.0,1625051818.187
1520282.0,1625051818.226
1520614.0,1625051818.267
1521016.0,1625051818.309
1521489.0,1625051818.347
1522398.0,1625051818.387
1523223.0,1625051818.429
1523799.0,1625051818.468
1524766.0,1625051818.509
1525469.0,1625051818.55
1524326.0,1625051818.588
1523358.0,1625051818.629
1522617.0,1625051818.67
1522684.0,1625051818.708
1522612.0,1625051818.747
1523230.0,1625051818.789
1523525.0,1625051818.828
1523780.0,1625051818.868
1523897.0,1625051818.91
1524376.0,1625051818.949
1525020.0,1625051818.989
1525560.0,1625051819.03
1526285.0,1625051819.067
1527166.0,1625051819.108
1528076.0,1625051819.149
1528915.0,1625051819.188
1528239.0,1625051819.228
1527102.0,1625051819.27
1526245.0,1625051819.31
1525992.0,1625051819.349
1525796.0,1625051819.391
1526101.0,1625051819.427
1526305.0,1625051819.468
1526262.0,1625051819.51
1526401.0,1625051819.548
1526665.0,1625051819.588
1526969.0,1625051819.63
1527638.0,1625051819.669
1528243.0,1625051819.71
1528544.0,1625051819.751
1529411.0,1625051819.788
1530253.0,1625051819.828
1530180.0,1625051819.869
1529041.0,1625051819.909
1527871.0,1625051819.949
1527144.0,1625051819.99
1526795.0,1625051820.029
1526691.0,1625051820.069
1527254.0,1625051820.112
1527170.0,1625051820.148
1527282.0,1625051820.188
1527204.0,1625051820.229
1527537.0,1625051820.269
1528108.0,1625051820.31
1528627.0,1625051820.35
1529134.0,1625051820.389
1529588.0,1625051820.43
1530408.0,1625051820.471
1531054.0,1625051820.509
1531169.0,1625051820.548
1530265.0,1625051820.589
1529278.0,1625051820.628
1528739.0,1625051820.668
1528158.0,1625051820.711
1528270.0,1625051820.749
1528723.0,1625051820.789
1528847.0,1625051820.831
1528664.0,1625051820.87
1528873.0,1625051820.911
1528947.0,1625051820.949
1529544.0,1625051820.988
1530009.0,1625051821.029
1530459.0,1625051821.07
1531170.0,1625051821.11
1531863.0,1625051821.149
1532659.0,1625051821.191
1533059.0,1625051821.23
1532933.0,1625051821.27
1531668.0,1625051821.31
1531082.0,1625051821.349
1530438.0,1625051821.389
1530503.0,1625051821.43
1530612.0,1625051821.469
1530927.0,1625051821.51
1530845.0,1625051821.551
1531099.0,1625051821.59
1531282.0,1625051821.63
1531722.0,1625051821.67
1532262.0,1625051821.71
1532953.0,1625051821.749
1533635.0,1625051821.791
1534448.0,1625051821.83
1535192.0,1625051821.87
1535910.0,1625051821.912
1536575.0,1625051821.95
1535754.0,1625051821.989
1535268.0,1625051822.03
1534882.0,1625051822.069
1534623.0,1625051822.11
1535265.0,1625051822.151
1535475.0,1625051822.19
1535759.0,1625051822.23
1536391.0,1625051822.272
1536565.0,1625051822.312
1536880.0,1625051822.349
1537673.0,1625051822.39
1538436.0,1625051822.429
1539061.0,1625051822.47
1539986.0,1625051822.512
1540815.0,1625051822.55
1541643.0,1625051822.59
1541606.0,1625051822.632
1540717.0,1625051822.671
1539896.0,1625051822.71
1539263.0,1625051822.75
1539231.0,1625051822.789
1539303.0,1625051822.83
1539611.0,1625051822.871
1539807.0,1625051822.911
1540005.0,1625051822.951
1540251.0,1625051822.992
1540321.0,1625051823.031
1540637.0,1625051823.068
1540897.0,1625051823.11
1540941.0,1625051823.148
1541339.0,1625051823.188
1541472.0,1625051823.229
1541655.0,1625051823.268
1540882.0,1625051823.309
1539471.0,1625051823.35
1538109.0,1625051823.389
1537181.0,1625051823.429
1536531.0,1625051823.47
1536243.0,1625051823.51
1536539.0,1625051823.549
1536316.0,1625051823.59
1536541.0,1625051823.629
1536572.0,1625051823.669
1536764.0,1625051823.711
1537281.0,1625051823.749
1537948.0,1625051823.789
1538460.0,1625051823.831
1539163.0,1625051823.87
1540085.0,1625051823.91
1540332.0,1625051823.951
1539545.0,1625051823.99
1538512.0,1625051824.03
1538003.0,1625051824.071
1537601.0,1625051824.111
1537649.0,1625051824.15
1538082.0,1625051824.191
1538152.0,1625051824.23
1538276.0,1625051824.27
1537958.0,1625051824.312
1538184.0,1625051824.35
1538436.0,1625051824.39
1538609.0,1625051824.431
1539219.0,1625051824.471
1539522.0,1625051824.511
1539990.0,1625051824.552
1539701.0,1625051824.591
1538417.0,1625051824.631
1537024.0,1625051824.672
1535732.0,1625051824.712
1535182.0,1625051824.751
1534884.0,1625051824.792
1534828.0,1625051824.831
1534892.0,1625051824.871
1534661.0,1625051824.913
1534439.0,1625051824.951
1534534.0,1625051824.991
1534700.0,1625051825.032
1534824.0,1625051825.071
1535156.0,1625051825.112
1535563.0,1625051825.153
1535232.0,1625051825.192
1533750.0,1625051825.232
1532265.0,1625051825.273
1530967.0,1625051825.313
1530089.0,1625051825.35
1529665.0,1625051825.392
1529871.0,1625051825.431
1529643.0,1625051825.471
1529589.0,1625051825.513
1529653.0,1625051825.551
1529601.0,1625051825.592
1530067.0,1625051825.633
1530522.0,1625051825.672
1531300.0,1625051825.715
1532015.0,1625051825.751
1532183.0,1625051825.79
1530382.0,1625051825.83
1528737.0,1625051825.872
1527036.0,1625051825.912
1525987.0,1625051825.951
1525234.0,1625051825.993
1524922.0,1625051826.032
1524597.0,1625051826.072
1524289.0,1625051826.114
1524264.0,1625051826.152
1524036.0,1625051826.191
1524253.0,1625051826.232
1524715.0,1625051826.271
1525455.0,1625051826.312
1526168.0,1625051826.353
1526841.0,1625051826.392
1526907.0,1625051826.432
1525229.0,1625051826.474
1523329.0,1625051826.513
1522307.0,1625051826.551
1521260.0,1625051826.592
1520745.0,1625051826.631
1520401.0,1625051826.672
1520128.0,1625051826.714
1519744.0,1625051826.752
1519359.0,1625051826.792
1519128.0,1625051826.834
1519350.0,1625051826.871
1519547.0,1625051826.912
1519559.0,1625051826.953
1520112.0,1625051826.992
1520581.0,1625051827.032
1521363.0,1625051827.073
1521953.0,1625051827.113
1521898.0,1625051827.153
1520435.0,1625051827.194
1519224.0,1625051827.231
1517869.0,1625051827.271
1517078.0,1625051827.313
1517008.0,1625051827.352
1517449.0,1625051827.392
1517392.0,1625051827.433
1517298.0,1625051827.472
1517205.0,1625051827.517
1517415.0,1625051827.557
1518134.0,1625051827.596
1519090.0,1625051827.636
1520112.0,1625051827.677
1521098.0,1625051827.717
1521856.0,1625051827.756
1523028.0,1625051827.797
1524150.0,1625051827.836
1525270.0,1625051827.877
1525461.0,1625051827.918
1524521.0,1625051827.957
1523404.0,1625051827.995
1523303.0,1625051828.037
1523286.0,1625051828.076
1524048.0,1625051828.117
1524716.0,1625051828.158
1525353.0,1625051828.197
1525631.0,1625051828.237
1526003.0,1625051828.275
1526678.0,1625051828.314
1527444.0,1625051828.354
1528487.0,1625051828.396
1529173.0,1625051828.435
1530426.0,1625051828.475
1531607.0,1625051828.518
1532693.0,1625051828.556
1533708.0,1625051828.596
1534693.0,1625051828.638
1534210.0,1625051828.677
1533499.0,1625051828.718
1533095.0,1625051828.759
1533033.0,1625051828.798
1533381.0,1625051828.836
1534036.0,1625051828.877
1534869.0,1625051828.917
1535414.0,1625051828.957
1536081.0,1625051828.998
1536604.0,1625051829.037
1537539.0,1625051829.077
1538667.0,1625051829.12
1539842.0,1625051829.158
1540896.0,1625051829.196
1542151.0,1625051829.237
1543422.0,1625051829.276
1544208.0,1625051829.318
1543980.0,1625051829.358
1543380.0,1625051829.397
1543185.0,1625051829.438
1543284.0,1625051829.479
1543800.0,1625051829.519
1544995.0,1625051829.556
1545699.0,1625051829.598
1546497.0,1625051829.637
1547091.0,1625051829.677
1548299.0,1625051829.758
1547506.0,1625051829.719
1550052.0,1625051829.839
1550921.0,1625051829.876
1549220.0,1625051829.798
1552988.0,1625051829.958
1552052.0,1625051829.917
1552693.0,1625051830.037
1553392.0,1625051829.997
1550491.0,1625051830.119
1551327.0,1625051830.079
1550249.0,1625051830.158
1550128.0,1625051830.199
1550637.0,1625051830.236
1551047.0,1625051830.277
1551144.0,1625051830.319
1551297.0,1625051830.357
1551503.0,1625051830.397
1551924.0,1625051830.439
1552369.0,1625051830.478
1553107.0,1625051830.519
1553591.0,1625051830.56
1554290.0,1625051830.597
1554795.0,1625051830.637
1554758.0,1625051830.678
1553558.0,1625051830.718
1552257.0,1625051830.758
1551526.0,1625051830.799
1551069.0,1625051830.835
1551114.0,1625051830.876
1551011.0,1625051830.918
1551076.0,1625051830.956
1551053.0,1625051830.997
1551064.0,1625051831.038
1551019.0,1625051831.077
1551292.0,1625051831.118
1551748.0,1625051831.159
1552274.0,1625051831.198
1552818.0,1625051831.238
1553393.0,1625051831.28
1554004.0,1625051831.319
1553709.0,1625051831.357
1552453.0,1625051831.398
1551468.0,1625051831.437
1550920.0,1625051831.478
1550725.0,1625051831.52
1551200.0,1625051831.558
1551450.0,1625051831.598
1551706.0,1625051831.64
1551853.0,1625051831.679
1551990.0,1625051831.718
1552194.0,1625051831.759
1552745.0,1625051831.798
1553340.0,1625051831.838
1554216.0,1625051831.879
1554811.0,1625051831.919
1555264.0,1625051831.959
1555149.0,1625051832.0
1554125.0,1625051832.039
1553318.0,1625051832.077
1552813.0,1625051832.119
1552833.0,1625051832.158
1553111.0,1625051832.198
1553553.0,1625051832.239
1553878.0,1625051832.279
1553681.0,1625051832.32
1554102.0,1625051832.36
1554364.0,1625051832.399
1554896.0,1625051832.437
1555454.0,1625051832.479
1556280.0,1625051832.519
1556863.0,1625051832.558
1557380.0,1625051832.6
1556654.0,1625051832.639
1555173.0,1625051832.679
1554389.0,1625051832.721
1553984.0,1625051832.758
1553938.0,1625051832.798
1554157.0,1625051832.839
1554234.0,1625051832.878
1554365.0,1625051832.919
1554267.0,1625051832.96
1554465.0,1625051832.999
1554940.0,1625051833.039
1555584.0,1625051833.081
1555860.0,1625051833.118
1556782.0,1625051833.158
1557494.0,1625051833.199
1557007.0,1625051833.238
1555876.0,1625051833.279
1554376.0,1625051833.321
1553582.0,1625051833.359
1552920.0,1625051833.396
1553007.0,1625051833.437
1553174.0,1625051833.476
1553364.0,1625051833.518
1553062.0,1625051833.559
1553133.0,1625051833.598
1553265.0,1625051833.638
1553337.0,1625051833.679
1553659.0,1625051833.719
1553863.0,1625051833.759
1554644.0,1625051833.8
1554792.0,1625051833.839
1553228.0,1625051833.88
1551363.0,1625051833.922
1549851.0,1625051833.958
1548256.0,1625051833.998
1547611.0,1625051834.04
1547293.0,1625051834.079
1546937.0,1625051834.12
1546602.0,1625051834.161
1546101.0,1625051834.2
1545831.0,1625051834.24
1545909.0,1625051834.281
1546047.0,1625051834.319
1546232.0,1625051834.359
1546498.0,1625051834.4
1546815.0,1625051834.439
1546985.0,1625051834.479
1545695.0,1625051834.521
1543870.0,1625051834.56
1542222.0,1625051834.6
1540692.0,1625051834.641
1539874.0,1625051834.678
1539714.0,1625051834.72
1539501.0,1625051834.76
1539142.0,1625051834.799
1538689.0,1625051834.84
1538542.0,1625051834.881
1538412.0,1625051834.921
1538771.0,1625051834.96
1538992.0,1625051835.0
1539368.0,1625051835.039
1539496.0,1625051835.079
1540239.0,1625051835.121
1540787.0,1625051835.16
1540537.0,1625051835.2
1538840.0,1625051835.241
1537806.0,1625051835.28
1536566.0,1625051835.321
1536142.0,1625051835.36
1536422.0,1625051835.399
1536606.0,1625051835.439
1536705.0,1625051835.481
1536696.0,1625051835.52
1536572.0,1625051835.56
1536915.0,1625051835.601
1537624.0,1625051835.64
1538013.0,1625051835.681
1538961.0,1625051835.721
1539616.0,1625051835.759
1540413.0,1625051835.799
1541565.0,1625051835.841
1542286.0,1625051835.88
1542185.0,1625051835.921
1541134.0,1625051835.958
1540398.0,1625051835.998
1539945.0,1625051836.038
1540025.0,1625051836.08
1540244.0,1625051836.12
1540523.0,1625051836.159
1540708.0,1625051836.201
1540739.0,1625051836.24
1540916.0,1625051836.28
1541305.0,1625051836.322
1541651.0,1625051836.36
1542181.0,1625051836.401
1542743.0,1625051836.442
1543435.0,1625051836.481
1544272.0,1625051836.52
1544716.0,1625051836.561
1544750.0,1625051836.6
1543431.0,1625051836.64
1542146.0,1625051836.681
1541347.0,1625051836.721
1541047.0,1625051836.761
1541015.0,1625051836.802
1541397.0,1625051836.839
1541535.0,1625051836.88
1541597.0,1625051836.922
1541676.0,1625051836.96
1542150.0,1625051837.0
1542447.0,1625051837.042
1543294.0,1625051837.081
1544064.0,1625051837.122
1544564.0,1625051837.163
1545417.0,1625051837.2
1546094.0,1625051837.24
1545617.0,1625051837.281
1544468.0,1625051837.321
1543392.0,1625051837.361
1542537.0,1625051837.402
1542049.0,1625051837.441
1542284.0,1625051837.481
1542201.0,1625051837.523
1542512.0,1625051837.56
1542311.0,1625051837.6
1542373.0,1625051837.641
1542612.0,1625051837.68
1543158.0,1625051837.722
1543650.0,1625051837.762
1544188.0,1625051837.801
1544733.0,1625051837.842
1545399.0,1625051837.881
1546139.0,1625051837.921
1546093.0,1625051837.96
1545111.0,1625051838.002
1544083.0,1625051838.041
1543780.0,1625051838.081
1543801.0,1625051838.123
1544218.0,1625051838.162
1544651.0,1625051838.202
1545108.0,1625051838.241
1545324.0,1625051838.28
1545635.0,1625051838.321
1546026.0,1625051838.362
1546818.0,1625051838.401
1547669.0,1625051838.441
1548478.0,1625051838.482
1549333.0,1625051838.519
1550141.0,1625051838.558
1550990.0,1625051838.599
1550701.0,1625051838.638
1549672.0,1625051838.679
1549083.0,1625051838.722
1548909.0,1625051838.76
1549073.0,1625051838.8
1549493.0,1625051838.842
1549961.0,1625051838.881
1549687.0,1625051838.922
1549914.0,1625051838.963
1550493.0,1625051839.042
1550095.0,1625051839.002
1551006.0,1625051839.083
1551812.0,1625051839.161
1551515.0,1625051839.123
1552291.0,1625051839.202
1552916.0,1625051839.241
1551750.0,1625051839.323
1553072.0,1625051839.281
1549509.0,1625051839.402
1550344.0,1625051839.362
1548826.0,1625051839.482
1549152.0,1625051839.443
1549167.0,1625051839.52
1548989.0,1625051839.56
1548880.0,1625051839.599
1548971.0,1625051839.639
1548930.0,1625051839.68
1549233.0,1625051839.72
1549890.0,1625051839.759
1550597.0,1625051839.8
1551019.0,1625051839.839
1551843.0,1625051839.88
1552143.0,1625051839.921
1551530.0,1625051839.96
1550362.0,1625051840.001
1549549.0,1625051840.042
1549190.0,1625051840.081
1549385.0,1625051840.122
1549490.0,1625051840.163
1549583.0,1625051840.202
1550033.0,1625051840.24
1550128.0,1625051840.281
1550299.0,1625051840.321
1550474.0,1625051840.361
1551214.0,1625051840.402
1551821.0,1625051840.441
1552404.0,1625051840.481
1553423.0,1625051840.524
1553789.0,1625051840.562
1552945.0,1625051840.6
1551760.0,1625051840.642
1551148.0,1625051840.681
1550475.0,1625051840.722
1550534.0,1625051840.763
1550923.0,1625051840.802
1550985.0,1625051840.842
1550890.0,1625051840.883
1550862.0,1625051840.921
1551146.0,1625051840.961
1551303.0,1625051841.002
1551772.0,1625051841.041
1552124.0,1625051841.08
1552618.0,1625051841.122
1553340.0,1625051841.158
1553465.0,1625051841.2
1552046.0,1625051841.241
1550421.0,1625051841.28
1549008.0,1625051841.321
1547939.0,1625051841.362
1547511.0,1625051841.401
1547289.0,1625051841.441
1546880.0,1625051841.483
1546815.0,1625051841.522
1546541.0,1625051841.562
1546352.0,1625051841.603
1546386.0,1625051841.642
1546591.0,1625051841.681
1546825.0,1625051841.723
1546968.0,1625051841.761
1547454.0,1625051841.802
1547589.0,1625051841.843
1546251.0,1625051841.882
1544692.0,1625051841.923
1543193.0,1625051841.964
1542350.0,1625051842.001
1541805.0,1625051842.041
1541938.0,1625051842.082
1541903.0,1625051842.122
1541663.0,1625051842.156
1541504.0,1625051842.197
1541402.0,1625051842.236
1541561.0,1625051842.276
1542158.0,1625051842.318
1542671.0,1625051842.356
1543234.0,1625051842.396
1543748.0,1625051842.438
1544165.0,1625051842.477
1543029.0,1625051842.517
1541843.0,1625051842.558
1540917.0,1625051842.597
1540494.0,1625051842.637
1540434.0,1625051842.678
1540821.0,1625051842.718
1540910.0,1625051842.757
1541071.0,1625051842.798
1541037.0,1625051842.837
1541459.0,1625051842.878
1541603.0,1625051842.92
1542413.0,1625051842.959
1542848.0,1625051842.999
1543619.0,1625051843.041
1544219.0,1625051843.08
1544147.0,1625051843.121
1542733.0,1625051843.162
1541664.0,1625051843.201
1541005.0,1625051843.242
1540688.0,1625051843.283
1540927.0,1625051843.323
1541189.0,1625051843.362
1541277.0,1625051843.404
1541135.0,1625051843.443
1541403.0,1625051843.483
1541353.0,1625051843.525
1541717.0,1625051843.561
1542423.0,1625051843.602
1543001.0,1625051843.642
1543564.0,1625051843.682
1544191.0,1625051843.723
1543262.0,1625051843.764
1541917.0,1625051843.803
1540728.0,1625051843.843
1539997.0,1625051843.885
1539626.0,1625051843.922
1539869.0,1625051843.962
1539728.0,1625051844.003
1539685.0,1625051844.042
1539319.0,1625051844.083
1539252.0,1625051844.125
1539401.0,1625051844.163
1539573.0,1625051844.203
1539880.0,1625051844.245
1540361.0,1625051844.282
1540461.0,1625051844.323
1539204.0,1625051844.364
1537682.0,1625051844.403
1536279.0,1625051844.443
1535305.0,1625051844.484
1534705.0,1625051844.524
1534671.0,1625051844.564
1534560.0,1625051844.605
1534490.0,1625051844.642
1534500.0,1625051844.682
1534432.0,1625051844.725
1534792.0,1625051844.763
1535042.0,1625051844.803
1535605.0,1625051844.844
1536044.0,1625051844.884
1535983.0,1625051844.925
1534647.0,1625051844.963
1533023.0,1625051845.002
1531432.0,1625051845.043
1530533.0,1625051845.084
1530213.0,1625051845.124
1529901.0,1625051845.163
1529942.0,1625051845.205
1529954.0,1625051845.244
1529681.0,1625051845.284
1529870.0,1625051845.324
1530114.0,1625051845.363
1530164.0,1625051845.403
1530626.0,1625051845.444
1531141.0,1625051845.483
1530410.0,1625051845.524
1528859.0,1625051845.565
1527464.0,1625051845.604
1526641.0,1625051845.644
1525852.0,1625051845.684
1526271.0,1625051845.724
1526614.0,1625051845.763
1526954.0,1625051845.805
1527016.0,1625051845.844
1527060.0,1625051845.884
1527483.0,1625051845.926
1528108.0,1625051845.964
1528959.0,1625051846.003
1529829.0,1625051846.044
1530768.0,1625051846.083
1530816.0,1625051846.124
1530216.0,1625051846.164
1529335.0,1625051846.201
1529131.0,1625051846.241
1529385.0,1625051846.283
1530274.0,1625051846.323
1530443.0,1625051846.362
1531073.0,1625051846.404
1531476.0,1625051846.443
1532178.0,1625051846.483
1533026.0,1625051846.525
1534207.0,1625051846.564
1535217.0,1625051846.604
1536044.0,1625051846.645
1536879.0,1625051846.684
1536531.0,1625051846.726
1535657.0,1625051846.764
1534573.0,1625051846.803
1534190.0,1625051846.843
1533981.0,1625051846.885
1534476.0,1625051846.925
1534532.0,1625051846.964
1534969.0,1625051847.006
1535114.0,1625051847.045
1535415.0,1625051847.085
1535890.0,1625051847.125
1536479.0,1625051847.163
1537107.0,1625051847.204
1537691.0,1625051847.245
1538423.0,1625051847.284
1538063.0,1625051847.325
1536705.0,1625051847.366
1535466.0,1625051847.405
1534492.0,1625051847.445
1534294.0,1625051847.485
1534446.0,1625051847.524
1535081.0,1625051847.564
1535688.0,1625051847.605
1536354.0,1625051847.644
1536605.0,1625051847.685
1537386.0,1625051847.727
1538320.0,1625051847.765
1539374.0,1625051847.803
1540166.0,1625051847.845
1541122.0,1625051847.884
1542222.0,1625051847.925
1541772.0,1625051847.966
1541184.0,1625051848.005
1540493.0,1625051848.045
1540055.0,1625051848.086
1540665.0,1625051848.126
1541748.0,1625051848.164
1542592.0,1625051848.205
1543008.0,1625051848.244
1543717.0,1625051848.284
1544359.0,1625051848.327
1545083.0,1625051848.365
1546441.0,1625051848.405
1547428.0,1625051848.446
1547971.0,1625051848.486
1548994.0,1625051848.525
1549830.0,1625051848.565
1549090.0,1625051848.604
1547978.0,1625051848.644
1547253.0,1625051848.686
1546908.0,1625051848.725
1547381.0,1625051848.762
1547896.0,1625051848.804
1548511.0,1625051848.843
1548965.0,1625051848.884
1549645.0,1625051848.926
1550243.0,1625051848.964
1551136.0,1625051849.004
1552335.0,1625051849.046
1553291.0,1625051849.085
1554398.0,1625051849.126
1555551.0,1625051849.167
1555582.0,1625051849.206
1554268.0,1625051849.246
1553357.0,1625051849.285
1552723.0,1625051849.325
1552519.0,1625051849.365
1552820.0,1625051849.406
1553150.0,1625051849.445
1553391.0,1625051849.485
1553750.0,1625051849.528
1553978.0,1625051849.566
1554795.0,1625051849.606
1554964.0,1625051849.645
1555194.0,1625051849.685
1555835.0,1625051849.726
1555675.0,1625051849.766
1555539.0,1625051849.805
1553516.0,1625051849.846
1551219.0,1625051849.887
1550226.0,1625051849.927
1550144.0,1625051849.964
1551099.0,1625051850.006
1552432.0,1625051850.045
1554007.0,1625051850.085
1554600.0,1625051850.127
1554576.0,1625051850.166
1554202.0,1625051850.206
1554327.0,1625051850.247
1554620.0,1625051850.286
1555153.0,1625051850.325
1555972.0,1625051850.366
1556455.0,1625051850.405
1557033.0,1625051850.445
1556002.0,1625051850.487
1554723.0,1625051850.527
1553487.0,1625051850.566
1552981.0,1625051850.607
1553093.0,1625051850.647
1553440.0,1625051850.685
1553832.0,1625051850.727
1553971.0,1625051850.765
1553822.0,1625051850.806
1552605.0,1625051850.847
1551448.0,1625051850.886
1550254.0,1625051850.927
1549953.0,1625051850.968
1550410.0,1625051851.005
1550168.0,1625051851.045
1549937.0,1625051851.087
1549049.0,1625051851.126
1548003.0,1625051851.166
1547385.0,1625051851.207
1547674.0,1625051851.246
1548071.0,1625051851.286
1548271.0,1625051851.325
1548605.0,1625051851.363
1548848.0,1625051851.404
1548955.0,1625051851.446
1549480.0,1625051851.485
1550113.0,1625051851.515
1551021.0,1625051851.555
1552295.0,1625051851.594
1553067.0,1625051851.634
1553259.0,1625051851.676
1552171.0,1625051851.715
1550892.0,1625051851.755
1549644.0,1625051851.796
1549049.0,1625051851.835
1548677.0,1625051851.875
1548488.0,1625051851.917
1548100.0,1625051851.955
1547989.0,1625051851.996
1548546.0,1625051852.037
1549278.0,1625051852.077
1550111.0,1625051852.118
1551003.0,1625051852.159
1551459.0,1625051852.198
1551971.0,1625051852.238
1552507.0,1625051852.279
1552661.0,1625051852.319
1551348.0,1625051852.359
1550140.0,1625051852.4
1549294.0,1625051852.439
1548831.0,1625051852.479
1548867.0,1625051852.52
1549349.0,1625051852.558
1549740.0,1625051852.598
1550447.0,1625051852.639
1550928.0,1625051852.679
1551218.0,1625051852.72
1551959.0,1625051852.761
1552793.0,1625051852.799
1553320.0,1625051852.838
1554168.0,1625051852.879
1554765.0,1625051852.919
1553553.0,1625051852.959
1551732.0,1625051853.0
1550329.0,1625051853.039
1549691.0,1625051853.079
1549805.0,1625051853.121
1550278.0,1625051853.16
1550615.0,1625051853.198
1550985.0,1625051853.239
1550901.0,1625051853.278
1551162.0,1625051853.319
1551658.0,1625051853.36
1552069.0,1625051853.399
1552658.0,1625051853.439
1553761.0,1625051853.481
1554263.0,1625051853.521
1553445.0,1625051853.558
1552182.0,1625051853.599
1551280.0,1625051853.639
1551215.0,1625051853.679
1551950.0,1625051853.721
1552986.0,1625051853.759
1553593.0,1625051853.8
1554127.0,1625051853.845
1554666.0,1625051853.877
1555237.0,1625051853.919
1556054.0,1625051853.959
1556655.0,1625051853.998
1558068.0,1625051854.038
1558935.0,1625051854.08
1559379.0,1625051854.12
1558529.0,1625051854.159
1557178.0,1625051854.201
1556276.0,1625051854.24
1555686.0,1625051854.28
1556003.0,1625051854.322
1556704.0,1625051854.358
1557218.0,1625051854.399
1557499.0,1625051854.44
1557584.0,1625051854.479
1557976.0,1625051854.52
1558544.0,1625051854.561
1559291.0,1625051854.6
1559846.0,1625051854.64
1560763.0,1625051854.682
1561238.0,1625051854.719
1560498.0,1625051854.759
1559192.0,1625051854.8
1557911.0,1625051854.839
1557711.0,1625051854.88
1558224.0,1625051854.922
1558866.0,1625051854.96
1559538.0,1625051855.0
1559617.0,1625051855.042
1560031.0,1625051855.079
1560371.0,1625051855.12
1560948.0,1625051855.16
1561459.0,1625051855.199
1562453.0,1625051855.24
1563540.0,1625051855.281
1564736.0,1625051855.321
1564867.0,1625051855.361
1564176.0,1625051855.402
1563210.0,1625051855.439
1562391.0,1625051855.479
1562577.0,1625051855.521
1563293.0,1625051855.559
1563977.0,1625051855.6
1564409.0,1625051855.641
1564537.0,1625051855.68
1564891.0,1625051855.721
1565133.0,1625051855.762
1565703.0,1625051855.799
1566464.0,1625051855.839
1567200.0,1625051855.881
1567968.0,1625051855.92
1568287.0,1625051855.96
1566919.0,1625051856.001
1565441.0,1625051856.04
1564215.0,1625051856.081
1563554.0,1625051856.123
1563701.0,1625051856.159
1564048.0,1625051856.199
1563997.0,1625051856.241
1563934.0,1625051856.28
1564148.0,1625051856.321
1564061.0,1625051856.362
1564642.0,1625051856.4
1564877.0,1625051856.437
1565537.0,1625051856.478
1566164.0,1625051856.519
1566491.0,1625051856.559
1567007.0,1625051856.6
1565671.0,1625051856.639
1564027.0,1625051856.68
1562862.0,1625051856.722
1562608.0,1625051856.76
1562722.0,1625051856.801
1563294.0,1625051856.842
1563708.0,1625051856.881
1563934.0,1625051856.922
1564213.0,1625051856.961
1564603.0,1625051857.0
1565199.0,1625051857.04
1566186.0,1625051857.082
1566767.0,1625051857.121
1567899.0,1625051857.161
1568680.0,1625051857.202
1569050.0,1625051857.241
1567816.0,1625051857.282
1566484.0,1625051857.322
1565185.0,1625051857.36
1564514.0,1625051857.4
1564688.0,1625051857.442
1564955.0,1625051857.481
1564974.0,1625051857.522
1564781.0,1625051857.562
1564545.0,1625051857.601
1564696.0,1625051857.642
1565008.0,1625051857.681
1565226.0,1625051857.721
1565613.0,1625051857.761
1566149.0,1625051857.802
1566601.0,1625051857.841
1566703.0,1625051857.881
1565761.0,1625051857.924
1563948.0,1625051857.962
1562428.0,1625051858.0
1561130.0,1625051858.041
1560709.0,1625051858.081
1560798.0,1625051858.122
1560675.0,1625051858.162
1560378.0,1625051858.201
1560204.0,1625051858.242
1560014.0,1625051858.283
1560025.0,1625051858.323
1559985.0,1625051858.36
1560563.0,1625051858.402
1560999.0,1625051858.441
1561081.0,1625051858.481
1561578.0,1625051858.523
1561918.0,1625051858.561
1560676.0,1625051858.602
1559016.0,1625051858.643
1558032.0,1625051858.682
1557358.0,1625051858.721
1557548.0,1625051858.762
1557881.0,1625051858.801
1558149.0,1625051858.841
1558013.0,1625051858.883
1558071.0,1625051858.922
1558271.0,1625051858.963
1558538.0,1625051859.0
1559054.0,1625051859.039
1559560.0,1625051859.079
1559885.0,1625051859.122
1560591.0,1625051859.16
1560674.0,1625051859.201
1559313.0,1625051859.242
1557429.0,1625051859.281
1556037.0,1625051859.322
1554979.0,1625051859.363
1554601.0,1625051859.402
1554796.0,1625051859.442
1554738.0,1625051859.484
1554370.0,1625051859.523
1553964.0,1625051859.561
1553751.0,1625051859.602
1553984.0,1625051859.641
1553973.0,1625051859.682
1554207.0,1625051859.724
1554448.0,1625051859.762
1554855.0,1625051859.802
1554987.0,1625051859.844
1554164.0,1625051859.881
1552107.0,1625051859.922
1550335.0,1625051859.963
1549343.0,1625051860.002
1548606.0,1625051860.042
1548820.0,1625051860.083
1548888.0,1625051860.123
1548695.0,1625051860.163
1548218.0,1625051860.204
1548291.0,1625051860.241
1548066.0,1625051860.281
1548103.0,1625051860.323
1548475.0,1625051860.362
1549015.0,1625051860.402
1549521.0,1625051860.443
1550233.0,1625051860.482
1550116.0,1625051860.523
1548595.0,1625051860.564
1547167.0,1625051860.601
1546102.0,1625051860.641
1545584.0,1625051860.683
1545723.0,1625051860.723
1546247.0,1625051860.762
1546234.0,1625051860.804
1546179.0,1625051860.843
1546264.0,1625051860.883
1546273.0,1625051860.923
1546666.0,1625051860.962
1547335.0,1625051861.002
1547580.0,1625051861.043
1548177.0,1625051861.082
1549197.0,1625051861.118
1548974.0,1625051861.159
1547674.0,1625051861.198
1546319.0,1625051861.238
1545125.0,1625051861.279
1544652.0,1625051861.319
1544938.0,1625051861.358
1545105.0,1625051861.399
1545253.0,1625051861.438
1545367.0,1625051861.478
1545244.0,1625051861.52
1545376.0,1625051861.559
1545551.0,1625051861.599
1545815.0,1625051861.64
1546257.0,1625051861.679
1546818.0,1625051861.72
1547322.0,1625051861.76
1547776.0,1625051861.792
1546614.0,1625051861.825
1544675.0,1625051861.865
1543417.0,1625051861.904
1542168.0,1625051861.941
1541830.0,1625051861.982
1541579.0,1625051862.021
1541898.0,1625051862.061
1541537.0,1625051862.103
1541422.0,1625051862.142
1541245.0,1625051862.182
1541576.0,1625051862.223
1541685.0,1625051862.262
1542068.0,1625051862.303
1542240.0,1625051862.344
1542897.0,1625051862.383
1543352.0,1625051862.421
1543711.0,1625051862.463
1542426.0,1625051862.502
1540843.0,1625051862.542
1539403.0,1625051862.583
1538357.0,1625051862.622
1538281.0,1625051862.663
1538307.0,1625051862.705
1538317.0,1625051862.743
1538060.0,1625051862.781
1537844.0,1625051862.823
1537534.0,1625051862.862
1537655.0,1625051862.903
1538167.0,1625051862.943
1538639.0,1625051862.983
1538898.0,1625051863.023
1539569.0,1625051863.063
1540101.0,1625051863.103
1540854.0,1625051863.143
1540995.0,1625051863.183
1539797.0,1625051863.222
1538818.0,1625051863.263
1537807.0,1625051863.305
1537703.0,1625051863.343
1537965.0,1625051863.383
1538551.0,1625051863.423
1538891.0,1625051863.462
1538887.0,1625051863.501
1539177.0,1625051863.54
1539814.0,1625051863.579
1540402.0,1625051863.618
1540977.0,1625051863.657
1541795.0,1625051863.696
1542672.0,1625051863.735
1543628.0,1625051863.774
1544274.0,1625051863.813
1544966.0,1625051863.852
1543850.0,1625051863.891
1543153.0,1625051863.93
1542671.0,1625051863.969
1542618.0,1625051864.008
1542727.0,1625051864.047
1543441.0,1625051864.086
1544064.0,1625051864.125
1544263.0,1625051864.164
1544603.0,1625051864.203
1545115.0,1625051864.242
1545524.0,1625051864.281
1546115.0,1625051864.32
1546928.0,1625051864.359
1547731.0,1625051864.398
1548535.0,1625051864.437
1549227.0,1625051864.476
1549401.0,1625051864.515
1548332.0,1625051864.554
1546894.0,1625051864.593
1546436.0,1625051864.632
1546009.0,1625051864.671
1546166.0,1625051864.71
1546570.0,1625051864.749
1546704.0,1625051864.789
1546459.0,1625051864.829
1546684.0,1625051864.869
1546988.0,1625051864.909
1547427.0,1625051864.949
1547938.0,1625051864.989
1548517.0,1625051865.029
1549050.0,1625051865.069
1549676.0,1625051865.109
1549915.0,1625051865.149
1548544.0,1625051865.189
1547346.0,1625051865.229
1546665.0,1625051865.269
1545870.0,1625051865.309
1546178.0,1625051865.349
1546374.0,1625051865.389
1546523.0,1625051865.429
1546702.0,1625051865.469
1546758.0,1625051865.509
1546927.0,1625051865.549
1547312.0,1625051865.589
1547896.0,1625051865.629
1548479.0,1625051865.669
1548790.0,1625051865.709
1549510.0,1625051865.749
1549083.0,1625051865.789
1547706.0,1625051865.829
1546565.0,1625051865.869
1545675.0,1625051865.909
1545206.0,1625051865.949
1545510.0,1625051865.989
1545554.0,1625051866.029
1545637.0,1625051866.069
1545768.0,1625051866.109
1545587.0,1625051866.149
1545838.0,1625051866.189
1546445.0,1625051866.229
1546975.0,1625051866.269
1547428.0,1625051866.309
1547943.0,1625051866.349
1547383.0,1625051866.389
1545936.0,1625051866.429
1544496.0,1625051866.469
1543550.0,1625051866.509
1543478.0,1625051866.549
1543619.0,1625051866.589
1543564.0,1625051866.629
1543850.0,1625051866.669
1543759.0,1625051866.709
1543959.0,1625051866.749
1544070.0,1625051866.789
1544491.0,1625051866.829
1545127.0,1625051866.869
1545534.0,1625051866.909
1545636.0,1625051866.949
1544383.0,1625051866.989
1543033.0,1625051867.029
1541568.0,1625051867.069
1540989.0,1625051867.109
1540990.0,1625051867.149
1541171.0,1625051867.189
1541544.0,1625051867.229
1541405.0,1625051867.269
1541389.0,1625051867.309
1541372.0,1625051867.349
1541591.0,1625051867.389
1542158.0,1625051867.429
1542666.0,1625051867.469
1542907.0,1625051867.509
1542103.0,1625051867.549
1540678.0,1625051867.589
1539586.0,1625051867.629
1539186.0,1625051867.669
1539174.0,1625051867.709
1539496.0,1625051867.749
1539849.0,1625051867.789
1539683.0,1625051867.829
1539829.0,1625051867.869
1539983.0,1625051867.909
1540049.0,1625051867.949
1540464.0,1625051867.989
1541025.0,1625051868.029
1541164.0,1625051868.069
1539672.0,1625051868.109
1538046.0,1625051868.149
1536710.0,1625051868.189
1535738.0,1625051868.229
1535556.0,1625051868.269
1535465.0,1625051868.309
1535464.0,1625051868.349
1534959.0,1625051868.389
1535006.0,1625051868.429
1535125.0,1625051868.469
1535091.0,1625051868.509
1535581.0,1625051868.549
1535835.0,1625051868.589
1534845.0,1625051868.629
1533132.0,1625051868.669
1531713.0,1625051868.709
1530496.0,1625051868.749
1529994.0,1625051868.789
1529982.0,1625051868.829
1529692.0,1625051868.869
1529597.0,1625051868.909
1529277.0,1625051868.949
1529219.0,1625051868.989
1529097.0,1625051869.029
1529412.0,1625051869.069
1529864.0,1625051869.109
1529865.0,1625051869.149
1528622.0,1625051869.189
1526621.0,1625051869.229
1525490.0,1625051869.269
1524596.0,1625051869.309
1524302.0,1625051869.349
1524444.0,1625051869.389
1524490.0,1625051869.429
1524557.0,1625051869.469
1524540.0,1625051869.509
1524725.0,1625051869.549
1525181.0,1625051869.589
1526222.0,1625051869.629
1527094.0,1625051869.669
1527697.0,1625051869.709
1527553.0,1625051869.749
1526172.0,1625051869.789
1525226.0,1625051869.829
1524849.0,1625051869.869
1524997.0,1625051869.909
1525676.0,1625051869.949
1526234.0,1625051869.989
1526234.0,1625051870.029
1526748.0,1625051870.069
1526970.0,1625051870.109
1527509.0,1625051870.149
1528081.0,1625051870.189
1528749.0,1625051870.229
1529529.0,1625051870.269
1530680.0,1625051870.309
1531506.0,1625051870.349
1531737.0,1625051870.389
1530778.0,1625051870.429
1529747.0,1625051870.469
1529340.0,1625051870.509
1529411.0,1625051870.549
1530043.0,1625051870.589
1530819.0,1625051870.629
1531405.0,1625051870.669
1531617.0,1625051870.709
1532233.0,1625051870.749
1532635.0,1625051870.789
1533527.0,1625051870.829
1534162.0,1625051870.869
1534950.0,1625051870.909
1535745.0,1625051870.949
1536419.0,1625051870.989
1536597.0,1625051871.029
1535616.0,1625051871.069
1534233.0,1625051871.109
1533401.0,1625051871.149
1533231.0,1625051871.189
1533376.0,1625051871.229
1533981.0,1625051871.269
1534309.0,1625051871.309
1534500.0,1625051871.349
1534742.0,1625051871.389
1535147.0,1625051871.429
1535966.0,1625051871.469
1536755.0,1625051871.509
1537319.0,1625051871.549
1538324.0,1625051871.589
1539459.0,1625051871.629
1540173.0,1625051871.669
1539925.0,1625051871.709
1538880.0,1625051871.749
1538280.0,1625051871.789
1537999.0,1625051871.829
1538157.0,1625051871.869
1538669.0,1625051871.909
1539272.0,1625051871.949
1539554.0,1625051871.989
1539931.0,1625051872.029
1540073.0,1625051872.069
1540909.0,1625051872.109
1541638.0,1625051872.149
1542481.0,1625051872.189
1543376.0,1625051872.229
1544207.0,1625051872.269
1545150.0,1625051872.309
1545938.0,1625051872.349
1545725.0,1625051872.389
1544684.0,1625051872.429
1544200.0,1625051872.469
1544121.0,1625051872.509
1544715.0,1625051872.549
1545711.0,1625051872.589
1546274.0,1625051872.629
1546732.0,1625051872.669
1546907.0,1625051872.709
1547693.0,1625051872.749
1548409.0,1625051872.789
1549412.0,1625051872.829
1550068.0,1625051872.869
1551122.0,1625051872.909
1552133.0,1625051872.949
1552977.0,1625051872.989
1553843.0,1625051873.029
1553792.0,1625051873.069
1552927.0,1625051873.109
1552397.0,1625051873.149
1552445.0,1625051873.189
1552968.0,1625051873.229
1553723.0,1625051873.269
1554375.0,1625051873.309
1554812.0,1625051873.349
1555251.0,1625051873.389
1555800.0,1625051873.429
1556393.0,1625051873.469
1557120.0,1625051873.509
1557636.0,1625051873.549
1558240.0,1625051873.589
1559335.0,1625051873.629
1560171.0,1625051873.669
1560797.0,1625051873.709
1559939.0,1625051873.749
1558968.0,1625051873.789
1558329.0,1625051873.829
1557970.0,1625051873.869
1558151.0,1625051873.909
1558576.0,1625051873.949
1558650.0,1625051873.989
1558639.0,1625051874.029
1558697.0,1625051874.069
1558764.0,1625051874.109
1559027.0,1625051874.149
1559207.0,1625051874.189
1559470.0,1625051874.229
1559864.0,1625051874.269
1560293.0,1625051874.309
1560644.0,1625051874.349
1560473.0,1625051874.389
1558780.0,1625051874.429
1557236.0,1625051874.469
1556182.0,1625051874.509
1555651.0,1625051874.549
1555599.0,1625051874.589
1555333.0,1625051874.629
1555190.0,1625051874.669
1554789.0,1625051874.709
1554742.0,1625051874.749
1554404.0,1625051874.789
1554392.0,1625051874.829
1554687.0,1625051874.869
1554900.0,1625051874.909
1555187.0,1625051874.949
1555541.0,1625051874.989
1555734.0,1625051875.029
1554757.0,1625051875.069
1553212.0,1625051875.109
1551776.0,1625051875.149
1550534.0,1625051875.189
1550074.0,1625051875.229
1549853.0,1625051875.269
1549445.0,1625051875.309
1549309.0,1625051875.349
1548893.0,1625051875.389
1548755.0,1625051875.429
1548549.0,1625051875.471
1548675.0,1625051875.512
1548662.0,1625051875.551
1549061.0,1625051875.591
1549561.0,1625051875.632
1549788.0,1625051875.672
1549172.0,1625051875.711
1547648.0,1625051875.752
1546285.0,1625051875.791
1545157.0,1625051875.831
1544694.0,1625051875.873
1544742.0,1625051875.911
1544702.0,1625051875.951
1544357.0,1625051875.993
1544167.0,1625051876.032
1544002.0,1625051876.072
1544268.0,1625051876.113
1544376.0,1625051876.152
1544676.0,1625051876.192
1545038.0,1625051876.233
1545417.0,1625051876.273
1545982.0,1625051876.312
1545156.0,1625051876.353
1543546.0,1625051876.392
1541099.0,1625051876.474
1540799.0,1625051876.512
1541209.0,1625051876.552
1540859.0,1625051876.594
1542374.0,1625051876.432
1540662.0,1625051876.633
1540483.0,1625051876.673
1540588.0,1625051876.714
1540674.0,1625051876.753
1540452.0,1625051876.793
1540890.0,1625051876.834
1541462.0,1625051876.874
1541774.0,1625051876.913
1541900.0,1625051876.954
1540452.0,1625051876.993
1538741.0,1625051877.033
1537664.0,1625051877.075
1536889.0,1625051877.113
1536511.0,1625051877.153
1536446.0,1625051877.194
1536109.0,1625051877.233
1535950.0,1625051877.274
1535773.0,1625051877.315
1535644.0,1625051877.354
1535672.0,1625051877.394
1535740.0,1625051877.435
1536088.0,1625051877.474
1536429.0,1625051877.514
1537001.0,1625051877.555
1536510.0,1625051877.594
1535101.0,1625051877.634
1533419.0,1625051877.676
1531981.0,1625051877.714
1531412.0,1625051877.754
1530931.0,1625051877.834
1530880.0,1625051877.875
1530486.0,1625051877.915
1530142.0,1625051877.954
1531169.0,1625051877.795
1530238.0,1625051877.995
1530154.0,1625051878.036
1530421.0,1625051878.075
1530619.0,1625051878.115
1530998.0,1625051878.156
1531442.0,1625051878.195
1531415.0,1625051878.235
1529823.0,1625051878.277
1527917.0,1625051878.315
1526592.0,1625051878.355
1525720.0,1625051878.396
1524988.0,1625051878.435
1524932.0,1625051878.476
1524787.0,1625051878.516
1524399.0,1625051878.555
1523764.0,1625051878.595
1523931.0,1625051878.637
1523979.0,1625051878.676
1524063.0,1625051878.716
1524411.0,1625051878.757
1524819.0,1625051878.796
1525528.0,1625051878.836
1526137.0,1625051878.878
1526187.0,1625051878.916
1525033.0,1625051878.956
1523714.0,1625051878.997
1522530.0,1625051879.036
1521707.0,1625051879.077
1521331.0,1625051879.117
1521392.0,1625051879.156
1521377.0,1625051879.196
1521045.0,1625051879.238
1521140.0,1625051879.277
1521369.0,1625051879.317
1521718.0,1625051879.358
1522305.0,1625051879.397
1523188.0,1625051879.437
1523706.0,1625051879.479
1524619.0,1625051879.517
1525392.0,1625051879.557
1526293.0,1625051879.598
1527011.0,1625051879.637
1526421.0,1625051879.678
1525189.0,1625051879.718
1524571.0,1625051879.757
1524153.0,1625051879.797
1524323.0,1625051879.839
1524742.0,1625051879.878
1525036.0,1625051879.918
1525243.0,1625051879.959
1525453.0,1625051879.998
1526071.0,1625051880.038
1526575.0,1625051880.08
1527360.0,1625051880.118
1528215.0,1625051880.158
1528971.0,1625051880.199
1530052.0,1625051880.238
1530997.0,1625051880.279
1531842.0,1625051880.319
1531843.0,1625051880.358
1530946.0,1625051880.398
1529803.0,1625051880.44
1529815.0,1625051880.479
1529718.0,1625051880.519
1530175.0,1625051880.56
1530680.0,1625051880.599
1531043.0,1625051880.639
1531268.0,1625051880.681
1531726.0,1625051880.719
1531928.0,1625051880.759
1532808.0,1625051880.8
1533270.0,1625051880.839
1534132.0,1625051880.88
1534788.0,1625051880.92
1535745.0,1625051880.96
1536478.0,1625051881.0
1537181.0,1625051881.041
1536424.0,1625051881.08
1535191.0,1625051881.12
1534097.0,1625051881.161
1533452.0,1625051881.2
1532926.0,1625051881.24
1533259.0,1625051881.282
1533178.0,1625051881.32
1533407.0,1625051881.36
1533318.0,1625051881.401
1533600.0,1625051881.44
1534021.0,1625051881.481
1534557.0,1625051881.522
1535257.0,1625051881.561
1535763.0,1625051881.601
1536486.0,1625051881.642
1537526.0,1625051881.681
1538492.0,1625051881.721
1539360.0,1625051881.762
1539242.0,1625051881.801
1537988.0,1625051881.841
1537016.0,1625051881.883
1536020.0,1625051881.921
1536027.0,1625051881.961
1536122.0,1625051882.002
1536332.0,1625051882.041
1536269.0,1625051882.082
1536366.0,1625051882.123
1536557.0,1625051882.162
1536854.0,1625051882.202
1537352.0,1625051882.243
1538066.0,1625051882.283
1538836.0,1625051882.322
1539702.0,1625051882.363
1540279.0,1625051882.402
1541363.0,1625051882.442
1542252.0,1625051882.484
1543221.0,1625051882.522
1542943.0,1625051882.562
1541815.0,1625051882.604
1540839.0,1625051882.643
1540103.0,1625051882.683
1539710.0,1625051882.724
1539831.0,1625051882.763
1540040.0,1625051882.803
1539841.0,1625051882.844
1540046.0,1625051882.884
1540232.0,1625051882.923
1540462.0,1625051882.964
1540918.0,1625051883.003
1541591.0,1625051883.044
1542313.0,1625051883.085
1543073.0,1625051883.124
1544130.0,1625051883.164
1544723.0,1625051883.205
1545695.0,1625051883.244
1545662.0,1625051883.285
1544521.0,1625051883.325
1543636.0,1625051883.364
1543078.0,1625051883.404
1542833.0,1625051883.446
1543148.0,1625051883.485
1543284.0,1625051883.525
1543458.0,1625051883.566
1543384.0,1625051883.605
1543356.0,1625051883.645
1543991.0,1625051883.687
1544522.0,1625051883.725
1545049.0,1625051883.765
1545624.0,1625051883.806
1546565.0,1625051883.845
1547438.0,1625051883.886
1548255.0,1625051883.926
1548732.0,1625051883.966
1547998.0,1625051884.006
1546739.0,1625051884.047
1545864.0,1625051884.086
1545406.0,1625051884.126
1545013.0,1625051884.167
1545266.0,1625051884.206
1545344.0,1625051884.246
1545133.0,1625051884.288
1545037.0,1625051884.326
1545068.0,1625051884.366
1545307.0,1625051884.408
1545877.0,1625051884.447
1546171.0,1625051884.487
1546638.0,1625051884.528
1547469.0,1625051884.567
1548302.0,1625051884.607
1548881.0,1625051884.648
1548225.0,1625051884.688
1547119.0,1625051884.727
1545496.0,1625051884.768
1544663.0,1625051884.807
1543693.0,1625051884.848
1543638.0,1625051884.889
1543634.0,1625051884.928
1543284.0,1625051884.968
1542972.0,1625051885.009
1542698.0,1625051885.048
1542908.0,1625051885.089
1542899.0,1625051885.129
1543448.0,1625051885.168
1543514.0,1625051885.208
1543972.0,1625051885.249
1544540.0,1625051885.289
1544880.0,1625051885.329
1544212.0,1625051885.37
1542464.0,1625051885.409
1540791.0,1625051885.449
1539770.0,1625051885.491
1538791.0,1625051885.529
1538618.0,1625051885.569
1538190.0,1625051885.61
1537764.0,1625051885.649
1537257.0,1625051885.69
1537314.0,1625051885.731
1537041.0,1625051885.77
1537385.0,1625051885.81
1537529.0,1625051885.851
1537941.0,1625051885.891
1538165.0,1625051885.93
1538756.0,1625051885.971
1539336.0,1625051886.01
1537871.0,1625051886.05
1536207.0,1625051886.092
1534534.0,1625051886.131
1533129.0,1625051886.171
1532452.0,1625051886.212
1532054.0,1625051886.251
1531831.0,1625051886.292
1531378.0,1625051886.332
1530814.0,1625051886.371
1530676.0,1625051886.411
1530599.0,1625051886.452
1530733.0,1625051886.492
1531190.0,1625051886.531
1531550.0,1625051886.572
1532162.0,1625051886.611
1532414.0,1625051886.652
1531942.0,1625051886.693
1530139.0,1625051886.732
1528217.0,1625051886.772
1526866.0,1625051886.813
1525815.0,1625051886.852
1525314.0,1625051886.893
1525057.0,1625051886.933
1524637.0,1625051886.972
1524165.0,1625051887.012
1523968.0,1625051887.053
1523778.0,1625051887.093
1523965.0,1625051887.132
1524204.0,1625051887.173
1524430.0,1625051887.212
1525164.0,1625051887.252
1525714.0,1625051887.294
1525705.0,1625051887.332
1523958.0,1625051887.373
1522043.0,1625051887.414
1520321.0,1625051887.453
1519339.0,1625051887.538
1518995.0,1625051887.579
1518683.0,1625051887.618
1518117.0,1625051887.658
1517972.0,1625051887.699
1517583.0,1625051887.739
1517749.0,1625051887.778
1517842.0,1625051887.819
1518290.0,1625051887.858
1518606.0,1625051887.898
1519093.0,1625051887.94
1519964.0,1625051887.979
1520537.0,1625051888.019
1519599.0,1625051888.06
1518006.0,1625051888.099
1516206.0,1625051888.14
1515195.0,1625051888.18
1514493.0,1625051888.219
1514391.0,1625051888.259
1514209.0,1625051888.3
1514143.0,1625051888.34
1513799.0,1625051888.379
1513811.0,1625051888.42
1514108.0,1625051888.459
1514662.0,1625051888.5
1515347.0,1625051888.541
1515939.0,1625051888.58
1516847.0,1625051888.62
1517662.0,1625051888.661
1517407.0,1625051888.7
1515999.0,1625051888.741
1514583.0,1625051888.781
1513442.0,1625051888.82
1512779.0,1625051888.86
1512908.0,1625051888.901
1512926.0,1625051888.941
1513029.0,1625051888.98
1512974.0,1625051889.021
1513110.0,1625051889.061
1513522.0,1625051889.101
1513841.0,1625051889.142
1514699.0,1625051889.181
1515515.0,1625051889.221
1516460.0,1625051889.262
1517188.0,1625051889.301
1518196.0,1625051889.342
1517797.0,1625051889.382
1516542.0,1625051889.421
1515187.0,1625051889.461
1514346.0,1625051889.502
1514141.0,1625051889.542
1514234.0,1625051889.582
1514339.0,1625051889.623
1514812.0,1625051889.662
1514726.0,1625051889.702
1515123.0,1625051889.743
1515459.0,1625051889.782
1516021.0,1625051889.822
1517084.0,1625051889.863
1517707.0,1625051889.902
1518871.0,1625051889.943
1519904.0,1625051889.983
1520975.0,1625051890.022
1521075.0,1625051890.062
1519869.0,1625051890.103
1519422.0,1625051890.263
1520278.0,1625051890.303
1521051.0,1625051890.345
1519008.0,1625051890.143
1518683.0,1625051890.224
1518626.0,1625051890.183
1521847.0,1625051890.383
1522933.0,1625051890.423
1525026.0,1625051890.503
1528701.0,1625051890.624
1523954.0,1625051890.464
1529919.0,1625051890.664
1530979.0,1625051890.705
1530413.0,1625051890.745
1529830.0,1625051890.784
1529326.0,1625051890.825
1529270.0,1625051890.864
1530037.0,1625051890.904
1530521.0,1625051890.946
1526048.0,1625051890.544
1527188.0,1625051890.585
1531160.0,1625051890.984
1531844.0,1625051891.024
1532422.0,1625051891.065
1533385.0,1625051891.104
1534132.0,1625051891.145
1536343.0,1625051891.225
1537471.0,1625051891.265
1538659.0,1625051891.306
1539428.0,1625051891.346
1538770.0,1625051891.385
1537637.0,1625051891.426
1537183.0,1625051891.465
1536997.0,1625051891.505
1537191.0,1625051891.547
1537741.0,1625051891.586
1538305.0,1625051891.626
1538942.0,1625051891.667
1535081.0,1625051891.186
1539216.0,1625051891.706
1539929.0,1625051891.747
1540949.0,1625051891.787
1541739.0,1625051891.826
1542820.0,1625051891.866
1543676.0,1625051891.907
1544735.0,1625051891.947
1544936.0,1625051891.986
1543678.0,1625051892.028
1542847.0,1625051892.067
1542035.0,1625051892.102
1541901.0,1625051892.142
1542339.0,1625051892.181
1542968.0,1625051892.221
1543393.0,1625051892.263
1543907.0,1625051892.3
1544578.0,1625051892.341
1545311.0,1625051892.382
1546170.0,1625051892.421
1547152.0,1625051892.461
1548197.0,1625051892.502
1549422.0,1625051892.542
1550041.0,1625051892.582
1549282.0,1625051892.623
1547602.0,1625051892.662
1546371.0,1625051892.703
1545530.0,1625051892.743
1545117.0,1625051892.781
1545097.0,1625051892.863
1545222.0,1625051892.902
1545372.0,1625051892.821
1545037.0,1625051892.943
1545599.0,1625051893.022
1545316.0,1625051892.983
1546114.0,1625051893.063
1546814.0,1625051893.102
1547445.0,1625051893.142
1548070.0,1625051893.181
1548064.0,1625051893.223
1546415.0,1625051893.262
1543227.0,1625051893.344
1542062.0,1625051893.383
1541467.0,1625051893.423
1544785.0,1625051893.302
1541330.0,1625051893.462
1541138.0,1625051893.501
1541083.0,1625051893.542
1541044.0,1625051893.583
1540983.0,1625051893.622
1541472.0,1625051893.662
1541956.0,1625051893.704
1542337.0,1625051893.744
1543533.0,1625051893.822
1543238.0,1625051893.902
1542980.0,1625051893.781
1543974.0,1625051893.862
1539901.0,1625051893.982
1541391.0,1625051893.944
1538666.0,1625051894.023
1537954.0,1625051894.064
1537883.0,1625051894.103
1537667.0,1625051894.142
1537649.0,1625051894.183
1537396.0,1625051894.222
1537542.0,1625051894.262
1537904.0,1625051894.303
1538354.0,1625051894.343
1538798.0,1625051894.383
1539501.0,1625051894.424
1540321.0,1625051894.463
1541054.0,1625051894.501
1542071.0,1625051894.544
1543033.0,1625051894.582
1542706.0,1625051894.622
1541416.0,1625051894.663
1540716.0,1625051894.703
1539867.0,1625051894.744
1540160.0,1625051894.785
1540603.0,1625051894.821
1541107.0,1625051894.861
1541405.0,1625051894.902
1541675.0,1625051894.942
1542299.0,1625051894.982
1543128.0,1625051895.023
1544156.0,1625051895.062
1545143.0,1625051895.103
1546216.0,1625051895.145
1547437.0,1625051895.183
1548717.0,1625051895.223
1549722.0,1625051895.265
1550797.0,1625051895.302
1550249.0,1625051895.343
1549533.0,1625051895.383
1548915.0,1625051895.422
1548655.0,1625051895.463
1549164.0,1625051895.504
1549724.0,1625051895.544
1550562.0,1625051895.583
1551174.0,1625051895.625
1551554.0,1625051895.662
1552419.0,1625051895.702
1553535.0,1625051895.744
1554386.0,1625051895.783
1555482.0,1625051895.823
1556698.0,1625051895.864
1557820.0,1625051895.903
1559208.0,1625051895.944
1560223.0,1625051895.983
1559780.0,1625051896.022
1558958.0,1625051896.062
1558356.0,1625051896.104
1558072.0,1625051896.144
1558540.0,1625051896.183
1559135.0,1625051896.225
1559255.0,1625051896.264
1559897.0,1625051896.304
1560238.0,1625051896.344
1560593.0,1625051896.382
1561361.0,1625051896.423
1562197.0,1625051896.464
1562927.0,1625051896.503
1563739.0,1625051896.544
1564522.0,1625051896.585
1565335.0,1625051896.624
1565863.0,1625051896.664
1564628.0,1625051896.703
1563403.0,1625051896.743
1562149.0,1625051896.783
1561033.0,1625051896.824
1561014.0,1625051896.863
1561066.0,1625051896.904
1560851.0,1625051896.946
1560932.0,1625051896.984
1560868.0,1625051897.022
1561376.0,1625051897.064
1561599.0,1625051897.103
1562111.0,1625051897.144
1562666.0,1625051897.185
1563083.0,1625051897.224
1563710.0,1625051897.264
1564709.0,1625051897.305
1564865.0,1625051897.345
1563608.0,1625051897.385
1562171.0,1625051897.423
1560215.0,1625051897.502
1560918.0,1625051897.462
1559924.0,1625051897.583
1559887.0,1625051897.545
1559829.0,1625051897.623
1559608.0,1625051897.664
1559500.0,1625051897.704
1559699.0,1625051897.745
1560067.0,1625051897.786
1560409.0,1625051897.822
1560787.0,1625051897.863
1562192.0,1625051897.944
1562831.0,1625051897.984
1561304.0,1625051897.904
1562667.0,1625051898.025
1561275.0,1625051898.064
1560161.0,1625051898.104
1559077.0,1625051898.146
1558545.0,1625051898.183
1558594.0,1625051898.223
1558322.0,1625051898.264
1558453.0,1625051898.303
1558546.0,1625051898.345
1558542.0,1625051898.385
1558652.0,1625051898.424
1559201.0,1625051898.465
1559735.0,1625051898.506
1560445.0,1625051898.544
1561210.0,1625051898.583
1562262.0,1625051898.624
1562919.0,1625051898.664
1562567.0,1625051898.704
1561310.0,1625051898.746
1560530.0,1625051898.784
1559894.0,1625051898.825
1559657.0,1625051898.864
1560069.0,1625051898.903
1560117.0,1625051898.944
1560445.0,1625051898.985
1560274.0,1625051899.024
1560583.0,1625051899.064
1561048.0,1625051899.106
1561557.0,1625051899.145
1562158.0,1625051899.185
1562899.0,1625051899.224
1564021.0,1625051899.263
1564825.0,1625051899.304
1564511.0,1625051899.346
1563372.0,1625051899.384
1562249.0,1625051899.424
1561623.0,1625051899.466
1561257.0,1625051899.505
1561466.0,1625051899.539
1561607.0,1625051899.579
1561705.0,1625051899.618
1561571.0,1625051899.658
1561911.0,1625051899.7
1562310.0,1625051899.739
1562702.0,1625051899.779
1563184.0,1625051899.82
1564086.0,1625051899.859
1564893.0,1625051899.899
1565327.0,1625051899.941
1564656.0,1625051899.979
1563245.0,1625051900.019
1561953.0,1625051900.06
1560765.0,1625051900.099
1560720.0,1625051900.14
1560501.0,1625051900.18
1560754.0,1625051900.219
1560395.0,1625051900.259
1560460.0,1625051900.301
1560517.0,1625051900.341
1560797.0,1625051900.378
1561311.0,1625051900.418
1561887.0,1625051900.457
1562721.0,1625051900.497
1563343.0,1625051900.539
1563501.0,1625051900.577
1562589.0,1625051900.618
1561018.0,1625051900.659
1559699.0,1625051900.698
1558967.0,1625051900.737
1558577.0,1625051900.778
1558385.0,1625051900.817
1558536.0,1625051900.857
1558223.0,1625051900.899
1558384.0,1625051900.939
1558245.0,1625051900.978
1558840.0,1625051901.02
1559381.0,1625051901.059
1560088.0,1625051901.097
1560564.0,1625051901.139
1561604.0,1625051901.177
1561509.0,1625051901.218
1560448.0,1625051901.259
1559005.0,1625051901.298
1557701.0,1625051901.339
1556766.0,1625051901.38
1556672.0,1625051901.417
1556638.0,1625051901.457
1556555.0,1625051901.499
1556545.0,1625051901.538
1556519.0,1625051901.578
1556601.0,1625051901.619
1557138.0,1625051901.658
1557531.0,1625051901.699
1558397.0,1625051901.739
1559167.0,1625051901.777
1559863.0,1625051901.818
1560268.0,1625051901.859
1559398.0,1625051901.898
1557929.0,1625051901.939
1556722.0,1625051901.98
1555882.0,1625051902.019
1555473.0,1625051902.059
1555542.0,1625051902.098
1555613.0,1625051902.138
1555308.0,1625051902.178
1555513.0,1625051902.219
1555756.0,1625051902.258
1556243.0,1625051902.299
1556650.0,1625051902.341
1557353.0,1625051902.379
1558113.0,1625051902.419
1559197.0,1625051902.458
1560210.0,1625051902.5
1560463.0,1625051902.538
1559296.0,1625051902.578
1558049.0,1625051902.617
1556924.0,1625051902.658
1556241.0,1625051902.699
1556046.0,1625051902.739
1556096.0,1625051902.779
1556246.0,1625051902.82
1556127.0,1625051902.859
1556467.0,1625051902.899
1556674.0,1625051902.939
1557324.0,1625051902.978
1557995.0,1625051903.018
1558654.0,1625051903.059
1559541.0,1625051903.099
1560222.0,1625051903.14
1561457.0,1625051903.18
1562604.0,1625051903.219
1562561.0,1625051903.26
1561439.0,1625051903.299
1560488.0,1625051903.339
1559485.0,1625051903.378
1559115.0,1625051903.42
1558745.0,1625051903.459
1559187.0,1625051903.499
1559252.0,1625051903.541
1559224.0,1625051903.579
1559371.0,1625051903.62
1560023.0,1625051903.659
1560352.0,1625051903.698
1561246.0,1625051903.739
1562090.0,1625051903.78
1563045.0,1625051903.819
1563943.0,1625051903.859
1564845.0,1625051903.901
1565967.0,1625051903.94
1566557.0,1625051903.978
1565903.0,1625051904.019
1564793.0,1625051904.058
1563749.0,1625051904.099
1563338.0,1625051904.141
1563269.0,1625051904.179
1563528.0,1625051904.219
1563665.0,1625051904.261
1563939.0,1625051904.3
1564166.0,1625051904.339
1564728.0,1625051904.38
1565409.0,1625051904.418
1566033.0,1625051904.459
1566917.0,1625051904.5
1567980.0,1625051904.54
1568947.0,1625051904.58
1570239.0,1625051904.621
1571207.0,1625051904.66
1572084.0,1625051904.698
1571544.0,1625051904.74
1570605.0,1625051904.779
1569589.0,1625051904.819
1569177.0,1625051904.86
1568975.0,1625051904.9
1569283.0,1625051904.941
1569636.0,1625051904.981
1569847.0,1625051905.018
1569973.0,1625051905.058
1570360.0,1625051905.1
1570904.0,1625051905.139
1571900.0,1625051905.179
1572663.0,1625051905.22
1573516.0,1625051905.259
1574612.0,1625051905.3
1575860.0,1625051905.342
1576778.0,1625051905.38
1577598.0,1625051905.418
1577265.0,1625051905.46
1576170.0,1625051905.499
1575446.0,1625051905.54
1574913.0,1625051905.581
1574620.0,1625051905.62
1574760.0,1625051905.66
1574958.0,1625051905.701
1575157.0,1625051905.739
1575343.0,1625051905.779
1575544.0,1625051905.82
1576332.0,1625051905.859
1577003.0,1625051905.9
1577567.0,1625051905.942
1578580.0,1625051905.98
1579662.0,1625051906.02
1580680.0,1625051906.062
1581693.0,1625051906.099
1582442.0,1625051906.14
1582063.0,1625051906.18
1580946.0,1625051906.219
1579899.0,1625051906.26
1579518.0,1625051906.301
1579141.0,1625051906.341
1579287.0,1625051906.38
1579667.0,1625051906.422
1579614.0,1625051906.459
1579729.0,1625051906.499
1580135.0,1625051906.541
1580614.0,1625051906.579
1581134.0,1625051906.62
1582044.0,1625051906.661
1582687.0,1625051906.7
1583402.0,1625051906.741
1584278.0,1625051906.782
1585114.0,1625051906.819
1585297.0,1625051906.859
1584119.0,1625051906.901
1582644.0,1625051906.94
1581463.0,1625051906.98
1580615.0,1625051907.021
1580249.0,1625051907.06
1579918.0,1625051907.101
1579713.0,1625051907.143
1579506.0,1625051907.179
1579225.0,1625051907.219
1578957.0,1625051907.261
1579239.0,1625051907.3
1579492.0,1625051907.341
1579879.0,1625051907.382
1580362.0,1625051907.421
1581275.0,1625051907.461
1581802.0,1625051907.502
1581538.0,1625051907.54
1580164.0,1625051907.58
1578627.0,1625051907.622
1577624.0,1625051907.659
1577012.0,1625051907.699
1576688.0,1625051907.741
1576783.0,1625051907.78
1576689.0,1625051907.82
1576753.0,1625051907.861
1576675.0,1625051907.9
1577046.0,1625051907.942
1577515.0,1625051907.982
1578321.0,1625051908.021
1579071.0,1625051908.059
1580011.0,1625051908.101
1580761.0,1625051908.141
1581615.0,1625051908.18
1581149.0,1625051908.222
1580047.0,1625051908.261
1579170.0,1625051908.301
1578297.0,1625051908.343
1578065.0,1625051908.381
1578224.0,1625051908.42
1578656.0,1625051908.461
1578859.0,1625051908.5
1578893.0,1625051908.541
1579512.0,1625051908.582
1580066.0,1625051908.621
1580588.0,1625051908.661
1580989.0,1625051908.702
1582032.0,1625051908.742
1582969.0,1625051908.78
1583857.0,1625051908.821
1583719.0,1625051908.86
1582531.0,1625051908.901
1581435.0,1625051908.943
1580882.0,1625051908.981
1580416.0,1625051909.063
1580339.0,1625051909.021
1580677.0,1625051909.102
1580673.0,1625051909.141
1581018.0,1625051909.181
1581061.0,1625051909.22
1581466.0,1625051909.261
1582036.0,1625051909.302
1582952.0,1625051909.381
1584004.0,1625051909.423
1584480.0,1625051909.462
1582590.0,1625051909.342
1584117.0,1625051909.5
1582939.0,1625051909.542
1580990.0,1625051909.58
1579295.0,1625051909.621
1578267.0,1625051909.662
1577627.0,1625051909.701
1577060.0,1625051909.742
1576994.0,1625051909.783
1576528.0,1625051909.82
1576387.0,1625051909.86
1576105.0,1625051909.902
1576258.0,1625051909.942
1576744.0,1625051910.022
1576495.0,1625051909.981
1577333.0,1625051910.062
1577827.0,1625051910.102
1578084.0,1625051910.144
1577414.0,1625051910.179
1575788.0,1625051910.22
1574316.0,1625051910.261
1573078.0,1625051910.3
1572178.0,1625051910.341
1571724.0,1625051910.382
1571615.0,1625051910.421
1571168.0,1625051910.461
1570818.0,1625051910.542
1570987.0,1625051910.503
1570747.0,1625051910.582
1571117.0,1625051910.623
1571989.0,1625051910.701
1571493.0,1625051910.66
1573221.0,1625051910.781
1572492.0,1625051910.743
1573785.0,1625051910.822
1573769.0,1625051910.863
1572493.0,1625051910.902
1571106.0,1625051910.943
1569995.0,1625051910.982
1568852.0,1625051911.061
1569229.0,1625051911.021
1568577.0,1625051911.103
1568490.0,1625051911.142
1568413.0,1625051911.182
1568252.0,1625051911.223
1568572.0,1625051911.262
1569056.0,1625051911.303
1569620.0,1625051911.343
1570139.0,1625051911.381
1570807.0,1625051911.421
1571784.0,1625051911.463
1572589.0,1625051911.502
1573163.0,1625051911.552
1572309.0,1625051911.592
1571392.0,1625051911.631
1570443.0,1625051911.672
1569905.0,1625051911.713
1569823.0,1625051911.752
1570223.0,1625051911.792
1570544.0,1625051911.833
1570750.0,1625051911.872
1571034.0,1625051911.912
1572021.0,1625051911.992
1571315.0,1625051911.954
1573353.0,1625051912.073
1572686.0,1625051912.033
1574320.0,1625051912.11
1575401.0,1625051912.151
1576454.0,1625051912.192
1576990.0,1625051912.231
1576240.0,1625051912.271
1575191.0,1625051912.312
1574272.0,1625051912.352
1573888.0,1625051912.392
1573933.0,1625051912.433
1574416.0,1625051912.47
1574682.0,1625051912.51
1574783.0,1625051912.552
1575047.0,1625051912.591
1575392.0,1625051912.631
1575979.0,1625051912.672
1576792.0,1625051912.712
1577551.0,1625051912.752
1578275.0,1625051912.79
1579044.0,1625051912.83
1580008.0,1625051912.87
1579675.0,1625051912.911
1578394.0,1625051912.951
1577165.0,1625051912.991
1576417.0,1625051913.032
1575977.0,1625051913.071
1575965.0,1625051913.112
1575982.0,1625051913.154
1576057.0,1625051913.192
1575914.0,1625051913.232
1576128.0,1625051913.272
1576305.0,1625051913.311
1576490.0,1625051913.352
1577118.0,1625051913.392
1577693.0,1625051913.431
1578481.0,1625051913.472
1579321.0,1625051913.513
1579794.0,1625051913.553
1578824.0,1625051913.593
1577184.0,1625051913.632
1576032.0,1625051913.671
1574990.0,1625051913.711
1574343.0,1625051913.753
1574352.0,1625051913.792
1574190.0,1625051913.832
1574077.0,1625051913.873
1573659.0,1625051913.913
1573280.0,1625051913.951
1573584.0,1625051913.992
1573608.0,1625051914.031
1573836.0,1625051914.071
1574430.0,1625051914.113
1574906.0,1625051914.153
1575260.0,1625051914.192
1575431.0,1625051914.234
1574069.0,1625051914.273
1572132.0,1625051914.311
1570454.0,1625051914.353
1569544.0,1625051914.391
1568309.0,1625051914.432
1568444.0,1625051914.473
1568352.0,1625051914.512
1567891.0,1625051914.553
1567823.0,1625051914.594
1567479.0,1625051914.633
1567695.0,1625051914.671
1567955.0,1625051914.712
1569290.0,1625051914.792
1571095.0,1625051914.872
1568695.0,1625051914.752
1570064.0,1625051914.833
1571640.0,1625051914.913
1571110.0,1625051914.955
1569433.0,1625051914.991
1565982.0,1625051915.073
1567612.0,1625051915.031
1564810.0,1625051915.112
1564179.0,1625051915.152
1563554.0,1625051915.187
1562991.0,1625051915.226
1562532.0,1625051915.267
1562196.0,1625051915.308
1561814.0,1625051915.347
1562016.0,1625051915.387
1562265.0,1625051915.428
1562520.0,1625051915.467
1563215.0,1625051915.507
1563339.0,1625051915.549
1564401.0,1625051915.587
1564926.0,1625051915.627
1564294.0,1625051915.668
1562934.0,1625051915.707
1561606.0,1625051915.748
1560174.0,1625051915.789
1559499.0,1625051915.828
1559294.0,1625051915.868
1559120.0,1625051915.909
1558937.0,1625051915.949
1559021.0,1625051915.989
1559086.0,1625051916.03
1559412.0,1625051916.069
1559965.0,1625051916.11
1560604.0,1625051916.152
1561275.0,1625051916.191
1562285.0,1625051916.231
1563178.0,1625051916.272
1564436.0,1625051916.312
1565312.0,1625051916.353
1564919.0,1625051916.393
1563843.0,1625051916.432
1563085.0,1625051916.473
1562431.0,1625051916.514
1562295.0,1625051916.554
1562413.0,1625051916.593
1562830.0,1625051916.635
1563016.0,1625051916.672
1563205.0,1625051916.712
1563595.0,1625051916.754
1564197.0,1625051916.793
1564720.0,1625051916.833
1565657.0,1625051916.874
1566416.0,1625051916.913
1567264.0,1625051916.954
1568280.0,1625051916.993
1569419.0,1625051917.032
1569432.0,1625051917.072
1568292.0,1625051917.114
1567362.0,1625051917.154
1566687.0,1625051917.193
1566205.0,1625051917.235
1566178.0,1625051917.274
1566319.0,1625051917.314
1566761.0,1625051917.354
1566763.0,1625051917.392
1566872.0,1625051917.433
1567409.0,1625051917.474
1567904.0,1625051917.513
1568546.0,1625051917.554
1569266.0,1625051917.595
1570178.0,1625051917.634
1571083.0,1625051917.674
1572053.0,1625051917.713
1572135.0,1625051917.753
1571022.0,1625051917.793
1569759.0,1625051917.834
1568910.0,1625051917.873
1568125.0,1625051917.911
1567807.0,1625051917.954
1567801.0,1625051917.992
1567914.0,1625051918.032
1567609.0,1625051918.074
1567396.0,1625051918.113
1567336.0,1625051918.154
1567612.0,1625051918.194
1567935.0,1625051918.233
1568166.0,1625051918.274
1568650.0,1625051918.315
1569182.0,1625051918.355
1569377.0,1625051918.393
1569796.0,1625051918.434
1568442.0,1625051918.473
1566860.0,1625051918.513
1565067.0,1625051918.555
1563945.0,1625051918.594
1562914.0,1625051918.634
1562600.0,1625051918.675
1562485.0,1625051918.714
1562108.0,1625051918.753
1561692.0,1625051918.794
1561640.0,1625051918.873
1561999.0,1625051918.915
1562390.0,1625051918.955
1562846.0,1625051918.994
1561621.0,1625051918.833
1563489.0,1625051919.036
1564238.0,1625051919.073
1564917.0,1625051919.113
1564528.0,1625051919.155
1563298.0,1625051919.193
1561714.0,1625051919.234
1560474.0,1625051919.275
1559507.0,1625051919.314
1558906.0,1625051919.355
1558862.0,1625051919.396
1558544.0,1625051919.433
1558398.0,1625051919.473
1558275.0,1625051919.515
1558388.0,1625051919.554
1558718.0,1625051919.594
1559337.0,1625051919.635
1559890.0,1625051919.674
1561338.0,1625051919.755
1562470.0,1625051919.793
1560609.0,1625051919.715
1563371.0,1625051919.833
1563785.0,1625051919.875
1562938.0,1625051919.914
1561682.0,1625051919.955
1560619.0,1625051919.996
1559874.0,1625051920.035
1559525.0,1625051920.075
1559682.0,1625051920.114
1559692.0,1625051920.154
1559696.0,1625051920.235
1560156.0,1625051920.274
1560768.0,1625051920.314
1561372.0,1625051920.357
1559781.0,1625051920.194
1561864.0,1625051920.395
1562767.0,1625051920.434
1564670.0,1625051920.514
1565541.0,1625051920.556
1565636.0,1625051920.595
1564584.0,1625051920.634
1563812.0,1625051920.475
1563300.0,1625051920.674
1562268.0,1625051920.715
1561831.0,1625051920.755
1561871.0,1625051920.795
1562084.0,1625051920.836
1562167.0,1625051920.875
1562236.0,1625051920.914
1562476.0,1625051920.956
1562929.0,1625051920.994
1563467.0,1625051921.034
1563881.0,1625051921.076
1564352.0,1625051921.115
1564678.0,1625051921.156
1566371.0,1625051921.274
1565763.0,1625051921.196
1566213.0,1625051921.235
1564919.0,1625051921.315
1562941.0,1625051921.355
1561358.0,1625051921.394
1559745.0,1625051921.436
1558361.0,1625051921.515
1558003.0,1625051921.557
1557306.0,1625051921.596
1558966.0,1625051921.475
1556860.0,1625051921.675
1557016.0,1625051921.634
1556736.0,1625051921.714
1556577.0,1625051921.755
1557090.0,1625051921.796
1557308.0,1625051921.835
1558030.0,1625051921.875
1558938.0,1625051921.955
1558693.0,1625051921.917
1557648.0,1625051921.994
1556033.0,1625051922.035
1554440.0,1625051922.075
1553410.0,1625051922.115
1552197.0,1625051922.195
1552540.0,1625051922.157
1551839.0,1625051922.236
1551261.0,1625051922.314
1551087.0,1625051922.355
1551592.0,1625051922.396
1552146.0,1625051922.435
1552608.0,1625051922.475
1553493.0,1625051922.516
1554330.0,1625051922.556
1551633.0,1625051922.277
1555069.0,1625051922.596
1556374.0,1625051922.637
1556059.0,1625051922.674
1555148.0,1625051922.714
1553767.0,1625051922.757
1552603.0,1625051922.795
1552122.0,1625051922.835
1552252.0,1625051922.877
1552144.0,1625051922.916
1552293.0,1625051922.957
1552466.0,1625051922.994
1552563.0,1625051923.033
1553140.0,1625051923.074
1553755.0,1625051923.116
1554686.0,1625051923.155
1555626.0,1625051923.195
1556624.0,1625051923.236
1557708.0,1625051923.275
1558742.0,1625051923.316
1558696.0,1625051923.358
1557267.0,1625051923.396
1556244.0,1625051923.436
1554949.0,1625051923.515
1555308.0,1625051923.476
1555228.0,1625051923.556
1555396.0,1625051923.596
1555452.0,1625051923.635
1555480.0,1625051923.675
1555943.0,1625051923.717
1556529.0,1625051923.756
1556936.0,1625051923.796
1557890.0,1625051923.837
1558662.0,1625051923.876
1559660.0,1625051923.916
1560793.0,1625051923.958
1561475.0,1625051923.996
1560643.0,1625051924.037
1559335.0,1625051924.076
1558053.0,1625051924.115
1557205.0,1625051924.156
1556919.0,1625051924.197
1557241.0,1625051924.236
1557556.0,1625051924.276
1557713.0,1625051924.318
1557854.0,1625051924.357
1558227.0,1625051924.397
1558600.0,1625051924.436
1559506.0,1625051924.515
1559213.0,1625051924.475
1560140.0,1625051924.558
1560508.0,1625051924.596
1561254.0,1625051924.636
1560612.0,1625051924.677
1558852.0,1625051924.717
1556810.0,1625051924.756
1554945.0,1625051924.797
1553536.0,1625051924.835
1552708.0,1625051924.876
1552377.0,1625051924.917
1551966.0,1625051924.957
1551786.0,1625051924.997
1551344.0,1625051925.038
1551338.0,1625051925.077
1551702.0,1625051925.115
1551970.0,1625051925.157
1552316.0,1625051925.196
1552678.0,1625051925.236
1553343.0,1625051925.277
1553849.0,1625051925.316
1553433.0,1625051925.358
1552006.0,1625051925.398
1550299.0,1625051925.437
1548527.0,1625051925.475
1547328.0,1625051925.517
1546719.0,1625051925.556
1546499.0,1625051925.596
1546145.0,1625051925.637
1545937.0,1625051925.676
1545804.0,1625051925.717
1545950.0,1625051925.759
1546198.0,1625051925.797
1546830.0,1625051925.836
1547152.0,1625051925.877
1547999.0,1625051925.916
1548780.0,1625051925.957
1549629.0,1625051925.998
1550558.0,1625051926.037
1551053.0,1625051926.077
1549719.0,1625051926.119
1548267.0,1625051926.158
1546579.0,1625051926.196
1545527.0,1625051926.237
1544949.0,1625051926.276
1544811.0,1625051926.316
1544938.0,1625051926.359
1544746.0,1625051926.397
1544899.0,1625051926.437
1545321.0,1625051926.478
1545900.0,1625051926.518
1547027.0,1625051926.557
1548041.0,1625051926.597
1548998.0,1625051926.636
1550195.0,1625051926.677
1551648.0,1625051926.718
1552782.0,1625051926.758
1553977.0,1625051926.798
1553939.0,1625051926.839
1552953.0,1625051926.876
1552057.0,1625051926.916
1551479.0,1625051926.958
1551142.0,1625051926.997
1551481.0,1625051927.037
1552010.0,1625051927.078
1552416.0,1625051927.117
1552637.0,1625051927.158
1553325.0,1625051927.199
1553980.0,1625051927.236
1554894.0,1625051927.276
1555987.0,1625051927.318
1557060.0,1625051927.358
1559633.0,1625051927.438
1558384.0,1625051927.397
1560902.0,1625051927.477
1561583.0,1625051927.518
1560946.0,1625051927.56
1560032.0,1625051927.596
1559530.0,1625051927.636
1558979.0,1625051927.678
1558958.0,1625051927.717
1559536.0,1625051927.758
1560131.0,1625051927.799
1560714.0,1625051927.838
1560926.0,1625051927.878
1561633.0,1625051927.918
1562483.0,1625051927.957
1563643.0,1625051927.997
1564503.0,1625051928.038
1565785.0,1625051928.077
1566953.0,1625051928.115
1568382.0,1625051928.158
1568958.0,1625051928.196
1568291.0,1625051928.236
1567120.0,1625051928.278
1565736.0,1625051928.317
1564726.0,1625051928.358
1564243.0,1625051928.399
1563882.0,1625051928.437
1563832.0,1625051928.478
1563819.0,1625051928.519
1563609.0,1625051928.559
1563577.0,1625051928.599
1564144.0,1625051928.638
1564924.0,1625051928.677
1565213.0,1625051928.717
1565891.0,1625051928.76
1566700.0,1625051928.798
1567833.0,1625051928.838
1568426.0,1625051928.88
1568376.0,1625051928.919
1566147.0,1625051928.998
1567349.0,1625051928.958
1564633.0,1625051929.037
1563682.0,1625051929.078
1563335.0,1625051929.119
1563039.0,1625051929.159
1563117.0,1625051929.198
1563100.0,1625051929.24
1562849.0,1625051929.279
1562948.0,1625051929.317
1563393.0,1625051929.359
1564200.0,1625051929.398
1564690.0,1625051929.438
1565492.0,1625051929.479
1566580.0,1625051929.518
1567414.0,1625051929.559
1568701.0,1625051929.6
1568949.0,1625051929.639
1568257.0,1625051929.677
1566873.0,1625051929.719
1564538.0,1625051929.798
1565378.0,1625051929.759
1563952.0,1625051929.84
1564057.0,1625051929.879
1564100.0,1625051929.919
1563983.0,1625051929.961
1564050.0,1625051929.997
1564228.0,1625051930.038
1564567.0,1625051930.079
1565231.0,1625051930.118
1565704.0,1625051930.159
1566421.0,1625051930.2
1567587.0,1625051930.239
1568455.0,1625051930.279
1569374.0,1625051930.321
1569384.0,1625051930.358
1568247.0,1625051930.398
1566913.0,1625051930.439
1565868.0,1625051930.478
1564786.0,1625051930.518
1564616.0,1625051930.561
1564689.0,1625051930.599
1564517.0,1625051930.639
1564419.0,1625051930.719
1564828.0,1625051930.758
1564651.0,1625051930.68
1565717.0,1625051930.838
1565273.0,1625051930.799
1566421.0,1625051930.878
1567231.0,1625051930.919
1567977.0,1625051930.951
1569126.0,1625051930.99
1570027.0,1625051931.031
1570381.0,1625051931.07
1569426.0,1625051931.11
1567926.0,1625051931.152
1566554.0,1625051931.19
1565689.0,1625051931.23
1565462.0,1625051931.271
1565279.0,1625051931.311
1565233.0,1625051931.351
1564966.0,1625051931.392
1564918.0,1625051931.431
1564924.0,1625051931.471
1565420.0,1625051931.512
1565905.0,1625051931.552
1566477.0,1625051931.591
1567190.0,1625051931.628
1567922.0,1625051931.658
1569099.0,1625051931.698
1569729.0,1625051931.74
1569917.0,1625051931.779
1568819.0,1625051931.819
1567405.0,1625051931.86
1566108.0,1625051931.897
1565379.0,1625051931.938
1565291.0,1625051931.979
1565361.0,1625051932.018
1565442.0,1625051932.058
1565208.0,1625051932.099
1565325.0,1625051932.139
1565685.0,1625051932.178
1566013.0,1625051932.219
1566667.0,1625051932.258
1567436.0,1625051932.298
1568333.0,1625051932.34
1569231.0,1625051932.379
1570145.0,1625051932.419
1571274.0,1625051932.46
1570903.0,1625051932.499
1569966.0,1625051932.538
1568106.0,1625051932.618
1569035.0,1625051932.579
1567984.0,1625051932.658
1568117.0,1625051932.699
1568569.0,1625051932.739
1568421.0,1625051932.778
1569064.0,1625051932.819
1569410.0,1625051932.858
1569663.0,1625051932.898
1570381.0,1625051932.94
1571141.0,1625051932.978
1572178.0,1625051933.018
1573196.0,1625051933.06
1573958.0,1625051933.099
1575103.0,1625051933.14
1576079.0,1625051933.18
1575334.0,1625051933.217
1574181.0,1625051933.25
1573433.0,1625051933.291
1572739.0,1625051933.33
1572533.0,1625051933.37
1572799.0,1625051933.411
1573231.0,1625051933.45
1573101.0,1625051933.49
1573389.0,1625051933.532
1573836.0,1625051933.57
1574279.0,1625051933.61
1574938.0,1625051933.652
1575920.0,1625051933.691
1576849.0,1625051933.731
1577810.0,1625051933.772
1578965.0,1625051933.811
1579200.0,1625051933.851
1578416.0,1625051933.892
1577176.0,1625051933.932
1575665.0,1625051933.971
1574838.0,1625051934.012
1574336.0,1625051934.051
1574297.0,1625051934.084
1574112.0,1625051934.123
1573820.0,1625051934.159
1573684.0,1625051934.199
1573905.0,1625051934.241
1573996.0,1625051934.28
1574621.0,1625051934.321
1574851.0,1625051934.362
1575575.0,1625051934.401
1576531.0,1625051934.441
1577064.0,1625051934.482
1577087.0,1625051934.52
1576070.0,1625051934.56
1574377.0,1625051934.601
1572992.0,1625051934.64
1571736.0,1625051934.68
1570969.0,1625051934.761
1571109.0,1625051934.723
1571017.0,1625051934.801
1571133.0,1625051934.841
1571133.0,1625051934.88
1572018.0,1625051934.961
1571390.0,1625051934.921
1572888.0,1625051935.0
1573947.0,1625051935.041
1574886.0,1625051935.082
1576046.0,1625051935.122
1577188.0,1625051935.16
1578008.0,1625051935.201
1576957.0,1625051935.24
1575657.0,1625051935.28
1574681.0,1625051935.322
1573622.0,1625051935.361
1572920.0,1625051935.401
1571202.0,1625051935.442
1569649.0,1625051935.482
