bvp,time
-70.4,1675335217.34375
-73.91,1675335217.359375
-76.21,1675335217.375
-77.4,1675335217.390625
-78.03,1675335217.40625
-78.78,1675335217.421875
-80.14,1675335217.4375
-82.11,1675335217.453125
-84.42,1675335217.46875
-86.66,1675335217.484375
-88.53,1675335217.5
-89.9,1675335217.515625
-90.71,1675335217.53125
-90.82,1675335217.546875
-89.98,1675335217.5625
-87.9,1675335217.578125
-84.41,1675335217.59375
-79.6,1675335217.609375
-73.85,1675335217.625
-67.73,1675335217.640625
-61.88,1675335217.65625
-56.8,1675335217.671875
-52.74,1675335217.6875
-49.62,1675335217.703125
-47.04,1675335217.71875
-44.39,1675335217.734375
-40.99,1675335217.75
-36.4,1675335217.765625
-30.53,1675335217.78125
-23.73,1675335217.796875
-16.67,1675335217.8125
-10.12,1675335217.828125
-4.68,1675335217.84375
-0.73,1675335217.859375
1.64,1675335217.875
2.58,1675335217.890625
2.31,1675335217.90625
1.11,1675335217.921875
-0.73,1675335217.9375
-2.88,1675335217.953125
-4.95,1675335217.96875
-6.59,1675335217.984375
-7.55,1675335218.0
-7.84,1675335218.015625
-7.76,1675335218.03125
-7.82,1675335218.046875
-8.54,1675335218.0625
-10.18,1675335218.078125
-12.56,1675335218.09375
-15.22,1675335218.109375
-17.57,1675335218.125
-19.27,1675335218.140625
-20.36,1675335218.15625
-21.22,1675335218.171875
-22.33,1675335218.1875
-23.92,1675335218.203125
-25.85,1675335218.21875
-27.7,1675335218.234375
-29.01,1675335218.25
-29.44,1675335218.265625
-28.94,1675335218.28125
-27.68,1675335218.296875
-25.83,1675335218.3125
-23.46,1675335218.328125
-20.44,1675335218.34375
-16.51,1675335218.359375
-11.37,1675335218.375
-4.81,1675335218.390625
3.34,1675335218.40625
13.41,1675335218.421875
25.95,1675335218.4375
41.82,1675335218.453125
61.85,1675335218.46875
86.4,1675335218.484375
114.81,1675335218.5
145.33,1675335218.515625
175.42,1675335218.53125
202.47,1675335218.546875
224.41,1675335218.5625
239.9,1675335218.578125
248.1,1675335218.59375
248.28,1675335218.609375
239.7,1675335218.625
222.14,1675335218.640625
196.69,1675335218.65625
166.2,1675335218.671875
134.84,1675335218.6875
106.77,1675335218.703125
84.56,1675335218.71875
68.23,1675335218.734375
55.68,1675335218.75
44.1,1675335218.765625
31.48,1675335218.78125
17.58,1675335218.796875
3.55,1675335218.8125
-9.17,1675335218.828125
-19.88,1675335218.84375
-29.05,1675335218.859375
-37.81,1675335218.875
-47.16,1675335218.890625
-57.27,1675335218.90625
-67.52,1675335218.921875
-76.94,1675335218.9375
-84.83,1675335218.953125
-91.07,1675335218.96875
-95.96,1675335218.984375
-99.91,1675335219.0
-103.1,1675335219.015625
-105.38,1675335219.03125
-106.38,1675335219.046875
-105.82,1675335219.0625
-103.65,1675335219.078125
-100.14,1675335219.09375
-95.8,1675335219.109375
-91.26,1675335219.125
-87.07,1675335219.140625
-83.5,1675335219.15625
-80.57,1675335219.171875
-78.01,1675335219.1875
-75.41,1675335219.203125
-72.39,1675335219.21875
-68.77,1675335219.234375
-64.72,1675335219.25
-60.64,1675335219.265625
-57.08,1675335219.28125
-54.43,1675335219.296875
-52.81,1675335219.3125
-51.94,1675335219.328125
-51.33,1675335219.34375
-50.52,1675335219.359375
-49.26,1675335219.375
-47.67,1675335219.390625
-46.18,1675335219.40625
-45.3,1675335219.421875
-45.37,1675335219.4375
-46.41,1675335219.453125
-48.08,1675335219.46875
-49.83,1675335219.484375
-51.01,1675335219.5
-51.19,1675335219.515625
-50.15,1675335219.53125
-47.91,1675335219.546875
-44.69,1675335219.5625
-40.78,1675335219.578125
-36.5,1675335219.59375
-32.13,1675335219.609375
-27.96,1675335219.625
-24.23,1675335219.640625
-21.11,1675335219.65625
-18.67,1675335219.671875
-16.92,1675335219.6875
-15.86,1675335219.703125
-15.56,1675335219.71875
-16.25,1675335219.734375
-18.23,1675335219.75
-21.67,1675335219.765625
-26.33,1675335219.78125
-31.35,1675335219.796875
-35.54,1675335219.8125
-37.79,1675335219.828125
-37.78,1675335219.84375
-36.54,1675335219.859375
-36.13,1675335219.875
-38.62,1675335219.890625
-44.77,1675335219.90625
-53.13,1675335219.921875
-60.28,1675335219.9375
-62.37,1675335219.953125
-57.08,1675335219.96875
-44.8,1675335219.984375
-28.41,1675335220.0
-11.75,1675335220.015625
1.92,1675335220.03125
10.72,1675335220.046875
13.79,1675335220.0625
10.54,1675335220.078125
0.54,1675335220.09375
-15.85,1675335220.109375
-36.46,1675335220.125
-57.05,1675335220.140625
-72.69,1675335220.15625
-80.1,1675335220.171875
-79.64,1675335220.1875
-75.34,1675335220.203125
-72.85,1675335220.21875
-76.37,1675335220.234375
-86.3,1675335220.25
-98.92,1675335220.265625
-108.36,1675335220.28125
-109.46,1675335220.296875
-100.42,1675335220.3125
-83.58,1675335220.328125
-64.39,1675335220.34375
-49.4,1675335220.359375
-43.72,1675335220.375
-49.26,1675335220.390625
-64.26,1675335220.40625
-84.01,1675335220.421875
-102.4,1675335220.4375
-113.95,1675335220.453125
-115.21,1675335220.46875
-105.54,1675335220.484375
-86.87,1675335220.5
-62.87,1675335220.515625
-37.73,1675335220.53125
-15.15,1675335220.546875
2.35,1675335220.5625
13.66,1675335220.578125
19.03,1675335220.59375
19.81,1675335220.609375
17.89,1675335220.625
15.24,1675335220.640625
13.57,1675335220.65625
14.02,1675335220.671875
17.05,1675335220.6875
22.45,1675335220.703125
29.42,1675335220.71875
36.84,1675335220.734375
43.47,1675335220.75
48.31,1675335220.765625
50.87,1675335220.78125
51.35,1675335220.796875
50.56,1675335220.8125
49.5,1675335220.828125
48.97,1675335220.84375
49.15,1675335220.859375
49.55,1675335220.875
49.2,1675335220.890625
47.13,1675335220.90625
42.87,1675335220.921875
36.68,1675335220.9375
29.48,1675335220.953125
22.53,1675335220.96875
16.83,1675335220.984375
12.76,1675335221.0
9.95,1675335221.015625
7.43,1675335221.03125
4.07,1675335221.046875
-1.04,1675335221.0625
-8.31,1675335221.078125
-17.62,1675335221.09375
-28.32,1675335221.109375
-39.44,1675335221.125
-49.83,1675335221.140625
-58.24,1675335221.15625
-63.56,1675335221.171875
-64.97,1675335221.1875
-62.17,1675335221.203125
-55.45,1675335221.21875
-45.62,1675335221.234375
-33.82,1675335221.25
-21.17,1675335221.265625
-8.62,1675335221.28125
3.17,1675335221.296875
13.84,1675335221.3125
23.18,1675335221.328125
31.07,1675335221.34375
37.51,1675335221.359375
42.56,1675335221.375
46.36,1675335221.390625
49.09,1675335221.40625
50.98,1675335221.421875
52.24,1675335221.4375
53.06,1675335221.453125
53.58,1675335221.46875
53.87,1675335221.484375
53.99,1675335221.5
53.94,1675335221.515625
53.73,1675335221.53125
53.36,1675335221.546875
52.73,1675335221.5625
51.68,1675335221.578125
49.94,1675335221.59375
47.33,1675335221.609375
43.74,1675335221.625
39.28,1675335221.640625
34.22,1675335221.65625
28.89,1675335221.671875
23.59,1675335221.6875
18.38,1675335221.703125
13.13,1675335221.71875
7.52,1675335221.734375
1.14,1675335221.75
-6.39,1675335221.765625
-15.25,1675335221.78125
-25.3,1675335221.796875
-35.88,1675335221.8125
-45.73,1675335221.828125
-53.18,1675335221.84375
-56.64,1675335221.859375
-55.15,1675335221.875
-48.8,1675335221.890625
-38.72,1675335221.90625
-26.59,1675335221.921875
-14.0,1675335221.9375
-1.85,1675335221.953125
9.74,1675335221.96875
21.18,1675335221.984375
32.8,1675335222.0
44.45,1675335222.015625
55.45,1675335222.03125
64.9,1675335222.046875
72.06,1675335222.0625
76.77,1675335222.078125
79.41,1675335222.09375
80.74,1675335222.109375
81.55,1675335222.125
82.29,1675335222.140625
83.05,1675335222.15625
83.67,1675335222.171875
83.88,1675335222.1875
83.59,1675335222.203125
82.85,1675335222.21875
81.78,1675335222.234375
80.34,1675335222.25
78.24,1675335222.265625
75.01,1675335222.28125
70.29,1675335222.296875
63.98,1675335222.3125
56.38,1675335222.328125
48.08,1675335222.34375
39.69,1675335222.359375
31.66,1675335222.375
24.2,1675335222.390625
17.24,1675335222.40625
10.6,1675335222.421875
4.03,1675335222.4375
-2.81,1675335222.453125
-10.38,1675335222.46875
-19.13,1675335222.484375
-29.4,1675335222.5
-41.03,1675335222.515625
-53.19,1675335222.53125
-64.36,1675335222.546875
-72.65,1675335222.5625
-76.3,1675335222.578125
-74.31,1675335222.59375
-66.69,1675335222.609375
-54.43,1675335222.625
-39.11,1675335222.640625
-22.33,1675335222.65625
-5.26,1675335222.671875
11.45,1675335222.6875
27.57,1675335222.703125
42.93,1675335222.71875
57.24,1675335222.734375
69.96,1675335222.75
80.49,1675335222.765625
88.39,1675335222.78125
93.62,1675335222.796875
96.52,1675335222.8125
97.72,1675335222.828125
97.94,1675335222.84375
97.73,1675335222.859375
97.44,1675335222.875
97.16,1675335222.890625
96.88,1675335222.90625
96.49,1675335222.921875
95.91,1675335222.9375
95.0,1675335222.953125
93.57,1675335222.96875
91.36,1675335222.984375
88.18,1675335223.0
83.93,1675335223.015625
78.72,1675335223.03125
72.83,1675335223.046875
66.64,1675335223.0625
60.51,1675335223.078125
54.63,1675335223.09375
48.95,1675335223.109375
43.21,1675335223.125
37.02,1675335223.140625
30.06,1675335223.15625
22.26,1675335223.171875
13.84,1675335223.1875
5.23,1675335223.203125
-3.04,1675335223.21875
-10.6,1675335223.234375
-17.41,1675335223.25
-23.75,1675335223.265625
-30.24,1675335223.28125
-37.58,1675335223.296875
-46.38,1675335223.3125
-56.82,1675335223.328125
-68.46,1675335223.34375
-80.02,1675335223.359375
-89.64,1675335223.375
-95.22,1675335223.390625
-95.07,1675335223.40625
-88.44,1675335223.421875
-75.71,1675335223.4375
-58.34,1675335223.453125
-38.31,1675335223.46875
-17.63,1675335223.484375
2.19,1675335223.5
20.27,1675335223.515625
36.36,1675335223.53125
50.58,1675335223.546875
63.09,1675335223.5625
73.97,1675335223.578125
83.14,1675335223.59375
90.39,1675335223.609375
95.55,1675335223.625
98.65,1675335223.640625
99.93,1675335223.65625
99.87,1675335223.671875
99.06,1675335223.6875
97.96,1675335223.703125
96.85,1675335223.71875
95.76,1675335223.734375
94.56,1675335223.75
93.1,1675335223.765625
91.24,1675335223.78125
88.94,1675335223.796875
86.17,1675335223.8125
82.94,1675335223.828125
79.27,1675335223.84375
75.2,1675335223.859375
70.84,1675335223.875
66.28,1675335223.890625
61.58,1675335223.90625
56.76,1675335223.921875
51.82,1675335223.9375
46.71,1675335223.953125
41.5,1675335223.96875
36.25,1675335223.984375
31.04,1675335224.0
25.9,1675335224.015625
20.77,1675335224.03125
15.48,1675335224.046875
9.89,1675335224.0625
3.92,1675335224.078125
-2.34,1675335224.09375
-8.72,1675335224.109375
-14.96,1675335224.125
-20.91,1675335224.140625
-26.5,1675335224.15625
-31.84,1675335224.171875
-37.14,1675335224.1875
-42.76,1675335224.203125
-49.11,1675335224.21875
-56.62,1675335224.234375
-65.49,1675335224.25
-75.46,1675335224.265625
-85.61,1675335224.28125
-94.36,1675335224.296875
-99.78,1675335224.3125
-100.17,1675335224.328125
-94.64,1675335224.34375
-83.42,1675335224.359375
-67.83,1675335224.375
-49.72,1675335224.390625
-30.95,1675335224.40625
-12.86,1675335224.421875
3.87,1675335224.4375
19.05,1675335224.453125
32.75,1675335224.46875
44.95,1675335224.484375
55.55,1675335224.5
64.33,1675335224.515625
71.13,1675335224.53125
75.94,1675335224.546875
78.94,1675335224.5625
80.46,1675335224.578125
80.96,1675335224.59375
80.79,1675335224.609375
80.24,1675335224.625
79.44,1675335224.640625
78.44,1675335224.65625
77.23,1675335224.671875
75.86,1675335224.6875
74.4,1675335224.703125
72.9,1675335224.71875
71.28,1675335224.734375
69.34,1675335224.75
66.8,1675335224.765625
63.47,1675335224.78125
59.37,1675335224.796875
54.69,1675335224.8125
49.8,1675335224.828125
45.03,1675335224.84375
40.58,1675335224.859375
36.47,1675335224.875
32.62,1675335224.890625
28.85,1675335224.90625
24.99,1675335224.921875
20.9,1675335224.9375
16.5,1675335224.953125
11.79,1675335224.96875
6.92,1675335224.984375
2.1,1675335225.0
-2.47,1675335225.015625
-6.7,1675335225.03125
-10.72,1675335225.046875
-14.84,1675335225.0625
-19.35,1675335225.078125
-24.36,1675335225.09375
-29.74,1675335225.109375
-35.13,1675335225.125
-40.17,1675335225.140625
-44.68,1675335225.15625
-48.76,1675335225.171875
-52.72,1675335225.1875
-56.99,1675335225.203125
-61.95,1675335225.21875
-67.87,1675335225.234375
-74.75,1675335225.25
-82.22,1675335225.265625
-89.48,1675335225.28125
-95.32,1675335225.296875
-98.34,1675335225.3125
-97.35,1675335225.328125
-91.8,1675335225.34375
-81.95,1675335225.359375
-68.89,1675335225.375
-54.08,1675335225.390625
-38.93,1675335225.40625
-24.41,1675335225.421875
-10.95,1675335225.4375
1.43,1675335225.453125
12.79,1675335225.46875
23.13,1675335225.484375
32.26,1675335225.5
39.96,1675335225.515625
46.03,1675335225.53125
50.39,1675335225.546875
53.13,1675335225.5625
54.47,1675335225.578125
54.7,1675335225.59375
54.14,1675335225.609375
53.17,1675335225.625
52.09,1675335225.640625
51.13,1675335225.65625
50.38,1675335225.671875
49.77,1675335225.6875
49.15,1675335225.703125
48.34,1675335225.71875
47.15,1675335225.734375
45.47,1675335225.75
43.25,1675335225.765625
40.48,1675335225.78125
37.18,1675335225.796875
33.47,1675335225.8125
29.56,1675335225.828125
25.71,1675335225.84375
22.17,1675335225.859375
19.11,1675335225.875
16.5,1675335225.890625
14.16,1675335225.90625
11.8,1675335225.921875
9.19,1675335225.9375
6.16,1675335225.953125
2.72,1675335225.96875
-0.95,1675335225.984375
-4.61,1675335226.0
-7.99,1675335226.015625
-11.0,1675335226.03125
-13.68,1675335226.046875
-16.28,1675335226.0625
-19.12,1675335226.078125
-22.44,1675335226.09375
-26.28,1675335226.109375
-30.45,1675335226.125
-34.63,1675335226.140625
-38.53,1675335226.15625
-42.01,1675335226.171875
-45.16,1675335226.1875
-48.2,1675335226.203125
-51.5,1675335226.21875
-55.4,1675335226.234375
-60.16,1675335226.25
-65.82,1675335226.265625
-72.1,1675335226.28125
-78.22,1675335226.296875
-83.08,1675335226.3125
-85.41,1675335226.328125
-84.25,1675335226.34375
-79.23,1675335226.359375
-70.75,1675335226.375
-59.84,1675335226.390625
-47.8,1675335226.40625
-35.79,1675335226.421875
-24.57,1675335226.4375
-14.43,1675335226.453125
-5.37,1675335226.46875
2.72,1675335226.484375
9.89,1675335226.5
16.14,1675335226.515625
21.4,1675335226.53125
25.66,1675335226.546875
28.94,1675335226.5625
31.35,1675335226.578125
33.0,1675335226.59375
34.01,1675335226.609375
34.5,1675335226.625
34.58,1675335226.640625
34.39,1675335226.65625
34.04,1675335226.671875
33.65,1675335226.6875
33.24,1675335226.703125
32.81,1675335226.71875
32.31,1675335226.734375
31.65,1675335226.75
30.71,1675335226.765625
29.38,1675335226.78125
27.61,1675335226.796875
25.38,1675335226.8125
22.79,1675335226.828125
20.0,1675335226.84375
17.19,1675335226.859375
14.51,1675335226.875
11.99,1675335226.890625
9.55,1675335226.90625
7.07,1675335226.921875
4.42,1675335226.9375
1.54,1675335226.953125
-1.55,1675335226.96875
-4.74,1675335226.984375
-7.87,1675335227.0
-10.76,1675335227.015625
-13.3,1675335227.03125
-15.54,1675335227.046875
-17.65,1675335227.0625
-19.93,1675335227.078125
-22.68,1675335227.09375
-26.03,1675335227.109375
-29.86,1675335227.125
-33.85,1675335227.140625
-37.65,1675335227.15625
-41.04,1675335227.171875
-44.12,1675335227.1875
-47.2,1675335227.203125
-50.74,1675335227.21875
-55.05,1675335227.234375
-60.09,1675335227.25
-65.4,1675335227.265625
-70.1,1675335227.28125
-73.13,1675335227.296875
-73.55,1675335227.3125
-70.81,1675335227.328125
-64.95,1675335227.34375
-56.57,1675335227.359375
-46.63,1675335227.375
-36.2,1675335227.390625
-26.12,1675335227.40625
-16.96,1675335227.421875
-8.92,1675335227.4375
-2.02,1675335227.453125
3.81,1675335227.46875
8.64,1675335227.484375
12.53,1675335227.5
15.59,1675335227.515625
17.97,1675335227.53125
19.84,1675335227.546875
21.38,1675335227.5625
22.7,1675335227.578125
23.87,1675335227.59375
24.84,1675335227.609375
25.57,1675335227.625
25.96,1675335227.640625
26.0,1675335227.65625
25.73,1675335227.671875
25.25,1675335227.6875
24.66,1675335227.703125
24.0,1675335227.71875
23.22,1675335227.734375
22.22,1675335227.75
20.93,1675335227.765625
19.31,1675335227.78125
17.41,1675335227.796875
15.37,1675335227.8125
13.3,1675335227.828125
11.26,1675335227.84375
9.28,1675335227.859375
7.29,1675335227.875
5.18,1675335227.890625
2.87,1675335227.90625
0.31,1675335227.921875
-2.46,1675335227.9375
-5.3,1675335227.953125
-8.04,1675335227.96875
-10.56,1675335227.984375
-12.8,1675335228.0
-14.87,1675335228.015625
-16.95,1675335228.03125
-19.25,1675335228.046875
-21.9,1675335228.0625
-24.9,1675335228.078125
-28.14,1675335228.09375
-31.45,1675335228.109375
-34.68,1675335228.125
-37.75,1675335228.140625
-40.73,1675335228.15625
-43.82,1675335228.171875
-47.31,1675335228.1875
-51.48,1675335228.203125
-56.45,1675335228.21875
-61.89,1675335228.234375
-67.09,1675335228.25
-70.98,1675335228.265625
-72.49,1675335228.28125
-70.91,1675335228.296875
-66.14,1675335228.3125
-58.77,1675335228.328125
-49.81,1675335228.34375
-40.35,1675335228.359375
-31.24,1675335228.375
-22.97,1675335228.390625
-15.61,1675335228.40625
-9.05,1675335228.421875
-3.17,1675335228.4375
2.14,1675335228.453125
6.88,1675335228.46875
11.03,1675335228.484375
14.58,1675335228.5
17.56,1675335228.515625
20.01,1675335228.53125
21.99,1675335228.546875
23.57,1675335228.5625
24.8,1675335228.578125
25.69,1675335228.59375
26.26,1675335228.609375
26.53,1675335228.625
26.56,1675335228.640625
26.46,1675335228.65625
26.24,1675335228.671875
25.89,1675335228.6875
25.3,1675335228.703125
24.32,1675335228.71875
22.85,1675335228.734375
20.9,1675335228.75
18.63,1675335228.765625
16.25,1675335228.78125
13.96,1675335228.796875
11.83,1675335228.8125
9.78,1675335228.828125
7.7,1675335228.84375
5.53,1675335228.859375
3.29,1675335228.875
1.12,1675335228.890625
-0.85,1675335228.90625
-2.6,1675335228.921875
-4.27,1675335228.9375
-6.1,1675335228.953125
-8.32,1675335228.96875
-11.02,1675335228.984375
-14.13,1675335229.0
-17.41,1675335229.015625
-20.62,1675335229.03125
-23.59,1675335229.046875
-26.31,1675335229.0625
-28.9,1675335229.078125
-31.52,1675335229.09375
-34.35,1675335229.109375
-37.53,1675335229.125
-41.2,1675335229.140625
-45.45,1675335229.15625
-50.22,1675335229.171875
-55.15,1675335229.1875
-59.54,1675335229.203125
-62.5,1675335229.21875
-63.14,1675335229.234375
-60.91,1675335229.25
-55.87,1675335229.265625
-48.56,1675335229.28125
-39.91,1675335229.296875
-30.88,1675335229.3125
-22.19,1675335229.328125
-14.25,1675335229.34375
-7.12,1675335229.359375
-0.71,1675335229.375
5.12,1675335229.390625
10.44,1675335229.40625
15.24,1675335229.421875
19.41,1675335229.4375
22.85,1675335229.453125
25.49,1675335229.46875
27.36,1675335229.484375
28.57,1675335229.5
29.29,1675335229.515625
29.66,1675335229.53125
29.79,1675335229.546875
29.7,1675335229.5625
29.42,1675335229.578125
29.01,1675335229.59375
28.56,1675335229.609375
28.13,1675335229.625
27.71,1675335229.640625
27.21,1675335229.65625
26.49,1675335229.671875
25.43,1675335229.6875
24.01,1675335229.703125
22.28,1675335229.71875
20.36,1675335229.734375
18.32,1675335229.75
16.2,1675335229.765625
13.97,1675335229.78125
11.63,1675335229.796875
9.19,1675335229.8125
6.7,1675335229.828125
4.23,1675335229.84375
1.85,1675335229.859375
-0.42,1675335229.875
-2.63,1675335229.890625
-4.87,1675335229.90625
-7.28,1675335229.921875
-9.98,1675335229.9375
-13.04,1675335229.953125
-16.38,1675335229.96875
-19.82,1675335229.984375
-23.14,1675335230.0
-26.16,1675335230.015625
-28.88,1675335230.03125
-31.43,1675335230.046875
-34.12,1675335230.0625
-37.28,1675335230.078125
-41.18,1675335230.09375
-45.87,1675335230.109375
-51.07,1675335230.125
-56.19,1675335230.140625
-60.29,1675335230.15625
-62.44,1675335230.171875
-61.85,1675335230.1875
-58.26,1675335230.203125
-51.96,1675335230.21875
-43.75,1675335230.234375
-34.62,1675335230.25
-25.48,1675335230.265625
-16.89,1675335230.28125
-9.07,1675335230.296875
-1.99,1675335230.3125
4.42,1675335230.328125
10.2,1675335230.34375
15.29,1675335230.359375
19.63,1675335230.375
23.19,1675335230.390625
26.03,1675335230.40625
28.24,1675335230.421875
29.92,1675335230.4375
31.09,1675335230.453125
31.77,1675335230.46875
31.98,1675335230.484375
31.8,1675335230.5
31.39,1675335230.515625
30.93,1675335230.53125
30.56,1675335230.546875
30.31,1675335230.5625
30.11,1675335230.578125
29.81,1675335230.59375
29.22,1675335230.609375
28.27,1675335230.625
26.98,1675335230.640625
25.48,1675335230.65625
23.92,1675335230.671875
22.39,1675335230.6875
20.83,1675335230.703125
19.15,1675335230.71875
17.19,1675335230.734375
14.87,1675335230.75
12.23,1675335230.765625
9.37,1675335230.78125
6.47,1675335230.796875
3.64,1675335230.8125
0.96,1675335230.828125
-1.65,1675335230.84375
-4.27,1675335230.859375
-7.04,1675335230.875
-10.06,1675335230.890625
-13.38,1675335230.90625
-16.98,1675335230.921875
-20.8,1675335230.9375
-24.75,1675335230.953125
-28.74,1675335230.96875
-32.73,1675335230.984375
-36.79,1675335231.0
-41.04,1675335231.015625
-45.65,1675335231.03125
-50.71,1675335231.046875
-56.02,1675335231.0625
-61.11,1675335231.078125
-65.15,1675335231.09375
-67.24,1675335231.109375
-66.68,1675335231.125
-63.17,1675335231.140625
-57.04,1675335231.15625
-49.01,1675335231.171875
-40.0,1675335231.1875
-30.81,1675335231.203125
-21.97,1675335231.21875
-13.7,1675335231.234375
-6.07,1675335231.25
0.94,1675335231.265625
7.28,1675335231.28125
12.94,1675335231.296875
17.88,1675335231.3125
22.08,1675335231.328125
25.55,1675335231.34375
28.26,1675335231.359375
30.21,1675335231.375
31.45,1675335231.390625
32.16,1675335231.40625
32.62,1675335231.421875
33.09,1675335231.4375
33.71,1675335231.453125
34.41,1675335231.46875
34.98,1675335231.484375
35.15,1675335231.5
34.76,1675335231.515625
33.84,1675335231.53125
32.57,1675335231.546875
31.15,1675335231.5625
29.71,1675335231.578125
28.25,1675335231.59375
26.67,1675335231.609375
24.91,1675335231.625
23.0,1675335231.640625
21.03,1675335231.65625
19.11,1675335231.671875
17.22,1675335231.6875
15.27,1675335231.703125
13.08,1675335231.71875
10.56,1675335231.734375
7.71,1675335231.75
4.66,1675335231.765625
1.52,1675335231.78125
-1.68,1675335231.796875
-5.03,1675335231.8125
-8.64,1675335231.828125
-12.55,1675335231.84375
-16.68,1675335231.859375
-20.82,1675335231.875
-24.72,1675335231.890625
-28.3,1675335231.90625
-31.65,1675335231.921875
-35.07,1675335231.9375
-38.94,1675335231.953125
-43.58,1675335231.96875
-49.06,1675335231.984375
-55.05,1675335232.0
-60.9,1675335232.015625
-65.64,1675335232.03125
-68.28,1675335232.046875
-68.09,1675335232.0625
-64.83,1675335232.078125
-58.81,1675335232.09375
-50.76,1675335232.109375
-41.58,1675335232.125
-32.03,1675335232.140625
-22.63,1675335232.15625
-13.62,1675335232.171875
-5.07,1675335232.1875
3.0,1675335232.203125
10.53,1675335232.21875
17.39,1675335232.234375
23.47,1675335232.25
28.65,1675335232.265625
32.89,1675335232.28125
36.17,1675335232.296875
38.58,1675335232.3125
40.24,1675335232.328125
41.33,1675335232.34375
42.08,1675335232.359375
42.63,1675335232.375
43.1,1675335232.390625
43.51,1675335232.40625
43.81,1675335232.421875
43.93,1675335232.4375
43.76,1675335232.453125
43.2,1675335232.46875
42.2,1675335232.484375
40.74,1675335232.5
38.89,1675335232.515625
36.79,1675335232.53125
34.59,1675335232.546875
32.39,1675335232.5625
30.21,1675335232.578125
27.94,1675335232.59375
25.41,1675335232.609375
22.51,1675335232.625
19.25,1675335232.640625
15.79,1675335232.65625
12.34,1675335232.671875
9.11,1675335232.6875
6.17,1675335232.703125
3.44,1675335232.71875
0.72,1675335232.734375
-2.22,1675335232.75
-5.49,1675335232.765625
-9.1,1675335232.78125
-12.93,1675335232.796875
-16.79,1675335232.8125
-20.53,1675335232.828125
-24.12,1675335232.84375
-27.66,1675335232.859375
-31.44,1675335232.875
-35.75,1675335232.890625
-40.88,1675335232.90625
-46.92,1675335232.921875
-53.66,1675335232.9375
-60.52,1675335232.953125
-66.58,1675335232.96875
-70.8,1675335232.984375
-72.24,1675335233.0
-70.37,1675335233.015625
-65.24,1675335233.03125
-57.46,1675335233.046875
-48.0,1675335233.0625
-37.89,1675335233.078125
-27.9,1675335233.09375
-18.45,1675335233.109375
-9.56,1675335233.125
-1.07,1675335233.140625
7.18,1675335233.15625
15.17,1675335233.171875
22.64,1675335233.1875
29.22,1675335233.203125
34.54,1675335233.21875
38.44,1675335233.234375
41.03,1675335233.25
42.64,1675335233.265625
43.68,1675335233.28125
44.48,1675335233.296875
45.18,1675335233.3125
45.78,1675335233.328125
46.21,1675335233.34375
46.46,1675335233.359375
46.55,1675335233.375
46.51,1675335233.390625
46.31,1675335233.40625
45.82,1675335233.421875
44.83,1675335233.4375
43.21,1675335233.453125
40.94,1675335233.46875
38.2,1675335233.484375
35.3,1675335233.5
32.55,1675335233.515625
30.12,1675335233.53125
27.99,1675335233.546875
25.93,1675335233.5625
23.62,1675335233.578125
20.83,1675335233.59375
17.51,1675335233.609375
13.84,1675335233.625
10.14,1675335233.640625
6.7,1675335233.65625
3.63,1675335233.671875
0.76,1675335233.6875
-2.21,1675335233.703125
-5.56,1675335233.71875
-9.41,1675335233.734375
-13.61,1675335233.75
-17.87,1675335233.765625
-21.89,1675335233.78125
-25.52,1675335233.796875
-28.84,1675335233.8125
-32.05,1675335233.828125
-35.51,1675335233.84375
-39.53,1675335233.859375
-44.37,1675335233.875
-50.09,1675335233.890625
-56.46,1675335233.90625
-62.9,1675335233.921875
-68.44,1675335233.9375
-71.96,1675335233.953125
-72.49,1675335233.96875
-69.53,1675335233.984375
-63.29,1675335234.0
-54.55,1675335234.015625
-44.41,1675335234.03125
-33.9,1675335234.046875
-23.71,1675335234.0625
-14.16,1675335234.078125
-5.22,1675335234.09375
3.17,1675335234.109375
11.01,1675335234.125
18.23,1675335234.140625
24.66,1675335234.15625
30.18,1675335234.171875
34.73,1675335234.1875
38.28,1675335234.203125
40.91,1675335234.21875
42.71,1675335234.234375
43.85,1675335234.25
44.51,1675335234.265625
44.93,1675335234.28125
45.25,1675335234.296875
45.54,1675335234.3125
45.77,1675335234.328125
45.85,1675335234.34375
45.65,1675335234.359375
45.09,1675335234.375
44.07,1675335234.390625
42.56,1675335234.40625
40.56,1675335234.421875
38.14,1675335234.4375
35.46,1675335234.453125
32.7,1675335234.46875
29.98,1675335234.484375
27.37,1675335234.5
24.83,1675335234.515625
22.27,1675335234.53125
19.63,1675335234.546875
16.93,1675335234.5625
14.23,1675335234.578125
11.63,1675335234.59375
9.17,1675335234.609375
6.83,1675335234.625
4.47,1675335234.640625
1.92,1675335234.65625
-0.99,1675335234.671875
-4.39,1675335234.6875
-8.35,1675335234.703125
-12.81,1675335234.71875
-17.6,1675335234.734375
-22.42,1675335234.75
-27.0,1675335234.765625
-31.15,1675335234.78125
-34.9,1675335234.796875
-38.52,1675335234.8125
-42.45,1675335234.828125
-47.14,1675335234.84375
-52.7,1675335234.859375
-58.82,1675335234.875
-64.71,1675335234.890625
-69.27,1675335234.90625
-71.39,1675335234.921875
-70.37,1675335234.9375
-66.06,1675335234.953125
-58.94,1675335234.96875
-49.92,1675335234.984375
-40.02,1675335235.0
-30.11,1675335235.015625
-20.7,1675335235.03125
-11.99,1675335235.046875
-3.92,1675335235.0625
3.62,1675335235.078125
10.75,1675335235.09375
17.47,1675335235.109375
23.66,1675335235.125
29.11,1675335235.140625
33.6,1675335235.15625
36.93,1675335235.171875
39.07,1675335235.1875
40.18,1675335235.203125
40.58,1675335235.21875
40.66,1675335235.234375
40.76,1675335235.25
40.98,1675335235.265625
41.3,1675335235.28125
41.6,1675335235.296875
41.73,1675335235.3125
41.65,1675335235.328125
41.32,1675335235.34375
40.71,1675335235.359375
39.71,1675335235.375
38.24,1675335235.390625
36.24,1675335235.40625
33.84,1675335235.421875
31.23,1675335235.4375
28.65,1675335235.453125
26.24,1675335235.46875
24.01,1675335235.484375
21.81,1675335235.5
19.48,1675335235.515625
16.88,1675335235.53125
14.04,1675335235.546875
11.09,1675335235.5625
8.2,1675335235.578125
5.47,1675335235.59375
2.84,1675335235.609375
0.08,1675335235.625
-3.1,1675335235.640625
-6.87,1675335235.65625
-11.24,1675335235.671875
-15.89,1675335235.6875
-20.42,1675335235.703125
-24.42,1675335235.71875
-27.76,1675335235.734375
-30.6,1675335235.75
-33.31,1675335235.765625
-36.35,1675335235.78125
-40.07,1675335235.796875
-44.63,1675335235.8125
-49.94,1675335235.828125
-55.64,1675335235.84375
-61.08,1675335235.859375
-65.42,1675335235.875
-67.75,1675335235.890625
-67.3,1675335235.90625
-63.76,1675335235.921875
-57.28,1675335235.9375
-48.58,1675335235.953125
-38.61,1675335235.96875
-28.35,1675335235.984375
-18.54,1675335236.0
-9.58,1675335236.015625
-1.6,1675335236.03125
5.48,1675335236.046875
11.77,1675335236.0625
17.38,1675335236.078125
22.38,1675335236.09375
26.8,1675335236.109375
30.6,1675335236.125
33.75,1675335236.140625
36.19,1675335236.15625
37.94,1675335236.171875
39.07,1675335236.1875
39.73,1675335236.203125
40.11,1675335236.21875
40.4,1675335236.234375
40.71,1675335236.25
41.07,1675335236.265625
41.37,1675335236.28125
41.39,1675335236.296875
40.93,1675335236.3125
39.9,1675335236.328125
38.35,1675335236.34375
36.51,1675335236.359375
34.63,1675335236.375
32.85,1675335236.390625
31.14,1675335236.40625
29.35,1675335236.421875
27.3,1675335236.4375
24.89,1675335236.453125
22.15,1675335236.46875
19.2,1675335236.484375
16.18,1675335236.5
13.2,1675335236.515625
10.36,1675335236.53125
7.68,1675335236.546875
5.17,1675335236.5625
2.73,1675335236.578125
0.15,1675335236.59375
-2.82,1675335236.609375
-6.39,1675335236.625
-10.54,1675335236.640625
-15.04,1675335236.65625
-19.46,1675335236.671875
-23.4,1675335236.6875
-26.65,1675335236.703125
-29.35,1675335236.71875
-31.94,1675335236.734375
-34.94,1675335236.75
-38.83,1675335236.765625
-43.77,1675335236.78125
-49.49,1675335236.796875
-55.34,1675335236.8125
-60.31,1675335236.828125
-63.4,1675335236.84375
-63.87,1675335236.859375
-61.42,1675335236.875
-56.33,1675335236.890625
-49.21,1675335236.90625
-40.89,1675335236.921875
-32.06,1675335236.9375
-23.24,1675335236.953125
-14.73,1675335236.96875
-6.69,1675335236.984375
0.8,1675335237.0
7.69,1675335237.015625
13.97,1675335237.03125
19.59,1675335237.046875
24.49,1675335237.0625
28.56,1675335237.078125
31.66,1675335237.09375
33.74,1675335237.109375
34.91,1675335237.125
35.41,1675335237.140625
35.59,1675335237.15625
35.65,1675335237.171875
35.73,1675335237.1875
35.79,1675335237.203125
35.76,1675335237.21875
35.58,1675335237.234375
35.27,1675335237.25
34.81,1675335237.265625
34.17,1675335237.28125
33.29,1675335237.296875
32.11,1675335237.3125
30.65,1675335237.328125
29.01,1675335237.34375
27.32,1675335237.359375
25.68,1675335237.375
24.07,1675335237.390625
22.34,1675335237.40625
20.35,1675335237.421875
18.0,1675335237.4375
15.3,1675335237.453125
12.4,1675335237.46875
9.48,1675335237.484375
6.69,1675335237.5
4.08,1675335237.515625
1.63,1675335237.53125
-0.77,1675335237.546875
-3.29,1675335237.5625
-6.06,1675335237.578125
-9.21,1675335237.59375
-12.79,1675335237.609375
-16.74,1675335237.625
-20.9,1675335237.640625
-25.01,1675335237.65625
-28.84,1675335237.671875
-32.29,1675335237.6875
-35.48,1675335237.703125
-38.73,1675335237.71875
-42.44,1675335237.734375
-46.89,1675335237.75
-51.98,1675335237.765625
-57.18,1675335237.78125
-61.63,1675335237.796875
-64.36,1675335237.8125
-64.6,1675335237.828125
-61.98,1675335237.84375
-56.67,1675335237.859375
-49.27,1675335237.875
-40.61,1675335237.890625
-31.56,1675335237.90625
-22.76,1675335237.921875
-14.64,1675335237.9375
-7.3,1675335237.953125
-0.66,1675335237.96875
5.42,1675335237.984375
11.05,1675335238.0
16.23,1675335238.015625
20.88,1675335238.03125
24.88,1675335238.046875
28.16,1675335238.0625
30.72,1675335238.078125
32.64,1675335238.09375
34.04,1675335238.109375
35.0,1675335238.125
35.61,1675335238.140625
35.91,1675335238.15625
35.93,1675335238.171875
35.74,1675335238.1875
35.39,1675335238.203125
34.92,1675335238.21875
34.37,1675335238.234375
33.69,1675335238.25
32.81,1675335238.265625
31.63,1675335238.28125
30.06,1675335238.296875
28.09,1675335238.3125
25.79,1675335238.328125
23.33,1675335238.34375
20.86,1675335238.359375
18.47,1675335238.375
16.11,1675335238.390625
13.71,1675335238.40625
11.15,1675335238.421875
8.47,1675335238.4375
5.81,1675335238.453125
3.34,1675335238.46875
1.15,1675335238.484375
-0.82,1675335238.5
-2.85,1675335238.515625
-5.27,1675335238.53125
-8.27,1675335238.546875
-11.83,1675335238.5625
-15.71,1675335238.578125
-19.55,1675335238.59375
-23.06,1675335238.609375
-26.18,1675335238.625
-29.03,1675335238.640625
-31.89,1675335238.65625
-35.05,1675335238.671875
-38.75,1675335238.6875
-43.1,1675335238.703125
-47.98,1675335238.71875
-53.06,1675335238.734375
-57.74,1675335238.75
-61.2,1675335238.765625
-62.57,1675335238.78125
-61.22,1675335238.796875
-57.0,1675335238.8125
-50.32,1675335238.828125
-42.09,1675335238.84375
-33.37,1675335238.859375
-25.02,1675335238.875
-17.45,1675335238.890625
-10.6,1675335238.90625
-4.15,1675335238.921875
2.18,1675335238.9375
8.43,1675335238.953125
14.35,1675335238.96875
19.56,1675335238.984375
23.77,1675335239.0
26.9,1675335239.015625
29.13,1675335239.03125
30.76,1675335239.046875
32.02,1675335239.0625
33.02,1675335239.078125
33.73,1675335239.09375
34.08,1675335239.109375
34.07,1675335239.125
33.84,1675335239.140625
33.59,1675335239.15625
33.5,1675335239.171875
33.57,1675335239.1875
33.6,1675335239.203125
33.29,1675335239.21875
32.4,1675335239.234375
30.85,1675335239.25
28.8,1675335239.265625
26.48,1675335239.28125
24.14,1675335239.296875
21.84,1675335239.3125
19.56,1675335239.328125
17.2,1675335239.34375
14.79,1675335239.359375
12.39,1675335239.375
10.11,1675335239.390625
8.02,1675335239.40625
6.03,1675335239.421875
4.0,1675335239.4375
1.74,1675335239.453125
-0.83,1675335239.46875
-3.74,1675335239.484375
-6.91,1675335239.5
-10.25,1675335239.515625
-13.63,1675335239.53125
-16.97,1675335239.546875
-20.17,1675335239.5625
-23.18,1675335239.578125
-26.04,1675335239.59375
-28.87,1675335239.609375
-31.89,1675335239.625
-35.35,1675335239.640625
-39.45,1675335239.65625
-44.22,1675335239.671875
-49.41,1675335239.6875
-54.49,1675335239.703125
-58.66,1675335239.71875
-61.0,1675335239.734375
-60.8,1675335239.75
-57.74,1675335239.765625
-52.07,1675335239.78125
-44.51,1675335239.796875
-36.01,1675335239.8125
-27.44,1675335239.828125
-19.34,1675335239.84375
-11.85,1675335239.859375
-4.87,1675335239.875
1.75,1675335239.890625
8.04,1675335239.90625
13.87,1675335239.921875
19.04,1675335239.9375
23.37,1675335239.953125
26.76,1675335239.96875
29.29,1675335239.984375
31.07,1675335240.0
32.28,1675335240.015625
33.08,1675335240.03125
33.6,1675335240.046875
33.98,1675335240.0625
34.29,1675335240.078125
34.58,1675335240.09375
34.83,1675335240.109375
34.96,1675335240.125
34.85,1675335240.140625
34.37,1675335240.15625
33.41,1675335240.171875
31.97,1675335240.1875
30.17,1675335240.203125
28.22,1675335240.21875
26.28,1675335240.234375
24.43,1675335240.25
22.64,1675335240.265625
20.78,1675335240.28125
18.72,1675335240.296875
16.46,1675335240.3125
14.06,1675335240.328125
11.68,1675335240.34375
9.42,1675335240.359375
7.31,1675335240.375
5.24,1675335240.390625
3.04,1675335240.40625
0.52,1675335240.421875
-2.43,1675335240.4375
-5.83,1675335240.453125
-9.62,1675335240.46875
-13.59,1675335240.484375
-17.54,1675335240.5
-21.21,1675335240.515625
-24.5,1675335240.53125
-27.47,1675335240.546875
-30.36,1675335240.5625
-33.62,1675335240.578125
-37.61,1675335240.59375
-42.52,1675335240.609375
-48.12,1675335240.625
-53.74,1675335240.640625
-58.39,1675335240.65625
-61.03,1675335240.671875
-60.94,1675335240.6875
-57.86,1675335240.703125
-52.14,1675335240.71875
-44.57,1675335240.734375
-36.08,1675335240.75
-27.53,1675335240.765625
-19.46,1675335240.78125
-12.12,1675335240.796875
-5.49,1675335240.8125
0.53,1675335240.828125
6.04,1675335240.84375
11.07,1675335240.859375
15.58,1675335240.875
19.5,1675335240.890625
22.79,1675335240.90625
25.44,1675335240.921875
27.49,1675335240.9375
28.96,1675335240.953125
29.9,1675335240.96875
30.33,1675335240.984375
30.3,1675335241.0
29.89,1675335241.015625
29.25,1675335241.03125
28.55,1675335241.046875
27.95,1675335241.0625
27.5,1675335241.078125
27.17,1675335241.09375
26.84,1675335241.109375
26.36,1675335241.125
25.58,1675335241.140625
24.36,1675335241.15625
22.68,1675335241.171875
20.61,1675335241.1875
18.28,1675335241.203125
15.91,1675335241.21875
13.64,1675335241.234375
11.49,1675335241.25
9.33,1675335241.265625
6.9,1675335241.28125
3.94,1675335241.296875
0.3,1675335241.3125
-3.93,1675335241.328125
-8.48,1675335241.34375
-12.97,1675335241.359375
-17.03,1675335241.375
-20.46,1675335241.390625
-23.24,1675335241.40625
-25.53,1675335241.421875
-27.63,1675335241.4375
-29.89,1675335241.453125
-32.61,1675335241.46875
-36.02,1675335241.484375
-40.12,1675335241.5
-44.73,1675335241.515625
-49.37,1675335241.53125
-53.36,1675335241.546875
-55.89,1675335241.5625
-56.27,1675335241.578125
-54.09,1675335241.59375
-49.38,1675335241.609375
-42.6,1675335241.625
-34.48,1675335241.640625
-25.84,1675335241.65625
-17.32,1675335241.671875
-9.23,1675335241.6875
-1.71,1675335241.703125
5.27,1675335241.71875
11.66,1675335241.734375
17.32,1675335241.75
22.07,1675335241.765625
25.8,1675335241.78125
28.56,1675335241.796875
30.52,1675335241.8125
31.93,1675335241.828125
32.98,1675335241.84375
33.76,1675335241.859375
34.28,1675335241.875
34.56,1675335241.890625
34.64,1675335241.90625
34.61,1675335241.921875
34.53,1675335241.9375
34.41,1675335241.953125
34.18,1675335241.96875
33.71,1675335241.984375
32.85,1675335242.0
31.53,1675335242.015625
29.73,1675335242.03125
27.56,1675335242.046875
25.16,1675335242.0625
22.71,1675335242.078125
20.34,1675335242.09375
18.06,1675335242.109375
15.72,1675335242.125
13.07,1675335242.140625
9.91,1675335242.15625
6.12,1675335242.171875
1.8,1675335242.1875
-2.75,1675335242.203125
-7.18,1675335242.21875
-11.18,1675335242.234375
-14.6,1675335242.25
-17.54,1675335242.265625
-20.29,1675335242.28125
-23.26,1675335242.296875
-26.89,1675335242.3125
-31.47,1675335242.328125
-37.07,1675335242.34375
-43.37,1675335242.359375
-49.69,1675335242.375
-55.06,1675335242.390625
-58.53,1675335242.40625
-59.36,1675335242.421875
-57.28,1675335242.4375
-52.52,1675335242.453125
-45.7,1675335242.46875
-37.65,1675335242.484375
-29.09,1675335242.5
-20.57,1675335242.515625
-12.34,1675335242.53125
-4.49,1675335242.546875
2.98,1675335242.5625
10.05,1675335242.578125
16.62,1675335242.59375
22.51,1675335242.609375
27.53,1675335242.625
31.46,1675335242.640625
34.22,1675335242.65625
35.87,1675335242.671875
36.59,1675335242.6875
36.66,1675335242.703125
36.36,1675335242.71875
35.85,1675335242.734375
35.18,1675335242.75
34.31,1675335242.765625
33.17,1675335242.78125
31.79,1675335242.796875
30.26,1675335242.8125
28.68,1675335242.828125
27.07,1675335242.84375
25.33,1675335242.859375
23.27,1675335242.875
20.74,1675335242.890625
17.68,1675335242.90625
14.18,1675335242.921875
10.46,1675335242.9375
6.7,1675335242.953125
3.06,1675335242.96875
-0.45,1675335242.984375
-3.91,1675335243.0
-7.48,1675335243.015625
-11.38,1675335243.03125
-15.83,1675335243.046875
-20.97,1675335243.0625
-26.84,1675335243.078125
-33.2,1675335243.09375
-39.56,1675335243.109375
-45.18,1675335243.125
-49.21,1675335243.140625
-50.91,1675335243.15625
-49.89,1675335243.171875
-46.21,1675335243.1875
-40.35,1675335243.203125
-33.04,1675335243.21875
-25.02,1675335243.234375
-16.86,1675335243.25
-8.86,1675335243.265625
-1.16,1675335243.28125
6.22,1675335243.296875
13.22,1675335243.3125
19.66,1675335243.328125
25.36,1675335243.34375
30.1,1675335243.359375
33.72,1675335243.375
36.23,1675335243.390625
37.72,1675335243.40625
38.45,1675335243.421875
38.7,1675335243.4375
38.72,1675335243.453125
38.66,1675335243.46875
38.57,1675335243.484375
38.42,1675335243.5
38.12,1675335243.515625
37.62,1675335243.53125
36.85,1675335243.546875
35.74,1675335243.5625
34.2,1675335243.578125
32.16,1675335243.59375
29.6,1675335243.609375
26.64,1675335243.625
23.44,1675335243.640625
20.17,1675335243.65625
16.93,1675335243.671875
13.67,1675335243.6875
10.28,1675335243.703125
6.64,1675335243.71875
2.75,1675335243.734375
-1.33,1675335243.75
-5.41,1675335243.765625
-9.35,1675335243.78125
-13.13,1675335243.796875
-16.81,1675335243.8125
-20.55,1675335243.828125
-24.58,1675335243.84375
-29.1,1675335243.859375
-34.25,1675335243.875
-39.99,1675335243.890625
-46.03,1675335243.90625
-51.76,1675335243.921875
-56.33,1675335243.9375
-58.82,1675335243.953125
-58.49,1675335243.96875
-55.11,1675335243.984375
-49.0,1675335244.0
-40.99,1675335244.015625
-32.06,1675335244.03125
-23.04,1675335244.046875
-14.37,1675335244.0625
-6.13,1675335244.078125
1.87,1675335244.09375
9.79,1675335244.109375
17.56,1675335244.125
24.91,1675335244.140625
31.41,1675335244.15625
36.72,1675335244.171875
40.62,1675335244.1875
43.2,1675335244.203125
44.69,1675335244.21875
45.42,1675335244.234375
45.71,1675335244.25
45.78,1675335244.265625
45.73,1675335244.28125
45.6,1675335244.296875
45.38,1675335244.3125
45.01,1675335244.328125
44.45,1675335244.34375
43.64,1675335244.359375
42.5,1675335244.375
41.01,1675335244.390625
39.14,1675335244.40625
36.96,1675335244.421875
34.58,1675335244.4375
32.19,1675335244.453125
29.97,1675335244.46875
28.01,1675335244.484375
26.28,1675335244.5
24.63,1675335244.515625
22.8,1675335244.53125
20.59,1675335244.546875
17.88,1675335244.5625
14.75,1675335244.578125
11.38,1675335244.59375
7.94,1675335244.609375
4.57,1675335244.625
1.28,1675335244.640625
-2.01,1675335244.65625
-5.41,1675335244.671875
-8.97,1675335244.6875
-12.61,1675335244.703125
-16.2,1675335244.71875
-19.61,1675335244.734375
-22.84,1675335244.75
-25.98,1675335244.765625
-29.28,1675335244.78125
-33.04,1675335244.796875
-37.48,1675335244.8125
-42.69,1675335244.828125
-48.51,1675335244.84375
-54.55,1675335244.859375
-60.11,1675335244.875
-64.38,1675335244.890625
-66.55,1675335244.90625
-66.08,1675335244.921875
-62.81,1675335244.9375
-57.04,1675335244.953125
-49.37,1675335244.96875
-40.54,1675335244.984375
-31.2,1675335245.0
-21.88,1675335245.015625
-12.87,1675335245.03125
-4.35,1675335245.046875
3.62,1675335245.0625
11.03,1675335245.078125
17.9,1675335245.09375
24.2,1675335245.109375
29.79,1675335245.125
34.48,1675335245.140625
38.04,1675335245.15625
40.38,1675335245.171875
41.64,1675335245.1875
42.12,1675335245.203125
42.15,1675335245.21875
41.97,1675335245.234375
41.65,1675335245.25
41.14,1675335245.265625
40.42,1675335245.28125
39.49,1675335245.296875
38.47,1675335245.3125
37.44,1675335245.328125
36.39,1675335245.34375
35.22,1675335245.359375
33.82,1675335245.375
32.14,1675335245.390625
30.23,1675335245.40625
28.23,1675335245.421875
26.27,1675335245.4375
24.39,1675335245.453125
22.49,1675335245.46875
20.42,1675335245.484375
18.04,1675335245.5
15.27,1675335245.515625
12.16,1675335245.53125
8.89,1675335245.546875
5.74,1675335245.5625
2.9,1675335245.578125
0.43,1675335245.59375
-1.82,1675335245.609375
-4.2,1675335245.625
-7.05,1675335245.640625
-10.61,1675335245.65625
-14.8,1675335245.671875
-19.32,1675335245.6875
-23.74,1675335245.703125
-27.69,1675335245.71875
-31.03,1675335245.734375
-33.86,1675335245.75
-36.47,1675335245.765625
-39.2,1675335245.78125
-42.38,1675335245.796875
-46.2,1675335245.8125
-50.67,1675335245.828125
-55.53,1675335245.84375
-60.26,1675335245.859375
-64.16,1675335245.875
-66.41,1675335245.890625
-66.4,1675335245.90625
-63.79,1675335245.921875
-58.69,1675335245.9375
-51.62,1675335245.953125
-43.34,1675335245.96875
-34.58,1675335245.984375
-25.91,1675335246.0
-17.59,1675335246.015625
-9.65,1675335246.03125
-2.02,1675335246.046875
5.29,1675335246.0625
12.14,1675335246.078125
18.28,1675335246.09375
23.46,1675335246.109375
27.51,1675335246.125
30.5,1675335246.140625
32.58,1675335246.15625
34.03,1675335246.171875
35.05,1675335246.1875
35.78,1675335246.203125
36.25,1675335246.21875
36.48,1675335246.234375
36.42,1675335246.25
36.11,1675335246.265625
35.56,1675335246.28125
34.82,1675335246.296875
33.92,1675335246.3125
32.87,1675335246.328125
31.69,1675335246.34375
30.39,1675335246.359375
28.96,1675335246.375
27.4,1675335246.390625
25.71,1675335246.40625
23.88,1675335246.421875
21.97,1675335246.4375
20.0,1675335246.453125
17.97,1675335246.46875
15.84,1675335246.484375
13.55,1675335246.5
11.08,1675335246.515625
8.46,1675335246.53125
5.84,1675335246.546875
3.36,1675335246.5625
1.07,1675335246.578125
-1.13,1675335246.59375
-3.47,1675335246.609375
-6.18,1675335246.625
-9.36,1675335246.640625
-12.91,1675335246.65625
-16.52,1675335246.671875
-19.86,1675335246.6875
-22.75,1675335246.703125
-25.18,1675335246.71875
-27.34,1675335246.734375
-29.53,1675335246.75
-32.06,1675335246.765625
-35.26,1675335246.78125
-39.36,1675335246.796875
-44.37,1675335246.8125
-50.03,1675335246.828125
-55.69,1675335246.84375
-60.45,1675335246.859375
-63.31,1675335246.875
-63.53,1675335246.890625
-60.89,1675335246.90625
-55.71,1675335246.921875
-48.78,1675335246.9375
-41.01,1675335246.953125
-33.17,1675335246.96875
-25.72,1675335246.984375
-18.81,1675335247.0
-12.36,1675335247.015625
-6.23,1675335247.03125
-0.33,1675335247.046875
5.29,1675335247.0625
10.51,1675335247.078125
15.1,1675335247.09375
18.89,1675335247.109375
21.79,1675335247.125
23.85,1675335247.140625
25.27,1675335247.15625
26.25,1675335247.171875
27.0,1675335247.1875
27.63,1675335247.203125
28.14,1675335247.21875
28.45,1675335247.234375
28.47,1675335247.25
28.13,1675335247.265625
27.45,1675335247.28125
26.46,1675335247.296875
25.26,1675335247.3125
23.97,1675335247.328125
22.63,1675335247.34375
21.25,1675335247.359375
19.72,1675335247.375
17.9,1675335247.390625
15.7,1675335247.40625
13.14,1675335247.421875
10.38,1675335247.4375
7.7,1675335247.453125
5.31,1675335247.46875
3.3,1675335247.484375
1.53,1675335247.5
-0.22,1675335247.515625
-2.18,1675335247.53125
-4.48,1675335247.546875
-7.11,1675335247.5625
-9.96,1675335247.578125
-12.91,1675335247.59375
-15.82,1675335247.609375
-18.67,1675335247.625
-21.4,1675335247.640625
-24.01,1675335247.65625
-26.55,1675335247.671875
-29.15,1675335247.6875
-32.04,1675335247.703125
-35.5,1675335247.71875
-39.7,1675335247.734375
-44.53,1675335247.75
-49.51,1675335247.765625
-53.81,1675335247.78125
-56.52,1675335247.796875
-56.91,1675335247.8125
-54.65,1675335247.828125
-49.96,1675335247.84375
-43.46,1675335247.859375
-35.95,1675335247.875
-28.23,1675335247.890625
-20.85,1675335247.90625
-14.1,1675335247.921875
-8.04,1675335247.9375
-2.59,1675335247.953125
2.39,1675335247.96875
6.99,1675335247.984375
11.23,1675335248.0
15.06,1675335248.015625
18.38,1675335248.03125
21.14,1675335248.046875
23.31,1675335248.0625
24.94,1675335248.078125
26.09,1675335248.09375
26.86,1675335248.109375
27.36,1675335248.125
27.7,1675335248.140625
28.0,1675335248.15625
28.31,1675335248.171875
28.65,1675335248.1875
28.9,1675335248.203125
28.9,1675335248.21875
28.48,1675335248.234375
27.54,1675335248.25
26.09,1675335248.265625
24.22,1675335248.28125
22.07,1675335248.296875
19.79,1675335248.3125
17.5,1675335248.328125
15.29,1675335248.34375
13.18,1675335248.359375
11.13,1675335248.375
8.99,1675335248.390625
6.59,1675335248.40625
3.77,1675335248.421875
0.51,1675335248.4375
-3.06,1675335248.453125
-6.63,1675335248.46875
-9.87,1675335248.484375
-12.54,1675335248.5
-14.6,1675335248.515625
-16.3,1675335248.53125
-18.03,1675335248.546875
-20.2,1675335248.5625
-23.12,1675335248.578125
-26.91,1675335248.59375
-31.44,1675335248.609375
-36.39,1675335248.625
-41.34,1675335248.640625
-45.79,1675335248.65625
-49.25,1675335248.671875
-51.26,1675335248.6875
-51.43,1675335248.703125
-49.57,1675335248.71875
-45.74,1675335248.734375
-40.27,1675335248.75
-33.69,1675335248.765625
-26.63,1675335248.78125
-19.62,1675335248.796875
-12.95,1675335248.8125
-6.74,1675335248.828125
-0.92,1675335248.84375
4.51,1675335248.859375
9.54,1675335248.875
14.06,1675335248.890625
17.94,1675335248.90625
21.13,1675335248.921875
23.66,1675335248.9375
25.65,1675335248.953125
27.2,1675335248.96875
28.4,1675335248.984375
29.25,1675335249.0
29.69,1675335249.015625
29.68,1675335249.03125
29.22,1675335249.046875
28.37,1675335249.0625
27.21,1675335249.078125
25.85,1675335249.09375
24.35,1675335249.109375
22.77,1675335249.125
21.07,1675335249.140625
19.24,1675335249.15625
17.24,1675335249.171875
15.12,1675335249.1875
12.94,1675335249.203125
10.78,1675335249.21875
8.66,1675335249.234375
6.43,1675335249.25
3.88,1675335249.265625
0.81,1675335249.28125
-2.82,1675335249.296875
-6.76,1675335249.3125
-10.59,1675335249.328125
-13.87,1675335249.34375
-16.42,1675335249.359375
-18.37,1675335249.375
-20.21,1675335249.390625
-22.58,1675335249.40625
-26.0,1675335249.421875
-30.67,1675335249.4375
-36.36,1675335249.453125
-42.47,1675335249.46875
-48.14,1675335249.484375
-52.48,1675335249.5
-54.78,1675335249.515625
-54.6,1675335249.53125
-51.89,1675335249.546875
-46.94,1675335249.5625
-40.31,1675335249.578125
-32.69,1675335249.59375
-24.75,1675335249.609375
-17.03,1675335249.625
-9.84,1675335249.640625
-3.33,1675335249.65625
2.55,1675335249.671875
7.92,1675335249.6875
12.81,1675335249.703125
17.19,1675335249.71875
20.95,1675335249.734375
23.96,1675335249.75
26.19,1675335249.765625
27.71,1675335249.78125
28.67,1675335249.796875
29.23,1675335249.8125
29.53,1675335249.828125
29.69,1675335249.84375
29.79,1675335249.859375
29.93,1675335249.875
30.19,1675335249.890625
30.54,1675335249.90625
30.86,1675335249.921875
30.94,1675335249.9375
30.55,1675335249.953125
29.52,1675335249.96875
27.85,1675335249.984375
25.68,1675335250.0
23.22,1675335250.015625
20.65,1675335250.03125
18.11,1675335250.046875
15.58,1675335250.0625
12.96,1675335250.078125
10.11,1675335250.09375
6.92,1675335250.109375
3.39,1675335250.125
-0.42,1675335250.140625
-4.36,1675335250.15625
-8.23,1675335250.171875
-11.91,1675335250.1875
-15.27,1675335250.203125
-18.36,1675335250.21875
-21.31,1675335250.234375
-24.38,1675335250.25
-27.92,1675335250.265625
-32.25,1675335250.28125
-37.5,1675335250.296875
-43.46,1675335250.3125
-49.51,1675335250.328125
-54.74,1675335250.34375
-58.19,1675335250.359375
-59.15,1675335250.375
-57.37,1675335250.390625
-53.07,1675335250.40625
-46.84,1675335250.421875
-39.36,1675335250.4375
-31.2,1675335250.453125
-22.78,1675335250.46875
-14.35,1675335250.484375
-6.13,1675335250.5
1.67,1675335250.515625
8.8,1675335250.53125
15.1,1675335250.546875
20.45,1675335250.5625
24.85,1675335250.578125
28.38,1675335250.59375
31.15,1675335250.609375
33.29,1675335250.625
34.94,1675335250.640625
36.22,1675335250.65625
37.25,1675335250.671875
38.07,1675335250.6875
38.71,1675335250.703125
39.13,1675335250.71875
39.31,1675335250.734375
39.27,1675335250.75
39.01,1675335250.765625
38.54,1675335250.78125
37.83,1675335250.796875
36.8,1675335250.8125
35.33,1675335250.828125
33.31,1675335250.84375
30.71,1675335250.859375
27.58,1675335250.875
24.13,1675335250.890625
20.62,1675335250.90625
17.28,1675335250.921875
14.23,1675335250.9375
11.4,1675335250.953125
8.6,1675335250.96875
5.6,1675335250.984375
2.29,1675335251.0
-1.28,1675335251.015625
-5.0,1675335251.03125
-8.69,1675335251.046875
-12.27,1675335251.0625
-15.78,1675335251.078125
-19.33,1675335251.09375
-23.09,1675335251.109375
-27.22,1675335251.125
-31.9,1675335251.140625
-37.23,1675335251.15625
-43.21,1675335251.171875
-49.58,1675335251.1875
-55.74,1675335251.203125
-60.83,1675335251.21875
-63.9,1675335251.234375
-64.19,1675335251.25
-61.38,1675335251.265625
-55.68,1675335251.28125
-47.7,1675335251.296875
-38.3,1675335251.3125
-28.32,1675335251.328125
-18.43,1675335251.34375
-9.05,1675335251.359375
-0.36,1675335251.375
7.6,1675335251.390625
14.82,1675335251.40625
21.28,1675335251.421875
26.9,1675335251.4375
31.61,1675335251.453125
35.37,1675335251.46875
38.31,1675335251.484375
40.63,1675335251.5
42.55,1675335251.515625
44.19,1675335251.53125
45.54,1675335251.546875
46.48,1675335251.5625
46.89,1675335251.578125
46.72,1675335251.59375
46.05,1675335251.609375
45.09,1675335251.625
44.02,1675335251.640625
42.99,1675335251.65625
42.01,1675335251.671875
41.0,1675335251.6875
39.83,1675335251.703125
38.32,1675335251.71875
36.39,1675335251.734375
34.02,1675335251.75
31.3,1675335251.765625
28.37,1675335251.78125
25.37,1675335251.796875
22.34,1675335251.8125
19.31,1675335251.828125
16.25,1675335251.84375
13.14,1675335251.859375
10.06,1675335251.875
7.01,1675335251.890625
3.96,1675335251.90625
0.78,1675335251.921875
-2.7,1675335251.9375
-6.56,1675335251.953125
-10.71,1675335251.96875
-14.87,1675335251.984375
-18.75,1675335252.0
-22.17,1675335252.015625
-25.23,1675335252.03125
-28.32,1675335252.046875
-31.96,1675335252.0625
-36.59,1675335252.078125
-42.34,1675335252.09375
-48.82,1675335252.109375
-55.21,1675335252.125
-60.39,1675335252.140625
-63.25,1675335252.15625
-63.05,1675335252.171875
-59.57,1675335252.1875
-53.2,1675335252.203125
-44.73,1675335252.21875
-35.1,1675335252.234375
-25.17,1675335252.25
-15.54,1675335252.265625
-6.5,1675335252.28125
1.87,1675335252.296875
9.62,1675335252.3125
16.81,1675335252.328125
23.47,1675335252.34375
29.46,1675335252.359375
34.61,1675335252.375
38.67,1675335252.390625
41.48,1675335252.40625
43.09,1675335252.421875
43.71,1675335252.4375
43.76,1675335252.453125
43.65,1675335252.46875
43.66,1675335252.484375
43.86,1675335252.5
44.12,1675335252.515625
44.26,1675335252.53125
44.09,1675335252.546875
43.53,1675335252.5625
42.59,1675335252.578125
41.32,1675335252.59375
39.81,1675335252.609375
38.1,1675335252.625
36.23,1675335252.640625
34.17,1675335252.65625
31.89,1675335252.671875
29.37,1675335252.6875
26.62,1675335252.703125
23.69,1675335252.71875
20.68,1675335252.734375
17.7,1675335252.75
14.81,1675335252.765625
11.99,1675335252.78125
9.15,1675335252.796875
6.2,1675335252.8125
3.04,1675335252.828125
-0.34,1675335252.84375
-3.88,1675335252.859375
-7.44,1675335252.875
-10.89,1675335252.890625
-14.13,1675335252.90625
-17.15,1675335252.921875
-20.09,1675335252.9375
-23.22,1675335252.953125
-26.84,1675335252.96875
-31.22,1675335252.984375
-36.43,1675335253.0
-42.28,1675335253.015625
-48.27,1675335253.03125
-53.68,1675335253.046875
-57.69,1675335253.0625
-59.47,1675335253.078125
-58.44,1675335253.09375
-54.41,1675335253.109375
-47.61,1675335253.125
-38.71,1675335253.140625
-28.61,1675335253.15625
-18.33,1675335253.171875
-8.71,1675335253.1875
-0.25,1675335253.203125
6.89,1675335253.21875
12.82,1675335253.234375
17.77,1675335253.25
21.93,1675335253.265625
25.37,1675335253.28125
28.05,1675335253.296875
29.9,1675335253.3125
30.97,1675335253.328125
31.37,1675335253.34375
31.33,1675335253.359375
31.07,1675335253.375
30.7,1675335253.390625
30.24,1675335253.40625
29.64,1675335253.421875
28.88,1675335253.4375
28.0,1675335253.453125
27.09,1675335253.46875
26.22,1675335253.484375
25.34,1675335253.5
24.29,1675335253.515625
22.87,1675335253.53125
20.94,1675335253.546875
18.53,1675335253.5625
15.81,1675335253.578125
12.98,1675335253.59375
10.2,1675335253.609375
7.49,1675335253.625
4.79,1675335253.640625
2.0,1675335253.65625
-0.9,1675335253.671875
-3.83,1675335253.6875
-6.7,1675335253.703125
-9.41,1675335253.71875
-11.95,1675335253.734375
-14.41,1675335253.75
-16.9,1675335253.765625
-19.63,1675335253.78125
-22.8,1675335253.796875
-26.61,1675335253.8125
-31.1,1675335253.828125
-36.06,1675335253.84375
-40.93,1675335253.859375
-44.87,1675335253.875
-46.99,1675335253.890625
-46.62,1675335253.90625
-43.55,1675335253.921875
-38.09,1675335253.9375
-30.94,1675335253.953125
-22.92,1675335253.96875
-14.78,1675335253.984375
-7.01,1675335254.0
0.08,1675335254.015625
6.36,1675335254.03125
11.72,1675335254.046875
16.1,1675335254.0625
19.44,1675335254.078125
21.79,1675335254.09375
23.24,1675335254.109375
23.98,1675335254.125
24.17,1675335254.140625
24.01,1675335254.15625
23.64,1675335254.171875
23.17,1675335254.1875
22.66,1675335254.203125
22.13,1675335254.21875
21.55,1675335254.234375
20.89,1675335254.25
20.11,1675335254.265625
19.22,1675335254.28125
18.24,1675335254.296875
17.16,1675335254.3125
15.94,1675335254.328125
14.46,1675335254.34375
12.54,1675335254.359375
10.03,1675335254.375
6.88,1675335254.390625
3.25,1675335254.40625
-0.6,1675335254.421875
-4.35,1675335254.4375
-7.82,1675335254.453125
-11.05,1675335254.46875
-14.27,1675335254.484375
-17.78,1675335254.5
-21.85,1675335254.515625
-26.53,1675335254.53125
-31.68,1675335254.546875
-36.95,1675335254.5625
-41.86,1675335254.578125
-45.84,1675335254.59375
-48.28,1675335254.609375
-48.64,1675335254.625
-46.61,1675335254.640625
-42.24,1675335254.65625
-35.98,1675335254.671875
-28.59,1675335254.6875
-20.95,1675335254.703125
-13.65,1675335254.71875
-6.95,1675335254.734375
-0.76,1675335254.75
5.12,1675335254.765625
10.76,1675335254.78125
16.0,1675335254.796875
20.51,1675335254.8125
24.04,1675335254.828125
26.52,1675335254.84375
28.16,1675335254.859375
29.27,1675335254.875
30.04,1675335254.890625
30.47,1675335254.90625
30.36,1675335254.921875
29.52,1675335254.9375
27.97,1675335254.953125
25.9,1675335254.96875
23.67,1675335254.984375
21.58,1675335255.0
19.79,1675335255.015625
18.24,1675335255.03125
16.76,1675335255.046875
15.14,1675335255.0625
13.18,1675335255.078125
10.81,1675335255.09375
8.0,1675335255.109375
4.83,1675335255.125
1.49,1675335255.140625
-1.83,1675335255.15625
-4.99,1675335255.171875
-7.93,1675335255.1875
-10.7,1675335255.203125
-13.42,1675335255.21875
-16.25,1675335255.234375
-19.38,1675335255.25
-22.98,1675335255.265625
-27.21,1675335255.28125
-32.09,1675335255.296875
-37.35,1675335255.3125
-42.37,1675335255.328125
-46.23,1675335255.34375
-48.01,1675335255.359375
-47.11,1675335255.375
-43.49,1675335255.390625
-37.68,1675335255.40625
-30.54,1675335255.421875
-22.94,1675335255.4375
-15.44,1675335255.453125
-8.26,1675335255.46875
-1.34,1675335255.484375
5.39,1675335255.5
11.92,1675335255.515625
18.05,1675335255.53125
23.5,1675335255.546875
28.01,1675335255.5625
31.46,1675335255.578125
33.9,1675335255.59375
35.52,1675335255.609375
36.55,1675335255.625
37.24,1675335255.640625
37.73,1675335255.65625
38.09,1675335255.671875
38.27,1675335255.6875
38.17,1675335255.703125
37.71,1675335255.71875
36.86,1675335255.734375
35.68,1675335255.75
34.28,1675335255.765625
32.74,1675335255.78125
31.08,1675335255.796875
29.27,1675335255.8125
27.23,1675335255.828125
24.9,1675335255.84375
22.29,1675335255.859375
19.5,1675335255.875
16.62,1675335255.890625
13.8,1675335255.90625
11.1,1675335255.921875
8.51,1675335255.9375
5.97,1675335255.953125
3.36,1675335255.96875
0.54,1675335255.984375
-2.62,1675335256.0
-6.15,1675335256.015625
-9.93,1675335256.03125
-13.78,1675335256.046875
-17.44,1675335256.0625
-20.76,1675335256.078125
-23.76,1675335256.09375
-26.62,1675335256.109375
-29.67,1675335256.125
-33.24,1675335256.140625
-37.52,1675335256.15625
-42.51,1675335256.171875
-47.94,1675335256.1875
-53.22,1675335256.203125
-57.53,1675335256.21875
-60.02,1675335256.234375
-59.99,1675335256.25
-57.14,1675335256.265625
-51.65,1675335256.28125
-44.19,1675335256.296875
-35.62,1675335256.3125
-26.77,1675335256.328125
-18.16,1675335256.34375
-10.03,1675335256.359375
-2.41,1675335256.375
4.74,1675335256.390625
11.39,1675335256.40625
17.4,1675335256.421875
22.62,1675335256.4375
26.97,1675335256.453125
30.45,1675335256.46875
33.11,1675335256.484375
35.01,1675335256.5
36.18,1675335256.515625
36.7,1675335256.53125
36.7,1675335256.546875
36.38,1675335256.5625
36.0,1675335256.578125
35.73,1675335256.59375
35.64,1675335256.609375
35.67,1675335256.625
35.65,1675335256.640625
35.41,1675335256.65625
34.8,1675335256.671875
33.73,1675335256.6875
32.11,1675335256.703125
30.0,1675335256.71875
27.47,1675335256.734375
24.75,1675335256.75
22.05,1675335256.765625
19.57,1675335256.78125
17.34,1675335256.796875
15.28,1675335256.8125
13.2,1675335256.828125
10.87,1675335256.84375
8.22,1675335256.859375
5.21,1675335256.875
1.95,1675335256.890625
-1.44,1675335256.90625
-4.79,1675335256.921875
-7.97,1675335256.9375
-10.92,1675335256.953125
-13.62,1675335256.96875
-16.2,1675335256.984375
-18.79,1675335257.0
-21.52,1675335257.015625
-24.47,1675335257.03125
-27.56,1675335257.046875
-30.71,1675335257.0625
-33.81,1675335257.078125
-36.94,1675335257.09375
-40.26,1675335257.109375
-44.01,1675335257.125
-48.3,1675335257.140625
-52.97,1675335257.15625
-57.52,1675335257.171875
-61.15,1675335257.1875
-63.05,1675335257.203125
-62.56,1675335257.21875
-59.49,1675335257.234375
-54.12,1675335257.25
-47.12,1675335257.265625
-39.34,1675335257.28125
-31.51,1675335257.296875
-24.1,1675335257.3125
-17.27,1675335257.328125
-10.98,1675335257.34375
-5.13,1675335257.359375
0.36,1675335257.375
5.45,1675335257.390625
10.1,1675335257.40625
14.23,1675335257.421875
17.77,1675335257.4375
20.73,1675335257.453125
23.12,1675335257.46875
24.97,1675335257.484375
26.37,1675335257.5
27.39,1675335257.515625
28.15,1675335257.53125
28.7,1675335257.546875
29.08,1675335257.5625
29.27,1675335257.578125
29.24,1675335257.59375
29.0,1675335257.609375
28.56,1675335257.625
27.98,1675335257.640625
27.29,1675335257.65625
26.47,1675335257.671875
25.5,1675335257.6875
24.33,1675335257.703125
23.01,1675335257.71875
21.6,1675335257.734375
20.19,1675335257.75
18.82,1675335257.765625
17.47,1675335257.78125
16.02,1675335257.796875
14.31,1675335257.8125
12.24,1675335257.828125
9.8,1675335257.84375
7.14,1675335257.859375
4.48,1675335257.875
2.06,1675335257.890625
-0.02,1675335257.90625
-1.83,1675335257.921875
-3.64,1675335257.9375
-5.71,1675335257.953125
-8.24,1675335257.96875
-11.22,1675335257.984375
-14.45,1675335258.0
-17.64,1675335258.015625
-20.49,1675335258.03125
-22.88,1675335258.046875
-24.91,1675335258.0625
-26.87,1675335258.078125
-29.17,1675335258.09375
-32.2,1675335258.109375
-36.15,1675335258.125
-40.91,1675335258.140625
-46.01,1675335258.15625
-50.71,1675335258.171875
-54.13,1675335258.1875
-55.56,1675335258.203125
-54.6,1675335258.21875
-51.26,1675335258.234375
-45.99,1675335258.25
-39.46,1675335258.265625
-32.36,1675335258.28125
-25.3,1675335258.296875
-18.63,1675335258.3125
-12.49,1675335258.328125
-6.83,1675335258.34375
-1.54,1675335258.359375
3.51,1675335258.375
8.31,1675335258.390625
12.8,1675335258.40625
16.82,1675335258.421875
20.25,1675335258.4375
23.02,1675335258.453125
25.15,1675335258.46875
26.68,1675335258.484375
27.68,1675335258.5
28.2,1675335258.515625
28.31,1675335258.53125
28.13,1675335258.546875
27.78,1675335258.5625
27.39,1675335258.578125
26.99,1675335258.59375
26.51,1675335258.609375
25.88,1675335258.625
25.01,1675335258.640625
23.95,1675335258.65625
22.74,1675335258.671875
21.45,1675335258.6875
20.1,1675335258.703125
18.7,1675335258.71875
17.25,1675335258.734375
15.81,1675335258.75
14.44,1675335258.765625
13.16,1675335258.78125
11.89,1675335258.796875
10.45,1675335258.8125
8.69,1675335258.828125
6.54,1675335258.84375
4.1,1675335258.859375
1.61,1675335258.875
-0.74,1675335258.890625
-2.88,1675335258.90625
-4.94,1675335258.921875
-7.14,1675335258.9375
-9.72,1675335258.953125
-12.77,1675335258.96875
-16.19,1675335258.984375
-19.65,1675335259.0
-22.84,1675335259.015625
-25.52,1675335259.03125
-27.73,1675335259.046875
-29.77,1675335259.0625
-32.1,1675335259.078125
-35.12,1675335259.09375
-38.91,1675335259.109375
-43.17,1675335259.125
-47.17,1675335259.140625
-49.98,1675335259.15625
-50.82,1675335259.171875
-49.29,1675335259.1875
-45.51,1675335259.203125
-40.04,1675335259.21875
-33.65,1675335259.234375
-27.0,1675335259.25
-20.51,1675335259.265625
-14.33,1675335259.28125
-8.47,1675335259.296875
-2.94,1675335259.3125
2.21,1675335259.328125
6.87,1675335259.34375
11.0,1675335259.359375
14.61,1675335259.375
17.77,1675335259.390625
20.5,1675335259.40625
22.75,1675335259.421875
24.39,1675335259.4375
25.33,1675335259.453125
25.65,1675335259.46875
25.56,1675335259.484375
25.34,1675335259.5
25.21,1675335259.515625
25.21,1675335259.53125
25.21,1675335259.546875
24.99,1675335259.5625
24.46,1675335259.578125
23.65,1675335259.59375
22.71,1675335259.609375
21.82,1675335259.625
21.06,1675335259.640625
20.37,1675335259.65625
19.63,1675335259.671875
18.71,1675335259.6875
17.59,1675335259.703125
16.32,1675335259.71875
14.94,1675335259.734375
13.5,1675335259.75
11.95,1675335259.765625
10.21,1675335259.78125
8.23,1675335259.796875
6.03,1675335259.8125
3.74,1675335259.828125
1.47,1675335259.84375
-0.68,1675335259.859375
-2.74,1675335259.875
-4.8,1675335259.890625
-6.98,1675335259.90625
-9.34,1675335259.921875
-11.84,1675335259.9375
-14.35,1675335259.953125
-16.7,1675335259.96875
-18.81,1675335259.984375
-20.77,1675335260.0
-22.83,1675335260.015625
-25.35,1675335260.03125
-28.63,1675335260.046875
-32.72,1675335260.0625
-37.33,1675335260.078125
-41.82,1675335260.09375
-45.36,1675335260.109375
-47.15,1675335260.125
-46.64,1675335260.140625
-43.73,1675335260.15625
-38.73,1675335260.171875
-32.32,1675335260.1875
-25.27,1675335260.203125
-18.25,1675335260.21875
-11.74,1675335260.234375
-5.92,1675335260.25
-0.76,1675335260.265625
3.84,1675335260.28125
8.01,1675335260.296875
11.77,1675335260.3125
15.09,1675335260.328125
17.82,1675335260.34375
19.83,1675335260.359375
21.1,1675335260.375
21.73,1675335260.390625
21.96,1675335260.40625
22.08,1675335260.421875
22.36,1675335260.4375
22.89,1675335260.453125
23.57,1675335260.46875
24.18,1675335260.484375
24.51,1675335260.5
24.47,1675335260.515625
24.11,1675335260.53125
23.56,1675335260.546875
22.91,1675335260.5625
22.13,1675335260.578125
21.08,1675335260.59375
19.64,1675335260.609375
17.83,1675335260.625
15.82,1675335260.640625
13.88,1675335260.65625
12.21,1675335260.671875
10.83,1675335260.6875
9.58,1675335260.703125
8.24,1675335260.71875
6.67,1675335260.734375
4.9,1675335260.75
3.04,1675335260.765625
1.2,1675335260.78125
-0.69,1675335260.796875
-2.78,1675335260.8125
-5.29,1675335260.828125
-8.23,1675335260.84375
-11.44,1675335260.859375
-14.6,1675335260.875
-17.42,1675335260.890625
-19.81,1675335260.90625
-21.94,1675335260.921875
-24.2,1675335260.9375
-26.97,1675335260.953125
-30.53,1675335260.96875
-34.87,1675335260.984375
-39.65,1675335261.0
-44.26,1675335261.015625
-47.94,1675335261.03125
-49.94,1675335261.046875
-49.75,1675335261.0625
-47.19,1675335261.078125
-42.54,1675335261.09375
-36.38,1675335261.109375
-29.51,1675335261.125
-22.65,1675335261.140625
-16.31,1675335261.15625
-10.72,1675335261.171875
-5.82,1675335261.1875
-1.47,1675335261.203125
2.45,1675335261.21875
5.99,1675335261.234375
9.08,1675335261.25
11.61,1675335261.265625
13.55,1675335261.28125
14.99,1675335261.296875
16.16,1675335261.3125
17.29,1675335261.328125
18.57,1675335261.34375
19.98,1675335261.359375
21.34,1675335261.375
22.36,1675335261.390625
22.84,1675335261.40625
22.73,1675335261.421875
22.23,1675335261.4375
21.58,1675335261.453125
20.99,1675335261.46875
20.48,1675335261.484375
19.86,1675335261.5
18.88,1675335261.515625
17.38,1675335261.53125
15.38,1675335261.546875
13.1,1675335261.5625
10.85,1675335261.578125
8.86,1675335261.59375
7.19,1675335261.609375
5.72,1675335261.625
4.21,1675335261.640625
2.42,1675335261.65625
0.16,1675335261.671875
-2.64,1675335261.6875
-5.87,1675335261.703125
-9.38,1675335261.71875
-12.92,1675335261.734375
-16.29,1675335261.75
-19.34,1675335261.765625
-22.11,1675335261.78125
-24.77,1675335261.796875
-27.62,1675335261.8125
-31.02,1675335261.828125
-35.26,1675335261.84375
-40.41,1675335261.859375
-46.21,1675335261.875
-52.04,1675335261.890625
-56.97,1675335261.90625
-60.02,1675335261.921875
-60.42,1675335261.9375
-57.89,1675335261.953125
-52.66,1675335261.96875
-45.47,1675335261.984375
-37.25,1675335262.0
-28.86,1675335262.015625
-20.9,1675335262.03125
-13.66,1675335262.046875
-7.19,1675335262.0625
-1.41,1675335262.078125
3.79,1675335262.09375
8.46,1675335262.109375
12.67,1675335262.125
16.43,1675335262.140625
19.74,1675335262.15625
22.55,1675335262.171875
24.76,1675335262.1875
26.29,1675335262.203125
27.18,1675335262.21875
27.56,1675335262.234375
27.7,1675335262.25
27.85,1675335262.265625
28.16,1675335262.28125
28.57,1675335262.296875
28.9,1675335262.3125
28.91,1675335262.328125
28.41,1675335262.34375
27.34,1675335262.359375
25.73,1675335262.375
23.68,1675335262.390625
21.27,1675335262.40625
18.55,1675335262.421875
15.57,1675335262.4375
12.41,1675335262.453125
9.16,1675335262.46875
5.88,1675335262.484375
2.6,1675335262.5
-0.74,1675335262.515625
-4.21,1675335262.53125
-7.88,1675335262.546875
-11.73,1675335262.5625
-15.77,1675335262.578125
-19.97,1675335262.59375
-24.44,1675335262.609375
-29.42,1675335262.625
-35.12,1675335262.640625
-41.65,1675335262.65625
-48.77,1675335262.671875
-55.8,1675335262.6875
-61.75,1675335262.703125
-65.56,1675335262.71875
-66.4,1675335262.734375
-63.98,1675335262.75
-58.56,1675335262.765625
-50.89,1675335262.78125
-41.9,1675335262.796875
-32.46,1675335262.8125
-23.2,1675335262.828125
-14.44,1675335262.84375
-6.26,1675335262.859375
1.39,1675335262.875
8.55,1675335262.890625
15.16,1675335262.90625
21.06,1675335262.921875
26.01,1675335262.9375
29.83,1675335262.953125
32.55,1675335262.96875
34.32,1675335262.984375
35.48,1675335263.0
36.34,1675335263.015625
37.04,1675335263.03125
37.56,1675335263.046875
37.75,1675335263.0625
37.45,1675335263.078125
36.62,1675335263.09375
35.31,1675335263.109375
33.67,1675335263.125
31.77,1675335263.140625
29.6,1675335263.15625
27.0,1675335263.171875
23.8,1675335263.1875
19.89,1675335263.203125
15.33,1675335263.21875
10.31,1675335263.234375
5.15,1675335263.25
0.18,1675335263.265625
-4.4,1675335263.28125
-8.54,1675335263.296875
-12.39,1675335263.3125
-16.25,1675335263.328125
-20.51,1675335263.34375
-25.55,1675335263.359375
-31.68,1675335263.375
-38.99,1675335263.390625
-47.28,1675335263.40625
-55.93,1675335263.421875
-63.99,1675335263.4375
-70.25,1675335263.453125
-73.6,1675335263.46875
-73.31,1675335263.484375
-69.26,1675335263.5
-61.93,1675335263.515625
-52.2,1675335263.53125
-41.1,1675335263.546875
-29.53,1675335263.5625
-18.11,1675335263.578125
-7.16,1675335263.59375
3.2,1675335263.609375
12.95,1675335263.625
22.07,1675335263.640625
30.5,1675335263.65625
38.11,1675335263.671875
44.72,1675335263.6875
50.16,1675335263.703125
54.33,1675335263.71875
57.28,1675335263.734375
59.23,1675335263.75
60.46,1675335263.765625
61.22,1675335263.78125
61.68,1675335263.796875
61.84,1675335263.8125
61.69,1675335263.828125
61.17,1675335263.84375
60.35,1675335263.859375
59.28,1675335263.875
57.99,1675335263.890625
56.36,1675335263.90625
54.22,1675335263.921875
51.33,1675335263.9375
47.62,1675335263.953125
43.19,1675335263.96875
38.41,1675335263.984375
33.68,1675335264.0
29.3,1675335264.015625
25.28,1675335264.03125
21.3,1675335264.046875
16.91,1675335264.0625
11.77,1675335264.078125
5.75,1675335264.09375
-0.91,1675335264.109375
-7.79,1675335264.125
-14.47,1675335264.140625
-20.65,1675335264.15625
-26.27,1675335264.171875
-31.5,1675335264.1875
-36.65,1675335264.203125
-42.13,1675335264.21875
-48.36,1675335264.234375
-55.71,1675335264.25
-64.31,1675335264.265625
-73.84,1675335264.28125
-83.47,1675335264.296875
-91.81,1675335264.3125
-97.25,1675335264.328125
-98.46,1675335264.34375
-94.8,1675335264.359375
-86.49,1675335264.375
-74.56,1675335264.390625
-60.37,1675335264.40625
-45.26,1675335264.421875
-30.13,1675335264.4375
-15.38,1675335264.453125
-1.13,1675335264.46875
12.65,1675335264.484375
25.84,1675335264.5
38.17,1675335264.515625
49.3,1675335264.53125
58.9,1675335264.546875
66.82,1675335264.5625
73.05,1675335264.578125
77.71,1675335264.59375
80.99,1675335264.609375
83.08,1675335264.625
84.17,1675335264.640625
84.41,1675335264.65625
84.0,1675335264.671875
83.14,1675335264.6875
82.11,1675335264.703125
81.1,1675335264.71875
80.21,1675335264.734375
79.35,1675335264.75
78.27,1675335264.765625
76.67,1675335264.78125
74.33,1675335264.796875
71.21,1675335264.8125
67.48,1675335264.828125
63.4,1675335264.84375
59.21,1675335264.859375
55.05,1675335264.875
50.93,1675335264.890625
46.8,1675335264.90625
42.56,1675335264.921875
38.19,1675335264.9375
33.66,1675335264.953125
28.98,1675335264.96875
24.18,1675335264.984375
19.38,1675335265.0
14.7,1675335265.015625
10.28,1675335265.03125
6.11,1675335265.046875
2.02,1675335265.0625
-2.32,1675335265.078125
-7.2,1675335265.09375
-12.73,1675335265.109375
-18.68,1675335265.125
-24.57,1675335265.140625
-29.93,1675335265.15625
-34.56,1675335265.171875
-38.7,1675335265.1875
-42.93,1675335265.203125
-47.97,1675335265.21875
-54.35,1675335265.234375
-62.22,1675335265.25
-71.22,1675335265.265625
-80.59,1675335265.28125
-89.25,1675335265.296875
-95.9,1675335265.3125
-99.29,1675335265.328125
-98.45,1675335265.34375
-92.91,1675335265.359375
-82.99,1675335265.375
-69.65,1675335265.390625
-54.32,1675335265.40625
-38.41,1675335265.421875
-22.97,1675335265.4375
-8.56,1675335265.453125
4.73,1675335265.46875
16.99,1675335265.484375
28.29,1675335265.5
38.55,1675335265.515625
47.62,1675335265.53125
55.34,1675335265.546875
61.65,1675335265.5625
66.62,1675335265.578125
70.36,1675335265.59375
73.0,1675335265.609375
74.64,1675335265.625
75.44,1675335265.640625
75.54,1675335265.65625
75.14,1675335265.671875
74.43,1675335265.6875
73.52,1675335265.703125
72.51,1675335265.71875
71.37,1675335265.734375
70.02,1675335265.75
68.36,1675335265.765625
66.27,1675335265.78125
63.71,1675335265.796875
60.73,1675335265.8125
57.47,1675335265.828125
54.1,1675335265.84375
50.78,1675335265.859375
47.55,1675335265.875
44.38,1675335265.890625
41.14,1675335265.90625
37.7,1675335265.921875
33.98,1675335265.9375
30.01,1675335265.953125
25.93,1675335265.96875
21.93,1675335265.984375
18.2,1675335266.0
14.83,1675335266.015625
11.82,1675335266.03125
8.98,1675335266.046875
6.03,1675335266.0625
2.65,1675335266.078125
-1.41,1675335266.09375
-6.17,1675335266.109375
-11.5,1675335266.125
-17.06,1675335266.140625
-22.48,1675335266.15625
-27.45,1675335266.171875
-31.8,1675335266.1875
-35.58,1675335266.203125
-39.01,1675335266.21875
-42.47,1675335266.234375
-46.39,1675335266.25
-51.22,1675335266.265625
-57.17,1675335266.28125
-64.16,1675335266.296875
-71.64,1675335266.3125
-78.64,1675335266.328125
-83.91,1675335266.34375
-86.27,1675335266.359375
-84.88,1675335266.375
-79.56,1675335266.390625
-70.8,1675335266.40625
-59.62,1675335266.421875
-47.21,1675335266.4375
-34.65,1675335266.453125
-22.61,1675335266.46875
-11.37,1675335266.484375
-0.93,1675335266.5
8.81,1675335266.515625
17.87,1675335266.53125
26.14,1675335266.546875
33.4,1675335266.5625
39.41,1675335266.578125
44.06,1675335266.59375
47.43,1675335266.609375
49.77,1675335266.625
51.41,1675335266.640625
52.65,1675335266.65625
53.61,1675335266.671875
54.3,1675335266.6875
54.65,1675335266.703125
54.61,1675335266.71875
54.26,1675335266.734375
53.71,1675335266.75
53.01,1675335266.765625
52.12,1675335266.78125
50.86,1675335266.796875
49.0,1675335266.8125
46.45,1675335266.828125
43.29,1675335266.84375
39.8,1675335266.859375
36.27,1675335266.875
32.93,1675335266.890625
29.79,1675335266.90625
26.7,1675335266.921875
23.43,1675335266.9375
19.84,1675335266.953125
15.99,1675335266.96875
12.08,1675335266.984375
8.39,1675335267.0
5.13,1675335267.015625
2.31,1675335267.03125
-0.27,1675335267.046875
-2.89,1675335267.0625
-5.84,1675335267.078125
-9.25,1675335267.09375
-13.06,1675335267.109375
-17.08,1675335267.125
-21.1,1675335267.140625
-24.98,1675335267.15625
-28.68,1675335267.171875
-32.27,1675335267.1875
-35.87,1675335267.203125
-39.68,1675335267.21875
-43.89,1675335267.234375
-48.66,1675335267.25
-53.91,1675335267.265625
-59.24,1675335267.28125
-63.91,1675335267.296875
-66.93,1675335267.3125
-67.39,1675335267.328125
-64.79,1675335267.34375
-59.23,1675335267.359375
-51.37,1675335267.375
-42.23,1675335267.390625
-32.78,1675335267.40625
-23.71,1675335267.421875
-15.3,1675335267.4375
-7.55,1675335267.453125
-0.35,1675335267.46875
6.33,1675335267.484375
12.37,1675335267.5
17.61,1675335267.515625
21.9,1675335267.53125
25.21,1675335267.546875
27.64,1675335267.5625
29.39,1675335267.578125
30.66,1675335267.59375
31.62,1675335267.609375
32.33,1675335267.625
32.85,1675335267.640625
33.19,1675335267.65625
33.36,1675335267.671875
33.37,1675335267.6875
33.22,1675335267.703125
32.87,1675335267.71875
32.28,1675335267.734375
31.39,1675335267.75
30.1,1675335267.765625
28.36,1675335267.78125
26.18,1675335267.796875
23.65,1675335267.8125
20.95,1675335267.828125
18.32,1675335267.84375
15.93,1675335267.859375
13.79,1675335267.875
11.8,1675335267.890625
9.74,1675335267.90625
7.45,1675335267.921875
4.82,1675335267.9375
1.94,1675335267.953125
-1.03,1675335267.96875
-3.89,1675335267.984375
-6.55,1675335268.0
-8.97,1675335268.015625
-11.26,1675335268.03125
-13.56,1675335268.046875
-16.01,1675335268.0625
-18.68,1675335268.078125
-21.57,1675335268.09375
-24.57,1675335268.109375
-27.53,1675335268.125
-30.29,1675335268.140625
-32.82,1675335268.15625
-35.2,1675335268.171875
-37.65,1675335268.1875
-40.42,1675335268.203125
-43.7,1675335268.21875
-47.47,1675335268.234375
-51.4,1675335268.25
-54.87,1675335268.265625
-57.12,1675335268.28125
-57.52,1675335268.296875
-55.69,1675335268.3125
-51.74,1675335268.328125
-46.1,1675335268.34375
-39.45,1675335268.359375
-32.47,1675335268.375
-25.65,1675335268.390625
-19.25,1675335268.40625
-13.32,1675335268.421875
-7.83,1675335268.4375
-2.75,1675335268.453125
1.89,1675335268.46875
5.99,1675335268.484375
9.49,1675335268.5
12.36,1675335268.515625
14.65,1675335268.53125
16.47,1675335268.546875
17.94,1675335268.5625
19.13,1675335268.578125
20.14,1675335268.59375
21.0,1675335268.609375
21.76,1675335268.625
22.44,1675335268.640625
23.0,1675335268.65625
23.38,1675335268.671875
23.47,1675335268.6875
23.17,1675335268.703125
22.47,1675335268.71875
21.4,1675335268.734375
20.03,1675335268.75
18.45,1675335268.765625
16.72,1675335268.78125
14.87,1675335268.796875
12.97,1675335268.8125
11.04,1675335268.828125
9.18,1675335268.84375
7.43,1675335268.859375
5.77,1675335268.875
4.17,1675335268.890625
2.57,1675335268.90625
0.92,1675335268.921875
-0.78,1675335268.9375
-2.54,1675335268.953125
-4.4,1675335268.96875
-6.42,1675335268.984375
-8.69,1675335269.0
-11.28,1675335269.015625
-14.12,1675335269.03125
-17.07,1675335269.046875
-19.9,1675335269.0625
-22.4,1675335269.078125
-24.55,1675335269.09375
-26.45,1675335269.109375
-28.4,1675335269.125
-30.71,1675335269.140625
-33.6,1675335269.15625
-37.14,1675335269.171875
-41.16,1675335269.1875
-45.3,1675335269.203125
-48.99,1675335269.21875
-51.58,1675335269.234375
-52.42,1675335269.25
-51.09,1675335269.265625
-47.54,1675335269.28125
-42.14,1675335269.296875
-35.59,1675335269.3125
-28.74,1675335269.328125
-22.26,1675335269.34375
-16.52,1675335269.359375
-11.56,1675335269.375
-7.19,1675335269.390625
-3.19,1675335269.40625
0.53,1675335269.421875
3.93,1675335269.4375
6.89,1675335269.453125
9.34,1675335269.46875
11.31,1675335269.484375
12.93,1675335269.5
14.36,1675335269.515625
15.7,1675335269.53125
16.96,1675335269.546875
18.0,1675335269.5625
18.68,1675335269.578125
18.92,1675335269.59375
18.74,1675335269.609375
18.3,1675335269.625
17.78,1675335269.640625
17.32,1675335269.65625
16.95,1675335269.671875
16.6,1675335269.6875
16.11,1675335269.703125
15.4,1675335269.71875
14.4,1675335269.734375
13.14,1675335269.75
11.73,1675335269.765625
10.26,1675335269.78125
8.78,1675335269.796875
7.3,1675335269.8125
5.73,1675335269.828125
4.0,1675335269.84375
2.09,1675335269.859375
0.11,1675335269.875
-1.81,1675335269.890625
-3.52,1675335269.90625
-5.01,1675335269.921875
-6.39,1675335269.9375
-7.87,1675335269.953125
-9.67,1675335269.96875
-11.87,1675335269.984375
-14.41,1675335270.0
-17.12,1675335270.015625
-19.77,1675335270.03125
-22.23,1675335270.046875
-24.49,1675335270.0625
-26.63,1675335270.078125
-28.86,1675335270.09375
-31.38,1675335270.109375
-34.36,1675335270.125
-37.82,1675335270.140625
-41.58,1675335270.15625
-45.21,1675335270.171875
-48.05,1675335270.1875
-49.42,1675335270.203125
-48.82,1675335270.21875
-46.12,1675335270.234375
-41.64,1675335270.25
-36.03,1675335270.265625
-29.99,1675335270.28125
-24.03,1675335270.296875
-18.41,1675335270.3125
-13.13,1675335270.328125
-8.15,1675335270.34375
-3.47,1675335270.359375
0.83,1675335270.375
4.62,1675335270.390625
7.83,1675335270.40625
10.5,1675335270.421875
12.77,1675335270.4375
14.77,1675335270.453125
16.55,1675335270.46875
18.11,1675335270.484375
19.38,1675335270.5
20.32,1675335270.515625
20.95,1675335270.53125
21.37,1675335270.546875
21.64,1675335270.5625
21.8,1675335270.578125
21.86,1675335270.59375
21.77,1675335270.609375
21.51,1675335270.625
21.06,1675335270.640625
20.46,1675335270.65625
19.75,1675335270.671875
18.98,1675335270.6875
18.17,1675335270.703125
17.26,1675335270.71875
16.13,1675335270.734375
14.67,1675335270.75
12.77,1675335270.765625
10.48,1675335270.78125
7.96,1675335270.796875
5.47,1675335270.8125
3.21,1675335270.828125
1.25,1675335270.84375
-0.49,1675335270.859375
-2.16,1675335270.875
-3.92,1675335270.890625
-5.85,1675335270.90625
-8.0,1675335270.921875
-10.36,1675335270.9375
-12.93,1675335270.953125
-15.68,1675335270.96875
-18.49,1675335270.984375
-21.2,1675335271.0
-23.71,1675335271.015625
-26.04,1675335271.03125
-28.44,1675335271.046875
-31.27,1675335271.0625
-34.8,1675335271.078125
-39.0,1675335271.09375
-43.42,1675335271.109375
-47.31,1675335271.125
-49.84,1675335271.140625
-50.38,1675335271.15625
-48.68,1675335271.171875
-44.91,1675335271.1875
-39.56,1675335271.203125
-33.21,1675335271.21875
-26.48,1675335271.234375
-19.8,1675335271.25
-13.48,1675335271.265625
-7.6,1675335271.28125
-2.2,1675335271.296875
2.79,1675335271.3125
7.35,1675335271.328125
11.43,1675335271.34375
14.95,1675335271.359375
17.8,1675335271.375
19.95,1675335271.390625
21.47,1675335271.40625
22.53,1675335271.421875
23.36,1675335271.4375
24.11,1675335271.453125
24.84,1675335271.46875
25.5,1675335271.484375
26.0,1675335271.5
26.25,1675335271.515625
26.24,1675335271.53125
26.0,1675335271.546875
25.59,1675335271.5625
25.07,1675335271.578125
24.45,1675335271.59375
23.71,1675335271.609375
22.83,1675335271.625
21.79,1675335271.640625
20.59,1675335271.65625
19.21,1675335271.671875
17.63,1675335271.6875
15.83,1675335271.703125
13.81,1675335271.71875
11.62,1675335271.734375
9.35,1675335271.75
7.09,1675335271.765625
4.86,1675335271.78125
2.66,1675335271.796875
0.43,1675335271.8125
-1.9,1675335271.828125
-4.34,1675335271.84375
-6.84,1675335271.859375
-9.36,1675335271.875
-11.81,1675335271.890625
-14.22,1675335271.90625
-16.65,1675335271.921875
-19.25,1675335271.9375
-22.2,1675335271.953125
-25.59,1675335271.96875
-29.45,1675335271.984375
-33.64,1675335272.0
-37.97,1675335272.015625
-42.07,1675335272.03125
-45.47,1675335272.046875
-47.64,1675335272.0625
-48.06,1675335272.078125
-46.4,1675335272.09375
-42.63,1675335272.109375
-37.08,1675335272.125
-30.34,1675335272.140625
-23.17,1675335272.15625
-16.16,1675335272.171875
-9.66,1675335272.1875
-3.76,1675335272.203125
1.63,1675335272.21875
6.6,1675335272.234375
11.15,1675335272.25
15.14,1675335272.265625
18.42,1675335272.28125
20.89,1675335272.296875
22.58,1675335272.3125
23.63,1675335272.328125
24.27,1675335272.34375
24.74,1675335272.359375
25.24,1675335272.375
25.84,1675335272.390625
26.51,1675335272.40625
27.09,1675335272.421875
27.36,1675335272.4375
27.17,1675335272.453125
26.5,1675335272.46875
25.46,1675335272.484375
24.23,1675335272.5
22.95,1675335272.515625
21.59,1675335272.53125
20.0,1675335272.546875
17.99,1675335272.5625
15.45,1675335272.578125
12.5,1675335272.59375
9.41,1675335272.609375
6.49,1675335272.625
3.94,1675335272.640625
1.74,1675335272.65625
-0.33,1675335272.671875
-2.53,1675335272.6875
-5.07,1675335272.703125
-7.99,1675335272.71875
-11.2,1675335272.734375
-14.55,1675335272.75
-17.87,1675335272.765625
-21.1,1675335272.78125
-24.22,1675335272.796875
-27.31,1675335272.8125
-30.51,1675335272.828125
-34.05,1675335272.84375
-38.21,1675335272.859375
-43.21,1675335272.875
-49.05,1675335272.890625
-55.36,1675335272.90625
-61.31,1675335272.921875
-65.84,1675335272.9375
-67.94,1675335272.953125
-67.05,1675335272.96875
-63.2,1675335272.984375
-57.05,1675335273.0
-49.53,1675335273.015625
-41.55,1675335273.03125
-33.67,1675335273.046875
-26.08,1675335273.0625
-18.72,1675335273.078125
-11.49,1675335273.09375
-4.41,1675335273.109375
2.35,1675335273.125
8.55,1675335273.140625
13.98,1675335273.15625
18.55,1675335273.171875
22.25,1675335273.1875
25.18,1675335273.203125
27.51,1675335273.21875
29.39,1675335273.234375
30.92,1675335273.25
32.18,1675335273.265625
33.19,1675335273.28125
33.96,1675335273.296875
34.51,1675335273.3125
34.85,1675335273.328125
35.03,1675335273.34375
35.03,1675335273.359375
34.84,1675335273.375
34.4,1675335273.390625
33.64,1675335273.40625
32.49,1675335273.421875
30.95,1675335273.4375
29.06,1675335273.453125
26.85,1675335273.46875
24.39,1675335273.484375
21.77,1675335273.5
19.1,1675335273.515625
16.44,1675335273.53125
13.85,1675335273.546875
11.23,1675335273.5625
8.41,1675335273.578125
5.16,1675335273.59375
1.31,1675335273.609375
-3.12,1675335273.625
-7.9,1675335273.640625
-12.65,1675335273.65625
-17.03,1675335273.671875
-20.86,1675335273.6875
-24.28,1675335273.703125
-27.63,1675335273.71875
-31.35,1675335273.734375
-35.83,1675335273.75
-41.24,1675335273.765625
-47.52,1675335273.78125
-54.35,1675335273.796875
-61.14,1675335273.8125
-67.09,1675335273.828125
-71.31,1675335273.84375
-72.98,1675335273.859375
-71.63,1675335273.875
-67.25,1675335273.890625
-60.36,1675335273.90625
-51.76,1675335273.921875
-42.3,1675335273.9375
-32.63,1675335273.953125
-23.02,1675335273.96875
-13.53,1675335273.984375
-4.07,1675335274.0
5.32,1675335274.015625
14.42,1675335274.03125
22.91,1675335274.046875
30.42,1675335274.0625
36.66,1675335274.078125
41.49,1675335274.09375
44.96,1675335274.109375
47.28,1675335274.125
48.78,1675335274.140625
49.79,1675335274.15625
50.63,1675335274.171875
51.44,1675335274.1875
52.22,1675335274.203125
52.84,1675335274.21875
53.11,1675335274.234375
52.91,1675335274.25
52.18,1675335274.265625
50.94,1675335274.28125
49.29,1675335274.296875
47.31,1675335274.3125
45.08,1675335274.328125
42.64,1675335274.34375
40.03,1675335274.359375
37.25,1675335274.375
34.27,1675335274.390625
31.08,1675335274.40625
27.65,1675335274.421875
24.0,1675335274.4375
20.19,1675335274.453125
16.29,1675335274.46875
12.31,1675335274.484375
8.27,1675335274.5
4.1,1675335274.515625
-0.26,1675335274.53125
-4.83,1675335274.546875
-9.56,1675335274.5625
-14.36,1675335274.578125
-19.1,1675335274.59375
-23.65,1675335274.609375
-27.96,1675335274.625
-32.04,1675335274.640625
-36.08,1675335274.65625
-40.37,1675335274.671875
-45.29,1675335274.6875
-51.15,1675335274.703125
-57.92,1675335274.71875
-65.16,1675335274.734375
-71.9,1675335274.75
-76.9,1675335274.765625
-78.97,1675335274.78125
-77.37,1675335274.796875
-72.08,1675335274.8125
-63.78,1675335274.828125
-53.59,1675335274.84375
-42.58,1675335274.859375
-31.5,1675335274.875
-20.62,1675335274.890625
-9.89,1675335274.90625
0.81,1675335274.921875
11.41,1675335274.9375
21.58,1675335274.953125
30.8,1675335274.96875
38.57,1675335274.984375
44.63,1675335275.0
49.01,1675335275.015625
52.0,1675335275.03125
53.96,1675335275.046875
55.24,1675335275.0625
56.07,1675335275.078125
56.6,1675335275.09375
56.92,1675335275.109375
57.12,1675335275.125
57.24,1675335275.140625
57.3,1675335275.15625
57.22,1675335275.171875
56.85,1675335275.1875
56.04,1675335275.203125
54.68,1675335275.21875
52.77,1675335275.234375
50.37,1675335275.25
47.63,1675335275.265625
44.72,1675335275.28125
41.79,1675335275.296875
38.95,1675335275.3125
36.2,1675335275.328125
33.45,1675335275.34375
30.53,1675335275.359375
27.25,1675335275.375
23.55,1675335275.390625
19.57,1675335275.40625
15.57,1675335275.421875
11.82,1675335275.4375
8.47,1675335275.453125
5.39,1675335275.46875
2.3,1675335275.484375
-1.15,1675335275.5
-5.17,1675335275.515625
-9.75,1675335275.53125
-14.64,1675335275.546875
-19.56,1675335275.5625
-24.26,1675335275.578125
-28.71,1675335275.59375
-33.07,1675335275.609375
-37.66,1675335275.625
-42.84,1675335275.640625
-48.9,1675335275.65625
-55.89,1675335275.671875
-63.43,1675335275.6875
-70.7,1675335275.703125
-76.52,1675335275.71875
-79.64,1675335275.734375
-79.17,1675335275.75
-74.88,1675335275.765625
-67.22,1675335275.78125
-57.15,1675335275.796875
-45.73,1675335275.8125
-33.89,1675335275.828125
-22.21,1675335275.84375
-10.99,1675335275.859375
-0.38,1675335275.875
9.5,1675335275.890625
18.56,1675335275.90625
26.71,1675335275.921875
33.88,1675335275.9375
40.01,1675335275.953125
45.04,1675335275.96875
48.92,1675335275.984375
51.72,1675335276.0
53.61,1675335276.015625
54.89,1675335276.03125
55.82,1675335276.046875
56.58,1675335276.0625
57.18,1675335276.078125
57.53,1675335276.09375
57.51,1675335276.109375
57.08,1675335276.125
56.33,1675335276.140625
55.34,1675335276.15625
54.19,1675335276.171875
52.86,1675335276.1875
51.22,1675335276.203125
49.15,1675335276.21875
46.62,1675335276.234375
43.72,1675335276.25
40.62,1675335276.265625
37.59,1675335276.28125
34.72,1675335276.296875
32.03,1675335276.3125
29.37,1675335276.328125
26.57,1675335276.34375
23.5,1675335276.359375
20.19,1675335276.375
16.75,1675335276.390625
13.34,1675335276.40625
10.0,1675335276.421875
6.62,1675335276.4375
2.99,1675335276.453125
-1.1,1675335276.46875
-5.71,1675335276.484375
-10.68,1675335276.5
-15.69,1675335276.515625
-20.34,1675335276.53125
-24.38,1675335276.546875
-27.73,1675335276.5625
-30.6,1675335276.578125
-33.39,1675335276.59375
-36.61,1675335276.609375
-40.7,1675335276.625
-45.91,1675335276.640625
-52.16,1675335276.65625
-58.94,1675335276.671875
-65.35,1675335276.6875
-70.22,1675335276.703125
-72.43,1675335276.71875
-71.2,1675335276.734375
-66.37,1675335276.75
-58.4,1675335276.765625
-48.23,1675335276.78125
-36.99,1675335276.796875
-25.64,1675335276.8125
-14.81,1675335276.828125
-4.76,1675335276.84375
4.51,1675335276.859375
13.07,1675335276.875
20.91,1675335276.890625
27.92,1675335276.90625
33.94,1675335276.921875
38.83,1675335276.9375
42.57,1675335276.953125
45.25,1675335276.96875
47.08,1675335276.984375
48.26,1675335277.0
48.97,1675335277.015625
49.32,1675335277.03125
49.36,1675335277.046875
49.11,1675335277.0625
48.57,1675335277.078125
47.75,1675335277.09375
46.69,1675335277.109375
45.45,1675335277.125
44.1,1675335277.140625
42.71,1675335277.15625
41.29,1675335277.171875
39.82,1675335277.1875
38.22,1675335277.203125
36.39,1675335277.21875
34.27,1675335277.234375
31.82,1675335277.25
29.04,1675335277.265625
25.99,1675335277.28125
22.73,1675335277.296875
19.36,1675335277.3125
16.03,1675335277.328125
12.85,1675335277.34375
9.94,1675335277.359375
7.27,1675335277.375
4.73,1675335277.390625
2.12,1675335277.40625
-0.77,1675335277.421875
-4.04,1675335277.4375
-7.68,1675335277.453125
-11.53,1675335277.46875
-15.4,1675335277.484375
-19.05,1675335277.5
-22.37,1675335277.515625
-25.36,1675335277.53125
-28.23,1675335277.546875
-31.31,1675335277.5625
-35.0,1675335277.578125
-39.6,1675335277.59375
-45.07,1675335277.609375
-50.89,1675335277.625
-56.15,1675335277.640625
-59.71,1675335277.65625
-60.57,1675335277.671875
-58.16,1675335277.6875
-52.59,1675335277.703125
-44.53,1675335277.71875
-35.02,1675335277.734375
-25.1,1675335277.75
-15.59,1675335277.765625
-6.93,1675335277.78125
0.67,1675335277.796875
7.22,1675335277.8125
12.77,1675335277.828125
17.35,1675335277.84375
21.07,1675335277.859375
24.04,1675335277.875
26.46,1675335277.890625
28.49,1675335277.90625
30.22,1675335277.921875
31.64,1675335277.9375
32.71,1675335277.953125
33.41,1675335277.96875
33.77,1675335277.984375
33.87,1675335278.0
33.73,1675335278.015625
33.37,1675335278.03125
32.68,1675335278.046875
31.61,1675335278.0625
30.13,1675335278.078125
28.31,1675335278.09375
26.28,1675335278.109375
24.14,1675335278.125
21.94,1675335278.140625
19.65,1675335278.15625
17.21,1675335278.171875
14.59,1675335278.1875
11.79,1675335278.203125
8.9,1675335278.21875
6.03,1675335278.234375
3.28,1675335278.25
0.67,1675335278.265625
-1.85,1675335278.28125
-4.39,1675335278.296875
-7.09,1675335278.3125
-10.06,1675335278.328125
-13.3,1675335278.34375
-16.71,1675335278.359375
-20.14,1675335278.375
-23.41,1675335278.390625
-26.47,1675335278.40625
-29.38,1675335278.421875
-32.36,1675335278.4375
-35.71,1675335278.453125
-39.72,1675335278.46875
-44.51,1675335278.484375
-50.02,1675335278.5
-55.88,1675335278.515625
-61.47,1675335278.53125
-66.06,1675335278.546875
-68.86,1675335278.5625
-69.3,1675335278.578125
-67.1,1675335278.59375
-62.38,1675335278.609375
-55.57,1675335278.625
-47.36,1675335278.640625
-38.49,1675335278.65625
-29.61,1675335278.671875
-21.2,1675335278.6875
-13.49,1675335278.703125
-6.52,1675335278.71875
-0.23,1675335278.734375
5.5,1675335278.75
10.71,1675335278.765625
15.39,1675335278.78125
19.42,1675335278.796875
22.72,1675335278.8125
25.29,1675335278.828125
27.22,1675335278.84375
28.69,1675335278.859375
29.86,1675335278.875
30.76,1675335278.890625
31.3,1675335278.90625
31.35,1675335278.921875
30.87,1675335278.9375
29.96,1675335278.953125
28.84,1675335278.96875
27.79,1675335278.984375
26.94,1675335279.0
26.23,1675335279.015625
25.46,1675335279.03125
24.38,1675335279.046875
22.79,1675335279.0625
20.68,1675335279.078125
18.16,1675335279.09375
15.42,1675335279.109375
12.67,1675335279.125
10.05,1675335279.140625
7.62,1675335279.15625
5.35,1675335279.171875
3.11,1675335279.1875
0.74,1675335279.203125
-1.92,1675335279.21875
-4.9,1675335279.234375
-8.15,1675335279.25
-11.48,1675335279.265625
-14.69,1675335279.28125
-17.67,1675335279.296875
-20.42,1675335279.3125
-23.1,1675335279.328125
-25.93,1675335279.34375
-29.16,1675335279.359375
-32.99,1675335279.375
-37.54,1675335279.390625
-42.78,1675335279.40625
-48.44,1675335279.421875
-53.99,1675335279.4375
-58.61,1675335279.453125
-61.41,1675335279.46875
-61.6,1675335279.484375
-58.84,1675335279.5
-53.3,1675335279.515625
-45.7,1675335279.53125
-37.01,1675335279.546875
-28.2,1675335279.5625
-19.94,1675335279.578125
-12.49,1675335279.59375
-5.83,1675335279.609375
0.24,1675335279.625
5.9,1675335279.640625
11.21,1675335279.65625
16.08,1675335279.671875
20.37,1675335279.6875
23.95,1675335279.703125
26.74,1675335279.71875
28.75,1675335279.734375
30.05,1675335279.75
30.74,1675335279.765625
30.97,1675335279.78125
30.94,1675335279.796875
30.86,1675335279.8125
30.86,1675335279.828125
30.98,1675335279.84375
31.14,1675335279.859375
31.15,1675335279.875
30.85,1675335279.890625
30.14,1675335279.90625
29.04,1675335279.921875
27.62,1675335279.9375
25.96,1675335279.953125
24.13,1675335279.96875
22.16,1675335279.984375
20.04,1675335280.0
17.82,1675335280.015625
15.53,1675335280.03125
13.21,1675335280.046875
10.86,1675335280.0625
8.45,1675335280.078125
5.89,1675335280.09375
3.11,1675335280.109375
0.07,1675335280.125
-3.18,1675335280.140625
-6.56,1675335280.15625
-9.95,1675335280.171875
-13.22,1675335280.1875
-16.35,1675335280.203125
-19.36,1675335280.21875
-22.37,1675335280.234375
-25.56,1675335280.25
-29.12,1675335280.265625
-33.2,1675335280.28125
-37.85,1675335280.296875
-42.91,1675335280.3125
-47.96,1675335280.328125
-52.32,1675335280.34375
-55.21,1675335280.359375
-55.92,1675335280.375
-54.08,1675335280.390625
-49.77,1675335280.40625
-43.54,1675335280.421875
-36.16,1675335280.4375
-28.4,1675335280.453125
-20.85,1675335280.46875
-13.72,1675335280.484375
-7.02,1675335280.5
-0.59,1675335280.515625
5.64,1675335280.53125
11.64,1675335280.546875
17.22,1675335280.5625
22.12,1675335280.578125
26.15,1675335280.59375
29.25,1675335280.609375
31.53,1675335280.625
33.2,1675335280.640625
34.5,1675335280.65625
35.54,1675335280.671875
36.36,1675335280.6875
36.87,1675335280.703125
37.02,1675335280.71875
36.85,1675335280.734375
36.44,1675335280.75
35.85,1675335280.765625
35.07,1675335280.78125
34.04,1675335280.796875
32.67,1675335280.8125
31.02,1675335280.828125
29.23,1675335280.84375
27.51,1675335280.859375
25.93,1675335280.875
24.44,1675335280.890625
22.84,1675335280.90625
20.94,1675335280.921875
18.71,1675335280.9375
16.24,1675335280.953125
13.75,1675335280.96875
11.38,1675335280.984375
9.17,1675335281.0
7.01,1675335281.015625
4.74,1675335281.03125
2.26,1675335281.046875
-0.43,1675335281.0625
-3.29,1675335281.078125
-6.22,1675335281.09375
-9.22,1675335281.109375
-12.3,1675335281.125
-15.46,1675335281.140625
-18.66,1675335281.15625
-21.82,1675335281.171875
-24.88,1675335281.1875
-27.91,1675335281.203125
-31.08,1675335281.21875
-34.68,1675335281.234375
-38.86,1675335281.25
-43.54,1675335281.265625
-48.2,1675335281.28125
-52.05,1675335281.296875
-54.2,1675335281.3125
-53.98,1675335281.328125
-51.19,1675335281.34375
-46.11,1675335281.359375
-39.45,1675335281.375
-32.01,1675335281.390625
-24.47,1675335281.40625
-17.23,1675335281.421875
-10.4,1675335281.4375
-3.95,1675335281.453125
2.14,1675335281.46875
7.85,1675335281.484375
13.06,1675335281.5
17.6,1675335281.515625
21.42,1675335281.53125
24.52,1675335281.546875
27.01,1675335281.5625
29.02,1675335281.578125
30.62,1675335281.59375
31.82,1675335281.609375
32.63,1675335281.625
33.06,1675335281.640625
33.22,1675335281.65625
33.27,1675335281.671875
33.3,1675335281.6875
33.31,1675335281.703125
33.16,1675335281.71875
32.65,1675335281.734375
31.63,1675335281.75
30.1,1675335281.765625
28.23,1675335281.78125
26.28,1675335281.796875
24.46,1675335281.8125
22.85,1675335281.828125
21.37,1675335281.84375
19.84,1675335281.859375
18.09,1675335281.875
16.05,1675335281.890625
13.75,1675335281.90625
11.3,1675335281.921875
8.8,1675335281.9375
6.32,1675335281.953125
3.84,1675335281.96875
1.29,1675335281.984375
-1.35,1675335282.0
-4.03,1675335282.015625
-6.63,1675335282.03125
-9.03,1675335282.046875
-11.16,1675335282.0625
-13.07,1675335282.078125
-14.94,1675335282.09375
-16.94,1675335282.109375
-19.22,1675335282.125
-21.89,1675335282.140625
-25.03,1675335282.15625
-28.72,1675335282.171875
-33.0,1675335282.1875
-37.79,1675335282.203125
-42.73,1675335282.21875
-47.17,1675335282.234375
-50.28,1675335282.25
-51.31,1675335282.265625
-49.85,1675335282.28125
-45.98,1675335282.296875
-40.22,1675335282.3125
-33.36,1675335282.328125
-26.22,1675335282.34375
-19.39,1675335282.359375
-13.18,1675335282.375
-7.65,1675335282.390625
-2.67,1675335282.40625
1.92,1675335282.421875
6.22,1675335282.4375
10.21,1675335282.453125
13.76,1675335282.46875
16.7,1675335282.484375
18.94,1675335282.5
20.55,1675335282.515625
21.69,1675335282.53125
22.64,1675335282.546875
23.57,1675335282.5625
24.52,1675335282.578125
25.41,1675335282.59375
26.08,1675335282.609375
26.4,1675335282.625
26.29,1675335282.640625
25.79,1675335282.65625
24.96,1675335282.671875
23.93,1675335282.6875
22.79,1675335282.703125
21.65,1675335282.71875
20.55,1675335282.734375
19.45,1675335282.75
18.25,1675335282.765625
16.82,1675335282.78125
15.09,1675335282.796875
13.08,1675335282.8125
10.91,1675335282.828125
8.71,1675335282.84375
6.54,1675335282.859375
4.37,1675335282.875
2.05,1675335282.890625
-0.55,1675335282.90625
-3.49,1675335282.921875
-6.68,1675335282.9375
-9.95,1675335282.953125
-13.08,1675335282.96875
-15.91,1675335282.984375
-18.41,1675335283.0
-20.71,1675335283.015625
-23.09,1675335283.03125
-25.83,1675335283.046875
-29.19,1675335283.0625
-33.21,1675335283.078125
-37.71,1675335283.09375
-42.29,1675335283.109375
-46.35,1675335283.125
-49.21,1675335283.140625
-50.3,1675335283.15625
-49.26,1675335283.171875
-46.08,1675335283.1875
-41.07,1675335283.203125
-34.81,1675335283.21875
-28.02,1675335283.234375
-21.29,1675335283.25
-15.03,1675335283.265625
-9.4,1675335283.28125
-4.36,1675335283.296875
0.17,1675335283.3125
4.28,1675335283.328125
7.93,1675335283.34375
11.04,1675335283.359375
13.51,1675335283.375
15.35,1675335283.390625
16.67,1675335283.40625
17.68,1675335283.421875
18.58,1675335283.4375
19.51,1675335283.453125
20.47,1675335283.46875
21.34,1675335283.484375
21.99,1675335283.5
22.35,1675335283.515625
22.47,1675335283.53125
22.47,1675335283.546875
22.48,1675335283.5625
22.55,1675335283.578125
22.61,1675335283.59375
22.5,1675335283.609375
21.99,1675335283.625
20.86,1675335283.640625
19.03,1675335283.65625
16.61,1675335283.671875
13.91,1675335283.6875
11.28,1675335283.703125
8.97,1675335283.71875
6.94,1675335283.734375
4.87,1675335283.75
2.28,1675335283.765625
-1.16,1675335283.78125
-5.46,1675335283.796875
-10.23,1675335283.8125
-14.85,1675335283.828125
-18.76,1675335283.84375
-21.72,1675335283.859375
-23.87,1675335283.875
-25.65,1675335283.890625
-27.61,1675335283.90625
-30.22,1675335283.921875
-33.72,1675335283.9375
-38.1,1675335283.953125
-43.08,1675335283.96875
-48.04,1675335283.984375
-52.21,1675335284.0
-54.76,1675335284.015625
-55.05,1675335284.03125
-52.79,1675335284.046875
-48.15,1675335284.0625
-41.72,1675335284.078125
-34.28,1675335284.09375
-26.61,1675335284.109375
-19.26,1675335284.125
-12.51,1675335284.140625
-6.38,1675335284.15625
-0.75,1675335284.171875
4.5,1675335284.1875
9.4,1675335284.203125
13.86,1675335284.21875
17.75,1675335284.234375
20.94,1675335284.25
23.41,1675335284.265625
25.24,1675335284.28125
26.62,1675335284.296875
27.67,1675335284.3125
28.44,1675335284.328125
28.88,1675335284.34375
28.87,1675335284.359375
28.39,1675335284.375
27.53,1675335284.390625
26.51,1675335284.40625
25.61,1675335284.421875
25.0,1675335284.4375
24.67,1675335284.453125
24.42,1675335284.46875
23.96,1675335284.484375
23.01,1675335284.5
21.46,1675335284.515625
19.33,1675335284.53125
16.82,1675335284.546875
14.2,1675335284.5625
11.69,1675335284.578125
9.48,1675335284.59375
7.56,1675335284.609375
5.77,1675335284.625
3.87,1675335284.640625
1.62,1675335284.65625
-1.07,1675335284.671875
-4.16,1675335284.6875
-7.47,1675335284.703125
-10.76,1675335284.71875
-13.82,1675335284.734375
-16.57,1675335284.75
-19.09,1675335284.765625
-21.6,1675335284.78125
-24.46,1675335284.796875
-28.02,1675335284.8125
-32.52,1675335284.828125
-37.94,1675335284.84375
-43.92,1675335284.859375
-49.76,1675335284.875
-54.63,1675335284.890625
-57.68,1675335284.90625
-58.3,1675335284.921875
-56.29,1675335284.9375
-51.86,1675335284.953125
-45.53,1675335284.96875
-38.01,1675335284.984375
-29.99,1675335285.0
-22.04,1675335285.015625
-14.51,1675335285.03125
-7.53,1675335285.046875
-1.05,1675335285.0625
5.06,1675335285.078125
10.92,1675335285.09375
16.51,1675335285.109375
21.67,1675335285.125
26.18,1675335285.140625
29.84,1675335285.15625
32.58,1675335285.171875
34.51,1675335285.1875
35.81,1675335285.203125
36.7,1675335285.21875
37.33,1675335285.234375
37.82,1675335285.25
38.21,1675335285.265625
38.55,1675335285.28125
38.84,1675335285.296875
39.02,1675335285.3125
38.91,1675335285.328125
38.32,1675335285.34375
37.09,1675335285.359375
35.25,1675335285.375
32.97,1675335285.390625
30.51,1675335285.40625
28.05,1675335285.421875
25.65,1675335285.4375
23.2,1675335285.453125
20.6,1675335285.46875
17.81,1675335285.484375
14.9,1675335285.5
12.0,1675335285.515625
9.25,1675335285.53125
6.68,1675335285.546875
4.2,1675335285.5625
1.71,1675335285.578125
-0.96,1675335285.59375
-3.86,1675335285.609375
-7.0,1675335285.625
-10.29,1675335285.640625
-13.62,1675335285.65625
-16.92,1675335285.671875
-20.16,1675335285.6875
-23.42,1675335285.703125
-26.89,1675335285.71875
-30.82,1675335285.734375
-35.5,1675335285.75
-41.03,1675335285.765625
-47.29,1675335285.78125
-53.75,1675335285.796875
-59.6,1675335285.8125
-63.93,1675335285.828125
-65.89,1675335285.84375
-65.01,1675335285.859375
-61.31,1675335285.875
-55.23,1675335285.890625
-47.54,1675335285.90625
-39.13,1675335285.921875
-30.7,1675335285.9375
-22.68,1675335285.953125
-15.2,1675335285.96875
-8.1,1675335285.984375
-1.1,1675335286.0
5.97,1675335286.015625
13.1,1675335286.03125
20.01,1675335286.046875
26.3,1675335286.0625
31.53,1675335286.078125
35.47,1675335286.09375
38.07,1675335286.109375
39.54,1675335286.125
40.15,1675335286.140625
40.22,1675335286.15625
40.03,1675335286.171875
39.79,1675335286.1875
39.66,1675335286.203125
39.71,1675335286.21875
39.85,1675335286.234375
39.93,1675335286.25
39.67,1675335286.265625
38.84,1675335286.28125
37.32,1675335286.296875
35.12,1675335286.3125
32.46,1675335286.328125
29.63,1675335286.34375
26.91,1675335286.359375
24.53,1675335286.375
22.49,1675335286.390625
20.74,1675335286.40625
19.06,1675335286.421875
17.23,1675335286.4375
15.09,1675335286.453125
12.55,1675335286.46875
9.7,1675335286.484375
6.61,1675335286.5
3.4,1675335286.515625
0.11,1675335286.53125
-3.32,1675335286.546875
-6.95,1675335286.5625
-10.86,1675335286.578125
-14.98,1675335286.59375
-19.25,1675335286.609375
-23.49,1675335286.625
-27.63,1675335286.640625
-31.58,1675335286.65625
-35.39,1675335286.671875
-39.14,1675335286.6875
-43.06,1675335286.703125
-47.37,1675335286.71875
-52.26,1675335286.734375
-57.72,1675335286.75
-63.37,1675335286.765625
-68.48,1675335286.78125
-72.06,1675335286.796875
-73.19,1675335286.8125
-71.37,1675335286.828125
-66.66,1675335286.84375
-59.65,1675335286.859375
-51.21,1675335286.875
-42.15,1675335286.890625
-33.03,1675335286.90625
-24.11,1675335286.921875
-15.53,1675335286.9375
-7.35,1675335286.953125
0.33,1675335286.96875
7.41,1675335286.984375
13.82,1675335287.0
19.62,1675335287.015625
24.85,1675335287.03125
29.54,1675335287.046875
33.59,1675335287.0625
36.85,1675335287.078125
39.27,1675335287.09375
40.91,1675335287.109375
42.0,1675335287.125
42.83,1675335287.140625
43.64,1675335287.15625
44.45,1675335287.171875
45.16,1675335287.1875
45.55,1675335287.203125
45.44,1675335287.21875
44.76,1675335287.234375
43.55,1675335287.25
41.94,1675335287.265625
40.03,1675335287.28125
37.92,1675335287.296875
35.67,1675335287.3125
33.34,1675335287.328125
30.95,1675335287.34375
28.55,1675335287.359375
26.1,1675335287.375
23.5,1675335287.390625
20.64,1675335287.40625
17.41,1675335287.421875
13.83,1675335287.4375
10.06,1675335287.453125
6.39,1675335287.46875
3.05,1675335287.484375
0.16,1675335287.5
-2.42,1675335287.515625
-5.01,1675335287.53125
-7.95,1675335287.546875
-11.47,1675335287.5625
-15.51,1675335287.578125
-19.78,1675335287.59375
-23.92,1675335287.609375
-27.66,1675335287.625
-31.0,1675335287.640625
-34.18,1675335287.65625
-37.55,1675335287.671875
-41.49,1675335287.6875
-46.2,1675335287.703125
-51.63,1675335287.71875
-57.46,1675335287.734375
-63.03,1675335287.75
-67.46,1675335287.765625
-69.82,1675335287.78125
-69.37,1675335287.796875
-65.78,1675335287.8125
-59.28,1675335287.828125
-50.6,1675335287.84375
-40.7,1675335287.859375
-30.54,1675335287.875
-20.78,1675335287.890625
-11.77,1675335287.90625
-3.51,1675335287.921875
4.13,1675335287.9375
11.33,1675335287.953125
18.14,1675335287.96875
24.54,1675335287.984375
30.37,1675335288.0
35.43,1675335288.015625
39.56,1675335288.03125
42.69,1675335288.046875
44.89,1675335288.0625
46.34,1675335288.078125
47.27,1675335288.09375
47.91,1675335288.109375
48.36,1675335288.125
48.63,1675335288.140625
48.68,1675335288.15625
48.47,1675335288.171875
48.01,1675335288.1875
47.33,1675335288.203125
46.45,1675335288.21875
45.32,1675335288.234375
43.83,1675335288.25
41.93,1675335288.265625
39.61,1675335288.28125
37.0,1675335288.296875
34.27,1675335288.3125
31.62,1675335288.328125
29.14,1675335288.34375
26.77,1675335288.359375
24.39,1675335288.375
21.82,1675335288.390625
18.93,1675335288.40625
15.66,1675335288.421875
12.05,1675335288.4375
8.17,1675335288.453125
4.11,1675335288.46875
-0.02,1675335288.484375
-4.13,1675335288.5
-8.09,1675335288.515625
-11.79,1675335288.53125
-15.19,1675335288.546875
-18.34,1675335288.5625
-21.46,1675335288.578125
-24.83,1675335288.59375
-28.76,1675335288.609375
-33.44,1675335288.625
-38.88,1675335288.640625
-44.86,1675335288.65625
-50.86,1675335288.671875
-56.2,1675335288.6875
-60.03,1675335288.703125
-61.52,1675335288.71875
-60.12,1675335288.734375
-55.69,1675335288.75
-48.63,1675335288.765625
-39.78,1675335288.78125
-30.19,1675335288.796875
-20.77,1675335288.8125
-12.08,1675335288.828125
-4.26,1675335288.84375
2.79,1675335288.859375
9.21,1675335288.875
14.99,1675335288.890625
19.97,1675335288.90625
23.96,1675335288.921875
26.92,1675335288.9375
29.0,1675335288.953125
30.5,1675335288.96875
31.74,1675335288.984375
32.88,1675335289.0
33.94,1675335289.015625
34.78,1675335289.03125
35.32,1675335289.046875
35.52,1675335289.0625
35.42,1675335289.078125
35.11,1675335289.09375
34.59,1675335289.109375
33.8,1675335289.125
32.67,1675335289.140625
31.16,1675335289.15625
29.32,1675335289.171875
27.29,1675335289.1875
25.18,1675335289.203125
23.07,1675335289.21875
20.88,1675335289.234375
18.46,1675335289.25
15.72,1675335289.265625
12.62,1675335289.28125
9.32,1675335289.296875
6.01,1675335289.3125
2.84,1675335289.328125
-0.21,1675335289.34375
-3.33,1675335289.359375
-6.75,1675335289.375
-10.6,1675335289.390625
-14.81,1675335289.40625
-19.12,1675335289.421875
-23.19,1675335289.4375
-26.81,1675335289.453125
-30.06,1675335289.46875
-33.29,1675335289.484375
-37.0,1675335289.5
-41.62,1675335289.515625
-47.34,1675335289.53125
-53.98,1675335289.546875
-60.99,1675335289.5625
-67.57,1675335289.578125
-72.8,1675335289.59375
-75.81,1675335289.609375
-75.96,1675335289.625
-72.97,1675335289.640625
-67.02,1675335289.65625
-58.71,1675335289.671875
-49.0,1675335289.6875
-38.86,1675335289.703125
-29.06,1675335289.71875
-19.98,1675335289.734375
-11.62,1675335289.75
-3.73,1675335289.765625
3.92,1675335289.78125
11.34,1675335289.796875
18.31,1675335289.8125
24.46,1675335289.828125
29.5,1675335289.84375
33.36,1675335289.859375
36.2,1675335289.875
38.32,1675335289.890625
39.99,1675335289.90625
41.38,1675335289.921875
42.55,1675335289.9375
43.46,1675335289.953125
44.09,1675335289.96875
44.45,1675335289.984375
44.54,1675335290.0
44.33,1675335290.015625
43.75,1675335290.03125
42.7,1675335290.046875
41.12,1675335290.0625
39.01,1675335290.078125
36.48,1675335290.09375
33.68,1675335290.109375
30.76,1675335290.125
27.84,1675335290.140625
24.96,1675335290.15625
22.08,1675335290.171875
19.15,1675335290.1875
16.11,1675335290.203125
12.91,1675335290.21875
9.52,1675335290.234375
5.9,1675335290.25
2.05,1675335290.265625
-1.98,1675335290.28125
-6.08,1675335290.296875
-10.13,1675335290.3125
-14.03,1675335290.328125
-17.74,1675335290.34375
-21.32,1675335290.359375
-24.86,1675335290.375
-28.53,1675335290.390625
-32.5,1675335290.40625
-36.94,1675335290.421875
-42.03,1675335290.4375
-47.85,1675335290.453125
-54.26,1675335290.46875
-60.78,1675335290.484375
-66.58,1675335290.5
-70.56,1675335290.515625
-71.73,1675335290.53125
-69.53,1675335290.546875
-63.96,1675335290.5625
-55.71,1675335290.578125
-45.77,1675335290.59375
-35.22,1675335290.609375
-24.89,1675335290.625
-15.19,1675335290.640625
-6.17,1675335290.65625
2.3,1675335290.671875
10.45,1675335290.6875
18.31,1675335290.703125
25.73,1675335290.71875
32.4,1675335290.734375
38.0,1675335290.75
42.33,1675335290.765625
45.44,1675335290.78125
47.58,1675335290.796875
49.1,1675335290.8125
50.22,1675335290.828125
50.99,1675335290.84375
51.24,1675335290.859375
50.81,1675335290.875
49.67,1675335290.890625
48.0,1675335290.90625
46.15,1675335290.921875
44.42,1675335290.9375
42.95,1675335290.953125
41.64,1675335290.96875
40.23,1675335290.984375
38.44,1675335291.0
36.14,1675335291.015625
33.32,1675335291.03125
30.11,1675335291.046875
26.67,1675335291.0625
23.14,1675335291.078125
19.63,1675335291.09375
16.24,1675335291.109375
13.05,1675335291.125
10.07,1675335291.140625
7.25,1675335291.15625
4.43,1675335291.171875
1.44,1675335291.1875
-1.81,1675335291.203125
-5.3,1675335291.21875
-8.92,1675335291.234375
-12.53,1675335291.25
-16.04,1675335291.265625
-19.56,1675335291.28125
-23.24,1675335291.296875
-27.3,1675335291.3125
-31.94,1675335291.328125
-37.31,1675335291.34375
-43.4,1675335291.359375
-50.04,1675335291.375
-56.8,1675335291.390625
-62.94,1675335291.40625
-67.51,1675335291.421875
-69.53,1675335291.4375
-68.31,1675335291.453125
-63.66,1675335291.46875
-56.0,1675335291.484375
-46.21,1675335291.5
-35.44,1675335291.515625
-24.69,1675335291.53125
-14.59,1675335291.546875
-5.34,1675335291.5625
3.23,1675335291.578125
11.41,1675335291.59375
19.32,1675335291.609375
26.87,1675335291.625
33.73,1675335291.640625
39.53,1675335291.65625
44.03,1675335291.671875
47.22,1675335291.6875
49.34,1675335291.703125
50.65,1675335291.71875
51.4,1675335291.734375
51.7,1675335291.75
51.65,1675335291.765625
51.28,1675335291.78125
50.69,1675335291.796875
49.96,1675335291.8125
49.1,1675335291.828125
48.08,1675335291.84375
46.73,1675335291.859375
44.97,1675335291.875
42.74,1675335291.890625
40.11,1675335291.90625
37.22,1675335291.921875
34.2,1675335291.9375
31.19,1675335291.953125
28.25,1675335291.96875
25.43,1675335291.984375
22.76,1675335292.0
20.23,1675335292.015625
17.81,1675335292.03125
15.41,1675335292.046875
12.92,1675335292.0625
10.15,1675335292.078125
6.99,1675335292.09375
3.35,1675335292.109375
-0.73,1675335292.125
-5.11,1675335292.140625
-9.56,1675335292.15625
-13.84,1675335292.171875
-17.74,1675335292.1875
-21.19,1675335292.203125
-24.28,1675335292.21875
-27.27,1675335292.234375
-30.54,1675335292.25
-34.48,1675335292.265625
-39.33,1675335292.28125
-45.0,1675335292.296875
-51.01,1675335292.3125
-56.55,1675335292.328125
-60.59,1675335292.34375
-62.24,1675335292.359375
-60.96,1675335292.375
-56.74,1675335292.390625
-50.05,1675335292.40625
-41.68,1675335292.421875
-32.49,1675335292.4375
-23.24,1675335292.453125
-14.42,1675335292.46875
-6.28,1675335292.484375
1.13,1675335292.5
7.87,1675335292.515625
14.02,1675335292.53125
19.54,1675335292.546875
24.36,1675335292.5625
28.34,1675335292.578125
31.4,1675335292.59375
33.62,1675335292.609375
35.17,1675335292.625
36.32,1675335292.640625
37.26,1675335292.65625
38.08,1675335292.671875
38.71,1675335292.6875
39.01,1675335292.703125
38.91,1675335292.71875
38.42,1675335292.734375
37.62,1675335292.75
36.59,1675335292.765625
35.36,1675335292.78125
33.89,1675335292.796875
32.1,1675335292.8125
29.96,1675335292.828125
27.48,1675335292.84375
24.73,1675335292.859375
21.82,1675335292.875
18.91,1675335292.890625
16.17,1675335292.90625
13.76,1675335292.921875
11.74,1675335292.9375
10.05,1675335292.953125
8.45,1675335292.96875
6.61,1675335292.984375
4.23,1675335293.0
1.19,1675335293.015625
-2.36,1675335293.03125
-6.07,1675335293.046875
-9.59,1675335293.0625
-12.68,1675335293.078125
-15.34,1675335293.09375
-17.8,1675335293.109375
-20.42,1675335293.125
-23.5,1675335293.140625
-27.29,1675335293.15625
-31.85,1675335293.171875
-37.05,1675335293.1875
-42.53,1675335293.203125
-47.65,1675335293.21875
-51.56,1675335293.234375
-53.42,1675335293.25
-52.63,1675335293.265625
-49.01,1675335293.28125
-42.96,1675335293.296875
-35.25,1675335293.3125
-26.87,1675335293.328125
-18.64,1675335293.34375
-11.1,1675335293.359375
-4.42,1675335293.375
1.47,1675335293.390625
6.75,1675335293.40625
11.52,1675335293.421875
15.77,1675335293.4375
19.36,1675335293.453125
22.17,1675335293.46875
24.15,1675335293.484375
25.45,1675335293.5
26.3,1675335293.515625
26.91,1675335293.53125
27.4,1675335293.546875
27.69,1675335293.5625
27.65,1675335293.578125
27.2,1675335293.59375
26.39,1675335293.609375
25.42,1675335293.625
24.55,1675335293.640625
23.91,1675335293.65625
23.42,1675335293.671875
22.84,1675335293.6875
21.87,1675335293.703125
20.35,1675335293.71875
18.29,1675335293.734375
15.87,1675335293.75
13.31,1675335293.765625
10.81,1675335293.78125
8.44,1675335293.796875
6.2,1675335293.8125
4.0,1675335293.828125
1.73,1675335293.84375
-0.68,1675335293.859375
-3.3,1675335293.875
-6.12,1675335293.890625
-9.08,1675335293.90625
-12.07,1675335293.921875
-14.99,1675335293.9375
-17.81,1675335293.953125
-20.64,1675335293.96875
-23.73,1675335293.984375
-27.38,1675335294.0
-31.88,1675335294.015625
-37.24,1675335294.03125
-43.21,1675335294.046875
-49.16,1675335294.0625
-54.26,1675335294.078125
-57.6,1675335294.09375
-58.47,1675335294.109375
-56.53,1675335294.125
-51.97,1675335294.140625
-45.39,1675335294.15625
-37.66,1675335294.171875
-29.65,1675335294.1875
-21.99,1675335294.203125
-14.96,1675335294.21875
-8.51,1675335294.234375
-2.46,1675335294.25
3.3,1675335294.265625
8.7,1675335294.28125
13.52,1675335294.296875
17.51,1675335294.3125
20.55,1675335294.328125
22.74,1675335294.34375
24.33,1675335294.359375
25.61,1675335294.375
26.75,1675335294.390625
27.74,1675335294.40625
28.49,1675335294.421875
28.89,1675335294.4375
28.94,1675335294.453125
28.73,1675335294.46875
28.43,1675335294.484375
28.12,1675335294.5
27.77,1675335294.515625
27.21,1675335294.53125
26.22,1675335294.546875
24.64,1675335294.5625
22.43,1675335294.578125
19.7,1675335294.59375
16.68,1675335294.609375
13.63,1675335294.625
10.71,1675335294.640625
7.99,1675335294.65625
5.45,1675335294.671875
2.96,1675335294.6875
0.4,1675335294.703125
-2.29,1675335294.71875
