PPG GREEN,time
2010849.0,1638178200.026
2011806.0,1638178200.07
2013162.0,1638178200.111
2014616.0,1638178200.15
2016099.0,1638178200.191
2017328.0,1638178200.232
2018876.0,1638178200.271
2020323.0,1638178200.311
2022365.0,1638178200.352
2024119.0,1638178200.391
2026504.0,1638178200.432
2027660.0,1638178200.472
2023299.0,1638178200.511
2017609.0,1638178200.551
2013280.0,1638178200.592
2010770.0,1638178200.632
2009895.0,1638178200.671
2009686.0,1638178200.713
2009861.0,1638178200.75
2008245.0,1638178200.833
2007978.0,1638178200.871
2008704.0,1638178200.911
2009290.0,1638178200.79
2009742.0,1638178200.953
2011147.0,1638178200.992
2016879.0,1638178201.112
2018600.0,1638178201.15
2020738.0,1638178201.192
2022386.0,1638178201.232
2024733.0,1638178201.271
2027105.0,1638178201.312
2029383.0,1638178201.351
2030597.0,1638178201.391
2025600.0,1638178201.433
2019189.0,1638178201.471
2014094.0,1638178201.511
2014578.0,1638178201.073
2013076.0,1638178201.033
2011398.0,1638178201.552
2009018.0,1638178201.591
2007530.0,1638178201.632
2007146.0,1638178201.672
2004904.0,1638178201.792
2006344.0,1638178201.711
2005177.0,1638178201.832
2005480.0,1638178201.751
2005775.0,1638178201.872
2007206.0,1638178201.913
2008949.0,1638178201.952
2010592.0,1638178201.992
2012516.0,1638178202.035
2014284.0,1638178202.071
2015973.0,1638178202.111
2018430.0,1638178202.153
2020248.0,1638178202.192
2022714.0,1638178202.232
2025191.0,1638178202.273
2027657.0,1638178202.312
2024964.0,1638178202.352
2018796.0,1638178202.394
2013559.0,1638178202.434
2010035.0,1638178202.471
2007894.0,1638178202.511
2005945.0,1638178202.542
2004981.0,1638178202.582
2004360.0,1638178202.662
2004958.0,1638178202.624
2003534.0,1638178202.743
2004060.0,1638178202.702
2004212.0,1638178202.782
2007104.0,1638178202.864
2005438.0,1638178202.823
2008728.0,1638178202.903
2011931.0,1638178202.984
2013616.0,1638178203.023
2010122.0,1638178202.943
2014888.0,1638178203.063
2015933.0,1638178203.104
2018489.0,1638178203.143
2021030.0,1638178203.183
2023746.0,1638178203.225
2026518.0,1638178203.263
2024839.0,1638178203.303
2019325.0,1638178203.345
2014839.0,1638178203.384
2011067.0,1638178203.424
2009294.0,1638178203.465
2007702.0,1638178203.504
2008029.0,1638178203.544
2008259.0,1638178203.585
2007905.0,1638178203.625
2007164.0,1638178203.659
2007221.0,1638178203.694
2007751.0,1638178203.731
2008833.0,1638178203.772
2010073.0,1638178203.813
2011403.0,1638178203.852
2012303.0,1638178203.892
2013508.0,1638178203.933
2014836.0,1638178203.972
2016107.0,1638178204.013
2017348.0,1638178204.053
2018558.0,1638178204.092
2019317.0,1638178204.132
2020677.0,1638178204.173
2019608.0,1638178204.213
2014971.0,1638178204.252
2009720.0,1638178204.293
2005721.0,1638178204.333
2003964.0,1638178204.373
2002924.0,1638178204.414
2003488.0,1638178204.453
2003990.0,1638178204.493
2004069.0,1638178204.532
2004072.0,1638178204.571
2004214.0,1638178204.612
2005169.0,1638178204.653
2006924.0,1638178204.692
2008275.0,1638178204.733
2010301.0,1638178204.774
2012651.0,1638178204.812
2014148.0,1638178204.851
2016306.0,1638178204.893
2018723.0,1638178204.932
2021049.0,1638178204.972
2021049.0,1638178205.009
2024055.0,1638178205.047
2027235.0,1638178205.087
2029854.0,1638178205.128
2032089.0,1638178205.167
2029981.0,1638178205.208
2025903.0,1638178205.249
2021917.0,1638178205.288
2019434.0,1638178205.328
2017500.0,1638178205.369
2016193.0,1638178205.409
2016346.0,1638178205.448
2016490.0,1638178205.489
2016322.0,1638178205.528
2016505.0,1638178205.568
2016989.0,1638178205.61
2017837.0,1638178205.648
2019535.0,1638178205.688
2020995.0,1638178205.73
2023228.0,1638178205.769
2025235.0,1638178205.809
2027383.0,1638178205.85
2029495.0,1638178205.889
2031696.0,1638178205.929
2034085.0,1638178205.97
2036149.0,1638178206.01
2038991.0,1638178206.049
2041569.0,1638178206.09
2044558.0,1638178206.13
2045619.0,1638178206.17
2042792.0,1638178206.211
2038925.0,1638178206.25
2035630.0,1638178206.29
2032983.0,1638178206.331
2032251.0,1638178206.37
2032330.0,1638178206.411
2033339.0,1638178206.451
2034730.0,1638178206.49
2036546.0,1638178206.53
2038592.0,1638178206.571
2041755.0,1638178206.611
2045202.0,1638178206.65
2049051.0,1638178206.692
2052641.0,1638178206.731
2056224.0,1638178206.771
2059904.0,1638178206.813
2062395.0,1638178206.851
2064331.0,1638178206.891
2065467.0,1638178206.933
2066017.0,1638178206.972
2066623.0,1638178207.012
2066844.0,1638178207.053
2067207.0,1638178207.092
2067177.0,1638178207.133
2067225.0,1638178207.174
2063333.0,1638178207.214
2057747.0,1638178207.253
2052957.0,1638178207.294
2050204.0,1638178207.334
2047725.0,1638178207.374
2046642.0,1638178207.414
2046357.0,1638178207.447
2045886.0,1638178207.487
2045623.0,1638178207.528
2044829.0,1638178207.567
2044507.0,1638178207.608
2045292.0,1638178207.648
2046231.0,1638178207.688
2047921.0,1638178207.728
2047179.0,1638178207.769
2047203.0,1638178207.809
2047386.0,1638178207.848
2048693.0,1638178207.889
2049724.0,1638178207.928
2051451.0,1638178207.968
2052722.0,1638178208.01
2054262.0,1638178208.049
2055737.0,1638178208.089
2057291.0,1638178208.13
2057589.0,1638178208.168
2054627.0,1638178208.209
2050110.0,1638178208.247
2045778.0,1638178208.286
2045096.0,1638178208.322
2045118.0,1638178208.356
2045552.0,1638178208.394
2046032.0,1638178208.433
2046207.0,1638178208.475
2046123.0,1638178208.514
2046211.0,1638178208.554
2047025.0,1638178208.596
2048721.0,1638178208.666
2047513.0,1638178208.635
2049826.0,1638178208.707
2051639.0,1638178208.746
2053060.0,1638178208.787
2054736.0,1638178208.828
2056090.0,1638178208.867
2057750.0,1638178208.907
2059442.0,1638178208.948
2060825.0,1638178208.988
2062744.0,1638178209.027
2064437.0,1638178209.068
2066459.0,1638178209.107
2067978.0,1638178209.147
2065767.0,1638178209.189
2062475.0,1638178209.228
2058272.0,1638178209.268
2052271.0,1638178209.348
2055139.0,1638178209.309
2050292.0,1638178209.389
2049119.0,1638178209.429
2048330.0,1638178209.468
2047373.0,1638178209.508
2046283.0,1638178209.55
2046189.0,1638178209.589
2046690.0,1638178209.629
2047401.0,1638178209.67
2048032.0,1638178209.709
2048624.0,1638178209.749
2049463.0,1638178209.791
2050233.0,1638178209.829
2051677.0,1638178209.869
2052634.0,1638178209.911
2053929.0,1638178209.95
2055464.0,1638178209.99
2057005.0,1638178210.031
2058531.0,1638178210.07
2060372.0,1638178210.11
2062059.0,1638178210.151
2061084.0,1638178210.191
2056531.0,1638178210.23
2050900.0,1638178210.272
2047105.0,1638178210.311
2043705.0,1638178210.351
2041561.0,1638178210.393
2039687.0,1638178210.431
2038639.0,1638178210.471
2037564.0,1638178210.512
2036002.0,1638178210.551
2034623.0,1638178210.592
2034623.0,1638178210.636
2034702.0,1638178210.672
2034857.0,1638178210.713
2035678.0,1638178210.755
2036548.0,1638178210.795
2037360.0,1638178210.834
2038345.0,1638178210.876
2039202.0,1638178210.915
2040553.0,1638178210.955
2041638.0,1638178210.997
2042977.0,1638178211.035
2044340.0,1638178211.076
2046279.0,1638178211.116
2047072.0,1638178211.149
2044360.0,1638178211.19
2033719.0,1638178211.309
2033059.0,1638178211.351
2035368.0,1638178211.269
2032802.0,1638178211.39
2033739.0,1638178211.43
2033926.0,1638178211.471
2034645.0,1638178211.51
2035639.0,1638178211.55
2037045.0,1638178211.592
2039128.0,1638178211.63
2039335.0,1638178211.23
2042259.0,1638178211.67
2045843.0,1638178211.711
2049213.0,1638178211.751
2052945.0,1638178211.791
2054469.0,1638178211.832
2054896.0,1638178211.871
2055207.0,1638178211.952
2056918.0,1638178211.992
2054478.0,1638178211.911
2058854.0,1638178212.031
2060853.0,1638178212.073
2062603.0,1638178212.112
2060626.0,1638178212.152
2055803.0,1638178212.194
2050549.0,1638178212.232
2047103.0,1638178212.272
2044343.0,1638178212.313
2041952.0,1638178212.352
2040825.0,1638178212.393
2039909.0,1638178212.433
2038854.0,1638178212.472
2037698.0,1638178212.512
2036846.0,1638178212.554
2036466.0,1638178212.593
2037008.0,1638178212.633
2037564.0,1638178212.674
2039274.0,1638178212.753
2040161.0,1638178212.795
2038341.0,1638178212.713
2041167.0,1638178212.833
2042323.0,1638178212.873
2045337.0,1638178212.953
2047054.0,1638178212.994
2043514.0,1638178212.914
2048525.0,1638178213.034
2051019.0,1638178213.073
2052744.0,1638178213.114
2052634.0,1638178213.155
2048019.0,1638178213.194
2042383.0,1638178213.234
2038219.0,1638178213.275
2035474.0,1638178213.314
2032866.0,1638178213.354
2031739.0,1638178213.396
2030524.0,1638178213.434
2029681.0,1638178213.474
2027978.0,1638178213.515
2027182.0,1638178213.554
2026783.0,1638178213.595
2026986.0,1638178213.636
2027454.0,1638178213.675
2028253.0,1638178213.715
2029527.0,1638178213.756
2030218.0,1638178213.796
2031636.0,1638178213.835
2032886.0,1638178213.876
2034419.0,1638178213.915
2035511.0,1638178213.955
2037251.0,1638178213.997
2038881.0,1638178214.035
2042870.0,1638178214.117
2043093.0,1638178214.156
2041147.0,1638178214.076
2038795.0,1638178214.196
2033920.0,1638178214.237
2030108.0,1638178214.276
2027828.0,1638178214.316
2026231.0,1638178214.357
2025416.0,1638178214.397
2024841.0,1638178214.436
2023869.0,1638178214.477
2022744.0,1638178214.517
2021868.0,1638178214.557
2022102.0,1638178214.598
2022573.0,1638178214.637
2023146.0,1638178214.677
2024380.0,1638178214.718
2025571.0,1638178214.757
2026844.0,1638178214.798
2028245.0,1638178214.838
2029901.0,1638178214.877
2031227.0,1638178214.917
2033239.0,1638178214.958
2035075.0,1638178214.998
2037122.0,1638178215.037
2039177.0,1638178215.079
2039798.0,1638178215.118
2035961.0,1638178215.158
2027705.0,1638178215.238
2031264.0,1638178215.2
2025311.0,1638178215.278
2023509.0,1638178215.319
2022952.0,1638178215.358
2022762.0,1638178215.399
2020881.0,1638178215.518
2022101.0,1638178215.439
2021435.0,1638178215.478
2021057.0,1638178215.56
2021447.0,1638178215.599
2023018.0,1638178215.639
2024283.0,1638178215.68
2025504.0,1638178215.719
2026448.0,1638178215.759
2027782.0,1638178215.801
2029327.0,1638178215.839
2031270.0,1638178215.879
2032919.0,1638178215.92
2034989.0,1638178215.959
2037131.0,1638178216.0
2039354.0,1638178216.041
2041386.0,1638178216.08
2040864.0,1638178216.12
2036857.0,1638178216.161
2032783.0,1638178216.201
2029490.0,1638178216.24
2027530.0,1638178216.281
2025595.0,1638178216.32
2024761.0,1638178216.36
2024712.0,1638178216.402
2024319.0,1638178216.44
2023718.0,1638178216.48
2023787.0,1638178216.521
2024129.0,1638178216.561
2024987.0,1638178216.601
2026367.0,1638178216.642
2027302.0,1638178216.681
2029062.0,1638178216.721
2030505.0,1638178216.762
2032204.0,1638178216.802
2033555.0,1638178216.841
2035625.0,1638178216.882
2037366.0,1638178216.922
2039286.0,1638178216.958
2041195.0,1638178216.998
2043797.0,1638178217.037
2044672.0,1638178217.077
2041974.0,1638178217.118
2037512.0,1638178217.157
2034565.0,1638178217.198
2032523.0,1638178217.239
2031202.0,1638178217.269
2030964.0,1638178217.309
2030802.0,1638178217.35
2030613.0,1638178217.39
2029663.0,1638178217.429
2029649.0,1638178217.47
2029962.0,1638178217.509
2030805.0,1638178217.55
2031924.0,1638178217.591
2033134.0,1638178217.63
2034818.0,1638178217.67
2036264.0,1638178217.711
2037957.0,1638178217.75
2039362.0,1638178217.791
2041274.0,1638178217.831
2042770.0,1638178217.87
2044816.0,1638178217.91
2047099.0,1638178217.952
2048596.0,1638178217.991
2045555.0,1638178218.031
2040909.0,1638178218.072
2037439.0,1638178218.111
2035005.0,1638178218.151
2033285.0,1638178218.193
2031767.0,1638178218.231
2031514.0,1638178218.271
2031155.0,1638178218.312
2030744.0,1638178218.351
2030360.0,1638178218.392
2030665.0,1638178218.433
2031077.0,1638178218.472
2031799.0,1638178218.512
2033487.0,1638178218.553
2034867.0,1638178218.593
2035973.0,1638178218.632
2037833.0,1638178218.673
2039451.0,1638178218.712
2040905.0,1638178218.752
2042807.0,1638178218.794
2044993.0,1638178218.833
2046846.0,1638178218.873
2049304.0,1638178218.914
2050571.0,1638178218.953
2047675.0,1638178218.994
2042920.0,1638178219.034
2039069.0,1638178219.073
2034867.0,1638178219.113
2032113.0,1638178219.155
2028910.0,1638178219.195
2027297.0,1638178219.235
2025648.0,1638178219.277
2024215.0,1638178219.316
2022938.0,1638178219.356
2022697.0,1638178219.399
2022939.0,1638178219.437
2024155.0,1638178219.477
2024987.0,1638178219.519
2025980.0,1638178219.558
2027076.0,1638178219.599
2028121.0,1638178219.64
2028706.0,1638178219.679
2030250.0,1638178219.718
2031107.0,1638178219.752
2032850.0,1638178219.792
2034699.0,1638178219.831
2036547.0,1638178219.872
2038575.0,1638178219.912
2038993.0,1638178219.952
2035237.0,1638178219.993
2030225.0,1638178220.032
2026488.0,1638178220.072
2023871.0,1638178220.113
2021771.0,1638178220.152
2020296.0,1638178220.193
2020016.0,1638178220.234
2019563.0,1638178220.273
2018930.0,1638178220.313
2018687.0,1638178220.354
2018249.0,1638178220.393
2018656.0,1638178220.432
2019094.0,1638178220.473
2019877.0,1638178220.511
2020969.0,1638178220.551
2022445.0,1638178220.59
2024285.0,1638178220.623
2025981.0,1638178220.663
2027224.0,1638178220.7
2029135.0,1638178220.737
2030669.0,1638178220.778
2032866.0,1638178220.818
2035231.0,1638178220.857
2035707.0,1638178220.897
2032509.0,1638178220.939
2032509.0,1638178220.969
2029487.0,1638178221.009
2026255.0,1638178221.05
2025453.0,1638178221.089
2025956.0,1638178221.129
2027228.0,1638178221.171
2026988.0,1638178221.209
2026002.0,1638178221.249
2024074.0,1638178221.29
2021527.0,1638178221.329
2019502.0,1638178221.37
2017682.0,1638178221.411
2016223.0,1638178221.45
2014798.0,1638178221.49
2014486.0,1638178221.531
2013858.0,1638178221.571
2013782.0,1638178221.61
2013402.0,1638178221.652
2014087.0,1638178221.688
2015253.0,1638178221.72
2016425.0,1638178221.76
2018794.0,1638178221.798
2020069.0,1638178221.838
2017126.0,1638178221.88
2011265.0,1638178221.919
2005920.0,1638178221.96
2001563.0,1638178222.001
1998161.0,1638178222.04
1994981.0,1638178222.08
1992366.0,1638178222.119
1990488.0,1638178222.159
1988802.0,1638178222.194
1986740.0,1638178222.235
1985759.0,1638178222.274
1985202.0,1638178222.314
1984606.0,1638178222.356
1984893.0,1638178222.394
1984874.0,1638178222.434
1985639.0,1638178222.476
1986719.0,1638178222.515
1987265.0,1638178222.556
1988165.0,1638178222.596
1989503.0,1638178222.635
1991149.0,1638178222.675
1992793.0,1638178222.716
1994521.0,1638178222.756
1995360.0,1638178222.796
1991527.0,1638178222.837
1986053.0,1638178222.877
1981377.0,1638178222.917
1977329.0,1638178222.959
1974774.0,1638178222.998
1974180.0,1638178223.038
1973191.0,1638178223.08
1971862.0,1638178223.119
1970458.0,1638178223.16
1969503.0,1638178223.2
1969204.0,1638178223.24
1968886.0,1638178223.28
1969752.0,1638178223.321
1970139.0,1638178223.361
1971286.0,1638178223.397
1972512.0,1638178223.433
1973653.0,1638178223.472
1975061.0,1638178223.512
1976508.0,1638178223.554
1977875.0,1638178223.592
1979702.0,1638178223.632
1981999.0,1638178223.674
1983383.0,1638178223.713
1980819.0,1638178223.753
1977080.0,1638178223.794
1974410.0,1638178223.833
1973055.0,1638178223.873
1972048.0,1638178223.914
1972009.0,1638178223.954
1972733.0,1638178223.998
1972862.0,1638178224.04
1973347.0,1638178224.079
1973867.0,1638178224.119
1974623.0,1638178224.161
1976404.0,1638178224.199
1978182.0,1638178224.239
1979701.0,1638178224.28
1981703.0,1638178224.319
1983804.0,1638178224.36
1986041.0,1638178224.401
1988537.0,1638178224.432
1990938.0,1638178224.474
1993256.0,1638178224.508
1995982.0,1638178224.547
1998685.0,1638178224.586
2001631.0,1638178224.624
2001590.0,1638178224.663
1998413.0,1638178224.703
1995940.0,1638178224.745
1994453.0,1638178224.783
1993533.0,1638178224.823
1993164.0,1638178224.864
1993897.0,1638178224.903
1996130.0,1638178225.024
1995555.0,1638178224.985
1997053.0,1638178225.064
1994699.0,1638178224.944
1998697.0,1638178225.105
2008414.0,1638178225.184
2001684.0,1638178225.144
2012176.0,1638178225.225
2012145.0,1638178225.264
2011135.0,1638178225.304
2011702.0,1638178225.346
2016109.0,1638178225.425
2020085.0,1638178225.466
2024869.0,1638178225.503
2013349.0,1638178225.384
2028812.0,1638178225.544
2032340.0,1638178225.585
2035523.0,1638178225.624
2037295.0,1638178225.665
2036065.0,1638178225.706
2034227.0,1638178225.746
2033317.0,1638178225.783
2033198.0,1638178225.825
2033058.0,1638178225.864
2033058.0,1638178225.895
2033662.0,1638178225.937
2033863.0,1638178225.975
2035076.0,1638178226.015
2037224.0,1638178226.056
2041246.0,1638178226.095
2045306.0,1638178226.136
2048592.0,1638178226.177
2052872.0,1638178226.216
2056017.0,1638178226.256
2059083.0,1638178226.297
2062532.0,1638178226.337
2065982.0,1638178226.376
2069806.0,1638178226.417
2072991.0,1638178226.456
2076051.0,1638178226.496
2079262.0,1638178226.538
2081332.0,1638178226.578
2087278.0,1638178226.685
2085769.0,1638178226.648
2083211.0,1638178226.613
2088085.0,1638178226.766
2083861.0,1638178226.846
2083363.0,1638178226.887
2089649.0,1638178226.725
2086112.0,1638178226.805
2081365.0,1638178226.966
2082085.0,1638178226.927
2080121.0,1638178227.008
2077411.0,1638178227.045
2074628.0,1638178227.086
2073017.0,1638178227.126
2071921.0,1638178227.164
2070677.0,1638178227.204
2070710.0,1638178227.245
2070929.0,1638178227.284
2070463.0,1638178227.325
2070367.0,1638178227.365
2070499.0,1638178227.405
2071247.0,1638178227.445
2071981.0,1638178227.486
2072370.0,1638178227.525
2073149.0,1638178227.565
2073403.0,1638178227.606
2074029.0,1638178227.645
2074501.0,1638178227.685
2074962.0,1638178227.727
2074760.0,1638178227.765
2070822.0,1638178227.805
2065052.0,1638178227.847
2059993.0,1638178227.887
2055593.0,1638178227.928
2052129.0,1638178227.966
2048659.0,1638178228.005
2046258.0,1638178228.045
2044401.0,1638178228.087
2041887.0,1638178228.127
2039042.0,1638178228.166
2037517.0,1638178228.208
2035099.0,1638178228.247
2034597.0,1638178228.287
2036661.0,1638178228.326
2033303.0,1638178228.358
2030291.0,1638178228.398
2029623.0,1638178228.44
2030941.0,1638178228.479
2034239.0,1638178228.519
2038908.0,1638178228.56
2043027.0,1638178228.599
2047152.0,1638178228.639
2050139.0,1638178228.68
2053082.0,1638178228.72
2055975.0,1638178228.759
2057002.0,1638178228.8
2053517.0,1638178228.84
2048452.0,1638178228.88
2044155.0,1638178228.921
2040351.0,1638178228.96
2037297.0,1638178229.0
2035083.0,1638178229.041
2033863.0,1638178229.08
2032900.0,1638178229.121
2031252.0,1638178229.161
2030132.0,1638178229.201
2029243.0,1638178229.241
2028945.0,1638178229.282
2028708.0,1638178229.321
2028698.0,1638178229.36
2029134.0,1638178229.399
2029672.0,1638178229.438
2030031.0,1638178229.475
2030518.0,1638178229.512
2030905.0,1638178229.544
2030905.0,1638178229.58
2032093.0,1638178229.621
2033435.0,1638178229.66
2035600.0,1638178229.701
2037131.0,1638178229.741
2040093.0,1638178229.781
2041226.0,1638178229.821
2039127.0,1638178229.862
2032905.0,1638178229.902
2027315.0,1638178229.941
2022749.0,1638178229.982
2017202.0,1638178230.021
2012090.0,1638178230.061
2007360.0,1638178230.103
2002153.0,1638178230.141
1997511.0,1638178230.182
1993960.0,1638178230.223
1991573.0,1638178230.263
1989079.0,1638178230.302
1987894.0,1638178230.34
1986341.0,1638178230.379
1985180.0,1638178230.414
1984393.0,1638178230.456
1984225.0,1638178230.489
1984300.0,1638178230.526
1984396.0,1638178230.567
1984937.0,1638178230.606
1985449.0,1638178230.647
1986611.0,1638178230.689
1987998.0,1638178230.727
1989253.0,1638178230.767
1986241.0,1638178230.809
1980737.0,1638178230.848
1976906.0,1638178230.886
1974029.0,1638178230.921
1973100.0,1638178230.96
1971569.0,1638178231.0
1971425.0,1638178231.042
1971504.0,1638178231.081
1971132.0,1638178231.121
1970786.0,1638178231.162
1970933.0,1638178231.201
1971747.0,1638178231.241
1972393.0,1638178231.283
1973855.0,1638178231.321
1975678.0,1638178231.362
1977192.0,1638178231.403
1977889.0,1638178231.442
1979826.0,1638178231.483
1985777.0,1638178231.523
1990825.0,1638178231.562
1995083.0,1638178231.603
1998787.0,1638178231.644
2002370.0,1638178231.683
2006674.0,1638178231.723
2007991.0,1638178231.764
2005451.0,1638178231.803
2002742.0,1638178231.843
2001608.0,1638178231.885
2001628.0,1638178231.924
2002835.0,1638178231.964
2005159.0,1638178232.005
2008012.0,1638178232.044
2010398.0,1638178232.085
2012157.0,1638178232.125
2012893.0,1638178232.164
2013280.0,1638178232.204
2014328.0,1638178232.245
2014110.0,1638178232.285
2015452.0,1638178232.324
2017661.0,1638178232.366
2020511.0,1638178232.405
2023289.0,1638178232.445
2025530.0,1638178232.486
2028456.0,1638178232.525
2031729.0,1638178232.565
2035092.0,1638178232.606
2039042.0,1638178232.646
2042162.0,1638178232.687
2041449.0,1638178232.728
2039668.0,1638178232.767
2037737.0,1638178232.807
2036150.0,1638178232.848
2033602.0,1638178232.888
2030031.0,1638178232.928
2026722.0,1638178232.969
2022522.0,1638178233.008
2019988.0,1638178233.048
2018422.0,1638178233.089
2017659.0,1638178233.127
2018321.0,1638178233.167
2020741.0,1638178233.209
2022256.0,1638178233.246
2024773.0,1638178233.286
2028070.0,1638178233.327
2031000.0,1638178233.366
2033604.0,1638178233.406
2036219.0,1638178233.447
2040010.0,1638178233.487
2043392.0,1638178233.526
2046957.0,1638178233.567
2047722.0,1638178233.606
2038293.0,1638178233.688
2043860.0,1638178233.646
2029905.0,1638178233.767
2033513.0,1638178233.727
2026267.0,1638178233.808
2024171.0,1638178233.847
2022006.0,1638178233.888
2017890.0,1638178233.929
2013433.0,1638178234.008
2012006.0,1638178234.05
2012124.0,1638178234.09
2015633.0,1638178233.968
2014694.0,1638178234.169
2013364.0,1638178234.127
2016183.0,1638178234.208
2016583.0,1638178234.248
2017863.0,1638178234.29
2019197.0,1638178234.328
2022360.0,1638178234.402
2020967.0,1638178234.368
2023180.0,1638178234.441
2024821.0,1638178234.482
2026464.0,1638178234.522
2027787.0,1638178234.561
2024137.0,1638178234.601
2018904.0,1638178234.643
2014505.0,1638178234.682
2011372.0,1638178234.722
2008174.0,1638178234.763
2006138.0,1638178234.802
2004090.0,1638178234.842
2002307.0,1638178234.884
2000301.0,1638178234.922
1997903.0,1638178234.962
1996547.0,1638178235.004
1995589.0,1638178235.043
1995130.0,1638178235.079
1994661.0,1638178235.115
1994870.0,1638178235.154
1994676.0,1638178235.189
1995252.0,1638178235.228
1995470.0,1638178235.267
1996888.0,1638178235.307
1997593.0,1638178235.348
1998773.0,1638178235.388
2000433.0,1638178235.428
2001315.0,1638178235.47
2003216.0,1638178235.508
2003955.0,1638178235.547
1999956.0,1638178235.588
1999956.0,1638178235.623
1994612.0,1638178235.663
1990328.0,1638178235.704
1987378.0,1638178235.743
1984984.0,1638178235.783
1983500.0,1638178235.824
1982867.0,1638178235.864
1982398.0,1638178235.947
1981633.0,1638178235.989
1980563.0,1638178236.028
1980569.0,1638178236.068
1981013.0,1638178236.11
1981630.0,1638178236.148
1982527.0,1638178236.188
1983286.0,1638178236.229
1983831.0,1638178236.268
1984291.0,1638178236.309
1984503.0,1638178236.35
1983391.0,1638178236.389
1982108.0,1638178236.429
1980824.0,1638178236.47
1980321.0,1638178236.51
1980130.0,1638178236.551
1979121.0,1638178236.592
1974777.0,1638178236.631
1968602.0,1638178236.671
1963452.0,1638178236.707
1960653.0,1638178236.745
1957871.0,1638178236.785
1956534.0,1638178236.826
1955644.0,1638178236.865
1954629.0,1638178236.906
1953558.0,1638178236.947
1953113.0,1638178236.986
1952411.0,1638178237.026
1953547.0,1638178237.067
1954150.0,1638178237.107
1955345.0,1638178237.146
1956497.0,1638178237.187
1958670.0,1638178237.226
1960905.0,1638178237.267
1962757.0,1638178237.308
1965740.0,1638178237.347
1969442.0,1638178237.387
1975254.0,1638178237.428
1987070.0,1638178237.461
1998306.0,1638178237.493
2005897.0,1638178237.534
2011944.0,1638178237.573
2016686.0,1638178237.613
2018031.0,1638178237.654
2019087.0,1638178237.694
2021339.0,1638178237.734
2023758.0,1638178237.772
2025820.0,1638178237.811
2027727.0,1638178237.851
2030322.0,1638178237.893
2032684.0,1638178237.931
2034385.0,1638178237.971
2037046.0,1638178238.013
2039477.0,1638178238.052
2042818.0,1638178238.092
2045043.0,1638178238.133
2046975.0,1638178238.172
2047699.0,1638178238.212
2047831.0,1638178238.253
2047712.0,1638178238.293
2047662.0,1638178238.332
2047099.0,1638178238.373
2046849.0,1638178238.412
2047436.0,1638178238.452
2047649.0,1638178238.495
2047960.0,1638178238.534
2048384.0,1638178238.574
2049435.0,1638178238.615
2047985.0,1638178238.654
2042428.0,1638178238.693
2036920.0,1638178238.734
2032020.0,1638178238.773
2028025.0,1638178238.813
2024265.0,1638178238.854
2021970.0,1638178238.891
2019295.0,1638178238.924
2017469.0,1638178238.965
2015547.0,1638178239.004
2013964.0,1638178239.044
2012955.0,1638178239.086
2012263.0,1638178239.124
2012365.0,1638178239.164
2012536.0,1638178239.205
2012857.0,1638178239.244
2012790.0,1638178239.285
2013377.0,1638178239.326
2015820.0,1638178239.365
2020087.0,1638178239.405
2022474.0,1638178239.446
2025270.0,1638178239.486
2026283.0,1638178239.525
2027062.0,1638178239.566
2028086.0,1638178239.605
2028833.0,1638178239.642
2025371.0,1638178239.685
2020289.0,1638178239.715
2017509.0,1638178239.752
2015632.0,1638178239.793
2014331.0,1638178239.832
2014349.0,1638178239.873
2014108.0,1638178239.914
2013780.0,1638178239.953
2013016.0,1638178239.994
2012522.0,1638178240.035
2012522.0,1638178240.071
2012784.0,1638178240.11
2013303.0,1638178240.151
2014059.0,1638178240.19
2015477.0,1638178240.23
2016371.0,1638178240.272
2016977.0,1638178240.311
2018297.0,1638178240.351
2019635.0,1638178240.392
2020547.0,1638178240.431
2021807.0,1638178240.472
2023048.0,1638178240.512
2024674.0,1638178240.551
2026098.0,1638178240.591
2027530.0,1638178240.632
2024006.0,1638178240.672
2018214.0,1638178240.711
2013150.0,1638178240.753
2009889.0,1638178240.793
2007476.0,1638178240.832
2006353.0,1638178240.874
2005872.0,1638178240.913
2006667.0,1638178240.953
2006795.0,1638178240.994
2006386.0,1638178241.033
2007292.0,1638178241.074
2008034.0,1638178241.115
2009319.0,1638178241.154
2011242.0,1638178241.192
2013161.0,1638178241.234
2015563.0,1638178241.274
2017817.0,1638178241.313
2019954.0,1638178241.354
2021823.0,1638178241.388
2023678.0,1638178241.428
2024876.0,1638178241.469
2025998.0,1638178241.508
2027268.0,1638178241.548
2028791.0,1638178241.589
2029780.0,1638178241.628
2026944.0,1638178241.669
2021260.0,1638178241.709
2015915.0,1638178241.749
2012933.0,1638178241.789
2010207.0,1638178241.83
2008404.0,1638178241.87
2007020.0,1638178241.909
2003467.0,1638178241.95
2000437.0,1638178241.989
1997294.0,1638178242.029
1993347.0,1638178242.111
1994753.0,1638178242.072
1992520.0,1638178242.149
1991808.0,1638178242.188
1991627.0,1638178242.227
1991802.0,1638178242.263
1991656.0,1638178242.304
1991943.0,1638178242.335
1992453.0,1638178242.376
1993020.0,1638178242.415
1994214.0,1638178242.455
1995488.0,1638178242.493
1996889.0,1638178242.529
1998304.0,1638178242.568
2000192.0,1638178242.608
1999741.0,1638178242.65
1994541.0,1638178242.688
1988000.0,1638178242.728
1983155.0,1638178242.769
1979972.0,1638178242.809
1977118.0,1638178242.849
1975341.0,1638178242.89
1974158.0,1638178242.929
1971470.0,1638178243.01
1970233.0,1638178243.089
1970408.0,1638178243.05
1972951.0,1638178242.969
1970702.0,1638178243.17
1971659.0,1638178243.207
1972710.0,1638178243.244
1973801.0,1638178243.273
1974915.0,1638178243.313
1976296.0,1638178243.355
1970072.0,1638178243.13
1977399.0,1638178243.394
1979013.0,1638178243.435
1980991.0,1638178243.476
1982961.0,1638178243.515
1984876.0,1638178243.557
1983433.0,1638178243.598
1974827.0,1638178243.678
1969795.0,1638178243.798
1969857.0,1638178243.84
1971850.0,1638178243.719
1978954.0,1638178243.638
1970737.0,1638178243.758
1969600.0,1638178243.878
1969430.0,1638178243.918
1969567.0,1638178243.959
1969730.0,1638178243.998
1970736.0,1638178244.039
1972068.0,1638178244.079
1977172.0,1638178244.2
1973845.0,1638178244.118
1979403.0,1638178244.239
1975540.0,1638178244.159
1982895.0,1638178244.315
1981219.0,1638178244.276
1987500.0,1638178244.394
1985344.0,1638178244.354
1990026.0,1638178244.436
1992056.0,1638178244.475
1994328.0,1638178244.515
1991384.0,1638178244.556
1986389.0,1638178244.595
1982195.0,1638178244.634
1979736.0,1638178244.675
1977472.0,1638178244.714
1975996.0,1638178244.754
1975996.0,1638178244.791
1975439.0,1638178244.831
1975002.0,1638178244.871
1974762.0,1638178244.912
1974195.0,1638178244.951
1974426.0,1638178244.991
1975109.0,1638178245.033
1976593.0,1638178245.071
1977787.0,1638178245.111
1979260.0,1638178245.152
1980533.0,1638178245.191
1982204.0,1638178245.232
1984045.0,1638178245.272
1985623.0,1638178245.311
1987862.0,1638178245.352
1990043.0,1638178245.393
1991145.0,1638178245.432
1992391.0,1638178245.472
1994212.0,1638178245.513
1993983.0,1638178245.554
1989598.0,1638178245.594
1985136.0,1638178245.636
1982044.0,1638178245.674
1979853.0,1638178245.714
1977856.0,1638178245.755
1977008.0,1638178245.795
1976833.0,1638178245.836
1976216.0,1638178245.876
1975346.0,1638178245.915
1975413.0,1638178245.956
1975743.0,1638178245.988
1976963.0,1638178246.028
1978303.0,1638178246.068
1979359.0,1638178246.109
1981384.0,1638178246.148
1982926.0,1638178246.188
1984498.0,1638178246.23
1986552.0,1638178246.268
1988586.0,1638178246.308
1990565.0,1638178246.349
1992776.0,1638178246.388
1994708.0,1638178246.429
1997159.0,1638178246.47
1998688.0,1638178246.509
1996524.0,1638178246.549
1992635.0,1638178246.59
1989966.0,1638178246.63
1990028.0,1638178246.669
1990586.0,1638178246.708
1992102.0,1638178246.741
1992538.0,1638178246.777
1991404.0,1638178246.817
1990237.0,1638178246.856
1989895.0,1638178246.896
1989703.0,1638178246.937
1989900.0,1638178246.976
1991154.0,1638178247.017
1991975.0,1638178247.058
1993309.0,1638178247.097
1994371.0,1638178247.137
1995631.0,1638178247.176
1997175.0,1638178247.215
1998802.0,1638178247.255
2000211.0,1638178247.296
2002097.0,1638178247.335
2003984.0,1638178247.375
2005851.0,1638178247.417
2007055.0,1638178247.455
2004100.0,1638178247.495
1999900.0,1638178247.536
1996461.0,1638178247.575
1993703.0,1638178247.616
1991949.0,1638178247.657
1990977.0,1638178247.696
1990472.0,1638178247.736
1990341.0,1638178247.777
1989600.0,1638178247.817
1989448.0,1638178247.856
1989746.0,1638178247.895
1990466.0,1638178247.934
1991350.0,1638178247.973
1992724.0,1638178248.012
1994053.0,1638178248.051
1995252.0,1638178248.09
1996809.0,1638178248.129
1997804.0,1638178248.168
2000731.0,1638178248.207
2006142.0,1638178248.246
2009139.0,1638178248.285
2011012.0,1638178248.324
2012005.0,1638178248.363
2013789.0,1638178248.402
2014465.0,1638178248.441
2010508.0,1638178248.48
2005759.0,1638178248.519
2002472.0,1638178248.558
1998882.0,1638178248.636
1998474.0,1638178248.675
1998848.0,1638178248.714
1999959.0,1638178248.753
2000879.0,1638178248.792
2002224.0,1638178248.831
2003953.0,1638178248.87
2000339.0,1638178248.597
2005540.0,1638178248.909
2007571.0,1638178248.948
2008973.0,1638178248.987
2010560.0,1638178249.026
2012045.0,1638178249.065
2013680.0,1638178249.104
2015464.0,1638178249.143
2017405.0,1638178249.182
2019296.0,1638178249.221
2021369.0,1638178249.26
2023509.0,1638178249.299
2026094.0,1638178249.338
2028056.0,1638178249.377
2022545.0,1638178249.455
2012923.0,1638178249.689
2012217.0,1638178249.728
2012174.0,1638178249.767
2012375.0,1638178249.806
2012998.0,1638178249.845
2014534.0,1638178249.884
2014187.0,1638178249.572
2016017.0,1638178249.533
2013001.0,1638178249.611
2013151.0,1638178249.65
2018308.0,1638178249.494
2026837.0,1638178249.416
2015926.0,1638178249.923
2017288.0,1638178249.962
2019263.0,1638178250.001
2021046.0,1638178250.04
2023459.0,1638178250.079
2025009.0,1638178250.118
2027949.0,1638178250.157
2031028.0,1638178250.197
2034415.0,1638178250.237
2037536.0,1638178250.277
2041043.0,1638178250.317
2040201.0,1638178250.397
2035748.0,1638178250.437
2042733.0,1638178250.357
2031701.0,1638178250.477
2028377.0,1638178250.517
2025788.0,1638178250.557
2023977.0,1638178250.597
2023035.0,1638178250.637
2022157.0,1638178250.677
2020715.0,1638178250.717
2020066.0,1638178250.757
2019978.0,1638178250.797
2020289.0,1638178250.837
2021783.0,1638178250.917
2020745.0,1638178250.877
2022555.0,1638178250.957
2025863.0,1638178251.077
2023526.0,1638178250.997
2029167.0,1638178251.157
2030544.0,1638178251.197
2027395.0,1638178251.117
2025026.0,1638178251.037
2032549.0,1638178251.237
2036599.0,1638178251.317
2034741.0,1638178251.277
2038479.0,1638178251.357
2039233.0,1638178251.397
2034941.0,1638178251.437
2027752.0,1638178251.477
2021681.0,1638178251.517
2017371.0,1638178251.557
2013336.0,1638178251.597
2010197.0,1638178251.637
2008219.0,1638178251.677
2006341.0,1638178251.717
2004144.0,1638178251.757
2002159.0,1638178251.797
2000421.0,1638178251.837
1999876.0,1638178251.877
1999950.0,1638178251.917
2000170.0,1638178251.957
2000614.0,1638178251.997
2001180.0,1638178252.037
2001902.0,1638178252.077
2002873.0,1638178252.117
2003514.0,1638178252.157
2004933.0,1638178252.197
2006421.0,1638178252.237
2007695.0,1638178252.277
2009475.0,1638178252.317
2011028.0,1638178252.357
2009496.0,1638178252.397
2004504.0,1638178252.437
1999031.0,1638178252.477
1995149.0,1638178252.517
1992612.0,1638178252.557
1990639.0,1638178252.597
1989815.0,1638178252.637
1989150.0,1638178252.677
1987762.0,1638178252.717
1986296.0,1638178252.757
1985526.0,1638178252.797
1985526.0,1638178252.837
1985168.0,1638178252.877
1985317.0,1638178252.917
1985915.0,1638178252.957
1986338.0,1638178252.997
1987325.0,1638178253.037
1987789.0,1638178253.077
1988974.0,1638178253.117
1989999.0,1638178253.157
1991075.0,1638178253.197
1992458.0,1638178253.237
1993498.0,1638178253.277
1995638.0,1638178253.317
1996441.0,1638178253.357
1992926.0,1638178253.397
1987045.0,1638178253.437
1982553.0,1638178253.477
1979224.0,1638178253.517
1976763.0,1638178253.557
1975004.0,1638178253.597
1974092.0,1638178253.637
1972935.0,1638178253.677
1972183.0,1638178253.717
1970820.0,1638178253.757
1970616.0,1638178253.797
1971012.0,1638178253.837
1971203.0,1638178253.877
1972257.0,1638178253.917
1973344.0,1638178253.957
1974423.0,1638178253.997
1975494.0,1638178254.037
1976407.0,1638178254.077
1977999.0,1638178254.117
1979621.0,1638178254.157
1981175.0,1638178254.197
1982749.0,1638178254.237
1984631.0,1638178254.277
1986875.0,1638178254.317
1985221.0,1638178254.357
1979292.0,1638178254.397
1974194.0,1638178254.437
1970154.0,1638178254.477
1967487.0,1638178254.517
1964266.0,1638178254.557
1963401.0,1638178254.597
1962416.0,1638178254.637
1961015.0,1638178254.677
1960138.0,1638178254.717
1959938.0,1638178254.757
1960032.0,1638178254.797
1960784.0,1638178254.837
1961757.0,1638178254.877
1962842.0,1638178254.917
1964198.0,1638178254.957
1965450.0,1638178254.997
1966783.0,1638178255.037
1968666.0,1638178255.077
1970466.0,1638178255.117
1972051.0,1638178255.157
1974277.0,1638178255.197
1976177.0,1638178255.237
1978600.0,1638178255.277
1979973.0,1638178255.317
1977307.0,1638178255.357
1972412.0,1638178255.397
1968402.0,1638178255.437
1966419.0,1638178255.477
1964535.0,1638178255.517
1963307.0,1638178255.557
1962893.0,1638178255.597
1962551.0,1638178255.637
1962024.0,1638178255.677
1961422.0,1638178255.717
1962427.0,1638178255.757
1963351.0,1638178255.797
1964489.0,1638178255.837
1966012.0,1638178255.877
1967952.0,1638178255.917
1969312.0,1638178255.957
1970774.0,1638178255.997
1972656.0,1638178256.037
1974608.0,1638178256.077
1976305.0,1638178256.117
1978481.0,1638178256.157
1980574.0,1638178256.197
1983175.0,1638178256.237
1983201.0,1638178256.277
1979976.0,1638178256.317
1975803.0,1638178256.357
1973284.0,1638178256.397
1971723.0,1638178256.437
1970554.0,1638178256.477
1970489.0,1638178256.517
1970870.0,1638178256.557
1970535.0,1638178256.597
1970739.0,1638178256.637
1971144.0,1638178256.677
1971604.0,1638178256.717
1972971.0,1638178256.757
1974871.0,1638178256.797
1976447.0,1638178256.837
1978116.0,1638178256.877
1979749.0,1638178256.917
1981969.0,1638178256.957
1983686.0,1638178256.997
1986003.0,1638178257.037
1988131.0,1638178257.077
1990663.0,1638178257.117
1992926.0,1638178257.157
1995328.0,1638178257.197
1997625.0,1638178257.237
1997936.0,1638178257.277
1993935.0,1638178257.317
1990185.0,1638178257.357
1987043.0,1638178257.397
1985419.0,1638178257.437
1983604.0,1638178257.477
1982862.0,1638178257.517
1982318.0,1638178257.557
1982260.0,1638178257.597
1982039.0,1638178257.637
1982137.0,1638178257.677
1982994.0,1638178257.717
1984044.0,1638178257.757
1985294.0,1638178257.797
1986708.0,1638178257.837
1988603.0,1638178257.877
1989832.0,1638178257.917
1991523.0,1638178257.957
1993357.0,1638178257.997
1995507.0,1638178258.037
1997415.0,1638178258.077
1999511.0,1638178258.117
2003930.0,1638178258.197
2007973.0,1638178258.277
2005776.0,1638178258.317
2005940.0,1638178258.237
2001535.0,1638178258.157
2001488.0,1638178258.357
1998261.0,1638178258.397
1996480.0,1638178258.437
1994259.0,1638178258.477
1993375.0,1638178258.517
1993151.0,1638178258.557
1992799.0,1638178258.597
1992371.0,1638178258.637
1992011.0,1638178258.677
1992240.0,1638178258.717
1993143.0,1638178258.757
1994156.0,1638178258.797
1995369.0,1638178258.837
1996390.0,1638178258.877
1997724.0,1638178258.917
1998081.0,1638178258.957
1998811.0,1638178258.997
2000693.0,1638178259.037
2003222.0,1638178259.077
2005446.0,1638178259.117
2009309.0,1638178259.157
2012989.0,1638178259.197
2016242.0,1638178259.237
2019378.0,1638178259.277
2018797.0,1638178259.317
2017065.0,1638178259.357
2015522.0,1638178259.397
2014477.0,1638178259.437
2013120.0,1638178259.477
2012476.0,1638178259.517
2012281.0,1638178259.557
2011063.0,1638178259.597
2010222.0,1638178259.637
2009941.0,1638178259.677
2009955.0,1638178259.717
2010232.0,1638178259.757
2010832.0,1638178259.795
2011134.0,1638178259.836
2012321.0,1638178259.875
2013154.0,1638178259.915
2014606.0,1638178259.957
2018548.0,1638178259.996
2023847.0,1638178260.036
2027661.0,1638178260.077
2030396.0,1638178260.116
2032678.0,1638178260.157
2035222.0,1638178260.197
2036408.0,1638178260.236
2035444.0,1638178260.276
2030878.0,1638178260.317
2025998.0,1638178260.357
2022287.0,1638178260.396
2019295.0,1638178260.438
2017219.0,1638178260.477
2016133.0,1638178260.517
2015524.0,1638178260.559
2015430.0,1638178260.597
2015052.0,1638178260.637
2015317.0,1638178260.678
2015463.0,1638178260.717
2015349.0,1638178260.758
2015095.0,1638178260.798
2015438.0,1638178260.838
2015292.0,1638178260.878
2015209.0,1638178260.919
2014722.0,1638178260.958
2014893.0,1638178260.998
2015413.0,1638178261.039
2016058.0,1638178261.078
2016155.0,1638178261.118
2015888.0,1638178261.16
2015569.0,1638178261.239
2015750.0,1638178261.198
2012221.0,1638178261.28
2005783.0,1638178261.319
1998816.0,1638178261.36
1993155.0,1638178261.4
1988395.0,1638178261.439
1983156.0,1638178261.479
1979304.0,1638178261.52
1976270.0,1638178261.56
1973156.0,1638178261.599
1970265.0,1638178261.64
1967457.0,1638178261.68
1966015.0,1638178261.72
1965451.0,1638178261.762
1964999.0,1638178261.8
1964969.0,1638178261.84
1965036.0,1638178261.881
1965271.0,1638178261.92
1966372.0,1638178261.961
1968236.0,1638178262.001
1969809.0,1638178262.04
1971195.0,1638178262.08
1973125.0,1638178262.122
1975190.0,1638178262.161
1975907.0,1638178262.201
1971854.0,1638178262.242
1965818.0,1638178262.281
1960703.0,1638178262.321
1957672.0,1638178262.363
1954374.0,1638178262.401
1951930.0,1638178262.441
1949214.0,1638178262.482
1946630.0,1638178262.521
1944011.0,1638178262.562
1942401.0,1638178262.603
1941466.0,1638178262.642
1941292.0,1638178262.682
1941847.0,1638178262.723
1941929.0,1638178262.763
1943164.0,1638178262.802
1944521.0,1638178262.843
1946193.0,1638178262.882
1948174.0,1638178262.922
1950062.0,1638178262.964
1952349.0,1638178263.003
1954184.0,1638178263.043
1956367.0,1638178263.084
1958668.0,1638178263.123
1957418.0,1638178263.164
1951463.0,1638178263.204
1946246.0,1638178263.243
1943481.0,1638178263.283
1941493.0,1638178263.324
1941305.0,1638178263.364
1941687.0,1638178263.404
1942372.0,1638178263.445
1943307.0,1638178263.484
1943917.0,1638178263.524
1944929.0,1638178263.566
1946284.0,1638178263.604
1947819.0,1638178263.644
1950082.0,1638178263.685
1951916.0,1638178263.724
1953949.0,1638178263.765
1956079.0,1638178263.806
1958568.0,1638178263.845
1960967.0,1638178263.885
1964046.0,1638178263.926
1967589.0,1638178263.966
1971483.0,1638178264.005
1975092.0,1638178264.046
1978379.0,1638178264.085
1979661.0,1638178264.125
1976160.0,1638178264.167
1971934.0,1638178264.206
1968511.0,1638178264.246
1966162.0,1638178264.287
1963912.0,1638178264.326
1962371.0,1638178264.367
1962180.0,1638178264.407
1961504.0,1638178264.446
1960898.0,1638178264.486
1960804.0,1638178264.527
1961084.0,1638178264.567
1962106.0,1638178264.607
1963960.0,1638178264.648
1965430.0,1638178264.687
1966832.0,1638178264.727
1968494.0,1638178264.769
1969688.0,1638178264.807
1971267.0,1638178264.847
1972939.0,1638178264.888
1974604.0,1638178264.927
1976670.0,1638178264.968
1978444.0,1638178265.009
1980763.0,1638178265.048
1981374.0,1638178265.088
1978666.0,1638178265.129
1974774.0,1638178265.169
1972441.0,1638178265.208
1971139.0,1638178265.249
1970199.0,1638178265.288
1970284.0,1638178265.328
1970549.0,1638178265.37
1970261.0,1638178265.409
1970379.0,1638178265.449
1970655.0,1638178265.49
1971658.0,1638178265.529
1973485.0,1638178265.57
1974666.0,1638178265.61
1975946.0,1638178265.649
1977637.0,1638178265.689
1979538.0,1638178265.731
1981304.0,1638178265.77
1982969.0,1638178265.81
1984937.0,1638178265.851
1986835.0,1638178265.89
1989054.0,1638178265.93
1990891.0,1638178265.972
1992207.0,1638178266.01
1989542.0,1638178266.05
1985720.0,1638178266.091
1983180.0,1638178266.13
1981407.0,1638178266.171
1980060.0,1638178266.212
1979459.0,1638178266.251
1979416.0,1638178266.291
1979641.0,1638178266.332
1979396.0,1638178266.371
1979850.0,1638178266.411
1980284.0,1638178266.452
1981573.0,1638178266.491
1982826.0,1638178266.531
1984687.0,1638178266.573
1986020.0,1638178266.611
1987916.0,1638178266.651
1989535.0,1638178266.692
1991223.0,1638178266.731
1993168.0,1638178266.772
1994978.0,1638178266.812
1997133.0,1638178266.851
1998971.0,1638178266.892
2001530.0,1638178266.933
2003483.0,1638178266.972
2003211.0,1638178267.012
1999496.0,1638178267.053
1995783.0,1638178267.092
1993003.0,1638178267.132
1990887.0,1638178267.174
1988615.0,1638178267.212
1987717.0,1638178267.252
1987371.0,1638178267.293
1986617.0,1638178267.332
1986378.0,1638178267.373
1986199.0,1638178267.413
1986518.0,1638178267.452
1986905.0,1638178267.493
1988155.0,1638178267.534
1989057.0,1638178267.573
1990362.0,1638178267.613
1991747.0,1638178267.654
1992883.0,1638178267.693
1994130.0,1638178267.733
1995883.0,1638178267.775
1997278.0,1638178267.813
1999024.0,1638178267.853
2000684.0,1638178267.894
2002883.0,1638178267.933
2004868.0,1638178267.974
2003719.0,1638178268.015
1999287.0,1638178268.054
1995043.0,1638178268.094
1992645.0,1638178268.135
1990498.0,1638178268.174
1988529.0,1638178268.214
1987416.0,1638178268.255
1987053.0,1638178268.294
1986166.0,1638178268.334
1985085.0,1638178268.376
1984943.0,1638178268.414
1984777.0,1638178268.454
1985241.0,1638178268.495
1986078.0,1638178268.534
1986931.0,1638178268.575
1987788.0,1638178268.616
1988991.0,1638178268.655
1990265.0,1638178268.695
1991079.0,1638178268.736
1992425.0,1638178268.776
1993659.0,1638178268.815
1995511.0,1638178268.856
1996952.0,1638178268.895
1996986.0,1638178268.935
1992598.0,1638178268.977
1988062.0,1638178269.015
1985243.0,1638178269.056
1982980.0,1638178269.097
1981307.0,1638178269.136
1980953.0,1638178269.176
1980647.0,1638178269.217
1979878.0,1638178269.256
1979221.0,1638178269.296
1978813.0,1638178269.337
1979337.0,1638178269.377
1979727.0,1638178269.416
1980972.0,1638178269.457
1982188.0,1638178269.496
1983626.0,1638178269.536
1984882.0,1638178269.578
1986164.0,1638178269.617
1987644.0,1638178269.657
1988992.0,1638178269.698
1990710.0,1638178269.737
1992570.0,1638178269.778
1994578.0,1638178269.818
1996464.0,1638178269.857
1997426.0,1638178269.897
1994202.0,1638178269.938
1988781.0,1638178269.978
1984758.0,1638178270.018
1981413.0,1638178270.059
1979221.0,1638178270.098
1977338.0,1638178270.138
1976461.0,1638178270.18
1975445.0,1638178270.218
1974441.0,1638178270.258
1974185.0,1638178270.299
1973767.0,1638178270.338
1974161.0,1638178270.379
1975040.0,1638178270.419
1976045.0,1638178270.458
1977170.0,1638178270.499
1978376.0,1638178270.54
1979374.0,1638178270.579
1981232.0,1638178270.619
1982589.0,1638178270.66
1983884.0,1638178270.699
1985949.0,1638178270.739
1987725.0,1638178270.781
1989668.0,1638178270.819
1991554.0,1638178270.859
1993716.0,1638178270.9
1992294.0,1638178270.939
1986797.0,1638178270.98
1980859.0,1638178271.02
1976074.0,1638178271.059
1972247.0,1638178271.1
1969095.0,1638178271.141
1967794.0,1638178271.18
1966993.0,1638178271.22
1966861.0,1638178271.261
1966702.0,1638178271.3
1966928.0,1638178271.34
1968065.0,1638178271.382
1969127.0,1638178271.42
1970382.0,1638178271.46
1972183.0,1638178271.501
1973568.0,1638178271.54
1975131.0,1638178271.581
1976920.0,1638178271.622
1978681.0,1638178271.661
1980652.0,1638178271.701
1982548.0,1638178271.742
1984547.0,1638178271.782
1986718.0,1638178271.822
1976252.0,1638178272.143
1988957.0,1638178271.863
1975875.0,1638178272.103
1984599.0,1638178271.942
1988567.0,1638178271.902
1980635.0,1638178271.984
1978183.0,1638178272.022
1976479.0,1638178272.062
1975493.0,1638178272.224
1975275.0,1638178272.263
1975053.0,1638178272.303
1975859.0,1638178272.344
1976920.0,1638178272.384
1978329.0,1638178272.423
1979587.0,1638178272.464
1981236.0,1638178272.503
1982660.0,1638178272.543
1985975.0,1638178272.623
1976088.0,1638178272.183
1987982.0,1638178272.663
1989755.0,1638178272.704
1991688.0,1638178272.743
1993619.0,1638178272.784
1984209.0,1638178272.585
1995918.0,1638178272.825
1996358.0,1638178272.864
1992123.0,1638178272.904
1987110.0,1638178272.945
1982958.0,1638178272.985
1980094.0,1638178273.024
1977459.0,1638178273.065
1975979.0,1638178273.104
1975074.0,1638178273.144
1974161.0,1638178273.186
1973031.0,1638178273.224
1972130.0,1638178273.264
1972085.0,1638178273.305
1972136.0,1638178273.344
1972954.0,1638178273.385
1973525.0,1638178273.425
1973961.0,1638178273.465
1975569.0,1638178273.505
1977847.0,1638178273.546
1980641.0,1638178273.585
1984279.0,1638178273.625
1987384.0,1638178273.666
1991222.0,1638178273.705
1994635.0,1638178273.745
1999840.0,1638178273.825
1997450.0,1638178273.787
1995705.0,1638178273.906
2001005.0,1638178273.865
1989595.0,1638178273.945
1984254.0,1638178273.986
1980049.0,1638178274.027
1976820.0,1638178274.066
1973489.0,1638178274.106
1971513.0,1638178274.147
1969823.0,1638178274.187
1967709.0,1638178274.226
1966585.0,1638178274.267
1965781.0,1638178274.306
1968632.0,1638178274.388
1966706.0,1638178274.346
1971498.0,1638178274.426
1976872.0,1638178274.507
1983170.0,1638178274.587
1979830.0,1638178274.547
1973957.0,1638178274.466
1986580.0,1638178274.628
1989526.0,1638178274.667
1993252.0,1638178274.707
1996914.0,1638178274.748
2004232.0,1638178274.827
2000723.0,1638178274.788
2005658.0,1638178274.868
2001078.0,1638178274.947
2000691.0,1638178274.989
2000759.0,1638178275.027
2002030.0,1638178275.068
2003915.0,1638178275.109
2006574.0,1638178275.148
2003308.0,1638178274.907
2008849.0,1638178275.188
2012236.0,1638178275.229
2015717.0,1638178275.268
2019877.0,1638178275.308
2024018.0,1638178275.349
2028805.0,1638178275.389
2033602.0,1638178275.428
2036729.0,1638178275.469
2037652.0,1638178275.508
2037883.0,1638178275.548
2037053.0,1638178275.59
2035935.0,1638178275.629
2035653.0,1638178275.669
2035304.0,1638178275.71
2034709.0,1638178275.749
2033567.0,1638178275.79
2027687.0,1638178275.83
2020617.0,1638178275.869
2014740.0,1638178275.909
2010086.0,1638178275.95
2005793.0,1638178275.99
2002114.0,1638178276.029
2000085.0,1638178276.071
1997662.0,1638178276.11
1994695.0,1638178276.15
1992677.0,1638178276.191
1991491.0,1638178276.23
1990554.0,1638178276.27
1990043.0,1638178276.311
1989857.0,1638178276.35
1989709.0,1638178276.391
1989718.0,1638178276.431
1989997.0,1638178276.47
1989892.0,1638178276.51
1990734.0,1638178276.552
1991165.0,1638178276.591
1992355.0,1638178276.631
1993417.0,1638178276.672
1994549.0,1638178276.711
1995436.0,1638178276.751
1991319.0,1638178276.793
1984480.0,1638178276.831
1978235.0,1638178276.871
1973834.0,1638178276.912
1969904.0,1638178276.947
1966279.0,1638178276.98
1964431.0,1638178277.018
1962294.0,1638178277.058
1960301.0,1638178277.098
1958336.0,1638178277.139
1957210.0,1638178277.179
1956683.0,1638178277.215
1956654.0,1638178277.256
1956889.0,1638178277.295
1957379.0,1638178277.336
1957728.0,1638178277.379
1958225.0,1638178277.417
1959162.0,1638178277.457
1959915.0,1638178277.496
1961021.0,1638178277.535
1962102.0,1638178277.575
1963465.0,1638178277.616
1965236.0,1638178277.655
1966600.0,1638178277.695
1964092.0,1638178277.736
1958016.0,1638178277.776
1952227.0,1638178277.815
1948661.0,1638178277.856
1946132.0,1638178277.895
1943978.0,1638178277.936
1943026.0,1638178277.977
1941646.0,1638178278.016
1940387.0,1638178278.056
1939132.0,1638178278.097
1938383.0,1638178278.136
1938239.0,1638178278.177
1939045.0,1638178278.218
1939590.0,1638178278.257
1940693.0,1638178278.298
1941552.0,1638178278.339
1942759.0,1638178278.379
1944014.0,1638178278.419
1944994.0,1638178278.46
1946701.0,1638178278.499
1947780.0,1638178278.539
1950044.0,1638178278.58
1951843.0,1638178278.619
1950156.0,1638178278.659
1944553.0,1638178278.7
1938910.0,1638178278.739
1935419.0,1638178278.78
1932402.0,1638178278.82
1930489.0,1638178278.859
1929747.0,1638178278.899
1929210.0,1638178278.94
1928238.0,1638178278.98
1927731.0,1638178279.019
1927190.0,1638178279.06
1928045.0,1638178279.099
1928632.0,1638178279.14
1930016.0,1638178279.181
1931677.0,1638178279.22
1933351.0,1638178279.261
1934989.0,1638178279.302
1936611.0,1638178279.34
1938362.0,1638178279.379
1940322.0,1638178279.419
1942531.0,1638178279.459
1944584.0,1638178279.499
1947052.0,1638178279.54
1949422.0,1638178279.58
1951426.0,1638178279.62
1948988.0,1638178279.661
1943558.0,1638178279.698
1939168.0,1638178279.738
1936636.0,1638178279.781
1934559.0,1638178279.818
1933049.0,1638178279.859
1932338.0,1638178279.9
1932201.0,1638178279.939
1931569.0,1638178279.979
1931424.0,1638178280.02
1931816.0,1638178280.059
1932719.0,1638178280.099
1934082.0,1638178280.14
1935447.0,1638178280.18
1937179.0,1638178280.219
1939190.0,1638178280.26
1940661.0,1638178280.299
1942546.0,1638178280.34
1944470.0,1638178280.381
1946949.0,1638178280.42
1949254.0,1638178280.46
1950974.0,1638178280.501
1953391.0,1638178280.541
1956078.0,1638178280.579
1957873.0,1638178280.62
1954554.0,1638178280.659
1950350.0,1638178280.699
1947599.0,1638178280.741
1945911.0,1638178280.781
1944891.0,1638178280.82
1944434.0,1638178280.861
1944584.0,1638178280.899
1944380.0,1638178280.939
1944514.0,1638178280.981
1944436.0,1638178281.019
1944880.0,1638178281.059
1946102.0,1638178281.1
1947656.0,1638178281.139
1949426.0,1638178281.179
1950970.0,1638178281.22
1953091.0,1638178281.259
1954490.0,1638178281.299
1956417.0,1638178281.34
1958273.0,1638178281.38
1960565.0,1638178281.419
1962565.0,1638178281.46
1965156.0,1638178281.499
1967276.0,1638178281.54
1969161.0,1638178281.581
1965881.0,1638178281.62
1962189.0,1638178281.66
1959393.0,1638178281.701
1957695.0,1638178281.741
1956856.0,1638178281.779
1956401.0,1638178281.82
1956747.0,1638178281.859
1956547.0,1638178281.899
1956438.0,1638178281.941
1956242.0,1638178281.981
1957232.0,1638178282.02
1958422.0,1638178282.062
1959058.0,1638178282.099
1958438.0,1638178282.139
1958859.0,1638178282.181
1959535.0,1638178282.22
1961881.0,1638178282.26
1964837.0,1638178282.295
1967633.0,1638178282.334
1970605.0,1638178282.374
1973701.0,1638178282.415
1976966.0,1638178282.454
1980249.0,1638178282.494
1984093.0,1638178282.535
1986744.0,1638178282.575
1986708.0,1638178282.614
1984790.0,1638178282.656
1984819.0,1638178282.695
1986232.0,1638178282.735
1988142.0,1638178282.777
1989825.0,1638178282.815
1990778.0,1638178282.855
1989999.0,1638178282.896
1989028.0,1638178282.935
1987958.0,1638178282.976
1987585.0,1638178283.015
1987705.0,1638178283.052
1987961.0,1638178283.088
1988154.0,1638178283.12
1988725.0,1638178283.16
1989432.0,1638178283.199
1990362.0,1638178283.241
1991186.0,1638178283.28
1991954.0,1638178283.32
1993148.0,1638178283.363
1994444.0,1638178283.398
1995422.0,1638178283.439
1996982.0,1638178283.48
1998592.0,1638178283.519
1998905.0,1638178283.558
1994778.0,1638178283.598
1989477.0,1638178283.637
1985027.0,1638178283.677
1982221.0,1638178283.719
1979312.0,1638178283.758
1977804.0,1638178283.849
1976843.0,1638178283.89
1975421.0,1638178283.929
1974077.0,1638178283.969
1972404.0,1638178284.011
1972189.0,1638178284.049
1971646.0,1638178284.089
1972359.0,1638178284.13
1972698.0,1638178284.169
1973650.0,1638178284.21
1974254.0,1638178284.25
1974885.0,1638178284.29
1975504.0,1638178284.33
1976583.0,1638178284.371
1977688.0,1638178284.411
1978961.0,1638178284.451
1980231.0,1638178284.492
1981409.0,1638178284.531
1979046.0,1638178284.572
1973757.0,1638178284.614
1968927.0,1638178284.65
1965873.0,1638178284.69
1963801.0,1638178284.731
1962303.0,1638178284.771
1961699.0,1638178284.812
1961117.0,1638178284.852
1959779.0,1638178284.891
1959008.0,1638178284.929
1958780.0,1638178284.971
1959173.0,1638178285.011
1959930.0,1638178285.05
1960595.0,1638178285.093
1961818.0,1638178285.132
1962664.0,1638178285.172
1964071.0,1638178285.214
1965284.0,1638178285.252
1966811.0,1638178285.292
1967856.0,1638178285.333
1969574.0,1638178285.373
1971219.0,1638178285.413
1973259.0,1638178285.454
1972018.0,1638178285.493
1966517.0,1638178285.533
1961237.0,1638178285.574
1956790.0,1638178285.614
1953716.0,1638178285.653
1951037.0,1638178285.694
1949477.0,1638178285.733
1948547.0,1638178285.773
1947644.0,1638178285.815
1946749.0,1638178285.853
1946330.0,1638178285.89
1946248.0,1638178285.932
1946751.0,1638178285.971
1947663.0,1638178286.012
1948947.0,1638178286.052
1950164.0,1638178286.092
1951405.0,1638178286.132
1953015.0,1638178286.173
1954258.0,1638178286.211
1955992.0,1638178286.251
1957425.0,1638178286.292
1959488.0,1638178286.331
1961463.0,1638178286.366
1963339.0,1638178286.408
1962610.0,1638178286.447
1958158.0,1638178286.487
1952974.0,1638178286.528
1949395.0,1638178286.567
1946245.0,1638178286.608
1944429.0,1638178286.648
1943347.0,1638178286.687
1942986.0,1638178286.727
1943013.0,1638178286.768
1944148.0,1638178286.808
1946504.0,1638178286.847
1948744.0,1638178286.889
1951382.0,1638178286.928
1954094.0,1638178286.968
1956766.0,1638178287.009
1958675.0,1638178287.049
1961678.0,1638178287.089
1964809.0,1638178287.13
1967227.0,1638178287.169
1970434.0,1638178287.211
1973212.0,1638178287.252
1976417.0,1638178287.291
1979324.0,1638178287.331
1981903.0,1638178287.372
1983497.0,1638178287.412
1980767.0,1638178287.452
1977017.0,1638178287.491
1974853.0,1638178287.53
1973495.0,1638178287.57
1972428.0,1638178287.612
1972756.0,1638178287.65
1972953.0,1638178287.69
1973648.0,1638178287.731
1973754.0,1638178287.77
1974198.0,1638178287.811
1975505.0,1638178287.851
1976723.0,1638178287.89
1979095.0,1638178287.93
1981051.0,1638178287.971
1983903.0,1638178288.011
1986400.0,1638178288.051
1988720.0,1638178288.092
1991392.0,1638178288.131
1993816.0,1638178288.171
1996089.0,1638178288.212
1998731.0,1638178288.251
2001381.0,1638178288.291
2003817.0,1638178288.332
2006786.0,1638178288.371
2007691.0,1638178288.412
2004158.0,1638178288.453
2000362.0,1638178288.492
1997290.0,1638178288.532
1995422.0,1638178288.574
1993998.0,1638178288.614
1993582.0,1638178288.651
1994588.0,1638178288.692
1994981.0,1638178288.732
1996165.0,1638178288.772
1997231.0,1638178288.81
1999177.0,1638178288.848
2001072.0,1638178288.888
2003335.0,1638178288.929
2005799.0,1638178288.968
2008605.0,1638178289.009
2010959.0,1638178289.05
2013441.0,1638178289.089
2015994.0,1638178289.129
2018512.0,1638178289.17
2020680.0,1638178289.21
2023029.0,1638178289.249
2025641.0,1638178289.29
2027609.0,1638178289.329
2029868.0,1638178289.37
2031787.0,1638178289.411
2033877.0,1638178289.45
2035060.0,1638178289.49
2031662.0,1638178289.532
2027556.0,1638178289.572
2024431.0,1638178289.612
2022412.0,1638178289.652
2020222.0,1638178289.692
2019349.0,1638178289.732
2018631.0,1638178289.773
2018368.0,1638178289.813
2018126.0,1638178289.853
2017995.0,1638178289.894
2018045.0,1638178289.933
2018679.0,1638178289.974
2019831.0,1638178290.013
2020703.0,1638178290.044
2021408.0,1638178290.084
2022441.0,1638178290.125
2023077.0,1638178290.164
2023675.0,1638178290.205
2024427.0,1638178290.246
2025189.0,1638178290.285
2026414.0,1638178290.325
2028178.0,1638178290.366
2030336.0,1638178290.406
2033155.0,1638178290.445
2035759.0,1638178290.486
2039593.0,1638178290.525
2042304.0,1638178290.566
2042235.0,1638178290.607
2041567.0,1638178290.646
2041949.0,1638178290.686
2042458.0,1638178290.728
2042839.0,1638178290.764
2044512.0,1638178290.798
2045582.0,1638178290.839
2045680.0,1638178290.875
2046024.0,1638178290.913
2046655.0,1638178290.954
2047728.0,1638178290.994
2049624.0,1638178291.034
2051850.0,1638178291.075
2054058.0,1638178291.114
2056078.0,1638178291.154
2057956.0,1638178291.196
2059339.0,1638178291.236
2061087.0,1638178291.276
2062125.0,1638178291.317
2062849.0,1638178291.356
2063477.0,1638178291.397
2064218.0,1638178291.437
2065026.0,1638178291.476
2066082.0,1638178291.516
2065890.0,1638178291.557
2061709.0,1638178291.597
2056877.0,1638178291.637
2052993.0,1638178291.678
2050638.0,1638178291.717
2048913.0,1638178291.757
2048014.0,1638178291.799
2047927.0,1638178291.837
2047886.0,1638178291.877
2047743.0,1638178291.918
2047887.0,1638178291.958
2048668.0,1638178291.996
2050010.0,1638178292.034
2052676.0,1638178292.074
2055245.0,1638178292.114
2057772.0,1638178292.155
2059183.0,1638178292.195
2058712.0,1638178292.235
2057897.0,1638178292.276
2057017.0,1638178292.315
2055940.0,1638178292.353
2054730.0,1638178292.396
2054376.0,1638178292.434
2054028.0,1638178292.473
2054013.0,1638178292.506
2053612.0,1638178292.545
2050373.0,1638178292.586
2042728.0,1638178292.627
2033759.0,1638178292.666
2027097.0,1638178292.706
2020871.0,1638178292.747
2015429.0,1638178292.787
2010923.0,1638178292.826
2006887.0,1638178292.867
2002967.0,1638178292.906
1998931.0,1638178292.946
1995452.0,1638178292.988
1992472.0,1638178293.027
1990750.0,1638178293.067
1989245.0,1638178293.108
1987681.0,1638178293.147
1986638.0,1638178293.185
1985681.0,1638178293.219
1985090.0,1638178293.259
1984055.0,1638178293.295
1983833.0,1638178293.334
1983618.0,1638178293.374
1983772.0,1638178293.414
1984190.0,1638178293.455
1984614.0,1638178293.494
1985229.0,1638178293.534
1982178.0,1638178293.576
1975234.0,1638178293.615
1968585.0,1638178293.653
1964892.0,1638178293.694
1964892.0,1638178293.73
1962584.0,1638178293.771
1960699.0,1638178293.811
1959904.0,1638178293.85
1959157.0,1638178293.89
1957654.0,1638178293.932
1956411.0,1638178293.971
1955695.0,1638178294.011
1956233.0,1638178294.052
1956921.0,1638178294.091
1957917.0,1638178294.131
1959089.0,1638178294.173
1960778.0,1638178294.211
1962670.0,1638178294.251
1964678.0,1638178294.292
1966367.0,1638178294.331
1968249.0,1638178294.372
1970145.0,1638178294.413
1972894.0,1638178294.453
1975464.0,1638178294.493
1974873.0,1638178294.534
1970943.0,1638178294.574
1967077.0,1638178294.613
1965074.0,1638178294.655
1964057.0,1638178294.694
1963605.0,1638178294.734
1964494.0,1638178294.776
1965327.0,1638178294.815
1966391.0,1638178294.855
1967335.0,1638178294.894
1968672.0,1638178294.934
1970354.0,1638178294.967
1972397.0,1638178295.008
1975602.0,1638178295.047
1978681.0,1638178295.087
1982738.0,1638178295.128
1987284.0,1638178295.168
1992778.0,1638178295.207
1998210.0,1638178295.248
2003265.0,1638178295.287
2008289.0,1638178295.328
2013523.0,1638178295.369
2018714.0,1638178295.408
2022372.0,1638178295.448
2021728.0,1638178295.489
2019769.0,1638178295.528
2018540.0,1638178295.569
2018690.0,1638178295.609
2019609.0,1638178295.649
2021072.0,1638178295.69
2023555.0,1638178295.728
2025790.0,1638178295.763
2027808.0,1638178295.802
2029420.0,1638178295.841
2031109.0,1638178295.88
2031993.0,1638178295.919
2031686.0,1638178295.958
2031652.0,1638178295.997
2031684.0,1638178296.036
2031323.0,1638178296.075
2030740.0,1638178296.114
2030830.0,1638178296.153
2031553.0,1638178296.192
2032042.0,1638178296.231
2033029.0,1638178296.27
2034320.0,1638178296.309
2035605.0,1638178296.348
2036963.0,1638178296.387
2035573.0,1638178296.426
2030831.0,1638178296.465
2023032.0,1638178296.543
2020844.0,1638178296.582
2019018.0,1638178296.621
2017377.0,1638178296.699
2018191.0,1638178296.66
2026393.0,1638178296.504
2016629.0,1638178296.738
2016079.0,1638178296.777
2015542.0,1638178296.816
2015492.0,1638178296.855
2016404.0,1638178296.894
2017149.0,1638178296.933
2019544.0,1638178297.011
2021433.0,1638178297.05
2022751.0,1638178297.089
2024433.0,1638178297.128
2026350.0,1638178297.167
2018051.0,1638178296.972
2029960.0,1638178297.245
2027946.0,1638178297.206
2032110.0,1638178297.284
2034408.0,1638178297.323
2036370.0,1638178297.362
2036370.0,1638178297.401
2034326.0,1638178297.44
2031009.0,1638178297.479
2028999.0,1638178297.518
2027408.0,1638178297.557
2026599.0,1638178297.596
2026722.0,1638178297.635
2027273.0,1638178297.674
2027664.0,1638178297.713
2027100.0,1638178297.752
2027424.0,1638178297.791
2029829.0,1638178297.869
2028353.0,1638178297.83
2031065.0,1638178297.908
2032248.0,1638178297.947
2034104.0,1638178297.986
2035522.0,1638178298.025
2037482.0,1638178298.064
2038737.0,1638178298.103
2040730.0,1638178298.142
2042534.0,1638178298.181
2044563.0,1638178298.22
2046416.0,1638178298.259
2048504.0,1638178298.298
2050499.0,1638178298.337
2051121.0,1638178298.376
2047919.0,1638178298.415
2038282.0,1638178298.493
2042375.0,1638178298.454
2032186.0,1638178298.571
2028685.0,1638178298.649
2027541.0,1638178298.688
2029918.0,1638178298.61
2035030.0,1638178298.532
2026648.0,1638178298.727
2025429.0,1638178298.766
2025307.0,1638178298.844
2025196.0,1638178298.805
2026683.0,1638178298.922
2027597.0,1638178298.961
2025739.0,1638178298.883
2028607.0,1638178299.0
2030323.0,1638178299.078
2029426.0,1638178299.039
2031362.0,1638178299.117
2033735.0,1638178299.195
2032703.0,1638178299.156
2035203.0,1638178299.234
2036511.0,1638178299.273
2038181.0,1638178299.312
2039919.0,1638178299.351
2038546.0,1638178299.39
2033007.0,1638178299.429
2027140.0,1638178299.468
2022484.0,1638178299.507
2018565.0,1638178299.546
2015127.0,1638178299.585
2012473.0,1638178299.624
2010820.0,1638178299.663
2008686.0,1638178299.702
2007589.0,1638178299.741
2007386.0,1638178299.78
2007712.0,1638178299.819
2008763.0,1638178299.858
2009020.0,1638178299.897
2009646.0,1638178299.936
2010260.0,1638178299.975
2010716.0,1638178300.014
2010808.0,1638178300.053
2011510.0,1638178300.092
2012291.0,1638178300.131
2013317.0,1638178300.17
2014435.0,1638178300.209
2015779.0,1638178300.248
2017358.0,1638178300.287
2018553.0,1638178300.326
2018626.0,1638178300.365
2013924.0,1638178300.404
2008149.0,1638178300.443
2003507.0,1638178300.482
2000546.0,1638178300.521
1998374.0,1638178300.56
1996875.0,1638178300.599
1996140.0,1638178300.638
1994709.0,1638178300.677
1993355.0,1638178300.716
1992437.0,1638178300.755
1991877.0,1638178300.794
1992118.0,1638178300.833
1992761.0,1638178300.872
1993285.0,1638178300.911
1994358.0,1638178300.95
1995366.0,1638178300.989
1995366.0,1638178301.028
1996676.0,1638178301.067
1997894.0,1638178301.106
1998768.0,1638178301.145
2000523.0,1638178301.184
2001893.0,1638178301.223
2003889.0,1638178301.262
2005839.0,1638178301.301
2006454.0,1638178301.34
2003101.0,1638178301.379
1998093.0,1638178301.418
1993935.0,1638178301.457
1991347.0,1638178301.496
1989594.0,1638178301.535
1988058.0,1638178301.574
1988228.0,1638178301.613
1987341.0,1638178301.652
1987017.0,1638178301.691
1986304.0,1638178301.73
1986516.0,1638178301.769
1987409.0,1638178301.808
1988402.0,1638178301.847
1989814.0,1638178301.886
1991103.0,1638178301.925
1992723.0,1638178301.964
1994491.0,1638178302.003
1996098.0,1638178302.042
1997758.0,1638178302.081
1999305.0,1638178302.12
2001372.0,1638178302.159
2003319.0,1638178302.198
2005868.0,1638178302.237
2008070.0,1638178302.276
2009351.0,1638178302.315
2005791.0,1638178302.354
2000898.0,1638178302.394
1997071.0,1638178302.434
1994850.0,1638178302.474
1992975.0,1638178302.514
1991755.0,1638178302.554
1991220.0,1638178302.594
1990856.0,1638178302.634
1989889.0,1638178302.674
1989499.0,1638178302.714
1989813.0,1638178302.754
1990502.0,1638178302.794
1991543.0,1638178302.834
1992623.0,1638178302.874
1994179.0,1638178302.914
1995283.0,1638178302.954
1996852.0,1638178302.994
1998464.0,1638178303.034
1999888.0,1638178303.074
2001487.0,1638178303.114
2003559.0,1638178303.154
2005618.0,1638178303.194
2007545.0,1638178303.234
2009872.0,1638178303.274
2010949.0,1638178303.314
2007769.0,1638178303.354
2003270.0,1638178303.394
1999867.0,1638178303.434
1998079.0,1638178303.474
1996725.0,1638178303.514
1995432.0,1638178303.554
1995824.0,1638178303.594
1995110.0,1638178303.634
1994791.0,1638178303.674
1994267.0,1638178303.714
1994515.0,1638178303.754
1995020.0,1638178303.794
1996011.0,1638178303.834
1996777.0,1638178303.874
1998139.0,1638178303.914
1999043.0,1638178303.954
2000451.0,1638178303.994
2001765.0,1638178304.034
2003069.0,1638178304.074
2004511.0,1638178304.114
2006154.0,1638178304.154
2008503.0,1638178304.194
2009793.0,1638178304.234
2009977.0,1638178304.274
2006019.0,1638178304.314
2002475.0,1638178304.354
2000101.0,1638178304.394
1999048.0,1638178304.434
1998165.0,1638178304.474
1998492.0,1638178304.514
1998440.0,1638178304.554
1998014.0,1638178304.594
1997621.0,1638178304.634
1997822.0,1638178304.674
1998336.0,1638178304.714
1999412.0,1638178304.754
2000369.0,1638178304.794
2002147.0,1638178304.834
2003118.0,1638178304.874
2004904.0,1638178304.914
2005922.0,1638178304.954
2007749.0,1638178304.994
2009315.0,1638178305.034
2010807.0,1638178305.074
2012622.0,1638178305.114
2014549.0,1638178305.154
2015638.0,1638178305.194
2012583.0,1638178305.234
2007757.0,1638178305.274
2003541.0,1638178305.314
2000898.0,1638178305.354
1998506.0,1638178305.394
1996862.0,1638178305.434
1995907.0,1638178305.474
1995124.0,1638178305.514
1994008.0,1638178305.554
1993378.0,1638178305.594
1992641.0,1638178305.634
1993192.0,1638178305.674
1993841.0,1638178305.714
1994677.0,1638178305.754
1995414.0,1638178305.794
1996542.0,1638178305.834
1997839.0,1638178305.874
1998693.0,1638178305.914
2000188.0,1638178305.954
2001540.0,1638178305.994
2003238.0,1638178306.034
2004837.0,1638178306.074
2006596.0,1638178306.114
2005499.0,1638178306.154
2000285.0,1638178306.194
1995191.0,1638178306.234
1991522.0,1638178306.274
1988585.0,1638178306.314
1986246.0,1638178306.354
1984831.0,1638178306.394
1983564.0,1638178306.434
1982248.0,1638178306.474
1981011.0,1638178306.514
1980322.0,1638178306.554
1980019.0,1638178306.594
1980320.0,1638178306.634
1980796.0,1638178306.674
1981717.0,1638178306.714
1982477.0,1638178306.754
1983116.0,1638178306.794
1984417.0,1638178306.834
1985276.0,1638178306.874
1986459.0,1638178306.914
1987679.0,1638178306.954
1989191.0,1638178306.994
1988872.0,1638178307.034
1984911.0,1638178307.074
1979953.0,1638178307.114
1976983.0,1638178307.154
1976983.0,1638178307.194
1974809.0,1638178307.234
1973550.0,1638178307.274
1972654.0,1638178307.314
1972607.0,1638178307.354
1971764.0,1638178307.394
1971164.0,1638178307.434
1971197.0,1638178307.474
1971253.0,1638178307.514
1972075.0,1638178307.554
1973136.0,1638178307.594
1974414.0,1638178307.643
1976083.0,1638178307.684
1977149.0,1638178307.723
1978716.0,1638178307.763
1979806.0,1638178307.805
1981912.0,1638178307.844
1983648.0,1638178307.884
1985164.0,1638178307.925
1983780.0,1638178307.964
1979326.0,1638178308.005
1974986.0,1638178308.045
1972009.0,1638178308.084
1969941.0,1638178308.124
1968005.0,1638178308.205
1967530.0,1638178308.245
1968389.0,1638178308.165
1967250.0,1638178308.286
1966843.0,1638178308.325
1967386.0,1638178308.365
1967831.0,1638178308.407
1969276.0,1638178308.445
1970658.0,1638178308.485
1972182.0,1638178308.526
1973887.0,1638178308.565
1975192.0,1638178308.606
1978963.0,1638178308.686
1980461.0,1638178308.726
1982931.0,1638178308.767
1985769.0,1638178308.846
1982330.0,1638178308.887
1977836.0,1638178308.926
1977099.0,1638178308.647
1985112.0,1638178308.806
1974880.0,1638178308.966
1972740.0,1638178309.008
1971127.0,1638178309.046
1970291.0,1638178309.086
1970459.0,1638178309.128
1970360.0,1638178309.167
1970348.0,1638178309.208
1970767.0,1638178309.248
1971336.0,1638178309.287
1972841.0,1638178309.321
1974320.0,1638178309.354
1975877.0,1638178309.393
1977786.0,1638178309.433
1979243.0,1638178309.474
1981204.0,1638178309.514
1983175.0,1638178309.554
1984804.0,1638178309.596
1987039.0,1638178309.631
1989131.0,1638178309.665
1991304.0,1638178309.706
1990424.0,1638178309.786
1993003.0,1638178309.745
1983957.0,1638178309.866
1986842.0,1638178309.827
1982026.0,1638178309.906
1981158.0,1638178309.947
1981081.0,1638178309.987
1981369.0,1638178310.026
1981353.0,1638178310.067
1981202.0,1638178310.106
1981187.0,1638178310.146
1983945.0,1638178310.267
1985393.0,1638178310.308
1982921.0,1638178310.227
1981852.0,1638178310.188
1986834.0,1638178310.345
1988388.0,1638178310.386
1991974.0,1638178310.454
1993877.0,1638178310.491
1995981.0,1638178310.533
1990322.0,1638178310.422
1997763.0,1638178310.572
2000100.0,1638178310.612
2002165.0,1638178310.653
2001360.0,1638178310.692
2001360.0,1638178310.725
1997789.0,1638178310.767
1993934.0,1638178310.805
1991527.0,1638178310.845
1989260.0,1638178310.886
1988460.0,1638178310.925
1988661.0,1638178310.966
1989611.0,1638178311.007
1990661.0,1638178311.046
1992342.0,1638178311.086
1994085.0,1638178311.127
1996331.0,1638178311.167
1998912.0,1638178311.206
2001461.0,1638178311.247
2003844.0,1638178311.286
2006108.0,1638178311.326
2008386.0,1638178311.368
2010617.0,1638178311.405
2013338.0,1638178311.44
2016192.0,1638178311.476
2018673.0,1638178311.513
2021517.0,1638178311.554
2024875.0,1638178311.594
2028074.0,1638178311.634
2031462.0,1638178311.674
2033153.0,1638178311.715
2030740.0,1638178311.755
2028169.0,1638178311.794
2026553.0,1638178311.836
2025779.0,1638178311.873
2025021.0,1638178311.913
2025347.0,1638178311.955
2026118.0,1638178311.994
2026570.0,1638178312.034
2026825.0,1638178312.075
2027578.0,1638178312.115
2028640.0,1638178312.155
2029843.0,1638178312.196
2031423.0,1638178312.235
2032914.0,1638178312.275
2034018.0,1638178312.316
2035761.0,1638178312.356
2037001.0,1638178312.395
2038822.0,1638178312.436
2041083.0,1638178312.475
2043340.0,1638178312.515
2045990.0,1638178312.557
2049513.0,1638178312.596
2052666.0,1638178312.636
2055805.0,1638178312.677
2058542.0,1638178312.715
2059058.0,1638178312.754
2052236.0,1638178312.834
2055460.0,1638178312.794
2049806.0,1638178312.874
2046513.0,1638178312.915
2043394.0,1638178312.955
2040909.0,1638178312.995
2038254.0,1638178313.035
2032129.0,1638178313.113
2035318.0,1638178313.072
2030508.0,1638178313.155
2028635.0,1638178313.193
2028117.0,1638178313.265
2028432.0,1638178313.224
2028661.0,1638178313.304
2029022.0,1638178313.345
2029495.0,1638178313.385
2030126.0,1638178313.424
2031709.0,1638178313.464
2034033.0,1638178313.505
2035526.0,1638178313.545
2036751.0,1638178313.585
2036947.0,1638178313.626
2037173.0,1638178313.665
2035012.0,1638178313.705
2029309.0,1638178313.747
2023091.0,1638178313.785
2017904.0,1638178313.825
2014624.0,1638178313.866
2011237.0,1638178313.905
2008947.0,1638178313.947
2006619.0,1638178313.983
2003921.0,1638178314.015
2001592.0,1638178314.053
1999701.0,1638178314.094
1998460.0,1638178314.134
1997951.0,1638178314.174
1997585.0,1638178314.215
1997500.0,1638178314.254
1997500.0,1638178314.286
1997712.0,1638178314.328
1997879.0,1638178314.366
1997961.0,1638178314.406
1998130.0,1638178314.448
1998751.0,1638178314.487
1999243.0,1638178314.527
1999939.0,1638178314.568
2001206.0,1638178314.607
2002203.0,1638178314.647
2001580.0,1638178314.688
1995691.0,1638178314.728
1987833.0,1638178314.767
1981840.0,1638178314.808
1976754.0,1638178314.847
1972773.0,1638178314.888
1969452.0,1638178314.929
1967448.0,1638178314.968
1965364.0,1638178315.009
1962652.0,1638178315.047
1960830.0,1638178315.082
1959389.0,1638178315.117
1958645.0,1638178315.155
1958757.0,1638178315.194
1958576.0,1638178315.234
1959232.0,1638178315.276
1959609.0,1638178315.316
1960326.0,1638178315.357
1960970.0,1638178315.398
1962245.0,1638178315.437
1963158.0,1638178315.477
1964409.0,1638178315.519
1965514.0,1638178315.557
1967362.0,1638178315.597
1969071.0,1638178315.638
1967254.0,1638178315.677
1960927.0,1638178315.718
1954008.0,1638178315.758
1949416.0,1638178315.797
1946087.0,1638178315.837
1943757.0,1638178315.879
1942315.0,1638178315.918
1941569.0,1638178315.958
1940187.0,1638178315.999
1939199.0,1638178316.038
1938326.0,1638178316.076
1938535.0,1638178316.116
1938872.0,1638178316.155
1939842.0,1638178316.195
1941330.0,1638178316.236
1942595.0,1638178316.275
1943904.0,1638178316.316
1945579.0,1638178316.357
1946944.0,1638178316.396
1948374.0,1638178316.434
1950179.0,1638178316.476
1952368.0,1638178316.516
1954489.0,1638178316.555
1954281.0,1638178316.595
1949954.0,1638178316.626
1944868.0,1638178316.667
1942237.0,1638178316.708
1940721.0,1638178316.747
1939736.0,1638178316.787
1940506.0,1638178316.828
1940420.0,1638178316.867
1940269.0,1638178316.908
1940438.0,1638178316.948
1940844.0,1638178316.987
1941721.0,1638178317.027
1942848.0,1638178317.069
1944966.0,1638178317.108
1946578.0,1638178317.148
1948530.0,1638178317.189
1950540.0,1638178317.228
1952399.0,1638178317.268
1954495.0,1638178317.31
1956656.0,1638178317.348
1958903.0,1638178317.388
1961261.0,1638178317.429
1963840.0,1638178317.468
1964586.0,1638178317.51
1961042.0,1638178317.548
1956376.0,1638178317.587
1952479.0,1638178317.624
1950286.0,1638178317.655
1948881.0,1638178317.695
1948064.0,1638178317.735
1947978.0,1638178317.776
1948032.0,1638178317.813
1948032.0,1638178317.85
1947911.0,1638178317.891
1948083.0,1638178317.93
1948596.0,1638178317.97
1949941.0,1638178318.011
1951585.0,1638178318.05
1953347.0,1638178318.091
1955367.0,1638178318.131
1957018.0,1638178318.17
1958835.0,1638178318.21
1961196.0,1638178318.252
1963206.0,1638178318.291
1965339.0,1638178318.331
1967856.0,1638178318.372
1970144.0,1638178318.411
1972422.0,1638178318.451
1974554.0,1638178318.493
1971586.0,1638178318.532
1967181.0,1638178318.572
1964022.0,1638178318.613
1962010.0,1638178318.653
1960280.0,1638178318.694
1959350.0,1638178318.735
1958657.0,1638178318.775
1958061.0,1638178318.814
1956718.0,1638178318.855
1955883.0,1638178318.895
1956456.0,1638178318.935
1956895.0,1638178318.976
1958287.0,1638178319.015
1959725.0,1638178319.056
1961596.0,1638178319.091
1963728.0,1638178319.13
1965216.0,1638178319.17
1967332.0,1638178319.211
1969530.0,1638178319.25
1971959.0,1638178319.291
1974488.0,1638178319.331
1977514.0,1638178319.37
1980934.0,1638178319.411
1983665.0,1638178319.452
1983027.0,1638178319.491
1981398.0,1638178319.522
1979901.0,1638178319.563
1979309.0,1638178319.602
1978371.0,1638178319.642
1978111.0,1638178319.763
1978481.0,1638178319.722
1977633.0,1638178319.804
1978052.0,1638178319.843
1978293.0,1638178319.884
1979796.0,1638178319.924
1980923.0,1638178319.964
1982453.0,1638178320.004
1985071.0,1638178320.085
1986871.0,1638178320.126
1983877.0,1638178320.045
1988321.0,1638178320.167
1978668.0,1638178319.684
1989839.0,1638178320.206
1991745.0,1638178320.246
1993900.0,1638178320.282
1995815.0,1638178320.32
1997277.0,1638178320.36
1994515.0,1638178320.401
1986632.0,1638178320.481
1983918.0,1638178320.522
1981864.0,1638178320.561
1980620.0,1638178320.601
1990327.0,1638178320.44
1980211.0,1638178320.642
1979355.0,1638178320.682
1978883.0,1638178320.721
1978383.0,1638178320.762
1978363.0,1638178320.801
1978884.0,1638178320.842
1980068.0,1638178320.883
1981231.0,1638178320.922
1982118.0,1638178320.962
1983613.0,1638178321.001
1985221.0,1638178321.036
1986286.0,1638178321.078
1987866.0,1638178321.11
1989671.0,1638178321.147
1991421.0,1638178321.187
1993572.0,1638178321.228
1995332.0,1638178321.268
1995054.0,1638178321.308
1990668.0,1638178321.349
1984685.0,1638178321.387
1978490.0,1638178321.427
1972353.0,1638178321.469
1968228.0,1638178321.508
1966206.0,1638178321.548
1964330.0,1638178321.628
1965231.0,1638178321.589
1963608.0,1638178321.669
1965552.0,1638178321.748
1967505.0,1638178321.788
1964058.0,1638178321.709
1970799.0,1638178321.829
1973332.0,1638178321.869
1976973.0,1638178321.949
1978807.0,1638178321.988
1975107.0,1638178321.908
1980544.0,1638178322.029
1982237.0,1638178322.07
1984376.0,1638178322.109
1986542.0,1638178322.147
1988579.0,1638178322.189
1990832.0,1638178322.228
1989512.0,1638178322.269
1980581.0,1638178322.389
1982688.0,1638178322.348
1979740.0,1638178322.43
1979232.0,1638178322.47
1979677.0,1638178322.507
1979906.0,1638178322.549
1979661.0,1638178322.588
1979680.0,1638178322.627
1980422.0,1638178322.662
1985847.0,1638178322.309
1981419.0,1638178322.7
1982604.0,1638178322.74
1984092.0,1638178322.782
1985753.0,1638178322.821
1987157.0,1638178322.861
1988695.0,1638178322.902
1990330.0,1638178322.941
1991888.0,1638178322.981
1993731.0,1638178323.022
1995650.0,1638178323.062
1997442.0,1638178323.101
1999845.0,1638178323.142
1999005.0,1638178323.181
1995907.0,1638178323.222
1992305.0,1638178323.263
1990228.0,1638178323.302
1988890.0,1638178323.342
1987745.0,1638178323.382
1987770.0,1638178323.418
1987462.0,1638178323.459
1987274.0,1638178323.493
1985505.0,1638178323.532
1984327.0,1638178323.569
1984474.0,1638178323.608
1985472.0,1638178323.648
1987577.0,1638178323.687
1990104.0,1638178323.728
1992728.0,1638178323.768
1995905.0,1638178323.808
1999828.0,1638178323.847
1999828.0,1638178323.883
2004096.0,1638178323.923
2007778.0,1638178323.964
2011912.0,1638178324.003
2014734.0,1638178324.044
2016764.0,1638178324.085
2018722.0,1638178324.124
2020280.0,1638178324.164
2019460.0,1638178324.205
2015518.0,1638178324.245
2011690.0,1638178324.284
2009127.0,1638178324.325
2007075.0,1638178324.364
2005065.0,1638178324.405
2004567.0,1638178324.446
2004143.0,1638178324.485
2003464.0,1638178324.525
2003381.0,1638178324.566
2002595.0,1638178324.606
2003173.0,1638178324.647
2003736.0,1638178324.688
2004306.0,1638178324.727
2005636.0,1638178324.767
2006724.0,1638178324.808
2007523.0,1638178324.848
2008820.0,1638178324.888
2009801.0,1638178324.929
2011399.0,1638178324.968
2012807.0,1638178325.009
2013863.0,1638178325.052
2015832.0,1638178325.089
2017710.0,1638178325.126
2019270.0,1638178325.168
2019327.0,1638178325.207
2015227.0,1638178325.247
2010755.0,1638178325.288
2007430.0,1638178325.327
2004955.0,1638178325.367
2003291.0,1638178325.408
2002126.0,1638178325.448
2001467.0,1638178325.487
2000537.0,1638178325.528
1999430.0,1638178325.567
1998133.0,1638178325.607
1997131.0,1638178325.649
1995705.0,1638178325.688
1994275.0,1638178325.728
1993008.0,1638178325.769
1992198.0,1638178325.808
1991491.0,1638178325.848
1991909.0,1638178325.889
1992703.0,1638178325.928
1993579.0,1638178325.968
1994793.0,1638178326.01
1996168.0,1638178326.05
1997785.0,1638178326.089
1999821.0,1638178326.129
1998588.0,1638178326.168
1994530.0,1638178326.208
1990538.0,1638178326.25
1987946.0,1638178326.288
1986212.0,1638178326.328
1985468.0,1638178326.37
1985186.0,1638178326.409
1984949.0,1638178326.449
1984492.0,1638178326.49
1984627.0,1638178326.529
1985745.0,1638178326.569
1985788.0,1638178326.61
1986360.0,1638178326.65
1987428.0,1638178326.689
1988384.0,1638178326.73
1990245.0,1638178326.769
1992069.0,1638178326.809
1993735.0,1638178326.851
1995383.0,1638178326.89
1997735.0,1638178326.93
1999983.0,1638178326.971
2001753.0,1638178327.01
2004181.0,1638178327.052
2006190.0,1638178327.089
2008307.0,1638178327.128
2006283.0,1638178327.168
2001065.0,1638178327.21
1996153.0,1638178327.25
1992598.0,1638178327.289
1989670.0,1638178327.331
1987159.0,1638178327.37
1985653.0,1638178327.408
1984895.0,1638178327.45
1983525.0,1638178327.488
1982516.0,1638178327.53
1982144.0,1638178327.571
1981936.0,1638178327.61
1982535.0,1638178327.651
1982990.0,1638178327.692
1984224.0,1638178327.731
1985041.0,1638178327.771
1986001.0,1638178327.812
1987385.0,1638178327.852
1988761.0,1638178327.891
1989976.0,1638178327.932
1991267.0,1638178327.971
1993074.0,1638178328.011
1994838.0,1638178328.053
1996701.0,1638178328.091
1998621.0,1638178328.131
1996522.0,1638178328.172
1990968.0,1638178328.211
1985038.0,1638178328.252
1980820.0,1638178328.293
1978034.0,1638178328.332
1975369.0,1638178328.372
1974394.0,1638178328.413
1972925.0,1638178328.453
1971632.0,1638178328.492
1970498.0,1638178328.533
1969551.0,1638178328.572
1969217.0,1638178328.612
1969861.0,1638178328.653
1970469.0,1638178328.688
1971261.0,1638178328.729
1972240.0,1638178328.77
1973071.0,1638178328.809
1974248.0,1638178328.85
1975399.0,1638178328.881
1976421.0,1638178328.92
1977974.0,1638178328.96
1979450.0,1638178329.001
1981132.0,1638178329.041
1982494.0,1638178329.081
1980665.0,1638178329.122
1975233.0,1638178329.161
1970000.0,1638178329.201
1966760.0,1638178329.242
1964796.0,1638178329.281
1963527.0,1638178329.321
1963287.0,1638178329.362
1962469.0,1638178329.401
1961589.0,1638178329.442
1960661.0,1638178329.482
1960684.0,1638178329.521
1960595.0,1638178329.562
1960927.0,1638178329.604
1961725.0,1638178329.64
1962559.0,1638178329.679
1963582.0,1638178329.713
1965205.0,1638178329.75
1966008.0,1638178329.79
1967510.0,1638178329.832
1969024.0,1638178329.87
1970874.0,1638178329.911
1973001.0,1638178329.952
1975810.0,1638178329.991
1978366.0,1638178330.032
1977206.0,1638178330.071
1973803.0,1638178330.109
1970802.0,1638178330.149
1969493.0,1638178330.19
1968961.0,1638178330.23
1968612.0,1638178330.269
1969344.0,1638178330.31
1970739.0,1638178330.35
1972108.0,1638178330.39
1972990.0,1638178330.431
1974481.0,1638178330.47
1975879.0,1638178330.51
1977633.0,1638178330.551
1979468.0,1638178330.59
1981795.0,1638178330.631
1984168.0,1638178330.671
1986625.0,1638178330.71
1989207.0,1638178330.75
1991937.0,1638178330.791
1994685.0,1638178330.832
1997411.0,1638178330.871
2000548.0,1638178330.913
2003225.0,1638178330.949
2006992.0,1638178330.989
2010966.0,1638178331.032
2011395.0,1638178331.07
2007641.0,1638178331.111
2003818.0,1638178331.152
2000212.0,1638178331.191
1996541.0,1638178331.232
1993043.0,1638178331.273
1990536.0,1638178331.312
1988183.0,1638178331.347
1984362.0,1638178331.428
1986350.0,1638178331.388
1982936.0,1638178331.52
1982186.0,1638178331.562
1981421.0,1638178331.601
1981682.0,1638178331.641
1981656.0,1638178331.683
1981926.0,1638178331.721
1982375.0,1638178331.761
1982808.0,1638178331.802
1983960.0,1638178331.841
1984829.0,1638178331.882
1985789.0,1638178331.922
1986542.0,1638178331.961
1988155.0,1638178332.001
1989363.0,1638178332.042
1989803.0,1638178332.082
1985150.0,1638178332.122
1979840.0,1638178332.164
1975414.0,1638178332.203
1972473.0,1638178332.243
1969989.0,1638178332.285
1968495.0,1638178332.324
1967081.0,1638178332.364
1966064.0,1638178332.406
1964699.0,1638178332.445
1963884.0,1638178332.486
1963268.0,1638178332.526
1963571.0,1638178332.566
1964036.0,1638178332.603
1964785.0,1638178332.644
1965512.0,1638178332.684
1966246.0,1638178332.723
1967093.0,1638178332.764
1967806.0,1638178332.803
1969017.0,1638178332.843
1970169.0,1638178332.885
1971745.0,1638178332.923
1973360.0,1638178332.963
1974638.0,1638178333.005
1972568.0,1638178333.044
1966476.0,1638178333.084
1960529.0,1638178333.125
1956340.0,1638178333.164
1953396.0,1638178333.204
1951059.0,1638178333.245
1950105.0,1638178333.285
1949011.0,1638178333.325
1947966.0,1638178333.366
1946342.0,1638178333.406
1945632.0,1638178333.446
1945365.0,1638178333.486
1945425.0,1638178333.524
1945595.0,1638178333.566
1945860.0,1638178333.603
1946471.0,1638178333.643
1946548.0,1638178333.684
1947106.0,1638178333.725
1948342.0,1638178333.764
1949863.0,1638178333.804
1951438.0,1638178333.845
1952835.0,1638178333.88
1954821.0,1638178333.919
1956762.0,1638178333.96
1959768.0,1638178333.999
1958541.0,1638178334.039
1953833.0,1638178334.081
1949978.0,1638178334.119
1947066.0,1638178334.159
1945007.0,1638178334.201
1942793.0,1638178334.24
1942151.0,1638178334.28
1941600.0,1638178334.321
1940751.0,1638178334.36
1940387.0,1638178334.4
1940070.0,1638178334.441
1940683.0,1638178334.481
1941747.0,1638178334.52
1942571.0,1638178334.553
1944089.0,1638178334.584
1945477.0,1638178334.624
1947026.0,1638178334.666
1948398.0,1638178334.704
1950564.0,1638178334.745
1951973.0,1638178334.786
1954046.0,1638178334.825
1956372.0,1638178334.866
1958405.0,1638178334.904
1960835.0,1638178334.944
1963121.0,1638178334.984
1963314.0,1638178335.025
1958649.0,1638178335.065
1958649.0,1638178335.098
1953963.0,1638178335.14
1950404.0,1638178335.179
1947984.0,1638178335.219
1946061.0,1638178335.261
1945373.0,1638178335.299
1944946.0,1638178335.339
1944305.0,1638178335.38
1943177.0,1638178335.419
1943263.0,1638178335.46
1943440.0,1638178335.501
1944265.0,1638178335.54
1945368.0,1638178335.58
1946848.0,1638178335.621
1948148.0,1638178335.661
1949610.0,1638178335.7
1951991.0,1638178335.741
1954983.0,1638178335.781
1958218.0,1638178335.819
1962201.0,1638178335.859
1965817.0,1638178335.892
1969995.0,1638178335.933
1974221.0,1638178335.968
1976625.0,1638178336.005
1975619.0,1638178336.046
1974773.0,1638178336.086
1975590.0,1638178336.125
1977867.0,1638178336.165
1979703.0,1638178336.207
1981621.0,1638178336.247
1981568.0,1638178336.286
1980564.0,1638178336.324
1979342.0,1638178336.363
1978856.0,1638178336.404
1978319.0,1638178336.445
1978323.0,1638178336.484
1978608.0,1638178336.524
1979072.0,1638178336.565
1979618.0,1638178336.604
1980155.0,1638178336.645
1981376.0,1638178336.685
1982232.0,1638178336.724
1983355.0,1638178336.764
1984596.0,1638178336.805
1986264.0,1638178336.845
1989200.0,1638178336.926
1986687.0,1638178336.965
1988179.0,1638178336.884
1981042.0,1638178337.005
1976449.0,1638178337.047
1972677.0,1638178337.085
1970253.0,1638178337.125
1967937.0,1638178337.167
1966833.0,1638178337.206
1965675.0,1638178337.247
1964795.0,1638178337.288
1963996.0,1638178337.327
1963284.0,1638178337.365
1963617.0,1638178337.407
1964024.0,1638178337.446
1964581.0,1638178337.486
1965748.0,1638178337.526
1966823.0,1638178337.557
1967931.0,1638178337.597
1969157.0,1638178337.639
1970449.0,1638178337.678
1971932.0,1638178337.718
1973377.0,1638178337.759
1975216.0,1638178337.798
1977060.0,1638178337.839
1978784.0,1638178337.879
1975633.0,1638178337.918
1969742.0,1638178337.958
1963848.0,1638178338.0
1960908.0,1638178338.039
1959300.0,1638178338.079
1958689.0,1638178338.12
1959752.0,1638178338.159
1960933.0,1638178338.199
1962476.0,1638178338.232
1964830.0,1638178338.271
1967287.0,1638178338.307
1968779.0,1638178338.346
1970583.0,1638178338.385
1970984.0,1638178338.426
1971750.0,1638178338.466
1972642.0,1638178338.506
1973778.0,1638178338.546
1974893.0,1638178338.587
1976445.0,1638178338.627
1977778.0,1638178338.667
1979044.0,1638178338.705
1980780.0,1638178338.744
1980780.0,1638178338.78
1982457.0,1638178338.822
1981630.0,1638178338.86
1977150.0,1638178338.9
1972770.0,1638178338.941
1969714.0,1638178338.98
1968109.0,1638178339.021
1966577.0,1638178339.062
1966795.0,1638178339.101
1966127.0,1638178339.141
1965871.0,1638178339.182
1965236.0,1638178339.222
1965037.0,1638178339.261
1965314.0,1638178339.302
1965988.0,1638178339.342
1966724.0,1638178339.382
1967968.0,1638178339.423
1968992.0,1638178339.463
1970431.0,1638178339.501
1971188.0,1638178339.539
1972813.0,1638178339.574
1974532.0,1638178339.608
1976210.0,1638178339.647
1978185.0,1638178339.686
1979811.0,1638178339.726
1979724.0,1638178339.768
1975518.0,1638178339.808
1971041.0,1638178339.847
1967731.0,1638178339.889
1965119.0,1638178339.928
1963171.0,1638178339.968
1962223.0,1638178340.003
1962154.0,1638178340.041
1961750.0,1638178340.082
1961037.0,1638178340.123
1961042.0,1638178340.162
1961898.0,1638178340.203
1962716.0,1638178340.243
1963557.0,1638178340.282
1964919.0,1638178340.322
1966539.0,1638178340.363
1967926.0,1638178340.403
1969462.0,1638178340.443
1970925.0,1638178340.484
1972558.0,1638178340.523
1974414.0,1638178340.563
1976135.0,1638178340.605
1978343.0,1638178340.643
1980359.0,1638178340.684
1982218.0,1638178340.726
1980091.0,1638178340.765
1975679.0,1638178340.806
1971927.0,1638178340.847
1969388.0,1638178340.886
1967243.0,1638178340.926
1965512.0,1638178340.968
1964710.0,1638178341.008
1963387.0,1638178341.047
1961006.0,1638178341.088
1959437.0,1638178341.128
1958599.0,1638178341.168
1959468.0,1638178341.209
1960896.0,1638178341.241
1962993.0,1638178341.281
1964954.0,1638178341.322
1968033.0,1638178341.361
1970735.0,1638178341.402
1974174.0,1638178341.443
1976883.0,1638178341.482
1979263.0,1638178341.522
1981606.0,1638178341.563
1983637.0,1638178341.603
1986190.0,1638178341.642
1988522.0,1638178341.683
1989766.0,1638178341.722
1988106.0,1638178341.763
1984536.0,1638178341.804
1981764.0,1638178341.843
1979814.0,1638178341.883
1978327.0,1638178341.925
1978054.0,1638178341.964
1977905.0,1638178342.005
1978332.0,1638178342.046
1978164.0,1638178342.085
1978267.0,1638178342.126
1978989.0,1638178342.167
1980036.0,1638178342.207
1981244.0,1638178342.247
1982783.0,1638178342.288
1984129.0,1638178342.327
1985246.0,1638178342.367
1986984.0,1638178342.41
1988434.0,1638178342.447
1990272.0,1638178342.482
1991840.0,1638178342.523
1993696.0,1638178342.562
1995687.0,1638178342.603
1997740.0,1638178342.644
1999569.0,1638178342.683
2001227.0,1638178342.723
1998648.0,1638178342.764
1994912.0,1638178342.804
1991077.0,1638178342.843
1988838.0,1638178342.884
1986873.0,1638178342.923
1985542.0,1638178342.964
1985407.0,1638178343.005
1985475.0,1638178343.044
1985001.0,1638178343.084
1984605.0,1638178343.125
1984774.0,1638178343.163
1985508.0,1638178343.204
1986254.0,1638178343.245
1987162.0,1638178343.282
1987546.0,1638178343.322
1986923.0,1638178343.364
1986748.0,1638178343.402
1988356.0,1638178343.439
1990382.0,1638178343.48
1993349.0,1638178343.519
1996657.0,1638178343.559
1999901.0,1638178343.601
2003446.0,1638178343.639
2006624.0,1638178343.679
2010528.0,1638178343.72
2014168.0,1638178343.759
2015942.0,1638178343.8
2014058.0,1638178343.84
2011833.0,1638178343.88
2011257.0,1638178343.92
2010670.0,1638178343.961
2010217.0,1638178344.001
2010154.0,1638178344.04
2010537.0,1638178344.081
2010090.0,1638178344.12
2009418.0,1638178344.16
2008574.0,1638178344.202
2007775.0,1638178344.24
2007189.0,1638178344.281
2007643.0,1638178344.322
2008033.0,1638178344.357
2009386.0,1638178344.391
2010194.0,1638178344.429
2011141.0,1638178344.468
2012206.0,1638178344.508
2012749.0,1638178344.549
2014084.0,1638178344.589
2015078.0,1638178344.629
2016700.0,1638178344.67
2017622.0,1638178344.709
2019222.0,1638178344.75
2018060.0,1638178344.789
2013386.0,1638178344.828
2008567.0,1638178344.868
2004886.0,1638178344.909
2002404.0,1638178344.948
2000640.0,1638178344.989
1999603.0,1638178345.03
1998396.0,1638178345.069
1996950.0,1638178345.109
1995618.0,1638178345.15
1994556.0,1638178345.19
1994295.0,1638178345.229
1994553.0,1638178345.27
1994885.0,1638178345.309
1995246.0,1638178345.349
1996136.0,1638178345.391
1996999.0,1638178345.429
1997652.0,1638178345.47
1998138.0,1638178345.511
1999325.0,1638178345.55
2000309.0,1638178345.59
2000698.0,1638178345.629
2000729.0,1638178345.668
1998910.0,1638178345.708
1993730.0,1638178345.75
1987263.0,1638178345.79
1981689.0,1638178345.829
1978088.0,1638178345.871
1975209.0,1638178345.91
1973716.0,1638178345.948
1973083.0,1638178345.99
1971428.0,1638178346.069
1972291.0,1638178346.029
1971386.0,1638178346.11
1973369.0,1638178346.19
1975198.0,1638178346.23
1976910.0,1638178346.27
1972298.0,1638178346.149
1978327.0,1638178346.31
1979656.0,1638178346.351
1981576.0,1638178346.39
1983540.0,1638178346.43
1985018.0,1638178346.471
1986940.0,1638178346.51
1988656.0,1638178346.55
1990428.0,1638178346.592
1992775.0,1638178346.63
1994862.0,1638178346.67
1993089.0,1638178346.712
1988184.0,1638178346.751
1982887.0,1638178346.791
1979189.0,1638178346.832
1976016.0,1638178346.868
1973828.0,1638178346.909
1972407.0,1638178346.95
1971708.0,1638178346.99
1970649.0,1638178347.03
1969622.0,1638178347.071
1969030.0,1638178347.11
1969137.0,1638178347.148
1969920.0,1638178347.19
1970890.0,1638178347.229
1972135.0,1638178347.269
1973413.0,1638178347.31
1974618.0,1638178347.35
1975771.0,1638178347.39
1977311.0,1638178347.431
1978686.0,1638178347.47
1980516.0,1638178347.51
1982581.0,1638178347.551
1984382.0,1638178347.591
1986287.0,1638178347.63
1985015.0,1638178347.671
1979719.0,1638178347.71
1974727.0,1638178347.751
1970662.0,1638178347.792
1968835.0,1638178347.831
1968088.0,1638178347.871
1968232.0,1638178347.912
1969306.0,1638178347.951
1970594.0,1638178347.992
1971803.0,1638178348.032
1973541.0,1638178348.069
1976827.0,1638178348.109
1980202.0,1638178348.15
1983894.0,1638178348.19
1987279.0,1638178348.23
1989126.0,1638178348.271
1989734.0,1638178348.31
1990392.0,1638178348.351
1991271.0,1638178348.391
1992293.0,1638178348.431
1993511.0,1638178348.471
1995334.0,1638178348.513
1996444.0,1638178348.552
1995063.0,1638178348.592
1990987.0,1638178348.633
1987022.0,1638178348.672
1984302.0,1638178348.712
1982245.0,1638178348.753
1981041.0,1638178348.793
1980565.0,1638178348.832
1980482.0,1638178348.873
1979925.0,1638178348.912
1979489.0,1638178348.952
1979569.0,1638178348.994
1980264.0,1638178349.033
1980924.0,1638178349.073
1982068.0,1638178349.114
1983415.0,1638178349.154
1984630.0,1638178349.192
1985905.0,1638178349.23
1987126.0,1638178349.269
1988747.0,1638178349.31
1990052.0,1638178349.351
1992041.0,1638178349.391
1993823.0,1638178349.43
1995824.0,1638178349.472
1997589.0,1638178349.511
1995311.0,1638178349.549
1990186.0,1638178349.591
1990186.0,1638178349.621
1984153.0,1638178349.661
1979052.0,1638178349.702
1974906.0,1638178349.741
1971410.0,1638178349.782
1970127.0,1638178349.823
1969701.0,1638178349.862
1969444.0,1638178349.902
1971281.0,1638178349.943
1973455.0,1638178349.983
1976025.0,1638178350.022
1978879.0,1638178350.063
1981090.0,1638178350.102
1983134.0,1638178350.142
1985007.0,1638178350.184
1986635.0,1638178350.223
1988540.0,1638178350.263
1989407.0,1638178350.304
1991245.0,1638178350.34
1992672.0,1638178350.373
1994489.0,1638178350.412
1996298.0,1638178350.451
1998168.0,1638178350.491
1996154.0,1638178350.532
1991236.0,1638178350.572
1987243.0,1638178350.612
1984666.0,1638178350.653
1982524.0,1638178350.692
1981343.0,1638178350.732
1980935.0,1638178350.767
1980518.0,1638178350.806
1980061.0,1638178350.846
1979782.0,1638178350.887
1978448.0,1638178350.926
1977968.0,1638178350.967
1977163.0,1638178351.007
1977151.0,1638178351.046
1978112.0,1638178351.087
1979389.0,1638178351.128
1980846.0,1638178351.167
1982671.0,1638178351.207
1984773.0,1638178351.248
1987090.0,1638178351.287
1989262.0,1638178351.327
1991281.0,1638178351.369
1993546.0,1638178351.407
1993808.0,1638178351.448
1990370.0,1638178351.489
1986527.0,1638178351.528
1983933.0,1638178351.568
1982049.0,1638178351.61
1980350.0,1638178351.649
1980306.0,1638178351.69
1980600.0,1638178351.731
1980390.0,1638178351.771
1980664.0,1638178351.811
1980484.0,1638178351.852
1981605.0,1638178351.891
1982245.0,1638178351.931
1983898.0,1638178351.972
1985314.0,1638178352.009
1986437.0,1638178352.049
1987976.0,1638178352.09
1989528.0,1638178352.129
1991307.0,1638178352.17
1993026.0,1638178352.21
1994424.0,1638178352.249
1994779.0,1638178352.289
1995053.0,1638178352.33
1996127.0,1638178352.37
1997093.0,1638178352.409
1994088.0,1638178352.451
1989664.0,1638178352.49
1985648.0,1638178352.53
1983999.0,1638178352.571
1982694.0,1638178352.61
1982255.0,1638178352.651
1983250.0,1638178352.692
1983637.0,1638178352.731
1983524.0,1638178352.772
1983577.0,1638178352.813
1983488.0,1638178352.852
1983880.0,1638178352.892
1984298.0,1638178352.934
1984752.0,1638178352.974
1986310.0,1638178353.013
1987434.0,1638178353.054
1988866.0,1638178353.091
1990398.0,1638178353.132
1991538.0,1638178353.174
1993121.0,1638178353.205
1994732.0,1638178353.245
1996231.0,1638178353.286
1997734.0,1638178353.325
1999584.0,1638178353.366
2001430.0,1638178353.407
2002725.0,1638178353.446
2000158.0,1638178353.486
1996132.0,1638178353.527
1992605.0,1638178353.567
1990583.0,1638178353.606
1988667.0,1638178353.647
1987494.0,1638178353.686
1986868.0,1638178353.726
1986391.0,1638178353.768
1985693.0,1638178353.806
1985645.0,1638178353.846
1986087.0,1638178353.888
1987226.0,1638178353.926
1988111.0,1638178353.964
1989642.0,1638178354.005
1991174.0,1638178354.041
1992574.0,1638178354.075
1994059.0,1638178354.111
1995411.0,1638178354.152
1997000.0,1638178354.191
1998403.0,1638178354.232
1999926.0,1638178354.271
2001628.0,1638178354.311
2003512.0,1638178354.353
2004827.0,1638178354.392
2003183.0,1638178354.435
1998736.0,1638178354.476
1994716.0,1638178354.515
1992006.0,1638178354.556
1990023.0,1638178354.596
1989317.0,1638178354.635
1989273.0,1638178354.675
1988479.0,1638178354.716
1987884.0,1638178354.756
1987104.0,1638178354.795
1986870.0,1638178354.836
1987073.0,1638178354.875
1988042.0,1638178354.916
1989212.0,1638178354.957
1990548.0,1638178354.996
1991603.0,1638178355.036
1992704.0,1638178355.077
1994015.0,1638178355.116
1995290.0,1638178355.154
1996054.0,1638178355.192
1997745.0,1638178355.231
1999548.0,1638178355.272
2001265.0,1638178355.313
2002985.0,1638178355.353
2002393.0,1638178355.392
1997692.0,1638178355.431
1992184.0,1638178355.47
1987821.0,1638178355.509
1984964.0,1638178355.548
1982259.0,1638178355.587
1980702.0,1638178355.626
1979198.0,1638178355.665
1978213.0,1638178355.704
1977227.0,1638178355.743
1976318.0,1638178355.782
1976158.0,1638178355.821
1976472.0,1638178355.86
1977877.0,1638178355.938
1978682.0,1638178355.977
1976742.0,1638178355.899
1979990.0,1638178356.016
1980987.0,1638178356.055
1981800.0,1638178356.094
1983099.0,1638178356.133
1984492.0,1638178356.172
1985786.0,1638178356.211
1986908.0,1638178356.25
1988876.0,1638178356.289
1990290.0,1638178356.328
1988101.0,1638178356.367
1982424.0,1638178356.406
1976542.0,1638178356.445
1972852.0,1638178356.484
1969716.0,1638178356.523
1966889.0,1638178356.562
1965267.0,1638178356.601
1963997.0,1638178356.64
1962518.0,1638178356.679
1960317.0,1638178356.718
1958502.0,1638178356.757
1957985.0,1638178356.796
1958019.0,1638178356.874
1958921.0,1638178356.913
1959583.0,1638178356.952
1957825.0,1638178356.835
1960351.0,1638178356.991
1960773.0,1638178357.03
1961587.0,1638178357.069
1962244.0,1638178357.108
1963871.0,1638178357.147
1966137.0,1638178357.186
1968994.0,1638178357.225
1971222.0,1638178357.264
1971622.0,1638178357.303
1966958.0,1638178357.342
1961710.0,1638178357.381
1958047.0,1638178357.42
1956264.0,1638178357.459
1954952.0,1638178357.498
1954543.0,1638178357.576
1953659.0,1638178357.615
1952750.0,1638178357.654
1952428.0,1638178357.693
1952811.0,1638178357.732
1954570.0,1638178357.537
1953823.0,1638178357.771
1955053.0,1638178357.81
1956596.0,1638178357.849
1958501.0,1638178357.888
1959761.0,1638178357.927
1961448.0,1638178357.966
1964577.0,1638178358.044
1962715.0,1638178358.005
1964577.0,1638178358.083
1966506.0,1638178358.122
1968352.0,1638178358.161
1970273.0,1638178358.2
1971582.0,1638178358.239
1967757.0,1638178358.278
1961772.0,1638178358.317
1953209.0,1638178358.395
1956480.0,1638178358.356
1950831.0,1638178358.434
1948423.0,1638178358.512
1948949.0,1638178358.473
1946696.0,1638178358.59
1947704.0,1638178358.551
1945868.0,1638178358.668
1945954.0,1638178358.629
1946800.0,1638178358.707
1947497.0,1638178358.746
1948520.0,1638178358.785
1949483.0,1638178358.824
1948517.0,1638178358.863
1947195.0,1638178358.902
1945829.0,1638178358.941
1945376.0,1638178358.98
1944963.0,1638178359.019
1945070.0,1638178359.058
1946145.0,1638178359.097
1947278.0,1638178359.136
1948017.0,1638178359.175
1944164.0,1638178359.214
1939116.0,1638178359.253
1936989.0,1638178359.292
1935234.0,1638178359.331
1934111.0,1638178359.37
1934146.0,1638178359.409
1935128.0,1638178359.448
1935968.0,1638178359.487
1936362.0,1638178359.526
1937661.0,1638178359.565
1939405.0,1638178359.604
1941095.0,1638178359.643
1943634.0,1638178359.682
1945465.0,1638178359.721
1947552.0,1638178359.76
1949397.0,1638178359.799
1951280.0,1638178359.839
1952910.0,1638178359.879
1954873.0,1638178359.919
1957163.0,1638178359.959
1959170.0,1638178359.999
1961568.0,1638178360.039
1963659.0,1638178360.079
1964114.0,1638178360.119
1959769.0,1638178360.159
1955005.0,1638178360.199
1951686.0,1638178360.239
1949507.0,1638178360.279
1948389.0,1638178360.319
1948061.0,1638178360.359
1947723.0,1638178360.399
1947429.0,1638178360.439
1946813.0,1638178360.479
1946967.0,1638178360.519
1947364.0,1638178360.559
1948561.0,1638178360.599
1949926.0,1638178360.639
1951563.0,1638178360.679
1953076.0,1638178360.719
1954459.0,1638178360.759
1956176.0,1638178360.799
1958105.0,1638178360.839
1959839.0,1638178360.879
1961903.0,1638178360.919
1963994.0,1638178360.959
1966361.0,1638178360.999
1966584.0,1638178361.039
1962122.0,1638178361.079
1957878.0,1638178361.119
1954721.0,1638178361.159
1952387.0,1638178361.199
1951030.0,1638178361.239
1950649.0,1638178361.279
1950694.0,1638178361.319
1950342.0,1638178361.359
1949977.0,1638178361.399
1950319.0,1638178361.439
1951102.0,1638178361.479
1952130.0,1638178361.519
1953770.0,1638178361.559
1954637.0,1638178361.599
1954550.0,1638178361.639
1953443.0,1638178361.679
1951629.0,1638178361.719
1950108.0,1638178361.759
1950416.0,1638178361.799
1950876.0,1638178361.839
1951795.0,1638178361.879
1954078.0,1638178361.919
1957418.0,1638178361.959
1959433.0,1638178361.999
1957514.0,1638178362.039
1954130.0,1638178362.079
1952273.0,1638178362.119
1950981.0,1638178362.159
1949719.0,1638178362.199
1949627.0,1638178362.239
1950196.0,1638178362.279
1950773.0,1638178362.319
1950827.0,1638178362.359
1951198.0,1638178362.399
1951994.0,1638178362.439
1953168.0,1638178362.479
1954290.0,1638178362.519
1955690.0,1638178362.559
1956959.0,1638178362.599
1958442.0,1638178362.639
1959214.0,1638178362.679
1958889.0,1638178362.719
1958619.0,1638178362.759
1958990.0,1638178362.799
1959352.0,1638178362.839
1961492.0,1638178362.879
1964063.0,1638178362.919
1966812.0,1638178362.959
1966812.0,1638178362.999
1965689.0,1638178363.039
1962785.0,1638178363.079
1960831.0,1638178363.119
1959378.0,1638178363.159
1958589.0,1638178363.199
1958490.0,1638178363.239
1958412.0,1638178363.279
1958329.0,1638178363.319
1957967.0,1638178363.359
1958209.0,1638178363.399
1958715.0,1638178363.439
1959901.0,1638178363.479
1961042.0,1638178363.519
1962849.0,1638178363.559
1964554.0,1638178363.599
1965816.0,1638178363.639
1967617.0,1638178363.679
1969109.0,1638178363.719
1971185.0,1638178363.759
1972808.0,1638178363.799
1974813.0,1638178363.839
1977000.0,1638178363.879
1978893.0,1638178363.919
1976545.0,1638178363.959
1971874.0,1638178363.999
1968182.0,1638178364.039
1965682.0,1638178364.079
1963361.0,1638178364.119
1962298.0,1638178364.159
1961813.0,1638178364.199
1961485.0,1638178364.239
1960714.0,1638178364.279
1960431.0,1638178364.319
1960543.0,1638178364.359
1961180.0,1638178364.399
1962179.0,1638178364.439
1963215.0,1638178364.479
1964410.0,1638178364.519
1965642.0,1638178364.559
1966337.0,1638178364.599
1967031.0,1638178364.639
1966853.0,1638178364.679
1966521.0,1638178364.719
1966145.0,1638178364.759
1965599.0,1638178364.799
1966108.0,1638178364.839
1966995.0,1638178364.879
1966418.0,1638178364.919
1962318.0,1638178364.959
1957593.0,1638178364.999
1954945.0,1638178365.039
1953924.0,1638178365.079
1953094.0,1638178365.119
1954213.0,1638178365.159
1954285.0,1638178365.199
1954279.0,1638178365.239
1954079.0,1638178365.279
1953764.0,1638178365.319
1954706.0,1638178365.359
1955327.0,1638178365.399
1956965.0,1638178365.439
1958409.0,1638178365.479
1959792.0,1638178365.519
1961482.0,1638178365.559
1962659.0,1638178365.599
1964657.0,1638178365.639
1966411.0,1638178365.679
1968006.0,1638178365.719
1970193.0,1638178365.759
1972143.0,1638178365.799
1974348.0,1638178365.839
1976442.0,1638178365.879
1977593.0,1638178365.919
1973637.0,1638178365.959
1968913.0,1638178365.999
1965121.0,1638178366.039
1962504.0,1638178366.079
1960784.0,1638178366.119
1959434.0,1638178366.159
1959115.0,1638178366.199
1958472.0,1638178366.239
1957615.0,1638178366.279
1956850.0,1638178366.319
1957339.0,1638178366.359
1957647.0,1638178366.399
1958655.0,1638178366.439
1960114.0,1638178366.479
1961340.0,1638178366.519
1962956.0,1638178366.559
1963998.0,1638178366.599
1964403.0,1638178366.639
1963442.0,1638178366.679
1962327.0,1638178366.719
1961274.0,1638178366.759
1961302.0,1638178366.799
1961846.0,1638178366.839
1960164.0,1638178366.879
1956664.0,1638178366.919
1953154.0,1638178366.959
1952018.0,1638178366.999
1952637.0,1638178367.039
1953560.0,1638178367.079
1955081.0,1638178367.119
1955829.0,1638178367.159
1955892.0,1638178367.199
1955613.0,1638178367.239
1955260.0,1638178367.307
1956077.0,1638178367.348
1956451.0,1638178367.387
1957600.0,1638178367.427
1959174.0,1638178367.469
1960556.0,1638178367.507
1961845.0,1638178367.547
1963184.0,1638178367.589
1964521.0,1638178367.628
1965762.0,1638178367.669
1967566.0,1638178367.709
1969071.0,1638178367.739
1970840.0,1638178367.775
1972871.0,1638178367.813
1974330.0,1638178367.853
1970703.0,1638178367.893
1970703.0,1638178367.928
1965288.0,1638178367.968
1960093.0,1638178368.008
1956916.0,1638178368.05
1953587.0,1638178368.088
1950429.0,1638178368.128
1949040.0,1638178368.169
1947648.0,1638178368.208
1946318.0,1638178368.249
1945376.0,1638178368.29
1944972.0,1638178368.329
1945023.0,1638178368.369
1945037.0,1638178368.41
1945329.0,1638178368.45
1945909.0,1638178368.489
1946452.0,1638178368.53
1946745.0,1638178368.57
1947873.0,1638178368.609
1948664.0,1638178368.652
1950043.0,1638178368.691
1951111.0,1638178368.731
1952527.0,1638178368.772
1954623.0,1638178368.812
1956662.0,1638178368.852
1956478.0,1638178368.894
1952479.0,1638178368.932
1947625.0,1638178368.973
1944784.0,1638178369.014
1942747.0,1638178369.054
1941145.0,1638178369.093
1940982.0,1638178369.135
1941447.0,1638178369.175
1942271.0,1638178369.215
1942701.0,1638178369.257
1943533.0,1638178369.295
1944279.0,1638178369.335
1944742.0,1638178369.376
1946547.0,1638178369.456
1947469.0,1638178369.497
1948383.0,1638178369.536
1945862.0,1638178369.415
1949854.0,1638178369.576
1950561.0,1638178369.617
1952211.0,1638178369.657
1953571.0,1638178369.696
1954767.0,1638178369.737
1956749.0,1638178369.776
1958270.0,1638178369.816
1956854.0,1638178369.858
1942547.0,1638178369.974
1938870.0,1638178370.013
1951656.0,1638178369.898
1946172.0,1638178369.935
1936298.0,1638178370.054
1935330.0,1638178370.094
1934195.0,1638178370.134
1932816.0,1638178370.174
1931745.0,1638178370.215
1931151.0,1638178370.255
1931239.0,1638178370.295
1931698.0,1638178370.334
1932534.0,1638178370.373
1933750.0,1638178370.406
1934952.0,1638178370.448
1936179.0,1638178370.486
1937373.0,1638178370.526
1938975.0,1638178370.567
1940319.0,1638178370.606
1942412.0,1638178370.647
1944236.0,1638178370.688
1946039.0,1638178370.727
1948626.0,1638178370.767
1949006.0,1638178370.808
1944193.0,1638178370.848
1938719.0,1638178370.887
1934345.0,1638178370.928
1930915.0,1638178370.967
1927927.0,1638178371.007
1925990.0,1638178371.049
1925098.0,1638178371.088
1924052.0,1638178371.125
1923057.0,1638178371.159
1922843.0,1638178371.196
1922761.0,1638178371.235
1923510.0,1638178371.275
1924296.0,1638178371.315
1925687.0,1638178371.355
1926975.0,1638178371.396
1928366.0,1638178371.436
1929503.0,1638178371.476
1931420.0,1638178371.517
1932961.0,1638178371.554
1935049.0,1638178371.596
1936886.0,1638178371.638
1939451.0,1638178371.676
1941537.0,1638178371.716
1942772.0,1638178371.757
1939451.0,1638178371.796
1934800.0,1638178371.837
1931348.0,1638178371.877
1929609.0,1638178371.916
1927919.0,1638178371.956
1927492.0,1638178371.998
1927295.0,1638178372.037
1927281.0,1638178372.077
1926889.0,1638178372.118
1926996.0,1638178372.157
1928027.0,1638178372.197
1929172.0,1638178372.239
1930535.0,1638178372.277
1932062.0,1638178372.318
1933780.0,1638178372.36
1935840.0,1638178372.396
1937413.0,1638178372.435
1939408.0,1638178372.476
1941602.0,1638178372.515
1943604.0,1638178372.555
1945870.0,1638178372.597
1948420.0,1638178372.636
1950959.0,1638178372.676
1950145.0,1638178372.717
1946631.0,1638178372.755
1942526.0,1638178372.795
1940367.0,1638178372.837
1938547.0,1638178372.875
1937347.0,1638178372.916
1937061.0,1638178372.957
1937208.0,1638178372.996
1937278.0,1638178373.037
1937368.0,1638178373.076
1937929.0,1638178373.115
1939148.0,1638178373.15
1940470.0,1638178373.191
1942246.0,1638178373.231
1943853.0,1638178373.27
1945925.0,1638178373.311
1947716.0,1638178373.35
1950020.0,1638178373.39
1951758.0,1638178373.432
1954108.0,1638178373.471
1956134.0,1638178373.511
1958578.0,1638178373.552
1960939.0,1638178373.591
1963408.0,1638178373.632
1965795.0,1638178373.672
1966242.0,1638178373.711
1962811.0,1638178373.751
1958981.0,1638178373.793
1956118.0,1638178373.832
1954151.0,1638178373.872
1952348.0,1638178373.914
1951226.0,1638178373.953
1951005.0,1638178373.994
1951103.0,1638178374.075
1950946.0,1638178374.036
1952009.0,1638178374.156
1951286.0,1638178374.115
1953105.0,1638178374.195
1954632.0,1638178374.236
1956079.0,1638178374.277
1957535.0,1638178374.316
1959190.0,1638178374.356
1960948.0,1638178374.395
1962778.0,1638178374.434
1964571.0,1638178374.474
1966244.0,1638178374.515
1968591.0,1638178374.554
1970696.0,1638178374.594
1972614.0,1638178374.636
1974702.0,1638178374.674
1976710.0,1638178374.714
1974298.0,1638178374.755
1970411.0,1638178374.794
1967146.0,1638178374.835
1965277.0,1638178374.876
1963731.0,1638178374.915
1962693.0,1638178374.955
1964216.0,1638178374.996
1971116.0,1638178375.035
1978085.0,1638178375.076
1981979.0,1638178375.117
1984036.0,1638178375.156
1986411.0,1638178375.196
1988554.0,1638178375.238
1990119.0,1638178375.277
1991817.0,1638178375.315
1994060.0,1638178375.356
1995962.0,1638178375.396
1998523.0,1638178375.437
2001488.0,1638178375.477
2003686.0,1638178375.516
2005521.0,1638178375.557
2007838.0,1638178375.597
2010262.0,1638178375.629
2010615.0,1638178375.668
2007203.0,1638178375.709
2002849.0,1638178375.748
1999563.0,1638178375.788
1997030.0,1638178375.83
1995228.0,1638178375.869
1994225.0,1638178375.909
1993588.0,1638178375.95
1992644.0,1638178375.989
1991870.0,1638178376.03
1991304.0,1638178376.07
1991500.0,1638178376.109
1992101.0,1638178376.149
1993199.0,1638178376.19
1993903.0,1638178376.23
1995518.0,1638178376.27
1997003.0,1638178376.302
1998494.0,1638178376.337
2000413.0,1638178376.374
2002062.0,1638178376.416
2004198.0,1638178376.455
2006280.0,1638178376.495
2008566.0,1638178376.536
2010680.0,1638178376.576
2011249.0,1638178376.617
2007465.0,1638178376.657
2002239.0,1638178376.696
1998618.0,1638178376.736
1995855.0,1638178376.777
1993586.0,1638178376.817
1992043.0,1638178376.857
1991629.0,1638178376.898
1991189.0,1638178376.937
1990360.0,1638178376.977
1989922.0,1638178377.019
1990112.0,1638178377.057
1990776.0,1638178377.097
1991792.0,1638178377.138
1993684.0,1638178377.177
1995082.0,1638178377.218
1996466.0,1638178377.258
1997708.0,1638178377.297
1998892.0,1638178377.337
1999477.0,1638178377.379
2000423.0,1638178377.418
2001328.0,1638178377.455
2002912.0,1638178377.496
2004181.0,1638178377.535
2002677.0,1638178377.576
1997218.0,1638178377.618
1991039.0,1638178377.656
1986869.0,1638178377.696
1983189.0,1638178377.738
1980104.0,1638178377.777
1978055.0,1638178377.819
1977149.0,1638178377.856
1975392.0,1638178377.895
1974639.0,1638178377.935
1974639.0,1638178377.97
1973885.0,1638178378.009
1974087.0,1638178378.049
1975098.0,1638178378.09
1976399.0,1638178378.129
1978003.0,1638178378.169
1979622.0,1638178378.211
1980945.0,1638178378.249
1982693.0,1638178378.289
1984180.0,1638178378.33
1985853.0,1638178378.369
1987206.0,1638178378.41
1988990.0,1638178378.451
1989730.0,1638178378.49
1987011.0,1638178378.53
1982212.0,1638178378.571
1978816.0,1638178378.611
1976226.0,1638178378.65
1975166.0,1638178378.683
1974447.0,1638178378.718
1974454.0,1638178378.756
1974194.0,1638178378.798
1973077.0,1638178378.837
1973457.0,1638178378.877
1974697.0,1638178378.918
1975855.0,1638178378.957
1978091.0,1638178378.998
1979838.0,1638178379.039
1981269.0,1638178379.078
1982948.0,1638178379.116
1984340.0,1638178379.158
1985558.0,1638178379.192
1987040.0,1638178379.231
1988489.0,1638178379.27
1989910.0,1638178379.309
1974232.0,1638178379.543
1982012.0,1638178379.465
1971518.0,1638178379.582
1969067.0,1638178379.621
1968059.0,1638178379.66
1977261.0,1638178379.504
1987311.0,1638178379.426
1991817.0,1638178379.387
1991547.0,1638178379.348
1966953.0,1638178379.699
1966124.0,1638178379.738
1965500.0,1638178379.777
1965309.0,1638178379.816
1965777.0,1638178379.855
1966468.0,1638178379.894
1967596.0,1638178379.933
1968653.0,1638178379.972
1969884.0,1638178380.011
1971115.0,1638178380.05
1972409.0,1638178380.089
1974025.0,1638178380.128
1975473.0,1638178380.167
1977107.0,1638178380.206
1979158.0,1638178380.245
1980547.0,1638178380.284
1977270.0,1638178380.323
1971976.0,1638178380.362
1967911.0,1638178380.401
1964570.0,1638178380.44
1962365.0,1638178380.479
1959889.0,1638178380.557
1959202.0,1638178380.596
1960390.0,1638178380.518
1958581.0,1638178380.635
1958143.0,1638178380.674
1958647.0,1638178380.752
1959609.0,1638178380.791
1960572.0,1638178380.83
1961871.0,1638178380.869
1958068.0,1638178380.713
1962832.0,1638178381.259
1960432.0,1638178381.298
1967027.0,1638178381.22
1959216.0,1638178381.337
1958340.0,1638178381.376
1958336.0,1638178381.415
1958500.0,1638178381.454
1971245.0,1638178381.181
1970996.0,1638178381.103
1957681.0,1638178381.493
1972772.0,1638178381.142
1969141.0,1638178381.064
1964612.0,1638178380.947
1962843.0,1638178380.908
1967387.0,1638178381.025
1957844.0,1638178381.532
1965939.0,1638178380.986
1958064.0,1638178381.571
1958616.0,1638178381.61
1960977.0,1638178381.69
1962636.0,1638178381.73
1963965.0,1638178381.77
1965592.0,1638178381.81
1967250.0,1638178381.85
1968692.0,1638178381.89
1970532.0,1638178381.93
1972496.0,1638178381.97
1973577.0,1638178382.01
1970318.0,1638178382.05
1965471.0,1638178382.09
1961805.0,1638178382.13
1959363.0,1638178382.17
1957531.0,1638178382.21
1960051.0,1638178381.65
1956440.0,1638178382.25
1956696.0,1638178382.29
1956394.0,1638178382.33
1955962.0,1638178382.37
1956211.0,1638178382.45
1958090.0,1638178382.53
1959141.0,1638178382.57
1957060.0,1638178382.49
1955566.0,1638178382.41
1960663.0,1638178382.61
1962288.0,1638178382.65
1963740.0,1638178382.69
1967118.0,1638178382.77
1970712.0,1638178382.85
1972798.0,1638178382.89
1965395.0,1638178382.73
1968615.0,1638178382.81
1968855.0,1638178382.97
1973158.0,1638178382.93
1959611.0,1638178383.05
1963348.0,1638178383.01
1956808.0,1638178383.09
1954220.0,1638178383.13
1952743.0,1638178383.17
1952122.0,1638178383.21
1951657.0,1638178383.25
1950872.0,1638178383.29
1951039.0,1638178383.33
1951015.0,1638178383.37
1951848.0,1638178383.41
1952771.0,1638178383.45
1953865.0,1638178383.49
1955111.0,1638178383.53
1956293.0,1638178383.57
1957878.0,1638178383.61
1959254.0,1638178383.65
1961166.0,1638178383.69
1962488.0,1638178383.73
1964542.0,1638178383.77
1968257.0,1638178383.85
1966075.0,1638178383.81
1968220.0,1638178383.89
1964063.0,1638178383.93
1958835.0,1638178383.97
1955279.0,1638178384.01
1952585.0,1638178384.05
1952585.0,1638178384.09
1950448.0,1638178384.13
1949827.0,1638178384.17
1949134.0,1638178384.21
1948741.0,1638178384.25
1948008.0,1638178384.29
1947847.0,1638178384.33
1948011.0,1638178384.37
1948411.0,1638178384.41
1948446.0,1638178384.45
1948675.0,1638178384.49
1948122.0,1638178384.57
