bvp,time
0.29,1669464000.0
0.25,1669464000.015625
0.18,1669464000.03125
0.14,1669464000.046875
0.15,1669464000.0625
0.25,1669464000.078125
0.41,1669464000.09375
0.59,1669464000.109375
0.7,1669464000.125
0.7,1669464000.140625
0.59,1669464000.15625
0.43,1669464000.171875
0.33,1669464000.1875
0.39,1669464000.203125
0.67,1669464000.21875
1.11,1669464000.234375
1.57,1669464000.25
1.85,1669464000.265625
1.83,1669464000.28125
1.5,1669464000.296875
1.01,1669464000.3125
0.63,1669464000.328125
0.64,1669464000.34375
1.15,1669464000.359375
2.05,1669464000.375
3.01,1669464000.390625
3.61,1669464000.40625
3.57,1669464000.421875
2.85,1669464000.4375
1.77,1669464000.453125
0.87,1669464000.46875
0.65,1669464000.484375
1.37,1669464000.5
2.84,1669464000.515625
4.48,1669464000.53125
5.56,1669464000.546875
5.57,1669464000.5625
4.48,1669464000.578125
2.72,1669464000.59375
1.12,1669464000.609375
0.32,1669464000.625
0.59,1669464000.640625
1.58,1669464000.65625
2.5,1669464000.671875
2.45,1669464000.6875
0.68,1669464000.703125
-3.24,1669464000.71875
-9.54,1669464000.734375
-17.97,1669464000.75
-27.66,1669464000.765625
-36.66,1669464000.78125
-42.38,1669464000.796875
-42.26,1669464000.8125
-35.13,1669464000.828125
-21.99,1669464000.84375
-5.95,1669464000.859375
8.86,1669464000.875
19.02,1669464000.890625
23.15,1669464000.90625
22.19,1669464000.921875
18.43,1669464000.9375
14.18,1669464000.953125
10.71,1669464000.96875
8.07,1669464000.984375
5.68,1669464001.0
3.19,1669464001.015625
0.9,1669464001.03125
-0.45,1669464001.046875
-0.25,1669464001.0625
1.5,1669464001.078125
4.16,1669464001.09375
6.69,1669464001.109375
8.1,1669464001.125
7.92,1669464001.140625
6.34,1669464001.15625
4.1,1669464001.171875
2.1,1669464001.1875
1.05,1669464001.203125
1.14,1669464001.21875
1.96,1669464001.234375
2.75,1669464001.25
2.71,1669464001.265625
1.51,1669464001.28125
-0.63,1669464001.296875
-3.01,1669464001.3125
-4.79,1669464001.328125
-5.46,1669464001.34375
-5.06,1669464001.359375
-4.1,1669464001.375
-3.36,1669464001.390625
-3.44,1669464001.40625
-4.48,1669464001.421875
-6.18,1669464001.4375
-7.9,1669464001.453125
-9.08,1669464001.46875
-9.47,1669464001.484375
-9.22,1669464001.5
-8.83,1669464001.515625
-8.85,1669464001.53125
-9.62,1669464001.546875
-11.17,1669464001.5625
-13.23,1669464001.578125
-15.33,1669464001.59375
-17.09,1669464001.609375
-18.27,1669464001.625
-18.91,1669464001.640625
-19.26,1669464001.65625
-19.76,1669464001.671875
-20.84,1669464001.6875
-22.9,1669464001.703125
-26.07,1669464001.71875
-30.12,1669464001.734375
-34.4,1669464001.75
-37.54,1669464001.765625
-38.09,1669464001.78125
-34.85,1669464001.796875
-27.3,1669464001.8125
-15.87,1669464001.828125
-1.92,1669464001.84375
12.69,1669464001.859375
26.15,1669464001.875
37.13,1669464001.890625
45.06,1669464001.90625
49.95,1669464001.921875
52.22,1669464001.9375
52.36,1669464001.953125
50.78,1669464001.96875
47.78,1669464001.984375
43.66,1669464002.0
38.81,1669464002.015625
33.76,1669464002.03125
29.08,1669464002.046875
25.22,1669464002.0625
22.42,1669464002.078125
20.63,1669464002.09375
19.64,1669464002.109375
19.18,1669464002.125
19.06,1669464002.140625
19.23,1669464002.15625
19.66,1669464002.171875
20.29,1669464002.1875
20.97,1669464002.203125
21.45,1669464002.21875
21.51,1669464002.234375
20.97,1669464002.25
19.78,1669464002.265625
18.02,1669464002.28125
15.84,1669464002.296875
13.46,1669464002.3125
11.1,1669464002.328125
8.96,1669464002.34375
7.15,1669464002.359375
5.6,1669464002.375
4.09,1669464002.390625
2.33,1669464002.40625
0.09,1669464002.421875
-2.7,1669464002.4375
-5.84,1669464002.453125
-9.02,1669464002.46875
-11.94,1669464002.484375
-14.48,1669464002.5
-16.77,1669464002.515625
-19.18,1669464002.53125
-22.1,1669464002.546875
-25.8,1669464002.5625
-30.25,1669464002.578125
-35.14,1669464002.59375
-39.99,1669464002.609375
-44.41,1669464002.625
-48.21,1669464002.640625
-51.49,1669464002.65625
-54.55,1669464002.671875
-57.84,1669464002.6875
-61.78,1669464002.703125
-66.69,1669464002.71875
-72.6,1669464002.734375
-79.15,1669464002.75
-85.4,1669464002.765625
-89.88,1669464002.78125
-90.9,1669464002.796875
-87.03,1669464002.8125
-77.7,1669464002.828125
-63.46,1669464002.84375
-45.96,1669464002.859375
-27.38,1669464002.875
-9.88,1669464002.890625
5.07,1669464002.90625
16.85,1669464002.921875
25.6,1669464002.9375
31.93,1669464002.953125
36.52,1669464002.96875
39.92,1669464002.984375
42.45,1669464003.0
44.24,1669464003.015625
45.34,1669464003.03125
45.76,1669464003.046875
45.56,1669464003.0625
44.84,1669464003.078125
43.74,1669464003.09375
42.36,1669464003.109375
40.83,1669464003.125
39.28,1669464003.140625
37.89,1669464003.15625
36.86,1669464003.171875
36.38,1669464003.1875
36.47,1669464003.203125
36.96,1669464003.21875
37.51,1669464003.234375
37.71,1669464003.25
37.24,1669464003.265625
36.01,1669464003.28125
34.16,1669464003.296875
31.99,1669464003.3125
29.82,1669464003.328125
27.87,1669464003.34375
26.2,1669464003.359375
24.65,1669464003.375
22.92,1669464003.390625
20.71,1669464003.40625
17.8,1669464003.421875
14.2,1669464003.4375
10.17,1669464003.453125
6.16,1669464003.46875
2.63,1669464003.484375
-0.11,1669464003.5
-2.07,1669464003.515625
-3.56,1669464003.53125
-5.12,1669464003.546875
-7.29,1669464003.5625
-10.39,1669464003.578125
-14.43,1669464003.59375
-19.04,1669464003.609375
-23.66,1669464003.625
-27.73,1669464003.640625
-30.99,1669464003.65625
-33.53,1669464003.671875
-35.88,1669464003.6875
-38.77,1669464003.703125
-42.88,1669464003.71875
-48.57,1669464003.734375
-55.67,1669464003.75
-63.36,1669464003.765625
-70.26,1669464003.78125
-74.7,1669464003.796875
-75.15,1669464003.8125
-70.73,1669464003.828125
-61.49,1669464003.84375
-48.51,1669464003.859375
-33.61,1669464003.875
-18.79,1669464003.890625
-5.65,1669464003.90625
4.99,1669464003.921875
13.09,1669464003.9375
19.2,1669464003.953125
24.08,1669464003.96875
28.32,1669464003.984375
32.28,1669464004.0
36.04,1669464004.015625
39.52,1669464004.03125
42.61,1669464004.046875
45.21,1669464004.0625
47.3,1669464004.078125
48.86,1669464004.09375
49.87,1669464004.109375
50.33,1669464004.125
50.24,1669464004.140625
49.7,1669464004.15625
48.93,1669464004.171875
48.39,1669464004.1875
48.59,1669464004.203125
50.07,1669464004.21875
53.05,1669464004.234375
57.37,1669464004.25
62.35,1669464004.265625
66.91,1669464004.28125
69.94,1669464004.296875
70.59,1669464004.3125
68.55,1669464004.328125
64.1,1669464004.34375
57.92,1669464004.359375
50.82,1669464004.375
43.46,1669464004.390625
36.17,1669464004.40625
29.07,1669464004.421875
22.21,1669464004.4375
15.76,1669464004.453125
10.12,1669464004.46875
5.83,1669464004.484375
3.35,1669464004.5
2.83,1669464004.515625
3.92,1669464004.53125
5.89,1669464004.546875
7.76,1669464004.5625
8.71,1669464004.578125
8.41,1669464004.59375
7.06,1669464004.609375
5.33,1669464004.625
4.0,1669464004.640625
3.6,1669464004.65625
4.13,1669464004.671875
5.09,1669464004.6875
5.54,1669464004.703125
4.44,1669464004.71875
0.91,1669464004.734375
-5.6,1669464004.75
-15.12,1669464004.765625
-27.05,1669464004.78125
-40.15,1669464004.796875
-52.72,1669464004.8125
-62.79,1669464004.828125
-68.69,1669464004.84375
-69.42,1669464004.859375
-65.03,1669464004.875
-56.55,1669464004.890625
-45.69,1669464004.90625
-34.35,1669464004.921875
-24.07,1669464004.9375
-15.7,1669464004.953125
-9.38,1669464004.96875
-4.73,1669464004.984375
-1.14,1669464005.0
1.92,1669464005.015625
4.79,1669464005.03125
7.61,1669464005.046875
10.36,1669464005.0625
12.97,1669464005.078125
15.29,1669464005.09375
17.16,1669464005.109375
18.39,1669464005.125
18.8,1669464005.140625
18.38,1669464005.15625
17.3,1669464005.171875
15.93,1669464005.1875
14.76,1669464005.203125
14.2,1669464005.21875
14.45,1669464005.234375
15.4,1669464005.25
16.67,1669464005.265625
17.76,1669464005.28125
18.25,1669464005.296875
17.95,1669464005.3125
16.95,1669464005.328125
15.55,1669464005.34375
14.05,1669464005.359375
12.66,1669464005.375
11.36,1669464005.390625
9.96,1669464005.40625
8.24,1669464005.421875
6.14,1669464005.4375
3.76,1669464005.453125
1.33,1669464005.46875
-0.89,1669464005.484375
-2.87,1669464005.5
-4.74,1669464005.515625
-6.78,1669464005.53125
-9.26,1669464005.546875
-12.31,1669464005.5625
-15.91,1669464005.578125
-19.88,1669464005.59375
-23.92,1669464005.609375
-27.7,1669464005.625
-30.96,1669464005.640625
-33.54,1669464005.65625
-35.44,1669464005.671875
-36.88,1669464005.6875
-38.29,1669464005.703125
-40.17,1669464005.71875
-42.92,1669464005.734375
-46.6,1669464005.75
-50.72,1669464005.765625
-54.27,1669464005.78125
-55.93,1669464005.796875
-54.51,1669464005.8125
-49.4,1669464005.828125
-40.84,1669464005.84375
-29.87,1669464005.859375
-18.0,1669464005.875
-6.76,1669464005.890625
2.81,1669464005.90625
10.24,1669464005.921875
15.65,1669464005.9375
19.34,1669464005.953125
21.64,1669464005.96875
22.79,1669464005.984375
22.87,1669464006.0
22.01,1669464006.015625
20.38,1669464006.03125
18.27,1669464006.046875
16.01,1669464006.0625
13.92,1669464006.078125
12.32,1669464006.09375
11.44,1669464006.109375
11.43,1669464006.125
12.27,1669464006.140625
13.82,1669464006.15625
15.82,1669464006.171875
17.96,1669464006.1875
19.95,1669464006.203125
21.56,1669464006.21875
22.61,1669464006.234375
22.91,1669464006.25
22.32,1669464006.265625
20.81,1669464006.28125
18.48,1669464006.296875
15.7,1669464006.3125
12.9,1669464006.328125
10.47,1669464006.34375
8.57,1669464006.359375
7.05,1669464006.375
5.62,1669464006.390625
3.94,1669464006.40625
1.84,1669464006.421875
-0.63,1669464006.4375
-3.25,1669464006.453125
-5.77,1669464006.46875
-8.0,1669464006.484375
-9.93,1669464006.5
-11.74,1669464006.515625
-13.73,1669464006.53125
-16.17,1669464006.546875
-19.2,1669464006.5625
-22.69,1669464006.578125
-26.27,1669464006.59375
-29.5,1669464006.609375
-32.01,1669464006.625
-33.74,1669464006.640625
-34.96,1669464006.65625
-36.18,1669464006.671875
-37.94,1669464006.6875
-40.63,1669464006.703125
-44.33,1669464006.71875
-48.8,1669464006.734375
-53.41,1669464006.75
-57.3,1669464006.765625
-59.44,1669464006.78125
-58.84,1669464006.796875
-54.89,1669464006.8125
-47.51,1669464006.828125
-37.35,1669464006.84375
-25.58,1669464006.859375
-13.64,1669464006.875
-2.78,1669464006.890625
6.26,1669464006.90625
13.28,1669464006.921875
18.55,1669464006.9375
22.51,1669464006.953125
25.52,1669464006.96875
27.77,1669464006.984375
29.31,1669464007.0
30.17,1669464007.015625
30.39,1669464007.03125
30.1,1669464007.046875
29.45,1669464007.0625
28.54,1669464007.078125
27.45,1669464007.09375
26.24,1669464007.109375
25.03,1669464007.125
23.96,1669464007.140625
23.23,1669464007.15625
22.92,1669464007.171875
23.07,1669464007.1875
23.58,1669464007.203125
24.29,1669464007.21875
24.98,1669464007.234375
25.42,1669464007.25
25.41,1669464007.265625
24.84,1669464007.28125
23.72,1669464007.296875
22.16,1669464007.3125
20.36,1669464007.328125
18.51,1669464007.34375
16.74,1669464007.359375
15.06,1669464007.375
13.41,1669464007.390625
11.69,1669464007.40625
9.84,1669464007.421875
7.82,1669464007.4375
5.69,1669464007.453125
3.51,1669464007.46875
1.41,1669464007.484375
-0.58,1669464007.5
-2.42,1669464007.515625
-4.18,1669464007.53125
-5.95,1669464007.546875
-7.85,1669464007.5625
-9.93,1669464007.578125
-12.19,1669464007.59375
-14.58,1669464007.609375
-16.98,1669464007.625
-19.35,1669464007.640625
-21.65,1669464007.65625
-23.92,1669464007.671875
-26.16,1669464007.6875
-28.38,1669464007.703125
-30.56,1669464007.71875
-32.73,1669464007.734375
-35.02,1669464007.75
-37.66,1669464007.765625
-40.89,1669464007.78125
-44.72,1669464007.796875
-48.76,1669464007.8125
-52.14,1669464007.828125
-53.66,1669464007.84375
-52.18,1669464007.859375
-47.06,1669464007.875
-38.49,1669464007.890625
-27.47,1669464007.90625
-15.51,1669464007.921875
-4.14,1669464007.9375
5.57,1669464007.953125
13.16,1669464007.96875
18.79,1669464007.984375
22.88,1669464008.0
25.92,1669464008.015625
28.21,1669464008.03125
29.84,1669464008.046875
30.81,1669464008.0625
31.1,1669464008.078125
30.77,1669464008.09375
29.92,1669464008.109375
28.75,1669464008.125
27.44,1669464008.140625
26.11,1669464008.15625
24.86,1669464008.171875
23.74,1669464008.1875
22.8,1669464008.203125
22.09,1669464008.21875
21.69,1669464008.234375
21.59,1669464008.25
21.76,1669464008.265625
22.07,1669464008.28125
22.3,1669464008.296875
22.29,1669464008.3125
21.92,1669464008.328125
21.19,1669464008.34375
20.19,1669464008.359375
19.05,1669464008.375
17.84,1669464008.390625
16.59,1669464008.40625
15.27,1669464008.421875
13.86,1669464008.4375
12.34,1669464008.453125
10.72,1669464008.46875
9.01,1669464008.484375
7.21,1669464008.5
5.33,1669464008.515625
3.37,1669464008.53125
1.38,1669464008.546875
-0.58,1669464008.5625
-2.47,1669464008.578125
-4.26,1669464008.59375
-5.97,1669464008.609375
-7.66,1669464008.625
-9.38,1669464008.640625
-11.2,1669464008.65625
-13.18,1669464008.671875
-15.39,1669464008.6875
-17.85,1669464008.703125
-20.47,1669464008.71875
-23.06,1669464008.734375
-25.4,1669464008.75
-27.3,1669464008.765625
-28.76,1669464008.78125
-30.01,1669464008.796875
-31.47,1669464008.8125
-33.63,1669464008.828125
-36.73,1669464008.84375
-40.61,1669464008.859375
-44.67,1669464008.875
-47.88,1669464008.890625
-49.11,1669464008.90625
-47.48,1669464008.921875
-42.63,1669464008.9375
-34.84,1669464008.953125
-25.01,1669464008.96875
-14.35,1669464008.984375
-4.08,1669464009.0
4.83,1669464009.015625
11.86,1669464009.03125
16.86,1669464009.046875
20.05,1669464009.0625
21.81,1669464009.078125
22.56,1669464009.09375
22.69,1669464009.109375
22.48,1669464009.125
22.06,1669464009.140625
21.43,1669464009.15625
20.55,1669464009.171875
19.45,1669464009.1875
18.22,1669464009.203125
17.07,1669464009.21875
16.19,1669464009.234375
15.7,1669464009.25
15.6,1669464009.265625
15.8,1669464009.28125
16.21,1669464009.296875
16.77,1669464009.3125
17.38,1669464009.328125
17.96,1669464009.34375
18.34,1669464009.359375
18.29,1669464009.375
17.62,1669464009.390625
16.35,1669464009.40625
14.64,1669464009.421875
12.78,1669464009.4375
11.06,1669464009.453125
9.64,1669464009.46875
8.5,1669464009.484375
7.48,1669464009.5
6.38,1669464009.515625
5.04,1669464009.53125
3.4,1669464009.546875
1.53,1669464009.5625
-0.43,1669464009.578125
-2.35,1669464009.59375
-4.13,1669464009.609375
-5.8,1669464009.625
-7.44,1669464009.640625
-9.21,1669464009.65625
-11.25,1669464009.671875
-13.58,1669464009.6875
-16.16,1669464009.703125
-18.82,1669464009.71875
-21.39,1669464009.734375
-23.7,1669464009.75
-25.66,1669464009.765625
-27.32,1669464009.78125
-28.81,1669464009.796875
-30.42,1669464009.8125
-32.47,1669464009.828125
-35.2,1669464009.84375
-38.69,1669464009.859375
-42.7,1669464009.875
-46.67,1669464009.890625
-49.74,1669464009.90625
-50.98,1669464009.921875
-49.62,1669464009.9375
-45.28,1669464009.953125
-38.15,1669464009.96875
-28.93,1669464009.984375
-18.67,1669464010.0
-8.49,1669464010.015625
0.66,1669464010.03125
8.25,1669464010.046875
14.07,1669464010.0625
18.2,1669464010.078125
20.9,1669464010.09375
22.44,1669464010.109375
23.04,1669464010.125
22.91,1669464010.140625
22.26,1669464010.15625
21.28,1669464010.171875
20.17,1669464010.1875
19.06,1669464010.203125
18.06,1669464010.21875
17.18,1669464010.234375
16.44,1669464010.25
15.86,1669464010.265625
15.5,1669464010.28125
15.47,1669464010.296875
15.78,1669464010.3125
16.39,1669464010.328125
17.11,1669464010.34375
17.75,1669464010.359375
18.11,1669464010.375
18.07,1669464010.390625
17.59,1669464010.40625
16.64,1669464010.421875
15.28,1669464010.4375
13.59,1669464010.453125
11.74,1669464010.46875
9.95,1669464010.484375
8.4,1669464010.5
7.17,1669464010.515625
6.11,1669464010.53125
4.98,1669464010.546875
3.55,1669464010.5625
1.75,1669464010.578125
-0.21,1669464010.59375
-2.04,1669464010.609375
-3.47,1669464010.625
-4.54,1669464010.640625
-5.53,1669464010.65625
-6.89,1669464010.671875
-8.95,1669464010.6875
-11.74,1669464010.703125
-15.0,1669464010.71875
-18.28,1669464010.734375
-21.21,1669464010.75
-23.62,1669464010.765625
-25.65,1669464010.78125
-27.57,1669464010.796875
-29.77,1669464010.8125
-32.58,1669464010.828125
-36.17,1669464010.84375
-40.58,1669464010.859375
-45.52,1669464010.875
-50.29,1669464010.890625
-53.84,1669464010.90625
-54.98,1669464010.921875
-52.77,1669464010.9375
-46.95,1669464010.953125
-38.06,1669464010.96875
-27.36,1669464010.984375
-16.36,1669464011.0
-6.3,1669464011.015625
2.12,1669464011.03125
8.79,1669464011.046875
13.95,1669464011.0625
17.9,1669464011.078125
20.78,1669464011.09375
22.65,1669464011.109375
23.55,1669464011.125
23.67,1669464011.140625
23.26,1669464011.15625
22.6,1669464011.171875
21.83,1669464011.1875
21.01,1669464011.203125
20.11,1669464011.21875
19.17,1669464011.234375
18.4,1669464011.25
18.04,1669464011.265625
18.3,1669464011.28125
19.21,1669464011.296875
20.49,1669464011.3125
21.74,1669464011.328125
22.54,1669464011.34375
22.72,1669464011.359375
22.26,1669464011.375
21.37,1669464011.390625
20.26,1669464011.40625
19.07,1669464011.421875
17.79,1669464011.4375
16.36,1669464011.453125
14.71,1669464011.46875
12.82,1669464011.484375
10.75,1669464011.5
8.54,1669464011.515625
6.26,1669464011.53125
3.9,1669464011.546875
1.43,1669464011.5625
-1.16,1669464011.578125
-3.89,1669464011.59375
-6.76,1669464011.609375
-9.73,1669464011.625
-12.75,1669464011.640625
-15.8,1669464011.65625
-18.84,1669464011.671875
-21.82,1669464011.6875
-24.66,1669464011.703125
-27.26,1669464011.71875
-29.58,1669464011.734375
-31.67,1669464011.75
-33.81,1669464011.765625
-36.4,1669464011.78125
-39.81,1669464011.796875
-44.05,1669464011.8125
-48.67,1669464011.828125
-52.69,1669464011.84375
-54.87,1669464011.859375
-54.08,1669464011.875
-49.72,1669464011.890625
-41.94,1669464011.90625
-31.62,1669464011.921875
-20.14,1669464011.9375
-8.87,1669464011.953125
1.12,1669464011.96875
9.29,1669464011.984375
15.61,1669464012.0
20.33,1669464012.015625
23.78,1669464012.03125
26.13,1669464012.046875
27.45,1669464012.0625
27.74,1669464012.078125
27.18,1669464012.09375
26.12,1669464012.109375
25.0,1669464012.125
24.21,1669464012.140625
23.83,1669464012.15625
23.69,1669464012.171875
23.46,1669464012.1875
22.9,1669464012.203125
22.01,1669464012.21875
21.01,1669464012.234375
20.22,1669464012.25
19.88,1669464012.265625
20.04,1669464012.28125
20.51,1669464012.296875
20.97,1669464012.3125
21.06,1669464012.328125
20.5,1669464012.34375
19.19,1669464012.359375
17.17,1669464012.375
14.62,1669464012.390625
11.8,1669464012.40625
9.0,1669464012.421875
6.45,1669464012.4375
4.24,1669464012.453125
2.32,1669464012.46875
0.51,1669464012.484375
-1.46,1669464012.5
-3.77,1669464012.515625
-6.55,1669464012.53125
-9.72,1669464012.546875
-13.11,1669464012.5625
-16.47,1669464012.578125
-19.63,1669464012.59375
-22.52,1669464012.609375
-25.25,1669464012.625
-28.01,1669464012.640625
-31.1,1669464012.65625
-34.74,1669464012.671875
-39.03,1669464012.6875
-43.79,1669464012.703125
-48.44,1669464012.71875
-52.03,1669464012.734375
-53.41,1669464012.75
-51.58,1669464012.765625
-46.05,1669464012.78125
-37.11,1669464012.796875
-25.76,1669464012.8125
-13.46,1669464012.828125
-1.62,1669464012.84375
8.74,1669464012.859375
17.18,1669464012.875
23.7,1669464012.890625
28.51,1669464012.90625
31.81,1669464012.921875
33.72,1669464012.9375
34.34,1669464012.953125
33.89,1669464012.96875
32.69,1669464012.984375
31.14,1669464013.0
29.58,1669464013.015625
28.21,1669464013.03125
27.1,1669464013.046875
26.2,1669464013.0625
25.49,1669464013.078125
24.98,1669464013.09375
24.75,1669464013.109375
24.85,1669464013.125
25.24,1669464013.140625
25.78,1669464013.15625
26.24,1669464013.171875
26.35,1669464013.1875
25.91,1669464013.203125
24.86,1669464013.21875
23.28,1669464013.234375
21.4,1669464013.25
19.46,1669464013.265625
17.67,1669464013.28125
16.02,1669464013.296875
14.41,1669464013.3125
12.63,1669464013.328125
10.59,1669464013.34375
8.29,1669464013.359375
5.88,1669464013.375
3.48,1669464013.390625
1.12,1669464013.40625
-1.3,1669464013.421875
-3.94,1669464013.4375
-6.83,1669464013.453125
-9.92,1669464013.46875
-12.98,1669464013.484375
-15.82,1669464013.5
-18.38,1669464013.515625
-20.78,1669464013.53125
-23.27,1669464013.546875
-26.1,1669464013.5625
-29.48,1669464013.578125
-33.56,1669464013.59375
-38.35,1669464013.609375
-43.72,1669464013.625
-49.22,1669464013.640625
-53.97,1669464013.65625
-56.78,1669464013.671875
-56.38,1669464013.6875
-51.92,1669464013.703125
-43.35,1669464013.71875
-31.56,1669464013.734375
-18.14,1669464013.75
-4.87,1669464013.765625
6.79,1669464013.78125
16.07,1669464013.796875
22.85,1669464013.8125
27.49,1669464013.828125
30.41,1669464013.84375
31.93,1669464013.859375
32.21,1669464013.875
31.41,1669464013.890625
29.77,1669464013.90625
27.66,1669464013.921875
25.47,1669464013.9375
23.54,1669464013.953125
22.0,1669464013.96875
20.89,1669464013.984375
20.18,1669464014.0
19.88,1669464014.015625
20.07,1669464014.03125
20.81,1669464014.046875
22.03,1669464014.0625
23.5,1669464014.078125
24.88,1669464014.09375
25.79,1669464014.109375
26.02,1669464014.125
25.49,1669464014.140625
24.32,1669464014.15625
22.7,1669464014.171875
20.81,1669464014.1875
18.73,1669464014.203125
16.52,1669464014.21875
14.17,1669464014.234375
11.69,1669464014.25
9.11,1669464014.265625
6.57,1669464014.28125
4.18,1669464014.296875
2.02,1669464014.3125
0.11,1669464014.328125
-1.64,1669464014.34375
-3.38,1669464014.359375
-5.24,1669464014.375
-7.26,1669464014.390625
-9.42,1669464014.40625
-11.63,1669464014.421875
-13.84,1669464014.4375
-16.02,1669464014.453125
-18.23,1669464014.46875
-20.55,1669464014.484375
-23.04,1669464014.5
-25.78,1669464014.515625
-28.87,1669464014.53125
-32.39,1669464014.546875
-36.28,1669464014.5625
-40.22,1669464014.578125
-43.49,1669464014.59375
-45.05,1669464014.609375
-43.83,1669464014.625
-39.13,1669464014.640625
-30.92,1669464014.65625
-19.97,1669464014.671875
-7.66,1669464014.6875
4.44,1669464014.703125
15.05,1669464014.71875
23.47,1669464014.734375
29.57,1669464014.75
33.57,1669464014.765625
35.8,1669464014.78125
36.47,1669464014.796875
35.76,1669464014.8125
33.9,1669464014.828125
31.32,1669464014.84375
28.54,1669464014.859375
26.09,1669464014.875
24.28,1669464014.890625
23.14,1669464014.90625
22.44,1669464014.921875
21.93,1669464014.9375
21.5,1669464014.953125
21.18,1669464014.96875
21.07,1669464014.984375
21.23,1669464015.0
21.54,1669464015.015625
21.79,1669464015.03125
21.74,1669464015.046875
21.26,1669464015.0625
20.37,1669464015.078125
19.17,1669464015.09375
17.75,1669464015.109375
16.18,1669464015.125
14.39,1669464015.140625
12.32,1669464015.15625
9.94,1669464015.171875
7.33,1669464015.1875
4.7,1669464015.203125
2.31,1669464015.21875
0.33,1669464015.234375
-1.29,1669464015.25
-2.85,1669464015.265625
-4.8,1669464015.28125
-7.51,1669464015.296875
-11.13,1669464015.3125
-15.42,1669464015.328125
-19.88,1669464015.34375
-23.97,1669464015.359375
-27.32,1669464015.375
-29.91,1669464015.390625
-31.99,1669464015.40625
-34.04,1669464015.421875
-36.59,1669464015.4375
-40.01,1669464015.453125
-44.47,1669464015.46875
-49.81,1669464015.484375
-55.48,1669464015.5
-60.54,1669464015.515625
-63.79,1669464015.53125
-64.05,1669464015.546875
-60.49,1669464015.5625
-52.96,1669464015.578125
-42.1,1669464015.59375
-29.21,1669464015.609375
-15.83,1669464015.625
-3.34,1669464015.640625
7.37,1669464015.65625
15.96,1669464015.671875
22.53,1669464015.6875
27.35,1669464015.703125
30.7,1669464015.71875
32.78,1669464015.734375
33.78,1669464015.75
33.94,1669464015.765625
33.54,1669464015.78125
32.83,1669464015.796875
31.97,1669464015.8125
30.98,1669464015.828125
29.88,1669464015.84375
28.68,1669464015.859375
27.54,1669464015.875
26.69,1669464015.890625
26.33,1669464015.90625
26.53,1669464015.921875
27.16,1669464015.9375
27.97,1669464015.953125
28.64,1669464015.96875
28.91,1669464015.984375
28.59,1669464016.0
27.69,1669464016.015625
26.3,1669464016.03125
24.65,1669464016.046875
22.93,1669464016.0625
21.29,1669464016.078125
19.71,1669464016.09375
18.02,1669464016.109375
15.99,1669464016.125
13.44,1669464016.140625
10.42,1669464016.15625
7.12,1669464016.171875
3.88,1669464016.1875
1.02,1669464016.203125
-1.35,1669464016.21875
-3.31,1669464016.234375
-5.12,1669464016.25
-7.1,1669464016.265625
-9.48,1669464016.28125
-12.32,1669464016.296875
-15.46,1669464016.3125
-18.63,1669464016.328125
-21.53,1669464016.34375
-23.98,1669464016.359375
-26.01,1669464016.375
-27.86,1669464016.390625
-29.91,1669464016.40625
-32.56,1669464016.421875
-36.13,1669464016.4375
-40.66,1669464016.453125
-45.86,1669464016.46875
-51.02,1669464016.484375
-55.08,1669464016.5
-56.83,1669464016.515625
-55.22,1669464016.53125
-49.75,1669464016.546875
-40.68,1669464016.5625
-29.08,1669464016.578125
-16.49,1669464016.59375
-4.45,1669464016.609375
5.89,1669464016.625
14.08,1669464016.640625
20.24,1669464016.65625
24.86,1669464016.671875
28.38,1669464016.6875
31.12,1669464016.703125
33.15,1669464016.71875
34.41,1669464016.734375
34.91,1669464016.75
34.71,1669464016.765625
33.99,1669464016.78125
32.95,1669464016.796875
31.72,1669464016.8125
30.33,1669464016.828125
28.81,1669464016.84375
27.27,1669464016.859375
25.89,1669464016.875
24.92,1669464016.890625
24.53,1669464016.90625
24.67,1669464016.921875
25.04,1669464016.9375
25.21,1669464016.953125
24.81,1669464016.96875
23.75,1669464016.984375
22.21,1669464017.0
20.56,1669464017.015625
19.18,1669464017.03125
18.2,1669464017.046875
17.52,1669464017.0625
16.88,1669464017.078125
16.0,1669464017.09375
14.72,1669464017.109375
13.02,1669464017.125
10.94,1669464017.140625
8.53,1669464017.15625
5.84,1669464017.171875
2.94,1669464017.1875
0.04,1669464017.203125
-2.62,1669464017.21875
-4.81,1669464017.234375
-6.53,1669464017.25
-8.05,1669464017.265625
-9.75,1669464017.28125
-12.02,1669464017.296875
-14.98,1669464017.3125
-18.45,1669464017.328125
-22.01,1669464017.34375
-25.19,1669464017.359375
-27.71,1669464017.375
-29.6,1669464017.390625
-31.18,1669464017.40625
-32.94,1669464017.421875
-35.37,1669464017.4375
-38.75,1669464017.453125
-43.09,1669464017.46875
-47.91,1669464017.484375
-52.3,1669464017.5
-55.04,1669464017.515625
-54.95,1669464017.53125
-51.26,1669464017.546875
-44.0,1669464017.5625
-33.99,1669464017.578125
-22.61,1669464017.59375
-11.28,1669464017.609375
-1.08,1669464017.625
7.52,1669464017.640625
14.52,1669464017.65625
20.1,1669464017.671875
24.39,1669464017.6875
27.38,1669464017.703125
29.03,1669464017.71875
29.45,1669464017.734375
29.01,1669464017.75
28.21,1669464017.765625
27.52,1669464017.78125
27.13,1669464017.796875
26.95,1669464017.8125
26.73,1669464017.828125
26.21,1669464017.84375
25.36,1669464017.859375
24.32,1669464017.875
23.35,1669464017.890625
22.71,1669464017.90625
22.46,1669464017.921875
22.5,1669464017.9375
22.56,1669464017.953125
22.42,1669464017.96875
21.92,1669464017.984375
21.04,1669464018.0
19.88,1669464018.015625
18.52,1669464018.03125
17.1,1669464018.046875
15.59,1669464018.0625
13.99,1669464018.078125
12.21,1669464018.09375
10.23,1669464018.109375
8.03,1669464018.125
5.71,1669464018.140625
3.4,1669464018.15625
1.27,1669464018.171875
-0.56,1669464018.1875
-2.03,1669464018.203125
-3.16,1669464018.21875
-4.08,1669464018.234375
-5.0,1669464018.25
-6.14,1669464018.265625
-7.67,1669464018.28125
-9.63,1669464018.296875
-11.92,1669464018.3125
-14.31,1669464018.328125
-16.49,1669464018.34375
-18.25,1669464018.359375
-19.56,1669464018.375
-20.64,1669464018.390625
-21.87,1669464018.40625
-23.72,1669464018.421875
-26.51,1669464018.4375
-30.26,1669464018.453125
-34.54,1669464018.46875
-38.51,1669464018.484375
-41.13,1669464018.5
-41.38,1669464018.515625
-38.62,1669464018.53125
-32.79,1669464018.546875
-24.46,1669464018.5625
-14.65,1669464018.578125
-4.59,1669464018.59375
4.63,1669464018.609375
12.25,1669464018.625
17.93,1669464018.640625
21.72,1669464018.65625
23.82,1669464018.671875
24.57,1669464018.6875
24.26,1669464018.703125
23.12,1669464018.71875
21.34,1669464018.734375
19.14,1669464018.75
16.81,1669464018.765625
14.74,1669464018.78125
13.29,1669464018.796875
12.7,1669464018.8125
12.94,1669464018.828125
13.78,1669464018.84375
14.83,1669464018.859375
15.77,1669464018.875
16.45,1669464018.890625
16.9,1669464018.90625
17.25,1669464018.921875
17.57,1669464018.9375
17.76,1669464018.953125
17.63,1669464018.96875
17.01,1669464018.984375
15.82,1669464019.0
14.2,1669464019.015625
12.44,1669464019.03125
10.78,1669464019.046875
9.37,1669464019.0625
8.13,1669464019.078125
6.84,1669464019.09375
5.28,1669464019.109375
3.34,1669464019.125
1.12,1669464019.140625
-1.13,1669464019.15625
-3.12,1669464019.171875
-4.76,1669464019.1875
-6.13,1669464019.203125
-7.54,1669464019.21875
-9.3,1669464019.234375
-11.58,1669464019.25
-14.33,1669464019.265625
-17.26,1669464019.28125
-20.08,1669464019.296875
-22.61,1669464019.3125
-24.9,1669464019.328125
-27.16,1669464019.34375
-29.64,1669464019.359375
-32.56,1669464019.375
-35.97,1669464019.390625
-39.87,1669464019.40625
-44.12,1669464019.421875
-48.44,1669464019.4375
-52.32,1669464019.453125
-54.92,1669464019.46875
-55.28,1669464019.484375
-52.58,1669464019.5
-46.47,1669464019.515625
-37.37,1669464019.53125
-26.35,1669464019.546875
-14.91,1669464019.5625
-4.4,1669464019.578125
4.31,1669464019.59375
10.98,1669464019.609375
15.91,1669464019.625
19.64,1669464019.640625
22.62,1669464019.65625
25.09,1669464019.671875
27.06,1669464019.6875
28.42,1669464019.703125
29.07,1669464019.71875
29.04,1669464019.734375
28.45,1669464019.75
27.53,1669464019.765625
26.5,1669464019.78125
25.47,1669464019.796875
24.53,1669464019.8125
23.67,1669464019.828125
22.97,1669464019.84375
22.47,1669464019.859375
22.25,1669464019.875
22.32,1669464019.890625
22.59,1669464019.90625
22.87,1669464019.921875
22.95,1669464019.9375
22.65,1669464019.953125
21.94,1669464019.96875
20.92,1669464019.984375
19.72,1669464020.0
18.49,1669464020.015625
17.23,1669464020.03125
15.89,1669464020.046875
14.38,1669464020.0625
12.59,1669464020.078125
10.48,1669464020.09375
8.1,1669464020.109375
5.56,1669464020.125
3.01,1669464020.140625
0.6,1669464020.15625
-1.52,1669464020.171875
-3.28,1669464020.1875
-4.72,1669464020.203125
-6.0,1669464020.21875
-7.31,1669464020.234375
-8.89,1669464020.25
-10.84,1669464020.265625
-13.19,1669464020.28125
-15.82,1669464020.296875
-18.56,1669464020.3125
-21.24,1669464020.328125
-23.7,1669464020.34375
-25.86,1669464020.359375
-27.76,1669464020.375
-29.55,1669464020.390625
-31.49,1669464020.40625
-33.91,1669464020.421875
-37.05,1669464020.4375
-40.85,1669464020.453125
-44.82,1669464020.46875
-48.02,1669464020.484375
-49.31,1669464020.5
-47.72,1669464020.515625
-42.86,1669464020.53125
-35.1,1669464020.546875
-25.49,1669464020.5625
-15.38,1669464020.578125
-5.99,1669464020.59375
1.89,1669464020.609375
8.06,1669464020.625
12.71,1669464020.640625
16.21,1669464020.65625
18.85,1669464020.671875
20.83,1669464020.6875
22.2,1669464020.703125
22.98,1669464020.71875
23.25,1669464020.734375
23.03,1669464020.75
22.42,1669464020.765625
21.48,1669464020.78125
20.25,1669464020.796875
18.79,1669464020.8125
17.22,1669464020.828125
15.68,1669464020.84375
14.38,1669464020.859375
13.5,1669464020.875
13.11,1669464020.890625
13.18,1669464020.90625
13.48,1669464020.921875
13.69,1669464020.9375
13.52,1669464020.953125
12.76,1669464020.96875
11.42,1669464020.984375
9.63,1669464021.0
7.65,1669464021.015625
5.7,1669464021.03125
3.95,1669464021.046875
2.47,1669464021.0625
1.25,1669464021.078125
0.23,1669464021.09375
-0.71,1669464021.109375
-1.73,1669464021.125
-2.97,1669464021.140625
-4.54,1669464021.15625
-6.42,1669464021.171875
-8.43,1669464021.1875
-10.34,1669464021.203125
-11.87,1669464021.21875
-12.89,1669464021.234375
-13.45,1669464021.25
-13.79,1669464021.265625
-14.25,1669464021.28125
-15.14,1669464021.296875
-16.66,1669464021.3125
-18.8,1669464021.328125
-21.42,1669464021.34375
-24.31,1669464021.359375
-27.23,1669464021.375
-30.07,1669464021.390625
-32.83,1669464021.40625
-35.65,1669464021.421875
-38.71,1669464021.4375
-42.19,1669464021.453125
-46.1,1669464021.46875
-50.27,1669464021.484375
-54.27,1669464021.5
-57.54,1669464021.515625
-59.44,1669464021.53125
-59.44,1669464021.546875
-57.25,1669464021.5625
-52.94,1669464021.578125
-46.96,1669464021.59375
-40.01,1669464021.609375
-32.87,1669464021.625
-26.15,1669464021.640625
-20.16,1669464021.65625
-14.87,1669464021.671875
-10.08,1669464021.6875
-5.63,1669464021.703125
-1.57,1669464021.71875
1.95,1669464021.734375
4.73,1669464021.75
6.81,1669464021.765625
8.53,1669464021.78125
10.44,1669464021.796875
13.06,1669464021.8125
16.66,1669464021.828125
21.21,1669464021.84375
26.39,1669464021.859375
31.86,1669464021.875
37.26,1669464021.890625
42.42,1669464021.90625
47.24,1669464021.921875
51.73,1669464021.9375
55.91,1669464021.953125
59.85,1669464021.96875
63.64,1669464021.984375
67.36,1669464022.0
71.08,1669464022.015625
74.92,1669464022.03125
78.99,1669464022.046875
83.38,1669464022.0625
88.05,1669464022.078125
92.69,1669464022.09375
96.68,1669464022.109375
99.28,1669464022.125
99.86,1669464022.140625
98.13,1669464022.15625
94.29,1669464022.171875
88.88,1669464022.1875
82.61,1669464022.203125
76.14,1669464022.21875
69.95,1669464022.234375
64.37,1669464022.25
59.6,1669464022.265625
55.64,1669464022.28125
52.37,1669464022.296875
49.42,1669464022.3125
46.29,1669464022.328125
42.47,1669464022.34375
37.53,1669464022.359375
31.23,1669464022.375
23.54,1669464022.390625
14.57,1669464022.40625
4.45,1669464022.421875
-6.6,1669464022.4375
-18.27,1669464022.453125
-29.96,1669464022.46875
-40.74,1669464022.484375
-49.49,1669464022.5
-55.05,1669464022.515625
-56.59,1669464022.53125
-53.91,1669464022.546875
-47.6,1669464022.5625
-38.97,1669464022.578125
-29.67,1669464022.59375
-21.29,1669464022.609375
-14.9,1669464022.625
-10.96,1669464022.640625
-9.45,1669464022.65625
-10.08,1669464022.671875
-12.52,1669464022.6875
-16.45,1669464022.703125
-21.53,1669464022.71875
-27.35,1669464022.734375
-33.37,1669464022.75
-38.95,1669464022.765625
-43.54,1669464022.78125
-46.71,1669464022.796875
-48.37,1669464022.8125
-48.69,1669464022.828125
-48.14,1669464022.84375
-47.15,1669464022.859375
-46.0,1669464022.875
-44.62,1669464022.890625
-42.53,1669464022.90625
-39.21,1669464022.921875
-34.44,1669464022.9375
-28.68,1669464022.953125
-23.0,1669464022.96875
-18.51,1669464022.984375
-15.67,1669464023.0
-13.92,1669464023.015625
-11.76,1669464023.03125
-7.6,1669464023.046875
-0.69,1669464023.0625
8.45,1669464023.078125
18.26,1669464023.09375
26.98,1669464023.109375
33.51,1669464023.125
37.73,1669464023.140625
40.22,1669464023.15625
41.48,1669464023.171875
41.49,1669464023.1875
39.59,1669464023.203125
34.97,1669464023.21875
27.27,1669464023.234375
16.96,1669464023.25
5.21,1669464023.265625
-6.53,1669464023.28125
-17.05,1669464023.296875
-25.64,1669464023.3125
-32.14,1669464023.328125
-36.78,1669464023.34375
-39.99,1669464023.359375
-42.22,1669464023.375
-43.95,1669464023.390625
-45.66,1669464023.40625
-47.69,1669464023.421875
-50.16,1669464023.4375
-52.92,1669464023.453125
-55.48,1669464023.46875
-57.1,1669464023.484375
-56.97,1669464023.5
-54.36,1669464023.515625
-48.89,1669464023.53125
-40.63,1669464023.546875
-30.17,1669464023.5625
-18.55,1669464023.578125
-6.97,1669464023.59375
3.48,1669464023.609375
12.09,1669464023.625
18.75,1669464023.640625
23.87,1669464023.65625
28.19,1669464023.671875
32.53,1669464023.6875
37.57,1669464023.703125
43.75,1669464023.71875
51.26,1669464023.734375
60.09,1669464023.75
69.92,1669464023.765625
80.15,1669464023.78125
89.79,1669464023.796875
97.66,1669464023.8125
102.6,1669464023.828125
103.79,1669464023.84375
100.97,1669464023.859375
94.49,1669464023.875
85.02,1669464023.890625
73.28,1669464023.90625
59.75,1669464023.921875
44.72,1669464023.9375
28.5,1669464023.953125
11.72,1669464023.96875
-4.53,1669464023.984375
-18.95,1669464024.0
-30.49,1669464024.015625
-38.8,1669464024.03125
-44.42,1669464024.046875
-48.48,1669464024.0625
-52.21,1669464024.078125
-56.33,1669464024.09375
-60.8,1669464024.109375
-64.97,1669464024.125
-68.06,1669464024.140625
-69.56,1669464024.15625
-69.56,1669464024.171875
-68.55,1669464024.1875
-67.18,1669464024.203125
-65.83,1669464024.21875
-64.52,1669464024.234375
-62.98,1669464024.25
-60.95,1669464024.265625
-58.37,1669464024.28125
-55.46,1669464024.296875
-52.63,1669464024.3125
-50.26,1669464024.328125
-48.56,1669464024.34375
-47.54,1669464024.359375
-47.09,1669464024.375
-47.09,1669464024.390625
-47.47,1669464024.40625
-48.08,1669464024.421875
-48.58,1669464024.4375
-48.42,1669464024.453125
-46.91,1669464024.46875
-43.47,1669464024.484375
-37.86,1669464024.5
-30.33,1669464024.515625
-21.54,1669464024.53125
-12.41,1669464024.546875
-3.85,1669464024.5625
3.43,1669464024.578125
9.09,1669464024.59375
13.11,1669464024.609375
15.74,1669464024.625
17.36,1669464024.640625
18.34,1669464024.65625
18.98,1669464024.671875
19.49,1669464024.6875
19.91,1669464024.703125
20.22,1669464024.71875
20.39,1669464024.734375
20.38,1669464024.75
20.18,1669464024.765625
19.79,1669464024.78125
19.26,1669464024.796875
18.64,1669464024.8125
18.02,1669464024.828125
17.5,1669464024.84375
17.17,1669464024.859375
17.07,1669464024.875
17.15,1669464024.890625
17.28,1669464024.90625
17.31,1669464024.921875
17.12,1669464024.9375
16.63,1669464024.953125
15.88,1669464024.96875
14.92,1669464024.984375
13.81,1669464025.0
12.63,1669464025.015625
11.37,1669464025.03125
10.04,1669464025.046875
8.55,1669464025.0625
6.84,1669464025.078125
4.83,1669464025.09375
2.54,1669464025.109375
0.08,1669464025.125
-2.33,1669464025.140625
-4.53,1669464025.15625
-6.39,1669464025.171875
-7.97,1669464025.1875
-9.43,1669464025.203125
-10.93,1669464025.21875
-12.54,1669464025.234375
-14.23,1669464025.25
-15.89,1669464025.265625
-17.58,1669464025.28125
-19.52,1669464025.296875
-22.04,1669464025.3125
-25.28,1669464025.328125
-28.93,1669464025.34375
-32.18,1669464025.359375
-33.86,1669464025.375
-32.9,1669464025.390625
-28.86,1669464025.40625
-22.07,1669464025.421875
-13.64,1669464025.4375
-4.94,1669464025.453125
2.82,1669464025.46875
9.0,1669464025.484375
13.56,1669464025.5
16.78,1669464025.515625
19.04,1669464025.53125
20.56,1669464025.546875
21.43,1669464025.5625
21.65,1669464025.578125
21.35,1669464025.59375
20.74,1669464025.609375
20.06,1669464025.625
19.47,1669464025.640625
18.97,1669464025.65625
18.45,1669464025.671875
17.79,1669464025.6875
16.99,1669464025.703125
16.15,1669464025.71875
15.46,1669464025.734375
15.06,1669464025.75
14.99,1669464025.765625
15.17,1669464025.78125
15.42,1669464025.796875
15.56,1669464025.8125
15.44,1669464025.828125
14.98,1669464025.84375
14.16,1669464025.859375
13.01,1669464025.875
11.65,1669464025.890625
10.21,1669464025.90625
8.85,1669464025.921875
7.66,1669464025.9375
6.62,1669464025.953125
5.54,1669464025.96875
4.26,1669464025.984375
2.71,1669464026.0
0.98,1669464026.015625
-0.75,1669464026.03125
-2.29,1669464026.046875
-3.57,1669464026.0625
-4.75,1669464026.078125
-6.04,1669464026.09375
-7.6,1669464026.109375
-9.45,1669464026.125
-11.46,1669464026.140625
-13.45,1669464026.15625
-15.3,1669464026.171875
-17.05,1669464026.1875
-18.86,1669464026.203125
-20.93,1669464026.21875
-23.46,1669464026.234375
-26.57,1669464026.25
-30.32,1669464026.265625
-34.59,1669464026.28125
-39.0,1669464026.296875
-42.9,1669464026.3125
-45.37,1669464026.328125
-45.51,1669464026.34375
-42.72,1669464026.359375
-36.93,1669464026.375
-28.73,1669464026.390625
-19.19,1669464026.40625
-9.55,1669464026.421875
-0.85,1669464026.4375
6.3,1669464026.453125
11.8,1669464026.46875
15.9,1669464026.484375
18.95,1669464026.5
21.23,1669464026.515625
22.83,1669464026.53125
23.73,1669464026.546875
23.9,1669464026.5625
23.46,1669464026.578125
22.66,1669464026.59375
21.79,1669464026.609375
21.06,1669464026.625
20.53,1669464026.640625
20.06,1669464026.65625
19.57,1669464026.671875
19.0,1669464026.6875
18.45,1669464026.703125
18.08,1669464026.71875
17.96,1669464026.734375
18.07,1669464026.75
18.22,1669464026.765625
18.23,1669464026.78125
17.97,1669464026.796875
17.45,1669464026.8125
16.7,1669464026.828125
15.8,1669464026.84375
14.78,1669464026.859375
13.63,1669464026.875
12.36,1669464026.890625
11.0,1669464026.90625
9.65,1669464026.921875
8.37,1669464026.9375
7.2,1669464026.953125
6.1,1669464026.96875
4.98,1669464026.984375
3.7,1669464027.0
2.17,1669464027.015625
0.37,1669464027.03125
-1.69,1669464027.046875
-3.92,1669464027.0625
-6.23,1669464027.078125
-8.51,1669464027.09375
-10.68,1669464027.109375
-12.68,1669464027.125
-14.49,1669464027.140625
-16.14,1669464027.15625
-17.77,1669464027.171875
-19.62,1669464027.1875
-21.93,1669464027.203125
-24.84,1669464027.21875
-28.29,1669464027.234375
-31.89,1669464027.25
-34.94,1669464027.265625
-36.58,1669464027.28125
-36.05,1669464027.296875
-32.97,1669464027.3125
-27.46,1669464027.328125
-20.16,1669464027.34375
-12.01,1669464027.359375
-3.98,1669464027.375
3.14,1669464027.390625
8.96,1669464027.40625
13.4,1669464027.421875
16.63,1669464027.4375
18.88,1669464027.453125
20.35,1669464027.46875
21.17,1669464027.484375
21.46,1669464027.5
21.31,1669464027.515625
20.9,1669464027.53125
20.37,1669464027.546875
19.84,1669464027.5625
19.36,1669464027.578125
18.89,1669464027.59375
18.41,1669464027.609375
17.92,1669464027.625
17.52,1669464027.640625
17.35,1669464027.65625
17.5,1669464027.671875
17.98,1669464027.6875
18.65,1669464027.703125
19.36,1669464027.71875
19.97,1669464027.734375
20.4,1669464027.75
20.59,1669464027.765625
20.48,1669464027.78125
20.01,1669464027.796875
19.11,1669464027.8125
17.78,1669464027.828125
16.16,1669464027.84375
14.45,1669464027.859375
12.83,1669464027.875
11.37,1669464027.890625
10.01,1669464027.90625
8.58,1669464027.921875
6.92,1669464027.9375
4.97,1669464027.953125
2.75,1669464027.96875
0.4,1669464027.984375
-1.99,1669464028.0
-4.33,1669464028.015625
-6.61,1669464028.03125
-8.79,1669464028.046875
-10.82,1669464028.0625
-12.65,1669464028.078125
-14.33,1669464028.09375
-16.03,1669464028.109375
-18.01,1669464028.125
-20.5,1669464028.140625
-23.42,1669464028.15625
-26.28,1669464028.171875
-28.25,1669464028.1875
-28.43,1669464028.203125
-26.28,1669464028.21875
-21.81,1669464028.234375
-15.66,1669464028.25
-8.77,1669464028.265625
-2.01,1669464028.28125
4.04,1669464028.296875
9.22,1669464028.3125
13.54,1669464028.328125
17.01,1669464028.34375
19.52,1669464028.359375
20.96,1669464028.375
21.27,1669464028.390625
20.67,1669464028.40625
19.58,1669464028.421875
18.43,1669464028.4375
17.52,1669464028.453125
16.93,1669464028.46875
16.54,1669464028.484375
16.18,1669464028.5
15.75,1669464028.515625
15.23,1669464028.53125
14.68,1669464028.546875
14.08,1669464028.5625
13.39,1669464028.578125
12.46,1669464028.59375
11.22,1669464028.609375
9.67,1669464028.625
8.0,1669464028.640625
6.5,1669464028.65625
5.4,1669464028.671875
4.78,1669464028.6875
4.48,1669464028.703125
4.17,1669464028.71875
3.55,1669464028.734375
2.44,1669464028.75
0.91,1669464028.765625
-0.82,1669464028.78125
-2.5,1669464028.796875
-3.96,1669464028.8125
-5.2,1669464028.828125
-6.33,1669464028.84375
-7.49,1669464028.859375
-8.78,1669464028.875
-10.22,1669464028.890625
-11.78,1669464028.90625
-13.38,1669464028.921875
-14.96,1669464028.9375
-16.48,1669464028.953125
-17.96,1669464028.96875
-19.46,1669464028.984375
-21.03,1669464029.0
-22.81,1669464029.015625
-24.93,1669464029.03125
-27.41,1669464029.046875
-30.16,1669464029.0625
-32.78,1669464029.078125
-34.7,1669464029.09375
-35.19,1669464029.109375
-33.65,1669464029.125
-29.8,1669464029.140625
-23.85,1669464029.15625
-16.47,1669464029.171875
-8.55,1669464029.1875
-0.99,1669464029.203125
5.59,1669464029.21875
10.87,1669464029.234375
14.8,1669464029.25
17.49,1669464029.265625
19.1,1669464029.28125
19.84,1669464029.296875
19.96,1669464029.3125
19.78,1669464029.328125
19.61,1669464029.34375
19.62,1669464029.359375
19.81,1669464029.375
20.03,1669464029.390625
20.08,1669464029.40625
19.81,1669464029.421875
19.27,1669464029.4375
18.63,1669464029.453125
18.07,1669464029.46875
17.7,1669464029.484375
17.48,1669464029.5
17.29,1669464029.515625
16.98,1669464029.53125
16.43,1669464029.546875
15.58,1669464029.5625
14.44,1669464029.578125
12.97,1669464029.59375
11.17,1669464029.609375
9.07,1669464029.625
6.77,1669464029.640625
4.48,1669464029.65625
2.39,1669464029.671875
0.64,1669464029.6875
-0.78,1669464029.703125
-2.02,1669464029.71875
-3.32,1669464029.734375
-4.88,1669464029.75
-6.78,1669464029.765625
-8.93,1669464029.78125
-11.09,1669464029.796875
-13.05,1669464029.8125
-14.64,1669464029.828125
-15.88,1669464029.84375
-16.9,1669464029.859375
-17.83,1669464029.875
-18.8,1669464029.890625
-19.88,1669464029.90625
-21.14,1669464029.921875
-22.71,1669464029.9375
-24.72,1669464029.953125
-27.11,1669464029.96875
-29.54,1669464029.984375
-31.34,1669464030.0
-31.7,1669464030.015625
-29.94,1669464030.03125
-25.85,1669464030.046875
-19.81,1669464030.0625
-12.64,1669464030.078125
-5.29,1669464030.09375
1.49,1669464030.109375
7.27,1669464030.125
11.94,1669464030.140625
15.58,1669464030.15625
18.3,1669464030.171875
20.22,1669464030.1875
21.44,1669464030.203125
22.1,1669464030.21875
22.3,1669464030.234375
22.06,1669464030.25
21.28,1669464030.265625
19.81,1669464030.28125
17.62,1669464030.296875
14.85,1669464030.3125
11.92,1669464030.328125
9.31,1669464030.34375
7.41,1669464030.359375
6.4,1669464030.375
6.18,1669464030.390625
6.49,1669464030.40625
7.04,1669464030.421875
7.63,1669464030.4375
8.08,1669464030.453125
8.24,1669464030.46875
7.93,1669464030.484375
6.97,1669464030.5
5.33,1669464030.515625
3.17,1669464030.53125
0.82,1669464030.546875
-1.31,1669464030.5625
-2.92,1669464030.578125
-3.95,1669464030.59375
-4.59,1669464030.609375
-5.15,1669464030.625
-5.95,1669464030.640625
-7.13,1669464030.65625
-8.66,1669464030.671875
-10.34,1669464030.6875
-11.98,1669464030.703125
-13.41,1669464030.71875
-14.64,1669464030.734375
-15.73,1669464030.75
-16.79,1669464030.765625
-17.93,1669464030.78125
-19.23,1669464030.796875
-20.77,1669464030.8125
-22.65,1669464030.828125
-24.91,1669464030.84375
-27.42,1669464030.859375
-29.75,1669464030.875
-31.2,1669464030.890625
-30.93,1669464030.90625
-28.35,1669464030.921875
-23.34,1669464030.9375
-16.4,1669464030.953125
-8.54,1669464030.96875
-0.93,1669464030.984375
5.49,1669464031.0
10.29,1669464031.015625
13.56,1669464031.03125
15.69,1669464031.046875
17.13,1669464031.0625
18.1,1669464031.078125
18.61,1669464031.09375
18.52,1669464031.109375
17.75,1669464031.125
16.4,1669464031.140625
14.76,1669464031.15625
13.13,1669464031.171875
11.73,1669464031.1875
10.59,1669464031.203125
9.59,1669464031.21875
8.58,1669464031.234375
7.52,1669464031.25
6.52,1669464031.265625
5.78,1669464031.28125
5.42,1669464031.296875
5.44,1669464031.3125
5.61,1669464031.328125
5.67,1669464031.34375
5.42,1669464031.359375
4.76,1669464031.375
3.79,1669464031.390625
2.65,1669464031.40625
1.49,1669464031.421875
0.45,1669464031.4375
-0.35,1669464031.453125
-0.83,1669464031.46875
-0.99,1669464031.484375
-1.01,1669464031.5
-1.25,1669464031.515625
-2.1,1669464031.53125
-3.83,1669464031.546875
-6.41,1669464031.5625
-9.46,1669464031.578125
-12.47,1669464031.59375
-14.99,1669464031.609375
-16.85,1669464031.625
-18.14,1669464031.640625
-19.1,1669464031.65625
-19.96,1669464031.671875
-20.83,1669464031.6875
-21.88,1669464031.703125
-23.28,1669464031.71875
-25.14,1669464031.734375
-27.44,1669464031.75
-29.74,1669464031.765625
-31.3,1669464031.78125
-31.18,1669464031.796875
-28.71,1669464031.8125
-23.76,1669464031.828125
-16.88,1669464031.84375
-9.08,1669464031.859375
-1.45,1669464031.875
5.22,1669464031.890625
10.61,1669464031.90625
14.79,1669464031.921875
18.01,1669464031.9375
20.48,1669464031.953125
22.29,1669464031.96875
23.42,1669464031.984375
23.88,1669464032.0
23.78,1669464032.015625
23.33,1669464032.03125
22.78,1669464032.046875
22.27,1669464032.0625
21.81,1669464032.078125
21.3,1669464032.09375
20.63,1669464032.109375
19.77,1669464032.125
18.81,1669464032.140625
17.94,1669464032.15625
17.37,1669464032.171875
17.22,1669464032.1875
17.43,1669464032.203125
17.82,1669464032.21875
18.1,1669464032.234375
18.01,1669464032.25
17.32,1669464032.265625
15.97,1669464032.28125
14.08,1669464032.296875
11.92,1669464032.3125
9.74,1669464032.328125
7.7,1669464032.34375
5.82,1669464032.359375
4.02,1669464032.375
2.14,1669464032.390625
0.03,1669464032.40625
-2.36,1669464032.421875
-4.96,1669464032.4375
-7.59,1669464032.453125
-10.06,1669464032.46875
-12.26,1669464032.484375
-14.18,1669464032.5
-15.93,1669464032.515625
-17.66,1669464032.53125
-19.69,1669464032.546875
-22.23,1669464032.5625
-25.38,1669464032.578125
-28.95,1669464032.59375
-32.52,1669464032.609375
-35.4,1669464032.625
-36.79,1669464032.640625
-35.96,1669464032.65625
-32.54,1669464032.671875
-27.0,1669464032.6875
-20.36,1669464032.703125
-13.84,1669464032.71875
-8.6,1669464032.734375
-5.52,1669464032.75
-4.93,1669464032.765625
-6.75,1669464032.78125
-10.42,1669464032.796875
-15.23,1669464032.8125
-21.09,1669464032.828125
-27.91,1669464032.84375
-35.39,1669464032.859375
-42.93,1669464032.875
-50.04,1669464032.890625
-56.38,1669464032.90625
-62.2,1669464032.921875
-67.91,1669464032.9375
-73.87,1669464032.953125
-80.95,1669464032.96875
-89.02,1669464032.984375
-96.59,1669464033.0
-101.31,1669464033.015625
-101.16,1669464033.03125
-95.08,1669464033.046875
-83.7,1669464033.0625
-68.49,1669464033.078125
-51.18,1669464033.09375
-34.45,1669464033.109375
-20.03,1669464033.125
-8.13,1669464033.140625
2.14,1669464033.15625
11.8,1669464033.171875
21.56,1669464033.1875
31.19,1669464033.203125
40.25,1669464033.21875
55.42,1669464033.234375
78.66,1669464033.25
106.49,1669464033.265625
132.45,1669464033.28125
152.02,1669464033.296875
162.92,1669464033.3125
169.14,1669464033.328125
174.18,1669464033.34375
180.37,1669464033.359375
188.56,1669464033.375
197.15,1669464033.390625
203.04,1669464033.40625
203.05,1669464033.421875
194.9,1669464033.4375
177.5,1669464033.453125
151.43,1669464033.46875
118.26,1669464033.484375
80.86,1669464033.5
42.89,1669464033.515625
7.22,1669464033.53125
-23.39,1669464033.546875
-46.37,1669464033.5625
-59.97,1669464033.578125
-64.13,1669464033.59375
-60.48,1669464033.609375
-52.21,1669464033.625
-42.55,1669464033.640625
-33.89,1669464033.65625
-28.11,1669464033.671875
-25.99,1669464033.6875
-27.24,1669464033.703125
-30.86,1669464033.71875
-35.6,1669464033.734375
-40.11,1669464033.75
-43.52,1669464033.765625
-45.32,1669464033.78125
-45.43,1669464033.796875
-44.43,1669464033.8125
-42.84,1669464033.828125
-40.6,1669464033.84375
-37.04,1669464033.859375
-31.36,1669464033.875
-23.2,1669464033.890625
-13.25,1669464033.90625
-3.04,1669464033.921875
5.49,1669464033.9375
10.63,1669464033.953125
11.58,1669464033.96875
8.76,1669464033.984375
3.53,1669464034.0
-2.54,1669464034.015625
-8.39,1669464034.03125
-13.8,1669464034.046875
-19.29,1669464034.0625
-25.52,1669464034.078125
-32.8,1669464034.09375
-40.77,1669464034.109375
-48.56,1669464034.125
-55.23,1669464034.140625
-60.08,1669464034.15625
-62.72,1669464034.171875
-62.81,1669464034.1875
-59.73,1669464034.203125
-52.81,1669464034.21875
-41.93,1669464034.234375
-28.16,1669464034.25
-14.07,1669464034.265625
-3.14,1669464034.28125
1.53,1669464034.296875
-1.44,1669464034.3125
-11.15,1669464034.328125
-24.76,1669464034.34375
-38.59,1669464034.359375
-49.39,1669464034.375
-55.09,1669464034.390625
-55.03,1669464034.40625
-49.72,1669464034.421875
-40.35,1669464034.4375
-28.47,1669464034.453125
-15.75,1669464034.46875
-3.77,1669464034.484375
6.16,1669464034.5
13.3,1669464034.515625
17.6,1669464034.53125
19.64,1669464034.546875
20.33,1669464034.5625
20.5,1669464034.578125
20.71,1669464034.59375
21.07,1669464034.609375
21.45,1669464034.625
21.62,1669464034.640625
21.43,1669464034.65625
20.9,1669464034.671875
20.15,1669464034.6875
19.29,1669464034.703125
18.39,1669464034.71875
17.49,1669464034.734375
16.68,1669464034.75
16.19,1669464034.765625
16.19,1669464034.78125
16.72,1669464034.796875
17.4,1669464034.8125
17.6,1669464034.828125
16.6,1669464034.84375
14.07,1669464034.859375
10.23,1669464034.875
5.82,1669464034.890625
1.91,1669464034.90625
-0.65,1669464034.921875
-1.5,1669464034.9375
-0.95,1669464034.953125
0.23,1669464034.96875
1.1,1669464034.984375
0.91,1669464035.0
-0.74,1669464035.015625
-3.82,1669464035.03125
-7.98,1669464035.046875
-12.62,1669464035.0625
-17.05,1669464035.078125
-20.53,1669464035.09375
-22.49,1669464035.109375
-22.74,1669464035.125
-21.65,1669464035.140625
-20.17,1669464035.15625
-19.64,1669464035.171875
-21.24,1669464035.1875
-25.6,1669464035.203125
-32.42,1669464035.21875
-40.52,1669464035.234375
-48.12,1669464035.25
-53.34,1669464035.265625
-54.8,1669464035.28125
-52.06,1669464035.296875
-45.73,1669464035.3125
-37.36,1669464035.328125
-28.98,1669464035.34375
-22.32,1669464035.359375
-18.16,1669464035.375
-15.94,1669464035.390625
-14.1,1669464035.40625
-10.86,1669464035.421875
-5.21,1669464035.4375
2.59,1669464035.453125
11.06,1669464035.46875
18.36,1669464035.484375
23.16,1669464035.5
25.25,1669464035.515625
25.41,1669464035.53125
24.81,1669464035.546875
24.35,1669464035.5625
24.23,1669464035.578125
24.18,1669464035.59375
23.84,1669464035.609375
23.12,1669464035.625
22.35,1669464035.640625
21.93,1669464035.65625
22.14,1669464035.671875
22.85,1669464035.6875
23.64,1669464035.703125
23.96,1669464035.71875
23.23,1669464035.734375
20.97,1669464035.75
16.9,1669464035.765625
11.17,1669464035.78125
4.34,1669464035.796875
-2.59,1669464035.8125
-8.61,1669464035.828125
-13.03,1669464035.84375
-15.85,1669464035.859375
-17.65,1669464035.875
-19.21,1669464035.890625
-21.07,1669464035.90625
-23.22,1669464035.921875
-25.21,1669464035.9375
-26.5,1669464035.953125
-26.94,1669464035.96875
-26.86,1669464035.984375
-26.83,1669464036.0
-27.16,1669464036.015625
-27.64,1669464036.03125
-27.59,1669464036.046875
-26.19,1669464036.0625
-22.97,1669464036.078125
-18.06,1669464036.09375
-12.05,1669464036.109375
-5.67,1669464036.125
0.63,1669464036.140625
6.95,1669464036.15625
13.96,1669464036.171875
22.58,1669464036.1875
33.65,1669464036.203125
47.6,1669464036.21875
64.4,1669464036.234375
83.58,1669464036.25
104.43,1669464036.265625
126.09,1669464036.28125
147.54,1669464036.296875
167.59,1669464036.3125
184.89,1669464036.328125
198.05,1669464036.34375
205.9,1669464036.359375
207.61,1669464036.375
202.83,1669464036.390625
191.65,1669464036.40625
174.61,1669464036.421875
152.83,1669464036.4375
128.14,1669464036.453125
103.1,1669464036.46875
80.62,1669464036.484375
63.29,1669464036.5
52.44,1669464036.515625
47.63,1669464036.53125
46.69,1669464036.546875
46.36,1669464036.5625
43.33,1669464036.578125
35.1,1669464036.59375
20.68,1669464036.609375
0.73,1669464036.625
-22.68,1669464036.640625
-46.72,1669464036.65625
-68.61,1669464036.671875
-86.35,1669464036.6875
-99.08,1669464036.703125
-107.04,1669464036.71875
-111.15,1669464036.734375
-112.35,1669464036.75
-111.31,1669464036.765625
-108.42,1669464036.78125
-103.99,1669464036.796875
-98.53,1669464036.8125
-92.84,1669464036.828125
-87.73,1669464036.84375
-83.62,1669464036.859375
-80.49,1669464036.875
-77.79,1669464036.890625
-74.85,1669464036.90625
-71.26,1669464036.921875
-67.03,1669464036.9375
-62.57,1669464036.953125
-58.44,1669464036.96875
-55.12,1669464036.984375
-52.73,1669464037.0
-51.05,1669464037.015625
-49.68,1669464037.03125
-48.3,1669464037.046875
-46.89,1669464037.0625
-45.68,1669464037.078125
-44.95,1669464037.09375
-44.65,1669464037.109375
-44.35,1669464037.125
-43.26,1669464037.140625
-40.62,1669464037.15625
-36.05,1669464037.171875
-29.78,1669464037.1875
-22.58,1669464037.203125
-15.43,1669464037.21875
-9.26,1669464037.234375
-4.57,1669464037.25
-1.36,1669464037.265625
0.75,1669464037.28125
2.33,1669464037.296875
3.92,1669464037.3125
5.76,1669464037.328125
7.9,1669464037.34375
10.25,1669464037.359375
12.72,1669464037.375
15.34,1669464037.390625
18.2,1669464037.40625
21.36,1669464037.421875
24.73,1669464037.4375
28.2,1669464037.453125
31.63,1669464037.46875
35.05,1669464037.484375
38.57,1669464037.5
42.33,1669464037.515625
46.28,1669464037.53125
50.14,1669464037.546875
53.49,1669464037.5625
55.91,1669464037.578125
57.1,1669464037.59375
56.94,1669464037.609375
55.42,1669464037.625
52.52,1669464037.640625
48.32,1669464037.65625
43.0,1669464037.671875
36.99,1669464037.6875
30.92,1669464037.703125
25.47,1669464037.71875
21.08,1669464037.734375
17.77,1669464037.75
15.13,1669464037.765625
12.55,1669464037.78125
9.56,1669464037.796875
6.07,1669464037.8125
2.31,1669464037.828125
-1.29,1669464037.84375
-4.46,1669464037.859375
-7.23,1669464037.875
-9.9,1669464037.890625
-12.76,1669464037.90625
-15.8,1669464037.921875
-18.67,1669464037.9375
-20.77,1669464037.953125
-21.52,1669464037.96875
-20.72,1669464037.984375
-18.64,1669464038.0
-15.83,1669464038.015625
-12.86,1669464038.03125
-10.09,1669464038.046875
-7.65,1669464038.0625
-5.46,1669464038.078125
-3.54,1669464038.09375
-2.06,1669464038.109375
-1.28,1669464038.125
-1.42,1669464038.140625
-2.46,1669464038.15625
-4.14,1669464038.171875
-6.1,1669464038.1875
-8.02,1669464038.203125
-9.79,1669464038.21875
-11.42,1669464038.234375
-12.96,1669464038.25
-14.29,1669464038.265625
-15.22,1669464038.28125
-15.55,1669464038.296875
-15.21,1669464038.3125
-14.38,1669464038.328125
-13.41,1669464038.34375
-12.68,1669464038.359375
-12.42,1669464038.375
-12.63,1669464038.390625
-13.12,1669464038.40625
-13.67,1669464038.421875
-14.08,1669464038.4375
-14.32,1669464038.453125
-14.46,1669464038.46875
-14.64,1669464038.484375
-14.97,1669464038.5
-15.55,1669464038.515625
-16.39,1669464038.53125
-17.39,1669464038.546875
-18.43,1669464038.5625
-19.34,1669464038.578125
-19.98,1669464038.59375
-20.35,1669464038.609375
-20.63,1669464038.625
-21.07,1669464038.640625
-21.91,1669464038.65625
-23.23,1669464038.671875
-24.81,1669464038.6875
-26.16,1669464038.703125
-26.73,1669464038.71875
-26.12,1669464038.734375
-24.25,1669464038.75
-21.35,1669464038.765625
-17.91,1669464038.78125
-14.38,1669464038.796875
-11.09,1669464038.8125
-8.17,1669464038.828125
-5.61,1669464038.84375
-3.29,1669464038.859375
-1.14,1669464038.875
0.89,1669464038.890625
2.72,1669464038.90625
4.24,1669464038.921875
5.29,1669464038.9375
5.78,1669464038.953125
5.75,1669464038.96875
5.42,1669464038.984375
5.14,1669464039.0
5.15,1669464039.015625
5.51,1669464039.03125
6.05,1669464039.046875
6.42,1669464039.0625
6.36,1669464039.078125
5.78,1669464039.09375
4.8,1669464039.109375
3.68,1669464039.125
2.64,1669464039.140625
1.76,1669464039.15625
1.03,1669464039.171875
0.38,1669464039.1875
-0.26,1669464039.203125
-0.94,1669464039.21875
-1.7,1669464039.234375
-2.62,1669464039.25
-3.79,1669464039.265625
-5.21,1669464039.28125
-6.76,1669464039.296875
-8.25,1669464039.3125
-9.43,1669464039.328125
-10.22,1669464039.34375
-10.69,1669464039.359375
-11.11,1669464039.375
-11.8,1669464039.390625
-13.01,1669464039.40625
-14.83,1669464039.421875
-17.11,1669464039.4375
-19.55,1669464039.453125
-21.73,1669464039.46875
-23.23,1669464039.484375
-23.66,1669464039.5
-22.78,1669464039.515625
-20.51,1669464039.53125
-16.98,1669464039.546875
-12.56,1669464039.5625
-7.74,1669464039.578125
-3.0,1669464039.59375
1.24,1669464039.609375
4.78,1669464039.625
7.62,1669464039.640625
9.87,1669464039.65625
11.67,1669464039.671875
13.13,1669464039.6875
14.25,1669464039.703125
15.0,1669464039.71875
15.29,1669464039.734375
15.07,1669464039.75
14.34,1669464039.765625
13.13,1669464039.78125
11.51,1669464039.796875
9.63,1669464039.8125
7.66,1669464039.828125
5.8,1669464039.84375
4.29,1669464039.859375
3.29,1669464039.875
2.85,1669464039.890625
2.89,1669464039.90625
3.17,1669464039.921875
3.45,1669464039.9375
3.51,1669464039.953125
3.29,1669464039.96875
2.86,1669464039.984375
2.34,1669464040.0
1.84,1669464040.015625
1.33,1669464040.03125
0.73,1669464040.046875
-0.13,1669464040.0625
-1.32,1669464040.078125
-2.8,1669464040.09375
-4.41,1669464040.109375
-5.87,1669464040.125
-6.96,1669464040.140625
-7.56,1669464040.15625
-7.69,1669464040.171875
-7.5,1669464040.1875
-7.23,1669464040.203125
-7.1,1669464040.21875
-7.36,1669464040.234375
-8.21,1669464040.25
-9.75,1669464040.265625
-11.89,1669464040.28125
-14.37,1669464040.296875
-16.63,1669464040.3125
-18.0,1669464040.328125
-17.92,1669464040.34375
-16.07,1669464040.359375
-12.57,1669464040.375
-7.91,1669464040.390625
-2.81,1669464040.40625
2.03,1669464040.421875
6.15,1669464040.4375
9.36,1669464040.453125
11.7,1669464040.46875
13.34,1669464040.484375
14.41,1669464040.5
14.98,1669464040.515625
15.13,1669464040.53125
14.93,1669464040.546875
14.6,1669464040.5625
14.36,1669464040.578125
14.39,1669464040.59375
14.73,1669464040.609375
15.2,1669464040.625
15.52,1669464040.640625
15.45,1669464040.65625
14.96,1669464040.671875
14.22,1669464040.6875
13.55,1669464040.703125
13.15,1669464040.71875
13.03,1669464040.734375
13.02,1669464040.75
12.88,1669464040.765625
12.46,1669464040.78125
11.76,1669464040.796875
10.92,1669464040.8125
10.04,1669464040.828125
9.16,1669464040.84375
8.2,1669464040.859375
7.1,1669464040.875
5.91,1669464040.890625
4.79,1669464040.90625
3.92,1669464040.921875
3.41,1669464040.9375
3.22,1669464040.953125
3.09,1669464040.96875
2.72,1669464040.984375
1.86,1669464041.0
0.46,1669464041.015625
-1.28,1669464041.03125
-2.98,1669464041.046875
-4.23,1669464041.0625
-4.86,1669464041.078125
-4.96,1669464041.09375
-4.89,1669464041.109375
-5.1,1669464041.125
-5.93,1669464041.140625
-7.48,1669464041.15625
-9.57,1669464041.171875
-11.89,1669464041.1875
-14.05,1669464041.203125
-15.68,1669464041.21875
-16.46,1669464041.234375
-16.11,1669464041.25
-14.53,1669464041.265625
-11.84,1669464041.28125
-8.37,1669464041.296875
-4.63,1669464041.3125
-1.13,1669464041.328125
1.77,1669464041.34375
4.02,1669464041.359375
5.67,1669464041.375
6.91,1669464041.390625
7.86,1669464041.40625
8.59,1669464041.421875
9.13,1669464041.4375
9.56,1669464041.453125
10.01,1669464041.46875
10.57,1669464041.484375
11.23,1669464041.5
11.8,1669464041.515625
12.06,1669464041.53125
11.83,1669464041.546875
11.11,1669464041.5625
10.11,1669464041.578125
9.14,1669464041.59375
8.45,1669464041.609375
8.11,1669464041.625
8.04,1669464041.640625
8.02,1669464041.65625
7.89,1669464041.671875
7.61,1669464041.6875
7.17,1669464041.703125
6.58,1669464041.71875
5.79,1669464041.734375
4.72,1669464041.75
3.43,1669464041.765625
2.1,1669464041.78125
0.98,1669464041.796875
0.31,1669464041.8125
0.09,1669464041.828125
0.08,1669464041.84375
-0.08,1669464041.859375
-0.7,1669464041.875
-1.82,1669464041.890625
-3.26,1669464041.90625
-4.64,1669464041.921875
-5.63,1669464041.9375
-6.17,1669464041.953125
-6.35,1669464041.96875
-6.43,1669464041.984375
-6.61,1669464042.0
-6.98,1669464042.015625
-7.49,1669464042.03125
-8.07,1669464042.046875
-8.77,1669464042.0625
-9.69,1669464042.078125
-10.86,1669464042.09375
-12.09,1669464042.109375
-12.95,1669464042.125
-12.91,1669464042.140625
-11.61,1669464042.15625
-9.09,1669464042.171875
-5.82,1669464042.1875
-2.52,1669464042.203125
0.23,1669464042.21875
2.13,1669464042.234375
3.31,1669464042.25
4.15,1669464042.265625
4.91,1669464042.28125
5.69,1669464042.296875
6.31,1669464042.3125
6.56,1669464042.328125
6.35,1669464042.34375
5.81,1669464042.359375
5.19,1669464042.375
4.7,1669464042.390625
4.34,1669464042.40625
3.98,1669464042.421875
3.49,1669464042.4375
2.88,1669464042.453125
2.36,1669464042.46875
2.25,1669464042.484375
2.77,1669464042.5
3.9,1669464042.515625
5.37,1669464042.53125
6.8,1669464042.546875
7.9,1669464042.5625
8.52,1669464042.578125
8.71,1669464042.59375
8.56,1669464042.609375
8.17,1669464042.625
7.56,1669464042.640625
6.72,1669464042.65625
5.71,1669464042.671875
4.65,1669464042.6875
3.69,1669464042.703125
2.94,1669464042.71875
2.38,1669464042.734375
1.87,1669464042.75
1.18,1669464042.765625
0.11,1669464042.78125
-1.36,1669464042.796875
-3.08,1669464042.8125
-4.74,1669464042.828125
-6.0,1669464042.84375
-6.7,1669464042.859375
-6.98,1669464042.875
-7.18,1669464042.890625
-7.7,1669464042.90625
-8.76,1669464042.921875
-10.26,1669464042.9375
-11.88,1669464042.953125
-13.31,1669464042.96875
-14.38,1669464042.984375
-15.11,1669464043.0
-15.52,1669464043.015625
-15.5,1669464043.03125
-14.77,1669464043.046875
-12.98,1669464043.0625
-10.0,1669464043.078125
-6.11,1669464043.09375
-1.89,1669464043.109375
1.93,1669464043.125
4.89,1669464043.140625
6.78,1669464043.15625
7.78,1669464043.171875
8.19,1669464043.1875
8.32,1669464043.203125
8.34,1669464043.21875
8.32,1669464043.234375
8.31,1669464043.25
8.3,1669464043.265625
8.24,1669464043.28125
8.03,1669464043.296875
7.56,1669464043.3125
6.79,1669464043.328125
5.84,1669464043.34375
4.94,1669464043.359375
4.34,1669464043.375
4.2,1669464043.390625
4.47,1669464043.40625
4.96,1669464043.421875
5.4,1669464043.4375
5.6,1669464043.453125
5.54,1669464043.46875
5.3,1669464043.484375
5.01,1669464043.5
4.72,1669464043.515625
4.41,1669464043.53125
3.94,1669464043.546875
3.21,1669464043.5625
2.19,1669464043.578125
0.98,1669464043.59375
-0.26,1669464043.609375
-1.38,1669464043.625
-2.33,1669464043.640625
-3.16,1669464043.65625
-3.94,1669464043.671875
-4.72,1669464043.6875
-5.45,1669464043.703125
-6.08,1669464043.71875
-6.57,1669464043.734375
-6.98,1669464043.75
-7.43,1669464043.765625
-8.05,1669464043.78125
-8.9,1669464043.796875
-9.87,1669464043.8125
-10.76,1669464043.828125
-11.38,1669464043.84375
-11.57,1669464043.859375
-11.39,1669464043.875
-11.04,1669464043.890625
-10.78,1669464043.90625
-10.82,1669464043.921875
-11.11,1669464043.9375
-11.4,1669464043.953125
-11.25,1669464043.96875
-10.26,1669464043.984375
-8.21,1669464044.0
-5.2,1669464044.015625
-1.58,1669464044.03125
2.14,1669464044.046875
5.52,1669464044.0625
8.29,1669464044.078125
10.35,1669464044.09375
11.74,1669464044.109375
12.57,1669464044.125
12.92,1669464044.140625
12.86,1669464044.15625
12.42,1669464044.171875
11.7,1669464044.1875
10.79,1669464044.203125
9.82,1669464044.21875
8.87,1669464044.234375
8.04,1669464044.25
7.37,1669464044.265625
6.86,1669464044.28125
6.51,1669464044.296875
6.28,1669464044.3125
6.11,1669464044.328125
5.93,1669464044.34375
5.66,1669464044.359375
5.28,1669464044.375
4.78,1669464044.390625
4.2,1669464044.40625
3.63,1669464044.421875
3.14,1669464044.4375
2.79,1669464044.453125
2.57,1669464044.46875
2.44,1669464044.484375
2.29,1669464044.5
2.05,1669464044.515625
1.66,1669464044.53125
1.13,1669464044.546875
0.5,1669464044.5625
-0.17,1669464044.578125
-0.81,1669464044.59375
-1.38,1669464044.609375
-1.82,1669464044.625
-2.14,1669464044.640625
-2.37,1669464044.65625
-2.63,1669464044.671875
-3.03,1669464044.6875
-3.69,1669464044.703125
-4.63,1669464044.71875
-5.8,1669464044.734375
-7.07,1669464044.75
-8.22,1669464044.765625
-9.11,1669464044.78125
-9.6,1669464044.796875
-9.69,1669464044.8125
-9.5,1669464044.828125
-9.2,1669464044.84375
-9.02,1669464044.859375
-9.13,1669464044.875
-9.59,1669464044.890625
-10.27,1669464044.90625
-10.87,1669464044.921875
-11.0,1669464044.9375
-10.29,1669464044.953125
-8.55,1669464044.96875
-5.88,1669464044.984375
-2.62,1669464045.0
0.72,1669464045.015625
3.67,1669464045.03125
5.99,1669464045.046875
7.68,1669464045.0625
8.94,1669464045.078125
10.05,1669464045.09375
11.1,1669464045.109375
12.0,1669464045.125
12.45,1669464045.140625
12.17,1669464045.15625
11.03,1669464045.171875
9.22,1669464045.1875
7.14,1669464045.203125
5.22,1669464045.21875
3.69,1669464045.234375
2.5,1669464045.25
1.43,1669464045.265625
0.26,1669464045.28125
-1.03,1669464045.296875
-2.17,1669464045.3125
-2.79,1669464045.328125
-2.68,1669464045.34375
-1.9,1669464045.359375
-0.85,1669464045.375
0.02,1669464045.390625
0.39,1669464045.40625
0.26,1669464045.421875
-0.18,1669464045.4375
-0.68,1669464045.453125
-1.08,1669464045.46875
-1.39,1669464045.484375
-1.7,1669464045.5
-2.05,1669464045.515625
-2.41,1669464045.53125
-2.71,1669464045.546875
-2.94,1669464045.5625
-3.24,1669464045.578125
-3.75,1669464045.59375
-4.53,1669464045.609375
-5.48,1669464045.625
-6.38,1669464045.640625
-6.97,1669464045.65625
-7.13,1669464045.671875
-6.92,1669464045.6875
-6.54,1669464045.703125
-6.22,1669464045.71875
-6.09,1669464045.734375
-6.14,1669464045.75
-6.31,1669464045.765625
-6.56,1669464045.78125
-6.93,1669464045.796875
-7.44,1669464045.8125
-8.0,1669464045.828125
-8.31,1669464045.84375
-7.98,1669464045.859375
-6.68,1669464045.875
-4.37,1669464045.890625
-1.43,1669464045.90625
1.52,1669464045.921875
3.82,1669464045.9375
5.1,1669464045.953125
5.45,1669464045.96875
5.29,1669464045.984375
5.15,1669464046.0
5.31,1669464046.015625
5.75,1669464046.03125
6.12,1669464046.046875
6.03,1669464046.0625
5.29,1669464046.078125
4.01,1669464046.09375
2.54,1669464046.109375
1.28,1669464046.125
0.41,1669464046.140625
-0.1,1669464046.15625
-0.43,1669464046.171875
-0.8,1669464046.1875
-1.35,1669464046.203125
-2.18,1669464046.21875
-3.49,1669464046.234375
-5.54,1669464046.25
-8.53,1669464046.265625
-12.32,1669464046.28125
-16.24,1669464046.296875
-19.22,1669464046.3125
-20.16,1669464046.328125
-18.55,1669464046.34375
-14.73,1669464046.359375
-9.87,1669464046.375
-5.34,1669464046.390625
-2.18,1669464046.40625
-0.58,1669464046.421875
0.05,1669464046.4375
0.59,1669464046.453125
1.76,1669464046.46875
3.68,1669464046.484375
6.06,1669464046.5
8.37,1669464046.515625
10.3,1669464046.53125
11.89,1669464046.546875
13.44,1669464046.5625
15.32,1669464046.578125
17.65,1669464046.59375
20.25,1669464046.609375
22.68,1669464046.625
24.48,1669464046.640625
25.43,1669464046.65625
25.64,1669464046.671875
25.59,1669464046.6875
25.87,1669464046.703125
26.96,1669464046.71875
28.98,1669464046.734375
31.7,1669464046.75
34.54,1669464046.765625
36.68,1669464046.78125
37.25,1669464046.796875
35.44,1669464046.8125
30.67,1669464046.828125
22.76,1669464046.84375
12.16,1669464046.859375
-0.02,1669464046.875
-12.11,1669464046.890625
-22.29,1669464046.90625
-29.16,1669464046.921875
-32.21,1669464046.9375
-31.89,1669464046.953125
-29.46,1669464046.96875
-26.38,1669464046.984375
-23.87,1669464047.0
-22.59,1669464047.015625
-22.67,1669464047.03125
-23.88,1669464047.046875
-25.9,1669464047.0625
-28.35,1669464047.078125
-30.77,1669464047.09375
-32.59,1669464047.109375
-33.2,1669464047.125
-32.13,1669464047.140625
-29.28,1669464047.15625
-24.96,1669464047.171875
-19.77,1669464047.1875
-14.28,1669464047.203125
-8.8,1669464047.21875
-3.32,1669464047.234375
2.32,1669464047.25
8.2,1669464047.265625
14.11,1669464047.28125
19.5,1669464047.296875
23.58,1669464047.3125
25.69,1669464047.328125
25.44,1669464047.34375
22.94,1669464047.359375
18.81,1669464047.375
13.95,1669464047.390625
9.34,1669464047.40625
5.78,1669464047.421875
3.76,1669464047.4375
3.43,1669464047.453125
4.61,1669464047.46875
6.86,1669464047.484375
9.53,1669464047.5
11.9,1669464047.515625
13.26,1669464047.53125
13.19,1669464047.546875
11.55,1669464047.5625
8.6,1669464047.578125
4.74,1669464047.59375
0.4,1669464047.609375
-4.21,1669464047.625
-9.04,1669464047.640625
-14.12,1669464047.65625
-19.4,1669464047.671875
-24.61,1669464047.6875
-29.29,1669464047.703125
-32.92,1669464047.71875
-35.02,1669464047.734375
-35.33,1669464047.75
-33.91,1669464047.765625
-31.11,1669464047.78125
-27.53,1669464047.796875
-23.89,1669464047.8125
-20.84,1669464047.828125
-18.86,1669464047.84375
-18.09,1669464047.859375
-18.37,1669464047.875
-19.15,1669464047.890625
-19.64,1669464047.90625
-18.83,1669464047.921875
-15.72,1669464047.9375
-9.51,1669464047.953125
0.03,1669464047.96875
12.41,1669464047.984375
26.25,1669464048.0
39.48,1669464048.015625
49.8,1669464048.03125
55.22,1669464048.046875
54.68,1669464048.0625
48.47,1669464048.078125
38.15,1669464048.09375
26.25,1669464048.109375
15.45,1669464048.125
7.88,1669464048.140625
4.54,1669464048.15625
5.27,1669464048.171875
9.06,1669464048.1875
14.58,1669464048.203125
20.64,1669464048.21875
26.41,1669464048.234375
31.35,1669464048.25
35.02,1669464048.265625
37.08,1669464048.28125
37.2,1669464048.296875
35.35,1669464048.3125
31.79,1669464048.328125
27.14,1669464048.34375
22.2,1669464048.359375
17.61,1669464048.375
13.7,1669464048.390625
10.36,1669464048.40625
7.19,1669464048.421875
3.67,1669464048.4375
-0.67,1669464048.453125
-6.16,1669464048.46875
-13.05,1669464048.484375
-21.65,1669464048.5
-32.32,1669464048.515625
-45.41,1669464048.53125
-60.92,1669464048.546875
-78.16,1669464048.5625
-95.68,1669464048.578125
-111.59,1669464048.59375
-124.07,1669464048.609375
-132.0,1669464048.625
-135.25,1669464048.640625
-134.44,1669464048.65625
-130.5,1669464048.671875
-124.1,1669464048.6875
-115.4,1669464048.703125
-104.35,1669464048.71875
-91.02,1669464048.734375
-76.01,1669464048.75
-60.38,1669464048.765625
-45.34,1669464048.78125
-31.74,1669464048.796875
-19.83,1669464048.8125
-9.33,1669464048.828125
0.15,1669464048.84375
8.71,1669464048.859375
15.95,1669464048.875
21.28,1669464048.890625
24.27,1669464048.90625
25.17,1669464048.921875
24.86,1669464048.9375
24.61,1669464048.953125
25.51,1669464048.96875
27.95,1669464048.984375
31.59,1669464049.0
35.6,1669464049.015625
39.22,1669464049.03125
42.22,1669464049.046875
44.96,1669464049.0625
48.14,1669464049.078125
52.26,1669464049.09375
57.28,1669464049.109375
62.6,1669464049.125
67.26,1669464049.140625
70.51,1669464049.15625
72.08,1669464049.171875
72.21,1669464049.1875
71.51,1669464049.203125
70.59,1669464049.21875
69.83,1669464049.234375
69.28,1669464049.25
68.73,1669464049.265625
67.92,1669464049.28125
66.72,1669464049.296875
65.18,1669464049.3125
63.49,1669464049.328125
61.79,1669464049.34375
60.04,1669464049.359375
57.94,1669464049.375
55.01,1669464049.390625
50.73,1669464049.40625
44.76,1669464049.421875
37.15,1669464049.4375
28.38,1669464049.453125
19.29,1669464049.46875
10.9,1669464049.484375
4.1,1669464049.5
-0.53,1669464049.515625
-2.93,1669464049.53125
-3.45,1669464049.546875
-2.81,1669464049.5625
-1.7,1669464049.578125
-0.71,1669464049.59375
-0.11,1669464049.609375
0.05,1669464049.625
-0.09,1669464049.640625
-0.42,1669464049.65625
-0.87,1669464049.671875
-1.33,1669464049.6875
-1.77,1669464049.703125
-2.13,1669464049.71875
-2.44,1669464049.734375
-2.86,1669464049.75
-3.63,1669464049.765625
-5.01,1669464049.78125
-7.09,1669464049.796875
-9.78,1669464049.8125
-12.75,1669464049.828125
-15.6,1669464049.84375
-17.94,1669464049.859375
-19.45,1669464049.875
-19.99,1669464049.890625
-19.58,1669464049.90625
-18.38,1669464049.921875
-16.69,1669464049.9375
-14.87,1669464049.953125
-13.25,1669464049.96875
-12.12,1669464049.984375
-11.56,1669464050.0
-11.5,1669464050.015625
-11.78,1669464050.03125
-12.13,1669464050.046875
-12.39,1669464050.0625
-12.46,1669464050.078125
-12.37,1669464050.09375
-12.23,1669464050.109375
-12.17,1669464050.125
-12.3,1669464050.140625
-12.66,1669464050.15625
-13.23,1669464050.171875
-13.91,1669464050.1875
-14.66,1669464050.203125
-15.43,1669464050.21875
-16.29,1669464050.234375
-17.33,1669464050.25
-18.69,1669464050.265625
-20.53,1669464050.28125
-23.0,1669464050.296875
-26.15,1669464050.3125
-29.85,1669464050.328125
-33.75,1669464050.34375
-37.28,1669464050.359375
-39.79,1669464050.375
-40.76,1669464050.390625
-40.0,1669464050.40625
-37.65,1669464050.421875
-34.11,1669464050.4375
-29.85,1669464050.453125
-25.2,1669464050.46875
-20.29,1669464050.484375
-15.08,1669464050.5
-9.57,1669464050.515625
-3.89,1669464050.53125
1.66,1669464050.546875
6.73,1669464050.5625
11.0,1669464050.578125
14.35,1669464050.59375
16.82,1669464050.609375
18.59,1669464050.625
19.88,1669464050.640625
20.81,1669464050.65625
21.44,1669464050.671875
21.72,1669464050.6875
21.66,1669464050.703125
21.32,1669464050.71875
20.91,1669464050.734375
20.64,1669464050.75
20.63,1669464050.765625
20.84,1669464050.78125
21.04,1669464050.796875
20.97,1669464050.8125
20.51,1669464050.828125
19.77,1669464050.84375
19.01,1669464050.859375
18.45,1669464050.875
18.07,1669464050.890625
17.62,1669464050.90625
16.72,1669464050.921875
15.11,1669464050.9375
12.85,1669464050.953125
10.26,1669464050.96875
7.76,1669464050.984375
5.63,1669464051.0
3.92,1669464051.015625
2.42,1669464051.03125
0.87,1669464051.046875
-0.87,1669464051.0625
-2.8,1669464051.078125
-4.8,1669464051.09375
-6.72,1669464051.109375
-8.51,1669464051.125
-10.22,1669464051.140625
-11.97,1669464051.15625
-13.95,1669464051.171875
-16.31,1669464051.1875
-19.12,1669464051.203125
-22.42,1669464051.21875
-26.14,1669464051.234375
-30.14,1669464051.25
-34.15,1669464051.265625
-37.79,1669464051.28125
-40.55,1669464051.296875
-41.86,1669464051.3125
-41.27,1669464051.328125
-38.59,1669464051.34375
-34.01,1669464051.359375
-28.06,1669464051.375
-21.45,1669464051.390625
-14.84,1669464051.40625
-8.63,1669464051.421875
-2.94,1669464051.4375
2.27,1669464051.453125
7.08,1669464051.46875
11.47,1669464051.484375
15.35,1669464051.5
18.63,1669464051.515625
21.29,1669464051.53125
23.43,1669464051.546875
25.13,1669464051.5625
26.45,1669464051.578125
27.36,1669464051.59375
27.8,1669464051.609375
27.76,1669464051.625
27.33,1669464051.640625
26.72,1669464051.65625
26.11,1669464051.671875
25.68,1669464051.6875
25.5,1669464051.703125
25.56,1669464051.71875
25.77,1669464051.734375
26.0,1669464051.75
26.1,1669464051.765625
25.82,1669464051.78125
25.0,1669464051.796875
23.46,1669464051.8125
21.25,1669464051.828125
18.55,1669464051.84375
15.64,1669464051.859375
12.79,1669464051.875
10.16,1669464051.890625
7.73,1669464051.90625
5.39,1669464051.921875
3.01,1669464051.9375
0.56,1669464051.953125
-1.96,1669464051.96875
-4.45,1669464051.984375
-6.85,1669464052.0
-9.18,1669464052.015625
-11.45,1669464052.03125
-13.66,1669464052.046875
-15.81,1669464052.0625
-17.84,1669464052.078125
-19.75,1669464052.09375
-21.69,1669464052.109375
-23.9,1669464052.125
-26.6,1669464052.140625
-29.83,1669464052.15625
-33.28,1669464052.171875
-36.27,1669464052.1875
-37.91,1669464052.203125
-37.44,1669464052.21875
-34.52,1669464052.234375
-29.38,1669464052.25
-22.73,1669464052.265625
-15.49,1669464052.28125
-8.47,1669464052.296875
-2.18,1669464052.3125
3.18,1669464052.328125
7.64,1669464052.34375
11.32,1669464052.359375
14.31,1669464052.375
16.66,1669464052.390625
18.39,1669464052.40625
19.52,1669464052.421875
20.01,1669464052.4375
19.83,1669464052.453125
19.04,1669464052.46875
17.76,1669464052.484375
16.27,1669464052.5
14.85,1669464052.515625
13.73,1669464052.53125
13.01,1669464052.546875
12.61,1669464052.5625
12.4,1669464052.578125
12.26,1669464052.59375
12.15,1669464052.609375
12.07,1669464052.625
12.03,1669464052.640625
11.98,1669464052.65625
11.81,1669464052.671875
11.43,1669464052.6875
10.81,1669464052.703125
10.05,1669464052.71875
9.32,1669464052.734375
8.75,1669464052.75
8.36,1669464052.765625
8.03,1669464052.78125
7.56,1669464052.796875
6.78,1669464052.8125
5.61,1669464052.828125
4.07,1669464052.84375
2.21,1669464052.859375
0.11,1669464052.875
-2.19,1669464052.890625
-4.68,1669464052.90625
-7.36,1669464052.921875
-10.21,1669464052.9375
-13.21,1669464052.953125
-16.24,1669464052.96875
-19.14,1669464052.984375
-21.81,1669464053.0
-24.27,1669464053.015625
-26.71,1669464053.03125
-29.53,1669464053.046875
-32.99,1669464053.0625
-37.0,1669464053.078125
-40.91,1669464053.09375
-43.65,1669464053.109375
-44.11,1669464053.125
-41.59,1669464053.140625
-36.18,1669464053.15625
-28.65,1669464053.171875
-20.11,1669464053.1875
-11.55,1669464053.203125
-3.58,1669464053.21875
3.68,1669464053.234375
10.27,1669464053.25
16.2,1669464053.265625
21.34,1669464053.28125
25.45,1669464053.296875
28.43,1669464053.3125
30.34,1669464053.328125
31.49,1669464053.34375
32.2,1669464053.359375
32.65,1669464053.375
32.83,1669464053.390625
32.55,1669464053.40625
31.64,1669464053.421875
30.15,1669464053.4375
28.32,1669464053.453125
26.59,1669464053.46875
25.32,1669464053.484375
24.66,1669464053.5
24.49,1669464053.515625
24.52,1669464053.53125
24.46,1669464053.546875
24.14,1669464053.5625
23.57,1669464053.578125
22.83,1669464053.59375
22.04,1669464053.609375
21.23,1669464053.625
20.44,1669464053.640625
19.63,1669464053.65625
18.77,1669464053.671875
17.79,1669464053.6875
16.6,1669464053.703125
15.1,1669464053.71875
13.24,1669464053.734375
11.03,1669464053.75
8.53,1669464053.765625
5.86,1669464053.78125
3.11,1669464053.796875
0.37,1669464053.8125
-2.32,1669464053.828125
-4.91,1669464053.84375
-7.34,1669464053.859375
-9.6,1669464053.875
-11.73,1669464053.890625
-13.79,1669464053.90625
-15.91,1669464053.921875
-18.21,1669464053.9375
-20.82,1669464053.953125
-23.85,1669464053.96875
-27.36,1669464053.984375
-31.26,1669464054.0
-35.21,1669464054.015625
-38.6,1669464054.03125
-40.66,1669464054.046875
-40.66,1669464054.0625
-38.24,1669464054.078125
-33.53,1669464054.09375
-27.09,1669464054.109375
-19.73,1669464054.125
-12.2,1669464054.140625
-4.97,1669464054.15625
1.67,1669464054.171875
7.63,1669464054.1875
12.79,1669464054.203125
17.05,1669464054.21875
20.35,1669464054.234375
22.76,1669464054.25
24.45,1669464054.265625
25.63,1669464054.28125
26.42,1669464054.296875
26.78,1669464054.3125
26.58,1669464054.328125
25.76,1669464054.34375
24.37,1669464054.359375
22.7,1669464054.375
21.1,1669464054.390625
19.92,1669464054.40625
19.32,1669464054.421875
19.32,1669464054.4375
19.78,1669464054.453125
20.5,1669464054.46875
21.29,1669464054.484375
21.95,1669464054.5
22.35,1669464054.515625
22.41,1669464054.53125
22.11,1669464054.546875
21.52,1669464054.5625
20.75,1669464054.578125
19.85,1669464054.59375
18.86,1669464054.609375
17.7,1669464054.625
16.28,1669464054.640625
14.58,1669464054.65625
12.67,1669464054.671875
10.73,1669464054.6875
8.91,1669464054.703125
7.28,1669464054.71875
5.77,1669464054.734375
4.17,1669464054.75
2.29,1669464054.765625
0.08,1669464054.78125
-2.32,1669464054.796875
-4.6,1669464054.8125
-6.46,1669464054.828125
-7.75,1669464054.84375
-8.53,1669464054.859375
-9.14,1669464054.875
-9.94,1669464054.890625
-11.29,1669464054.90625
-13.43,1669464054.921875
-16.34,1669464054.9375
-19.77,1669464054.953125
-23.13,1669464054.96875
-25.59,1669464054.984375
-26.27,1669464055.0
-24.5,1669464055.015625
-20.11,1669464055.03125
-13.59,1669464055.046875
-5.92,1669464055.0625
1.74,1669464055.078125
8.48,1669464055.09375
13.91,1669464055.109375
18.17,1669464055.125
21.8,1669464055.140625
25.28,1669464055.15625
28.92,1669464055.171875
32.54,1669464055.1875
35.71,1669464055.203125
37.85,1669464055.21875
38.64,1669464055.234375
38.12,1669464055.25
36.75,1669464055.265625
35.25,1669464055.28125
34.27,1669464055.296875
34.19,1669464055.3125
35.06,1669464055.328125
36.71,1669464055.34375
38.99,1669464055.359375
41.81,1669464055.375
45.15,1669464055.390625
48.86,1669464055.40625
52.55,1669464055.421875
55.54,1669464055.4375
57.1,1669464055.453125
56.72,1669464055.46875
54.31,1669464055.484375
50.21,1669464055.5
45.06,1669464055.515625
39.53,1669464055.53125
34.13,1669464055.546875
29.13,1669464055.5625
24.69,1669464055.578125
20.88,1669464055.59375
17.89,1669464055.609375
15.84,1669464055.625
14.78,1669464055.640625
14.49,1669464055.65625
14.6,1669464055.671875
14.73,1669464055.6875
14.64,1669464055.703125
14.33,1669464055.71875
13.95,1669464055.734375
13.66,1669464055.75
13.4,1669464055.765625
12.96,1669464055.78125
11.97,1669464055.796875
10.11,1669464055.8125
7.09,1669464055.828125
2.69,1669464055.84375
-3.26,1669464055.859375
-10.98,1669464055.875
-20.42,1669464055.890625
-31.25,1669464055.90625
-42.67,1669464055.921875
-53.62,1669464055.9375
-63.05,1669464055.953125
-70.29,1669464055.96875
-75.18,1669464055.984375
-78.05,1669464056.0
-79.5,1669464056.015625
-80.1,1669464056.03125
-80.27,1669464056.046875
-80.33,1669464056.0625
-80.55,1669464056.078125
-81.23,1669464056.09375
-82.62,1669464056.109375
-84.81,1669464056.125
-87.6,1669464056.140625
-90.53,1669464056.15625
-93.05,1669464056.171875
-94.7,1669464056.1875
-95.33,1669464056.203125
-95.15,1669464056.21875
-94.71,1669464056.234375
-94.66,1669464056.25
-95.54,1669464056.265625
-97.6,1669464056.28125
-100.68,1669464056.296875
-104.16,1669464056.3125
-107.1,1669464056.328125
-108.36,1669464056.34375
-106.76,1669464056.359375
-101.29,1669464056.375
-91.4,1669464056.390625
-77.05,1669464056.40625
-58.86,1669464056.421875
-37.94,1669464056.4375
-15.79,1669464056.453125
5.96,1669464056.46875
25.71,1669464056.484375
42.04,1669464056.5
53.88,1669464056.515625
60.6,1669464056.53125
62.18,1669464056.546875
59.3,1669464056.5625
53.23,1669464056.578125
45.59,1669464056.59375
37.94,1669464056.609375
31.4,1669464056.625
26.44,1669464056.640625
22.99,1669464056.65625
20.51,1669464056.671875
18.35,1669464056.6875
15.88,1669464056.703125
12.68,1669464056.71875
8.63,1669464056.734375
3.89,1669464056.75
-1.05,1669464056.765625
-5.53,1669464056.78125
-8.86,1669464056.796875
-10.49,1669464056.8125
-10.23,1669464056.828125
-8.35,1669464056.84375
-5.49,1669464056.859375
-2.49,1669464056.875
-0.04,1669464056.890625
1.57,1669464056.90625
2.65,1669464056.921875
3.95,1669464056.9375
6.29,1669464056.953125
10.13,1669464056.96875
15.26,1669464056.984375
20.82,1669464057.0
25.71,1669464057.015625
29.05,1669464057.03125
30.58,1669464057.046875
30.61,1669464057.0625
29.83,1669464057.078125
28.89,1669464057.09375
28.14,1669464057.109375
27.66,1669464057.125
27.41,1669464057.140625
27.34,1669464057.15625
27.54,1669464057.171875
28.07,1669464057.1875
28.91,1669464057.203125
29.91,1669464057.21875
30.79,1669464057.234375
31.27,1669464057.25
31.11,1669464057.265625
30.24,1669464057.28125
28.7,1669464057.296875
26.69,1669464057.3125
24.48,1669464057.328125
22.37,1669464057.34375
20.54,1669464057.359375
19.05,1669464057.375
17.83,1669464057.390625
16.77,1669464057.40625
15.78,1669464057.421875
14.81,1669464057.4375
13.77,1669464057.453125
12.47,1669464057.46875
10.67,1669464057.484375
8.22,1669464057.5
5.12,1669464057.515625
1.64,1669464057.53125
-1.84,1669464057.546875
-4.95,1669464057.5625
-7.55,1669464057.578125
-9.73,1669464057.59375
-11.79,1669464057.609375
-14.07,1669464057.625
-16.81,1669464057.640625
-20.1,1669464057.65625
-23.83,1669464057.671875
-27.7,1669464057.6875
-31.28,1669464057.703125
-33.98,1669464057.71875
-35.2,1669464057.734375
-34.42,1669464057.75
-31.45,1669464057.765625
-26.46,1669464057.78125
-20.03,1669464057.796875
-12.95,1669464057.8125
-6.0,1669464057.828125
0.21,1669464057.84375
5.45,1669464057.859375
9.73,1669464057.875
13.21,1669464057.890625
16.01,1669464057.90625
18.16,1669464057.921875
19.55,1669464057.9375
20.13,1669464057.953125
20.0,1669464057.96875
19.43,1669464057.984375
18.83,1669464058.0
18.44,1669464058.015625
18.36,1669464058.03125
18.45,1669464058.046875
18.47,1669464058.0625
18.27,1669464058.078125
17.89,1669464058.09375
17.51,1669464058.109375
17.31,1669464058.125
17.35,1669464058.140625
17.47,1669464058.15625
17.44,1669464058.171875
17.13,1669464058.1875
16.57,1669464058.203125
15.95,1669464058.21875
15.4,1669464058.234375
14.89,1669464058.25
14.16,1669464058.265625
12.94,1669464058.28125
11.01,1669464058.296875
8.45,1669464058.3125
5.61,1669464058.328125
2.92,1669464058.34375
0.75,1669464058.359375
-0.77,1669464058.375
-1.73,1669464058.390625
-2.41,1669464058.40625
-3.12,1669464058.421875
-4.11,1669464058.4375
-5.49,1669464058.453125
-7.26,1669464058.46875
-9.27,1669464058.484375
-11.32,1669464058.5
-13.24,1669464058.515625
-14.99,1669464058.53125
-16.66,1669464058.546875
-18.49,1669464058.5625
-20.75,1669464058.578125
-23.65,1669464058.59375
-27.14,1669464058.609375
-30.88,1669464058.625
-34.17,1669464058.640625
-36.2,1669464058.65625
-36.23,1669464058.671875
-33.84,1669464058.6875
-29.09,1669464058.703125
-22.49,1669464058.71875
-14.86,1669464058.734375
-7.06,1669464058.75
0.16,1669464058.765625
6.31,1669464058.78125
11.15,1669464058.796875
14.61,1669464058.8125
16.81,1669464058.828125
18.0,1669464058.84375
18.57,1669464058.859375
18.9,1669464058.875
19.29,1669464058.890625
19.78,1669464058.90625
20.15,1669464058.921875
20.11,1669464058.9375
19.43,1669464058.953125
18.16,1669464058.96875
16.66,1669464058.984375
15.44,1669464059.0
14.9,1669464059.015625
15.14,1669464059.03125
15.93,1669464059.046875
16.81,1669464059.0625
17.37,1669464059.078125
17.36,1669464059.09375
16.81,1669464059.109375
15.93,1669464059.125
14.98,1669464059.140625
14.11,1669464059.15625
13.34,1669464059.171875
12.58,1669464059.1875
11.7,1669464059.203125
10.64,1669464059.21875
9.38,1669464059.234375
7.94,1669464059.25
6.32,1669464059.265625
4.54,1669464059.28125
2.56,1669464059.296875
0.4,1669464059.3125
-1.89,1669464059.328125
-4.22,1669464059.34375
-6.51,1669464059.359375
-8.67,1669464059.375
-10.76,1669464059.390625
-12.85,1669464059.40625
-15.11,1669464059.421875
-17.67,1669464059.4375
-20.54,1669464059.453125
-23.6,1669464059.46875
-26.69,1669464059.484375
-29.63,1669464059.5
-32.37,1669464059.515625
-35.04,1669464059.53125
-37.72,1669464059.546875
-40.32,1669464059.5625
-42.39,1669464059.578125
-43.23,1669464059.59375
-42.12,1669464059.609375
-38.66,1669464059.625
-33.05,1669464059.640625
-26.0,1669464059.65625
-18.49,1669464059.671875
-11.39,1669464059.6875
-5.2,1669464059.703125
0.05,1669464059.71875
4.61,1669464059.734375
8.73,1669464059.75
12.52,1669464059.765625
15.92,1669464059.78125
18.75,1669464059.796875
20.87,1669464059.8125
22.24,1669464059.828125
22.92,1669464059.84375
23.05,1669464059.859375
22.78,1669464059.875
22.21,1669464059.890625
21.42,1669464059.90625
20.5,1669464059.921875
19.53,1669464059.9375
18.67,1669464059.953125
18.1,1669464059.96875
17.95,1669464059.984375
18.27,1669464060.0
19.0,1669464060.015625
19.91,1669464060.03125
20.73,1669464060.046875
21.2,1669464060.0625
21.18,1669464060.078125
20.66,1669464060.09375
19.75,1669464060.109375
18.55,1669464060.125
17.16,1669464060.140625
15.56,1669464060.15625
13.71,1669464060.171875
11.52,1669464060.1875
9.0,1669464060.203125
6.25,1669464060.21875
3.48,1669464060.234375
0.92,1669464060.25
-1.26,1669464060.265625
-3.03,1669464060.28125
-4.55,1669464060.296875
-6.08,1669464060.3125
-7.87,1669464060.328125
-10.06,1669464060.34375
-12.58,1669464060.359375
-15.23,1669464060.375
-17.79,1669464060.390625
-20.1,1669464060.40625
-22.16,1669464060.421875
-24.11,1669464060.4375
-26.15,1669464060.453125
-28.49,1669464060.46875
-31.23,1669464060.484375
-34.37,1669464060.5
-37.75,1669464060.515625
-40.97,1669464060.53125
-43.45,1669464060.546875
-44.51,1669464060.5625
-43.54,1669464060.578125
-40.24,1669464060.59375
-34.71,1669464060.609375
-27.5,1669464060.625
-19.42,1669464060.640625
-11.28,1669464060.65625
-3.72,1669464060.671875
2.94,1669464060.6875
8.62,1669464060.703125
13.35,1669464060.71875
17.14,1669464060.734375
19.93,1669464060.75
21.64,1669464060.765625
22.29,1669464060.78125
22.01,1669464060.796875
21.18,1669464060.8125
20.24,1669464060.828125
19.6,1669464060.84375
19.5,1669464060.859375
19.9,1669464060.875
20.49,1669464060.890625
20.85,1669464060.90625
20.67,1669464060.921875
19.83,1669464060.9375
18.57,1669464060.953125
17.33,1669464060.96875
16.59,1669464060.984375
16.59,1669464061.0
17.2,1669464061.015625
17.99,1669464061.03125
18.48,1669464061.046875
18.37,1669464061.0625
17.62,1669464061.078125
16.52,1669464061.09375
15.41,1669464061.109375
14.47,1669464061.125
13.66,1669464061.140625
12.8,1669464061.15625
11.67,1669464061.171875
10.2,1669464061.1875
8.43,1669464061.203125
6.5,1669464061.21875
4.5,1669464061.234375
2.45,1669464061.25
0.31,1669464061.265625
-1.92,1669464061.28125
-4.26,1669464061.296875
-6.69,1669464061.3125
-9.27,1669464061.328125
-12.0,1669464061.34375
-14.86,1669464061.359375
-17.71,1669464061.375
-20.35,1669464061.390625
-22.69,1669464061.40625
-24.85,1669464061.421875
-27.16,1669464061.4375
-29.97,1669464061.453125
-33.37,1669464061.46875
-36.99,1669464061.484375
-40.1,1669464061.5
-41.78,1669464061.515625
-41.29,1669464061.53125
-38.4,1669464061.546875
-33.33,1669464061.5625
-26.68,1669464061.578125
-19.17,1669464061.59375
-11.51,1669464061.609375
-4.2,1669464061.625
2.31,1669464061.640625
7.75,1669464061.65625
11.9,1669464061.671875
14.67,1669464061.6875
16.17,1669464061.703125
16.63,1669464061.71875
16.4,1669464061.734375
15.86,1669464061.75
15.3,1669464061.765625
14.89,1669464061.78125
14.67,1669464061.796875
14.55,1669464061.8125
14.43,1669464061.828125
14.27,1669464061.84375
14.07,1669464061.859375
13.89,1669464061.875
13.79,1669464061.890625
13.79,1669464061.90625
13.89,1669464061.921875
14.09,1669464061.9375
14.44,1669464061.953125
14.96,1669464061.96875
15.63,1669464061.984375
16.29,1669464062.0
16.72,1669464062.015625
16.65,1669464062.03125
15.91,1669464062.046875
14.43,1669464062.0625
12.34,1669464062.078125
9.95,1669464062.09375
7.6,1669464062.109375
5.64,1669464062.125
4.22,1669464062.140625
3.29,1669464062.15625
2.58,1669464062.171875
1.73,1669464062.1875
0.47,1669464062.203125
-1.33,1669464062.21875
-3.57,1669464062.234375
-6.08,1669464062.25
-8.67,1669464062.265625
-11.21,1669464062.28125
-13.64,1669464062.296875
-15.88,1669464062.3125
-17.94,1669464062.328125
-19.89,1669464062.34375
-21.95,1669464062.359375
-24.47,1669464062.375
-27.7,1669464062.390625
-31.59,1669464062.40625
-35.66,1669464062.421875
-39.08,1669464062.4375
-40.9,1669464062.453125
-40.39,1669464062.46875
-37.27,1669464062.484375
-31.72,1669464062.5
-24.33,1669464062.515625
-15.87,1669464062.53125
-7.18,1669464062.546875
0.98,1669464062.5625
8.02,1669464062.578125
13.63,1669464062.59375
17.74,1669464062.609375
20.57,1669464062.625
22.49,1669464062.640625
23.82,1669464062.65625
24.77,1669464062.671875
25.42,1669464062.6875
25.73,1669464062.703125
25.7,1669464062.71875
25.41,1669464062.734375
25.01,1669464062.75
24.64,1669464062.765625
24.31,1669464062.78125
23.88,1669464062.796875
23.16,1669464062.8125
22.03,1669464062.828125
20.54,1669464062.84375
18.95,1669464062.859375
17.63,1669464062.875
16.85,1669464062.890625
16.64,1669464062.90625
16.75,1669464062.921875
16.8,1669464062.9375
16.45,1669464062.953125
15.57,1669464062.96875
14.25,1669464062.984375
12.74,1669464063.0
11.22,1669464063.015625
9.72,1669464063.03125
8.1,1669464063.046875
6.18,1669464063.0625
3.9,1669464063.078125
1.41,1669464063.09375
-0.96,1669464063.109375
-2.94,1669464063.125
-4.42,1669464063.140625
-5.53,1669464063.15625
-6.64,1669464063.171875
-8.1,1669464063.1875
-10.1,1669464063.203125
-12.53,1669464063.21875
-15.08,1669464063.234375
-17.45,1669464063.25
-19.48,1669464063.265625
-21.26,1669464063.28125
-23.05,1669464063.296875
-25.14,1669464063.3125
-27.74,1669464063.328125
-30.89,1669464063.34375
-34.47,1669464063.359375
-38.19,1669464063.375
-41.57,1669464063.390625
-44.02,1669464063.40625
-44.87,1669464063.421875
-43.6,1669464063.4375
-39.97,1669464063.453125
-34.2,1669464063.46875
-26.95,1669464063.484375
-19.1,1669464063.5
-11.52,1669464063.515625
-4.85,1669464063.53125
0.6,1669464063.546875
4.82,1669464063.5625
8.01,1669464063.578125
10.46,1669464063.59375
12.5,1669464063.609375
14.38,1669464063.625
16.32,1669464063.640625
18.39,1669464063.65625
20.52,1669464063.671875
22.55,1669464063.6875
24.27,1669464063.703125
25.48,1669464063.71875
26.07,1669464063.734375
26.02,1669464063.75
25.43,1669464063.765625
24.53,1669464063.78125
23.56,1669464063.796875
22.82,1669464063.8125
22.47,1669464063.828125
22.54,1669464063.84375
22.91,1669464063.859375
23.28,1669464063.875
23.37,1669464063.890625
22.95,1669464063.90625
21.91,1669464063.921875
20.3,1669464063.9375
18.26,1669464063.953125
16.0,1669464063.96875
13.74,1669464063.984375
11.72,1669464064.0
10.07,1669464064.015625
8.78,1669464064.03125
7.72,1669464064.046875
6.62,1669464064.0625
5.27,1669464064.078125
3.51,1669464064.09375
1.38,1669464064.109375
-1.02,1669464064.125
-3.56,1669464064.140625
-6.21,1669464064.15625
-9.01,1669464064.171875
-12.02,1669464064.1875
-15.23,1669464064.203125
-18.49,1669464064.21875
-21.56,1669464064.234375
-24.27,1669464064.25
-26.62,1669464064.265625
-28.82,1669464064.28125
-31.23,1669464064.296875
-34.2,1669464064.3125
-37.86,1669464064.328125
-41.97,1669464064.34375
-45.89,1669464064.359375
-48.77,1669464064.375
-49.76,1669464064.390625
-48.35,1669464064.40625
-44.47,1669464064.421875
-38.5,1669464064.4375
-31.13,1669464064.453125
-23.09,1669464064.46875
-15.02,1669464064.484375
-7.45,1669464064.5
-0.77,1669464064.515625
4.72,1669464064.53125
8.9,1669464064.546875
11.84,1669464064.5625
13.88,1669464064.578125
15.37,1669464064.59375
16.68,1669464064.609375
17.92,1669464064.625
18.96,1669464064.640625
19.59,1669464064.65625
19.65,1669464064.671875
19.14,1669464064.6875
18.24,1669464064.703125
17.2,1669464064.71875
16.25,1669464064.734375
15.56,1669464064.75
15.2,1669464064.765625
15.13,1669464064.78125
15.32,1669464064.796875
15.62,1669464064.8125
15.87,1669464064.828125
15.93,1669464064.84375
15.79,1669464064.859375
15.49,1669464064.875
15.15,1669464064.890625
14.76,1669464064.90625
14.16,1669464064.921875
13.04,1669464064.9375
11.05,1669464064.953125
7.96,1669464064.96875
3.84,1669464064.984375
-0.98,1669464065.0
-5.83,1669464065.015625
-9.94,1669464065.03125
-12.67,1669464065.046875
-13.63,1669464065.0625
-12.88,1669464065.078125
-10.68,1669464065.09375
-7.31,1669464065.109375
-2.87,1669464065.125
2.8,1669464065.140625
9.88,1669464065.15625
18.28,1669464065.171875
27.49,1669464065.1875
36.7,1669464065.203125
45.08,1669464065.21875
52.06,1669464065.234375
57.53,1669464065.25
61.62,1669464065.265625
64.56,1669464065.28125
66.58,1669464065.296875
68.08,1669464065.3125
69.7,1669464065.328125
72.33,1669464065.34375
76.77,1669464065.359375
83.28,1669464065.375
91.24,1669464065.390625
99.3,1669464065.40625
105.87,1669464065.421875
109.73,1669464065.4375
110.45,1669464065.453125
108.3,1669464065.46875
103.89,1669464065.484375
97.67,1669464065.5
89.62,1669464065.515625
79.44,1669464065.53125
66.83,1669464065.546875
51.87,1669464065.5625
35.11,1669464065.578125
17.43,1669464065.59375
-0.27,1669464065.609375
-17.34,1669464065.625
-33.41,1669464065.640625
-48.17,1669464065.65625
-61.19,1669464065.671875
-71.79,1669464065.6875
-79.17,1669464065.703125
-82.76,1669464065.71875
-82.47,1669464065.734375
-78.84,1669464065.75
-72.83,1669464065.765625
-65.44,1669464065.78125
-57.42,1669464065.796875
-49.09,1669464065.8125
-40.46,1669464065.828125
-31.4,1669464065.84375
-21.84,1669464065.859375
-11.91,1669464065.875
-1.88,1669464065.890625
7.91,1669464065.90625
17.13,1669464065.921875
25.51,1669464065.9375
32.85,1669464065.953125
38.98,1669464065.96875
43.82,1669464065.984375
47.33,1669464066.0
49.59,1669464066.015625
50.75,1669464066.03125
50.92,1669464066.046875
50.17,1669464066.0625
48.47,1669464066.078125
45.68,1669464066.09375
41.66,1669464066.109375
36.29,1669464066.125
29.5,1669464066.140625
21.23,1669464066.15625
11.34,1669464066.171875
-0.33,1669464066.1875
-13.89,1669464066.203125
-29.11,1669464066.21875
-45.3,1669464066.234375
-61.29,1669464066.25
-75.61,1669464066.265625
-86.85,1669464066.28125
-94.02,1669464066.296875
-96.82,1669464066.3125
-95.62,1669464066.328125
-91.3,1669464066.34375
-84.89,1669464066.359375
-77.37,1669464066.375
-69.46,1669464066.390625
-61.68,1669464066.40625
-54.43,1669464066.421875
-47.99,1669464066.4375
-42.59,1669464066.453125
-38.29,1669464066.46875
-34.99,1669464066.484375
-32.41,1669464066.5
-30.17,1669464066.515625
-27.99,1669464066.53125
-25.67,1669464066.546875
-23.1,1669464066.5625
-20.24,1669464066.578125
-16.97,1669464066.59375
-13.09,1669464066.609375
-8.37,1669464066.625
-2.62,1669464066.640625
4.18,1669464066.65625
11.86,1669464066.671875
20.06,1669464066.6875
28.37,1669464066.703125
36.42,1669464066.71875
44.05,1669464066.734375
51.25,1669464066.75
58.06,1669464066.765625
64.46,1669464066.78125
70.21,1669464066.796875
74.86,1669464066.8125
77.91,1669464066.828125
79.0,1669464066.84375
77.98,1669464066.859375
74.84,1669464066.875
69.58,1669464066.890625
62.14,1669464066.90625
52.42,1669464066.921875
40.5,1669464066.9375
26.9,1669464066.953125
12.65,1669464066.96875
-0.92,1669464066.984375
-12.55,1669464067.0
-21.51,1669464067.015625
-27.75,1669464067.03125
-31.84,1669464067.046875
-34.6,1669464067.0625
-36.8,1669464067.078125
-38.84,1669464067.09375
-40.83,1669464067.109375
-42.65,1669464067.125
-44.17,1669464067.140625
-45.36,1669464067.15625
-46.28,1669464067.171875
-47.08,1669464067.1875
-47.95,1669464067.203125
-49.03,1669464067.21875
-50.33,1669464067.234375
-51.69,1669464067.25
-52.76,1669464067.265625
-53.07,1669464067.28125
-52.17,1669464067.296875
-49.75,1669464067.3125
-45.86,1669464067.328125
-40.77,1669464067.34375
-34.93,1669464067.359375
-28.84,1669464067.375
-22.9,1669464067.390625
-17.44,1669464067.40625
-12.69,1669464067.421875
-8.86,1669464067.4375
-6.05,1669464067.453125
-4.29,1669464067.46875
-3.46,1669464067.484375
-3.26,1669464067.5
-3.38,1669464067.515625
-3.54,1669464067.53125
-3.68,1669464067.546875
-3.87,1669464067.5625
-4.38,1669464067.578125
-5.39,1669464067.59375
-6.99,1669464067.609375
-9.01,1669464067.625
-11.1,1669464067.640625
-12.92,1669464067.65625
-14.18,1669464067.671875
-14.81,1669464067.6875
-14.92,1669464067.703125
-14.73,1669464067.71875
-14.43,1669464067.734375
-14.19,1669464067.75
-14.13,1669464067.765625
-14.28,1669464067.78125
-14.68,1669464067.796875
-15.24,1669464067.8125
-15.88,1669464067.828125
-16.45,1669464067.84375
-16.84,1669464067.859375
-17.02,1669464067.875
-17.08,1669464067.890625
-17.13,1669464067.90625
-17.32,1669464067.921875
-17.64,1669464067.9375
-17.99,1669464067.953125
-18.13,1669464067.96875
-17.89,1669464067.984375
-17.27,1669464068.0
-16.45,1669464068.015625
-15.79,1669464068.03125
-15.62,1669464068.046875
-16.04,1669464068.0625
-16.86,1669464068.078125
-17.63,1669464068.09375
-17.84,1669464068.109375
-17.12,1669464068.125
-15.41,1669464068.140625
-12.97,1669464068.15625
-10.25,1669464068.171875
-7.66,1669464068.1875
-5.44,1669464068.203125
-3.54,1669464068.21875
-1.69,1669464068.234375
0.55,1669464068.25
3.54,1669464068.265625
7.43,1669464068.28125
11.91,1669464068.296875
16.24,1669464068.3125
19.3,1669464068.328125
19.84,1669464068.34375
16.91,1669464068.359375
10.13,1669464068.375
0.01,1669464068.390625
-12.15,1669464068.40625
-24.55,1669464068.421875
-35.35,1669464068.4375
-43.22,1669464068.453125
-47.53,1669464068.46875
-48.51,1669464068.484375
-47.04,1669464068.5
-44.35,1669464068.515625
-41.72,1669464068.53125
-40.09,1669464068.546875
-39.99,1669464068.5625
-41.34,1669464068.578125
-43.7,1669464068.59375
-46.33,1669464068.609375
-48.5,1669464068.625
-49.62,1669464068.640625
-49.35,1669464068.65625
-47.65,1669464068.671875
-44.6,1669464068.6875
-40.34,1669464068.703125
-34.91,1669464068.71875
-28.4,1669464068.734375
-20.95,1669464068.75
-12.87,1669464068.765625
-4.75,1669464068.78125
2.72,1669464068.796875
8.95,1669464068.8125
13.7,1669464068.828125
17.22,1669464068.84375
20.2,1669464068.859375
23.48,1669464068.875
27.73,1669464068.890625
33.26,1669464068.90625
39.98,1669464068.921875
47.56,1669464068.9375
55.54,1669464068.953125
63.43,1669464068.96875
70.58,1669464068.984375
76.23,1669464069.0
79.46,1669464069.015625
79.55,1669464069.03125
76.26,1669464069.046875
70.04,1669464069.0625
62.06,1669464069.078125
53.85,1669464069.09375
46.78,1669464069.109375
41.58,1669464069.125
38.0,1669464069.140625
35.02,1669464069.15625
31.26,1669464069.171875
25.71,1669464069.1875
18.11,1669464069.203125
9.14,1669464069.21875
0.12,1669464069.234375
-7.56,1669464069.25
-12.92,1669464069.265625
-15.7,1669464069.28125
-16.25,1669464069.296875
-15.24,1669464069.3125
-13.31,1669464069.328125
-10.97,1669464069.34375
-8.54,1669464069.359375
-6.3,1669464069.375
-4.55,1669464069.390625
-3.51,1669464069.40625
-3.23,1669464069.421875
-3.49,1669464069.4375
-3.9,1669464069.453125
-4.01,1669464069.46875
-3.54,1669464069.484375
-2.47,1669464069.5
-1.03,1669464069.515625
0.52,1669464069.53125
1.89,1669464069.546875
2.84,1669464069.5625
3.19,1669464069.578125
2.82,1669464069.59375
1.77,1669464069.609375
0.33,1669464069.625
-0.99,1669464069.640625
-1.62,1669464069.65625
-1.22,1669464069.671875
0.16,1669464069.6875
2.07,1669464069.703125
3.89,1669464069.71875
5.09,1669464069.734375
5.46,1669464069.75
5.09,1669464069.765625
4.24,1669464069.78125
3.2,1669464069.796875
2.16,1669464069.8125
1.24,1669464069.828125
0.47,1669464069.84375
-0.15,1669464069.859375
-0.75,1669464069.875
-1.46,1669464069.890625
-2.43,1669464069.90625
-3.72,1669464069.921875
-5.23,1669464069.9375
-6.81,1669464069.953125
-8.33,1669464069.96875
-9.78,1669464069.984375
-11.24,1669464070.0
-12.9,1669464070.015625
-14.9,1669464070.03125
-17.34,1669464070.046875
-20.2,1669464070.0625
-23.41,1669464070.078125
-26.81,1669464070.09375
-30.19,1669464070.109375
-33.34,1669464070.125
-36.14,1669464070.140625
-38.68,1669464070.15625
-41.22,1669464070.171875
-44.14,1669464070.1875
-47.61,1669464070.203125
-51.42,1669464070.21875
-54.96,1669464070.234375
-57.33,1669464070.25
-57.69,1669464070.265625
-55.56,1669464070.28125
-50.94,1669464070.296875
-44.35,1669464070.3125
-36.57,1669464070.328125
-28.49,1669464070.34375
-20.84,1669464070.359375
-14.09,1669464070.375
-8.45,1669464070.390625
-3.83,1669464070.40625
0.05,1669464070.421875
3.5,1669464070.4375
6.74,1669464070.453125
9.76,1669464070.46875
12.36,1669464070.484375
14.22,1669464070.5
15.06,1669464070.515625
14.7,1669464070.53125
13.27,1669464070.546875
11.11,1669464070.5625
8.61,1669464070.578125
6.09,1669464070.59375
3.64,1669464070.609375
1.15,1669464070.625
-1.5,1669464070.640625
-4.41,1669464070.65625
-7.79,1669464070.671875
-11.68,1669464070.6875
-16.01,1669464070.703125
-20.58,1669464070.71875
-25.13,1669464070.734375
-29.36,1669464070.75
-32.96,1669464070.765625
-35.62,1669464070.78125
-37.24,1669464070.796875
-38.25,1669464070.8125
-39.25,1669464070.828125
-40.82,1669464070.84375
-43.23,1669464070.859375
-46.31,1669464070.875
-49.5,1669464070.890625
-51.89,1669464070.90625
-52.35,1669464070.921875
-49.78,1669464070.9375
-43.8,1669464070.953125
-34.38,1669464070.96875
-22.04,1669464070.984375
-7.85,1669464071.0
6.76,1669464071.015625
19.93,1669464071.03125
30.16,1669464071.046875
36.71,1669464071.0625
42.06,1669464071.078125
47.67,1669464071.09375
54.21,1669464071.109375
61.55,1669464071.125
68.53,1669464071.140625
75.15,1669464071.15625
81.12,1669464071.171875
86.19,1669464071.1875
89.72,1669464071.203125
91.47,1669464071.21875
91.39,1669464071.234375
89.99,1669464071.25
88.03,1669464071.265625
86.22,1669464071.28125
85.15,1669464071.296875
84.92,1669464071.3125
85.31,1669464071.328125
86.02,1669464071.34375
86.75,1669464071.359375
86.94,1669464071.375
86.26,1669464071.390625
84.64,1669464071.40625
82.25,1669464071.421875
79.41,1669464071.4375
76.25,1669464071.453125
72.83,1669464071.46875
69.16,1669464071.484375
65.37,1669464071.5
61.47,1669464071.515625
57.59,1669464071.53125
53.95,1669464071.546875
50.69,1669464071.5625
47.88,1669464071.578125
45.31,1669464071.59375
42.74,1669464071.609375
40.02,1669464071.625
37.19,1669464071.640625
34.31,1669464071.65625
31.55,1669464071.671875
29.02,1669464071.6875
26.74,1669464071.703125
24.65,1669464071.71875
22.63,1669464071.734375
20.73,1669464071.75
19.12,1669464071.765625
18.01,1669464071.78125
17.32,1669464071.796875
16.57,1669464071.8125
14.86,1669464071.828125
11.13,1669464071.84375
4.68,1669464071.859375
-4.5,1669464071.875
-15.59,1669464071.890625
-27.18,1669464071.90625
-37.76,1669464071.921875
-46.26,1669464071.9375
-52.29,1669464071.953125
-56.05,1669464071.96875
-58.06,1669464071.984375
-58.81,1669464072.0
-58.6,1669464072.015625
-57.69,1669464072.03125
-56.39,1669464072.046875
-55.25,1669464072.0625
-54.96,1669464072.078125
-56.15,1669464072.09375
-59.09,1669464072.109375
-63.58,1669464072.125
-68.97,1669464072.140625
-74.51,1669464072.15625
-79.52,1669464072.171875
-83.55,1669464072.1875
-86.17,1669464072.203125
-86.85,1669464072.21875
-84.81,1669464072.234375
-79.34,1669464072.25
-70.16,1669464072.265625
-57.83,1669464072.28125
-43.87,1669464072.296875
-30.33,1669464072.3125
-19.13,1669464072.328125
-11.47,1669464072.34375
-7.49,1669464072.359375
-6.53,1669464072.375
-7.47,1669464072.390625
-9.2,1669464072.40625
-10.74,1669464072.421875
-11.21,1669464072.4375
-9.83,1669464072.453125
-6.12,1669464072.46875
-0.21,1669464072.484375
6.94,1669464072.5
13.59,1669464072.515625
17.76,1669464072.53125
18.06,1669464072.546875
14.29,1669464072.5625
7.65,1669464072.578125
0.28,1669464072.59375
-5.62,1669464072.609375
-8.63,1669464072.625
-8.6,1669464072.640625
-6.49,1669464072.65625
-3.71,1669464072.671875
-1.41,1669464072.6875
0.05,1669464072.703125
0.99,1669464072.71875
2.04,1669464072.734375
3.56,1669464072.75
5.42,1669464072.765625
7.04,1669464072.78125
7.78,1669464072.796875
7.3,1669464072.8125
5.63,1669464072.828125
3.18,1669464072.84375
0.41,1669464072.859375
-2.29,1669464072.875
-4.67,1669464072.890625
-6.56,1669464072.90625
-7.77,1669464072.921875
-8.28,1669464072.9375
-8.28,1669464072.953125
-8.21,1669464072.96875
-8.65,1669464072.984375
-10.02,1669464073.0
-12.4,1669464073.015625
-15.48,1669464073.03125
-18.74,1669464073.046875
-21.64,1669464073.0625
-23.84,1669464073.078125
-25.26,1669464073.09375
-26.05,1669464073.109375
-26.44,1669464073.125
-26.75,1669464073.140625
-27.33,1669464073.15625
-28.54,1669464073.171875
-30.62,1669464073.1875
-33.52,1669464073.203125
-36.76,1669464073.21875
-39.47,1669464073.234375
-40.59,1669464073.25
-39.26,1669464073.265625
-35.1,1669464073.28125
-28.39,1669464073.296875
-19.9,1669464073.3125
-10.73,1669464073.328125
-1.91,1669464073.34375
5.83,1669464073.359375
12.18,1669464073.375
17.11,1669464073.390625
20.82,1669464073.40625
23.61,1669464073.421875
25.73,1669464073.4375
27.43,1669464073.453125
28.83,1669464073.46875
30.0,1669464073.484375
30.87,1669464073.5
31.26,1669464073.515625
31.04,1669464073.53125
30.19,1669464073.546875
28.88,1669464073.5625
27.5,1669464073.578125
26.49,1669464073.59375
26.19,1669464073.609375
26.69,1669464073.625
27.82,1669464073.640625
29.23,1669464073.65625
30.51,1669464073.671875
31.29,1669464073.6875
31.4,1669464073.703125
30.73,1669464073.71875
29.38,1669464073.734375
27.59,1669464073.75
25.66,1669464073.765625
23.92,1669464073.78125
22.55,1669464073.796875
21.52,1669464073.8125
20.57,1669464073.828125
19.36,1669464073.84375
17.64,1669464073.859375
15.37,1669464073.875
12.72,1669464073.890625
10.01,1669464073.90625
7.48,1669464073.921875
5.21,1669464073.9375
3.12,1669464073.953125
1.0,1669464073.96875
-1.35,1669464073.984375
-3.97,1669464074.0
-6.84,1669464074.015625
-9.8,1669464074.03125
-12.67,1669464074.046875
-15.3,1669464074.0625
-17.65,1669464074.078125
-19.79,1669464074.09375
-21.88,1669464074.109375
-24.09,1669464074.125
-26.59,1669464074.140625
-29.49,1669464074.15625
-32.85,1669464074.171875
-36.57,1669464074.1875
-40.32,1669464074.203125
-43.45,1669464074.21875
-45.14,1669464074.234375
-44.54,1669464074.25
-41.16,1669464074.265625
-35.14,1669464074.28125
-27.2,1669464074.296875
-18.44,1669464074.3125
-9.91,1669464074.328125
-2.32,1669464074.34375
4.16,1669464074.359375
9.69,1669464074.375
14.45,1669464074.390625
18.48,1669464074.40625
21.6,1669464074.421875
23.6,1669464074.4375
24.41,1669464074.453125
24.26,1669464074.46875
23.6,1669464074.484375
22.91,1669464074.5
22.49,1669464074.515625
22.36,1669464074.53125
22.32,1669464074.546875
22.16,1669464074.5625
21.8,1669464074.578125
21.35,1669464074.59375
21.13,1669464074.609375
21.38,1669464074.625
22.16,1669464074.640625
23.28,1669464074.65625
24.36,1669464074.671875
25.03,1669464074.6875
25.09,1669464074.703125
24.62,1669464074.71875
23.84,1669464074.734375
23.02,1669464074.75
22.27,1669464074.765625
21.6,1669464074.78125
20.9,1669464074.796875
20.04,1669464074.8125
19.0,1669464074.828125
17.79,1669464074.84375
16.4,1669464074.859375
14.82,1669464074.875
13.02,1669464074.890625
10.98,1669464074.90625
8.71,1669464074.921875
6.24,1669464074.9375
3.6,1669464074.953125
0.8,1669464074.96875
-2.19,1669464074.984375
-5.31,1669464075.0
-8.5,1669464075.015625
-11.53,1669464075.03125
-14.2,1669464075.046875
-16.36,1669464075.0625
-18.04,1669464075.078125
-19.55,1669464075.09375
-21.35,1669464075.109375
-23.93,1669464075.125
-27.56,1669464075.140625
-32.14,1669464075.15625
-37.04,1669464075.171875
-41.3,1669464075.1875
-43.8,1669464075.203125
-43.73,1669464075.21875
-40.76,1669464075.234375
-35.17,1669464075.25
-27.74,1669464075.265625
-19.48,1669464075.28125
-11.3,1669464075.296875
-3.87,1669464075.3125
2.45,1669464075.328125
7.56,1669464075.34375
11.54,1669464075.359375
14.52,1669464075.375
16.73,1669464075.390625
18.37,1669464075.40625
19.63,1669464075.421875
20.6,1669464075.4375
21.36,1669464075.453125
21.87,1669464075.46875
22.1,1669464075.484375
22.01,1669464075.5
21.59,1669464075.515625
20.84,1669464075.53125
19.86,1669464075.546875
18.78,1669464075.5625
17.83,1669464075.578125
17.32,1669464075.59375
17.47,1669464075.609375
18.38,1669464075.625
19.9,1669464075.640625
21.64,1669464075.65625
23.07,1669464075.671875
23.77,1669464075.6875
23.59,1669464075.703125
22.7,1669464075.71875
21.53,1669464075.734375
20.47,1669464075.75
19.7,1669464075.765625
19.06,1669464075.78125
18.18,1669464075.796875
16.73,1669464075.8125
14.58,1669464075.828125
11.89,1669464075.84375
9.0,1669464075.859375
6.21,1669464075.875
3.68,1669464075.890625
1.33,1669464075.90625
-0.94,1669464075.921875
-3.21,1669464075.9375
-5.45,1669464075.953125
-7.62,1669464075.96875
-9.72,1669464075.984375
-11.81,1669464076.0
-14.03,1669464076.015625
-16.38,1669464076.03125
-18.78,1669464076.046875
-21.02,1669464076.0625
-23.02,1669464076.078125
-24.86,1669464076.09375
-26.86,1669464076.109375
-29.37,1669464076.125
-32.59,1669464076.140625
-36.31,1669464076.15625
-39.9,1669464076.171875
-42.47,1669464076.1875
-43.18,1669464076.203125
-41.5,1669464076.21875
-37.43,1669464076.234375
-31.41,1669464076.25
-24.2,1669464076.265625
-16.61,1669464076.28125
-9.28,1669464076.296875
-2.62,1669464076.3125
3.21,1669464076.328125
8.19,1669464076.34375
12.32,1669464076.359375
15.61,1669464076.375
18.05,1669464076.390625
19.71,1669464076.40625
20.7,1669464076.421875
21.22,1669464076.4375
21.49,1669464076.453125
21.65,1669464076.46875
21.71,1669464076.484375
21.62,1669464076.5
21.31,1669464076.515625
20.76,1669464076.53125
20.08,1669464076.546875
19.45,1669464076.5625
19.05,1669464076.578125
19.02,1669464076.59375
19.35,1669464076.609375
19.92,1669464076.625
20.51,1669464076.640625
20.86,1669464076.65625
20.76,1669464076.671875
20.12,1669464076.6875
18.94,1669464076.703125
17.4,1669464076.71875
15.75,1669464076.734375
14.25,1669464076.75
13.06,1669464076.765625
12.18,1669464076.78125
11.41,1669464076.796875
10.47,1669464076.8125
9.16,1669464076.828125
7.43,1669464076.84375
5.44,1669464076.859375
3.49,1669464076.875
1.78,1669464076.890625
0.37,1669464076.90625
-0.89,1669464076.921875
-2.25,1669464076.9375
-3.95,1669464076.953125
-6.01,1669464076.96875
-8.29,1669464076.984375
-10.57,1669464077.0
-12.7,1669464077.015625
-14.7,1669464077.03125
-16.69,1669464077.046875
-18.85,1669464077.0625
-21.26,1669464077.078125
-23.91,1669464077.09375
-26.73,1669464077.109375
-29.68,1669464077.125
-32.77,1669464077.140625
-35.95,1669464077.15625
-39.02,1669464077.171875
-41.45,1669464077.1875
-42.51,1669464077.203125
-41.46,1669464077.21875
-37.9,1669464077.234375
-31.98,1669464077.25
-24.41,1669464077.265625
-16.26,1669464077.28125
-8.52,1669464077.296875
-1.86,1669464077.3125
3.48,1669464077.328125
7.61,1669464077.34375
10.74,1669464077.359375
13.04,1669464077.375
14.58,1669464077.390625
15.47,1669464077.40625
15.88,1669464077.421875
16.11,1669464077.4375
16.44,1669464077.453125
17.05,1669464077.46875
17.87,1669464077.484375
18.67,1669464077.5
19.19,1669464077.515625
19.27,1669464077.53125
18.98,1669464077.546875
18.47,1669464077.5625
18.04,1669464077.578125
17.83,1669464077.59375
17.91,1669464077.609375
18.19,1669464077.625
18.53,1669464077.640625
18.76,1669464077.65625
18.69,1669464077.671875
18.2,1669464077.6875
17.22,1669464077.703125
