PPG GREEN,time
2056678.0,1669464000.037
2052473.0,1669464000.077
2049087.0,1669464000.119
2045959.0,1669464000.157
2043556.0,1669464000.198
2040491.0,1669464000.239
2037851.0,1669464000.278
2035610.0,1669464000.319
2033287.0,1669464000.359
2031644.0,1669464000.398
2030142.0,1669464000.438
2029200.0,1669464000.479
2028209.0,1669464000.519
2027374.0,1669464000.558
2026865.0,1669464000.6
2026539.0,1669464000.639
2026070.0,1669464000.679
2025230.0,1669464000.721
2024771.0,1669464000.759
2024598.0,1669464000.799
2025152.0,1669464000.84
2025565.0,1669464000.879
2026643.0,1669464000.92
2027020.0,1669464000.96
2023228.0,1669464000.999
2016668.0,1669464001.039
2010352.0,1669464001.081
2006138.0,1669464001.121
2002689.0,1669464001.16
1999782.0,1669464001.201
1997830.0,1669464001.24
1995987.0,1669464001.28
1994230.0,1669464001.322
1991497.0,1669464001.36
1989467.0,1669464001.4
1987653.0,1669464001.441
1986320.0,1669464001.48
1985328.0,1669464001.521
1984656.0,1669464001.561
1984166.0,1669464001.6
1983822.0,1669464001.64
1983665.0,1669464001.682
1983211.0,1669464001.722
1983039.0,1669464001.761
1982797.0,1669464001.802
1982883.0,1669464001.841
1982967.0,1669464001.881
1983279.0,1669464001.923
1983797.0,1669464001.961
1982056.0,1669464002.001
1976094.0,1669464002.042
1969359.0,1669464002.081
1963730.0,1669464002.122
1960231.0,1669464002.162
1957011.0,1669464002.201
1955438.0,1669464002.242
1953903.0,1669464002.283
1952069.0,1669464002.323
1949777.0,1669464002.362
1947917.0,1669464002.403
1946511.0,1669464002.442
1945555.0,1669464002.482
1944793.0,1669464002.524
1944462.0,1669464002.562
1944312.0,1669464002.602
1944276.0,1669464002.643
1944609.0,1669464002.682
1944903.0,1669464002.724
1945366.0,1669464002.764
1945785.0,1669464002.803
1946327.0,1669464002.843
1947218.0,1669464002.884
1948212.0,1669464002.924
1949172.0,1669464002.963
1948722.0,1669464003.004
1942994.0,1669464003.043
1935536.0,1669464003.083
1929456.0,1669464003.125
1924158.0,1669464003.163
1919812.0,1669464003.203
1916664.0,1669464003.245
1914121.0,1669464003.284
1911914.0,1669464003.325
1909634.0,1669464003.365
1907247.0,1669464003.404
1905188.0,1669464003.444
1903851.0,1669464003.485
1902631.0,1669464003.525
1901682.0,1669464003.564
1900596.0,1669464003.605
1899486.0,1669464003.645
1898475.0,1669464003.685
1898494.0,1669464003.727
1898024.0,1669464003.765
1897783.0,1669464003.805
1897959.0,1669464003.846
1898453.0,1669464003.885
1898663.0,1669464003.926
1899384.0,1669464003.966
1900295.0,1669464004.005
1896556.0,1669464004.045
1890464.0,1669464004.086
1885577.0,1669464004.126
1881142.0,1669464004.165
1877513.0,1669464004.207
1873380.0,1669464004.246
1870202.0,1669464004.286
1868371.0,1669464004.328
1865708.0,1669464004.366
1862939.0,1669464004.406
1860091.0,1669464004.447
1858176.0,1669464004.486
1857735.0,1669464004.527
1856914.0,1669464004.567
1855625.0,1669464004.606
1855068.0,1669464004.646
1855221.0,1669464004.687
1855905.0,1669464004.728
1857004.0,1669464004.767
1857789.0,1669464004.809
1859418.0,1669464004.848
1861302.0,1669464004.888
1863477.0,1669464004.93
1865861.0,1669464004.968
1868580.0,1669464005.008
1869050.0,1669464005.049
1866068.0,1669464005.088
1862153.0,1669464005.129
1859102.0,1669464005.17
1857302.0,1669464005.209
1856482.0,1669464005.249
1857538.0,1669464005.33
1858320.0,1669464005.369
1856755.0,1669464005.29
1858784.0,1669464005.41
1859038.0,1669464005.449
1859765.0,1669464005.489
1861082.0,1669464005.531
1864420.0,1669464005.61
1866717.0,1669464005.651
1868463.0,1669464005.69
1871042.0,1669464005.731
1862564.0,1669464005.569
1873308.0,1669464005.771
1876178.0,1669464005.81
1878520.0,1669464005.85
1881035.0,1669464005.891
1884082.0,1669464005.931
1886749.0,1669464005.97
1889308.0,1669464006.012
1887185.0,1669464006.091
1886319.0,1669464006.133
1886321.0,1669464006.171
1888773.0,1669464006.051
1887125.0,1669464006.211
1888668.0,1669464006.252
1890619.0,1669464006.291
1892222.0,1669464006.332
1893787.0,1669464006.373
1895537.0,1669464006.412
1897150.0,1669464006.452
1899337.0,1669464006.493
1901673.0,1669464006.533
1904236.0,1669464006.572
1907024.0,1669464006.613
1912826.0,1669464006.692
1915275.0,1669464006.735
1909720.0,1669464006.652
1918219.0,1669464006.773
1921190.0,1669464006.813
1924524.0,1669464006.854
1927402.0,1669464006.893
1933987.0,1669464006.974
1930949.0,1669464006.934
1936096.0,1669464007.013
1935399.0,1669464007.053
1933839.0,1669464007.095
1933225.0,1669464007.135
1933529.0,1669464007.174
1934091.0,1669464007.215
1935153.0,1669464007.254
1938542.0,1669464007.336
1939919.0,1669464007.374
1936888.0,1669464007.294
1941687.0,1669464007.414
1943215.0,1669464007.456
1945174.0,1669464007.495
1947645.0,1669464007.536
1951999.0,1669464007.615
1954658.0,1669464007.655
1959670.0,1669464007.736
1962168.0,1669464007.775
1956987.0,1669464007.696
1949951.0,1669464007.576
1965017.0,1669464007.817
1967926.0,1669464007.856
1970609.0,1669464007.896
1973138.0,1669464007.938
1976219.0,1669464007.976
1978906.0,1669464008.016
1981162.0,1669464008.057
1981291.0,1669464008.096
1979833.0,1669464008.137
1979163.0,1669464008.178
1979311.0,1669464008.217
1979884.0,1669464008.257
1980760.0,1669464008.298
1982111.0,1669464008.338
1983582.0,1669464008.377
1984836.0,1669464008.418
1986177.0,1669464008.457
1987527.0,1669464008.497
1989548.0,1669464008.54
1990980.0,1669464008.578
1992775.0,1669464008.618
1994731.0,1669464008.659
1996632.0,1669464008.698
1998586.0,1669464008.739
2000577.0,1669464008.779
2002745.0,1669464008.818
2004769.0,1669464008.858
2006804.0,1669464008.899
2009161.0,1669464008.94
2011093.0,1669464008.979
2013208.0,1669464009.02
2015162.0,1669464009.059
2017095.0,1669464009.099
2018164.0,1669464009.141
2017383.0,1669464009.179
2016123.0,1669464009.219
2015518.0,1669464009.299
2015474.0,1669464009.34
2015538.0,1669464009.26
2016352.0,1669464009.381
2017375.0,1669464009.42
2018303.0,1669464009.46
2018808.0,1669464009.501
2019586.0,1669464009.541
2020530.0,1669464009.58
2021799.0,1669464009.621
2022863.0,1669464009.66
2024263.0,1669464009.7
2025753.0,1669464009.742
2027035.0,1669464009.78
2028210.0,1669464009.82
2029747.0,1669464009.861
2032629.0,1669464009.941
2031258.0,1669464009.9
2035891.0,1669464010.021
2039410.0,1669464010.102
2040546.0,1669464010.142
2039504.0,1669464010.181
2037049.0,1669464010.222
2035542.0,1669464010.261
2034620.0,1669464010.301
2033977.0,1669464010.343
2033696.0,1669464010.381
2033796.0,1669464010.421
2034194.0,1669464010.462
2034175.0,1669464010.502
2034210.0,1669464010.543
2034279.0,1669464009.982
2037581.0,1669464010.061
2034622.0,1669464010.583
2036156.0,1669464010.703
2037028.0,1669464010.743
2037849.0,1669464010.782
2038539.0,1669464010.823
2039730.0,1669464010.862
2035699.0,1669464010.662
2034928.0,1669464010.622
2040860.0,1669464010.902
2041568.0,1669464010.945
2042799.0,1669464010.983
2044957.0,1669464011.064
2044115.0,1669464011.023
2046557.0,1669464011.103
2045015.0,1669464011.184
2042185.0,1669464011.223
2040111.0,1669464011.263
2038127.0,1669464011.304
2047199.0,1669464011.144
2036735.0,1669464011.344
2036218.0,1669464011.383
2035755.0,1669464011.425
2034747.0,1669464011.504
2034466.0,1669464011.546
2035268.0,1669464011.464
2034315.0,1669464011.584
2033903.0,1669464011.624
2033846.0,1669464011.665
2033788.0,1669464011.745
2033801.0,1669464011.704
2033900.0,1669464011.785
2034275.0,1669464011.824
2034565.0,1669464011.865
2035167.0,1669464011.906
2035986.0,1669464011.946
2036758.0,1669464011.985
2037151.0,1669464012.026
2037940.0,1669464012.065
2037023.0,1669464012.105
2033570.0,1669464012.147
2029694.0,1669464012.185
2026598.0,1669464012.225
2024158.0,1669464012.267
2022267.0,1669464012.306
2020931.0,1669464012.347
2020193.0,1669464012.387
2018923.0,1669464012.426
2017757.0,1669464012.466
2016840.0,1669464012.507
2015817.0,1669464012.547
2014590.0,1669464012.627
2015157.0,1669464012.586
2014312.0,1669464012.666
2014145.0,1669464012.707
2013952.0,1669464012.749
2014083.0,1669464012.787
2014437.0,1669464012.868
2014587.0,1669464012.907
2014895.0,1669464012.948
2009503.0,1669464013.027
2004885.0,1669464013.067
2001430.0,1669464013.108
2014222.0,1669464012.827
2013864.0,1669464012.988
1998954.0,1669464013.149
1996927.0,1669464013.188
1995581.0,1669464013.229
1994659.0,1669464013.268
1990210.0,1669464013.428
1991008.0,1669464013.388
1989667.0,1669464013.469
1989075.0,1669464013.508
1993488.0,1669464013.308
1992145.0,1669464013.35
1988559.0,1669464013.55
1988697.0,1669464013.59
1988590.0,1669464013.629
1988520.0,1669464013.669
1988775.0,1669464013.71
1989166.0,1669464013.75
1989610.0,1669464013.789
1990007.0,1669464013.83
1990627.0,1669464013.869
1990377.0,1669464013.909
1986638.0,1669464013.951
1982198.0,1669464013.989
1978684.0,1669464014.03
1976233.0,1669464014.071
1974773.0,1669464014.11
1973318.0,1669464014.151
1972507.0,1669464014.191
1971886.0,1669464014.23
1970738.0,1669464014.27
1969699.0,1669464014.311
1968534.0,1669464014.391
1968680.0,1669464014.351
1968393.0,1669464014.432
1968361.0,1669464014.471
1968593.0,1669464014.511
1969033.0,1669464014.553
1969753.0,1669464014.591
1970422.0,1669464014.631
1970676.0,1669464014.672
1972312.0,1669464014.752
1973354.0,1669464014.793
1974215.0,1669464014.832
1972364.0,1669464014.872
1966050.0,1669464014.992
1969399.0,1669464014.913
1967396.0,1669464014.953
1965219.0,1669464015.033
1971465.0,1669464014.711
1965718.0,1669464015.072
1966126.0,1669464015.112
1966105.0,1669464015.154
1966624.0,1669464015.192
1966768.0,1669464015.274
1967291.0,1669464015.313
1968479.0,1669464015.354
1970315.0,1669464015.433
1971432.0,1669464015.473
1972779.0,1669464015.514
1975300.0,1669464015.593
1969187.0,1669464015.394
1976803.0,1669464015.635
1966279.0,1669464015.232
1978350.0,1669464015.674
1980173.0,1669464015.714
1974130.0,1669464015.554
1981475.0,1669464015.756
1979146.0,1669464015.834
1975809.0,1669464015.914
1981427.0,1669464015.794
1977001.0,1669464015.875
1974506.0,1669464015.995
1975074.0,1669464015.955
1974830.0,1669464016.034
1975050.0,1669464016.075
1975420.0,1669464016.116
1976064.0,1669464016.156
1976406.0,1669464016.195
1976708.0,1669464016.236
1977508.0,1669464016.275
1978680.0,1669464016.315
1979582.0,1669464016.357
1980771.0,1669464016.395
1982063.0,1669464016.436
1983566.0,1669464016.477
1985013.0,1669464016.516
1986146.0,1669464016.557
1987821.0,1669464016.597
1989629.0,1669464016.636
1991019.0,1669464016.676
1992684.0,1669464016.717
1993837.0,1669464016.757
1992591.0,1669464016.796
1990676.0,1669464016.835
1989599.0,1669464016.874
1989203.0,1669464016.956
1989279.0,1669464016.914
1989470.0,1669464016.994
1990138.0,1669464017.034
1990821.0,1669464017.075
1991370.0,1669464017.114
1991920.0,1669464017.155
1992903.0,1669464017.196
1993895.0,1669464017.235
1994927.0,1669464017.275
1996052.0,1669464017.316
1997152.0,1669464017.356
1998587.0,1669464017.395
1999753.0,1669464017.436
2001136.0,1669464017.475
2002688.0,1669464017.516
2004181.0,1669464017.557
2005590.0,1669464017.596
2007195.0,1669464017.636
2008753.0,1669464017.677
2010459.0,1669464017.716
2011569.0,1669464017.757
2010178.0,1669464017.797
2008623.0,1669464017.836
2007646.0,1669464017.876
2007109.0,1669464017.918
2007303.0,1669464017.957
2008325.0,1669464018.038
2009277.0,1669464018.117
2009647.0,1669464018.159
2010249.0,1669464018.197
2010841.0,1669464018.238
2011900.0,1669464018.279
2012710.0,1669464018.318
2013778.0,1669464018.358
2008001.0,1669464017.997
2008714.0,1669464018.077
2014606.0,1669464018.399
2015725.0,1669464018.438
2016867.0,1669464018.478
2017873.0,1669464018.519
2019352.0,1669464018.559
2021654.0,1669464018.64
2020250.0,1669464018.599
2022858.0,1669464018.679
2024152.0,1669464018.719
2024376.0,1669464018.761
2022672.0,1669464018.799
2020639.0,1669464018.88
2020078.0,1669464018.919
2020349.0,1669464018.96
2021270.0,1669464018.839
2021095.0,1669464019.001
2021279.0,1669464019.04
2021472.0,1669464019.08
2021895.0,1669464019.121
2022187.0,1669464019.162
2023038.0,1669464019.202
2023457.0,1669464019.243
2024316.0,1669464019.282
2025216.0,1669464019.322
2029499.0,1669464019.484
2028518.0,1669464019.442
2027134.0,1669464019.402
2032142.0,1669464019.564
2026193.0,1669464019.364
2033671.0,1669464019.604
2030627.0,1669464019.523
2035032.0,1669464019.644
2037173.0,1669464019.725
2036100.0,1669464019.684
2035458.0,1669464019.765
2033295.0,1669464019.804
2030791.0,1669464019.884
2029635.0,1669464019.924
2028953.0,1669464019.966
2028907.0,1669464020.004
2031663.0,1669464019.845
2028969.0,1669464020.045
2028525.0,1669464020.125
2028853.0,1669464020.086
2028560.0,1669464020.166
2028603.0,1669464020.206
2028647.0,1669464020.245
2029794.0,1669464020.326
2030524.0,1669464020.363
2029380.0,1669464020.285
2031320.0,1669464020.402
2031746.0,1669464020.444
2032618.0,1669464020.483
2033934.0,1669464020.523
2034751.0,1669464020.565
2035523.0,1669464020.604
2036675.0,1669464020.644
2037814.0,1669464020.685
2038819.0,1669464020.724
2038347.0,1669464020.763
2036633.0,1669464020.804
2034311.0,1669464020.843
2033110.0,1669464020.874
2032208.0,1669464020.915
2031915.0,1669464020.955
2031936.0,1669464020.994
2032208.0,1669464021.035
2032232.0,1669464021.074
2032317.0,1669464021.114
2032407.0,1669464021.156
2032693.0,1669464021.195
2033147.0,1669464021.235
2033879.0,1669464021.276
2034759.0,1669464021.315
2035631.0,1669464021.356
2036567.0,1669464021.396
2037725.0,1669464021.435
2038841.0,1669464021.475
2040219.0,1669464021.516
2041751.0,1669464021.557
2042989.0,1669464021.597
2044651.0,1669464021.633
2046436.0,1669464021.672
2047552.0,1669464021.705
2049638.0,1669464021.746
2050243.0,1669464021.784
2050536.0,1669464021.824
2051289.0,1669464021.865
2051879.0,1669464021.905
2051198.0,1669464021.945
2048445.0,1669464021.986
2044565.0,1669464022.025
2040422.0,1669464022.066
2037290.0,1669464022.102
2036178.0,1669464022.142
2036101.0,1669464022.181
2038145.0,1669464022.222
2041403.0,1669464022.262
2045026.0,1669464022.302
2047775.0,1669464022.344
2050636.0,1669464022.382
2054103.0,1669464022.422
2057440.0,1669464022.463
2061515.0,1669464022.502
2065047.0,1669464022.543
2067402.0,1669464022.583
2070027.0,1669464022.622
2073039.0,1669464022.662
2075729.0,1669464022.704
2076785.0,1669464022.743
2077084.0,1669464022.783
2078699.0,1669464022.825
2081132.0,1669464022.864
2084060.0,1669464022.904
2086979.0,1669464022.946
2092223.0,1669464022.985
2097459.0,1669464023.025
2101919.0,1669464023.067
2106700.0,1669464023.105
2112502.0,1669464023.146
2117734.0,1669464023.187
2122430.0,1669464023.226
2123968.0,1669464023.264
2123495.0,1669464023.305
2120614.0,1669464023.34
2117965.0,1669464023.379
2115128.0,1669464023.42
2112963.0,1669464023.459
2106344.0,1669464023.499
2102129.0,1669464023.541
2103639.0,1669464023.58
2109386.0,1669464023.62
2112864.0,1669464023.661
2114326.0,1669464023.7
2114231.0,1669464023.741
2113257.0,1669464023.781
2112194.0,1669464023.82
2111429.0,1669464023.86
2110118.0,1669464023.902
2108511.0,1669464023.941
2107679.0,1669464023.981
2107901.0,1669464024.019
2108718.0,1669464024.054
2110752.0,1669464024.095
2114462.0,1669464024.129
2118954.0,1669464024.164
2122534.0,1669464024.204
2124785.0,1669464024.245
2124851.0,1669464024.285
2125441.0,1669464024.326
2126159.0,1669464024.366
2126609.0,1669464024.405
2126244.0,1669464024.445
2125276.0,1669464024.487
2124532.0,1669464024.527
2124511.0,1669464024.559
2124082.0,1669464024.6
2124281.0,1669464024.639
2123650.0,1669464024.679
2123072.0,1669464024.721
2122480.0,1669464024.759
2122270.0,1669464024.8
2121998.0,1669464024.841
2121312.0,1669464024.88
2121457.0,1669464024.921
2121363.0,1669464024.961
2121047.0,1669464025.0
2121808.0,1669464025.04
2121618.0,1669464025.081
2121848.0,1669464025.121
2122427.0,1669464025.161
2122713.0,1669464025.202
2123271.0,1669464025.241
2123170.0,1669464025.28
2123687.0,1669464025.319
2123797.0,1669464025.354
2124028.0,1669464025.394
2124667.0,1669464025.427
2125510.0,1669464025.466
2125913.0,1669464025.507
2126158.0,1669464025.547
2126143.0,1669464025.586
2125541.0,1669464025.626
2125870.0,1669464025.668
2126201.0,1669464025.708
2126977.0,1669464025.747
2127517.0,1669464025.788
2127318.0,1669464025.827
2128056.0,1669464025.867
2128326.0,1669464025.909
2128834.0,1669464025.947
2129778.0,1669464025.987
2130297.0,1669464026.028
2130439.0,1669464026.067
2130914.0,1669464026.108
2131174.0,1669464026.148
2131608.0,1669464026.187
2131954.0,1669464026.228
2132730.0,1669464026.269
2133382.0,1669464026.308
2133636.0,1669464026.348
2134288.0,1669464026.389
2134737.0,1669464026.428
2135528.0,1669464026.468
2135835.0,1669464026.51
2135422.0,1669464026.546
2134834.0,1669464026.586
2134718.0,1669464026.628
2134737.0,1669464026.666
2134580.0,1669464026.707
2134470.0,1669464026.748
2134215.0,1669464026.787
2134023.0,1669464026.827
2134325.0,1669464026.869
2134481.0,1669464026.909
2134455.0,1669464026.946
2134331.0,1669464026.986
2134331.0,1669464027.017
2134334.0,1669464027.057
2134443.0,1669464027.099
2134252.0,1669464027.137
2134054.0,1669464027.177
2134141.0,1669464027.218
2134309.0,1669464027.257
2134617.0,1669464027.298
2134784.0,1669464027.339
2134703.0,1669464027.378
2135171.0,1669464027.418
2135447.0,1669464027.459
2135352.0,1669464027.499
2134435.0,1669464027.538
2133946.0,1669464027.579
2133063.0,1669464027.618
2132268.0,1669464027.658
2132030.0,1669464027.693
2131353.0,1669464027.728
2130741.0,1669464027.766
2130621.0,1669464027.807
2130157.0,1669464027.846
2129530.0,1669464027.887
2128983.0,1669464027.927
2128653.0,1669464027.967
2128303.0,1669464028.008
2128117.0,1669464028.048
2128646.0,1669464028.088
2128762.0,1669464028.126
2129183.0,1669464028.167
2129154.0,1669464028.206
2129496.0,1669464028.242
2129751.0,1669464028.284
2130017.0,1669464028.322
2130341.0,1669464028.363
2129742.0,1669464028.404
2129284.0,1669464028.443
2128290.0,1669464028.484
2127700.0,1669464028.524
2127356.0,1669464028.563
2127445.0,1669464028.603
2126938.0,1669464028.644
2127082.0,1669464028.684
2127380.0,1669464028.724
2127384.0,1669464028.762
2127599.0,1669464028.801
2127706.0,1669464028.841
2127813.0,1669464028.883
2128109.0,1669464028.921
2128472.0,1669464028.961
2128737.0,1669464029.042
2128670.0,1669464029.083
2128724.0,1669464029.123
2128366.0,1669464029.002
2129301.0,1669464029.162
2129733.0,1669464029.202
2130243.0,1669464029.243
2130487.0,1669464029.283
2130533.0,1669464029.322
2129367.0,1669464029.363
2128213.0,1669464029.402
2127628.0,1669464029.442
2127408.0,1669464029.484
2126879.0,1669464029.522
2126644.0,1669464029.562
2126341.0,1669464029.604
2126138.0,1669464029.643
2125886.0,1669464029.683
2125489.0,1669464029.724
2125128.0,1669464029.763
2124634.0,1669464029.803
2124735.0,1669464029.844
2124264.0,1669464029.884
2124072.0,1669464029.923
2115717.0,1669464030.445
2114996.0,1669464030.485
2113918.0,1669464030.524
2124323.0,1669464030.164
2123942.0,1669464030.205
2123039.0,1669464030.245
2121114.0,1669464030.286
2119699.0,1669464030.326
2117976.0,1669464030.365
2116811.0,1669464030.406
2123985.0,1669464029.964
2124241.0,1669464030.003
2113017.0,1669464030.565
2112571.0,1669464030.598
2124458.0,1669464030.085
2124230.0,1669464030.124
2111841.0,1669464030.638
2124098.0,1669464030.043
2111609.0,1669464030.68
2111097.0,1669464030.718
2110787.0,1669464030.758
2110357.0,1669464030.799
2109808.0,1669464030.838
2108990.0,1669464030.879
2108975.0,1669464030.92
2108661.0,1669464030.959
2108316.0,1669464030.999
2108221.0,1669464031.04
2107609.0,1669464031.08
2106157.0,1669464031.119
2104305.0,1669464031.16
2102721.0,1669464031.2
2101076.0,1669464031.24
2099512.0,1669464031.279
2098056.0,1669464031.317
2095288.0,1669464031.434
2097092.0,1669464031.357
2093964.0,1669464031.468
2093093.0,1669464031.506
2091757.0,1669464031.545
2091133.0,1669464031.585
2090214.0,1669464031.627
2089515.0,1669464031.667
2088834.0,1669464031.706
2088104.0,1669464031.748
2087243.0,1669464031.788
2086829.0,1669464031.826
2096178.0,1669464031.399
2086269.0,1669464031.868
2085698.0,1669464031.906
2085009.0,1669464031.946
2083196.0,1669464031.987
2080613.0,1669464032.026
2077652.0,1669464032.067
2074896.0,1669464032.108
2072679.0,1669464032.147
2070588.0,1669464032.187
2068683.0,1669464032.228
2066931.0,1669464032.267
2065430.0,1669464032.307
2063622.0,1669464032.348
2062239.0,1669464032.387
2060762.0,1669464032.427
2059692.0,1669464032.469
2058865.0,1669464032.507
2057991.0,1669464032.545
2057208.0,1669464032.587
2056735.0,1669464032.626
2056230.0,1669464032.667
2055808.0,1669464032.708
2055433.0,1669464032.746
2055483.0,1669464032.787
2054651.0,1669464032.828
2052179.0,1669464032.868
2049088.0,1669464032.907
2046487.0,1669464032.947
2044345.0,1669464032.986
2041672.0,1669464033.025
2041672.0,1669464033.058
2038123.0,1669464033.096
2036115.0,1669464033.136
2034495.0,1669464033.178
2033244.0,1669464033.217
2032838.0,1669464033.257
2032590.0,1669464033.298
2033331.0,1669464033.337
2035599.0,1669464033.377
2038426.0,1669464033.418
2040674.0,1669464033.458
2042346.0,1669464033.497
2038356.0,1669464033.539
2031182.0,1669464033.578
2022964.0,1669464033.618
2015123.0,1669464033.66
2007779.0,1669464033.698
2002288.0,1669464033.731
1997679.0,1669464033.769
1991736.0,1669464033.805
1989985.0,1669464033.846
1989707.0,1669464033.886
1987662.0,1669464033.925
1985905.0,1669464033.966
1983939.0,1669464034.007
1982356.0,1669464034.047
1980572.0,1669464034.086
1978414.0,1669464034.128
1976523.0,1669464034.167
1974038.0,1669464034.207
1972502.0,1669464034.249
1970318.0,1669464034.285
1968374.0,1669464034.326
1966749.0,1669464034.368
1964956.0,1669464034.407
1963194.0,1669464034.448
1961382.0,1669464034.488
1959774.0,1669464034.527
1958741.0,1669464034.567
1955943.0,1669464034.609
1952242.0,1669464034.648
1948488.0,1669464034.688
1945102.0,1669464034.729
1942550.0,1669464034.768
1939949.0,1669464034.808
1937761.0,1669464034.85
1935597.0,1669464034.888
1933859.0,1669464034.928
1931965.0,1669464034.969
1930226.0,1669464035.008
1928982.0,1669464035.049
1927617.0,1669464035.09
1926549.0,1669464035.128
1925555.0,1669464035.166
1924205.0,1669464035.207
1923458.0,1669464035.247
1922764.0,1669464035.286
1921933.0,1669464035.328
1921643.0,1669464035.367
1921219.0,1669464035.407
1920518.0,1669464035.449
1919443.0,1669464035.487
1916994.0,1669464035.528
1914066.0,1669464035.567
1911421.0,1669464035.597
1909660.0,1669464035.637
1907624.0,1669464035.678
1905852.0,1669464035.717
1904302.0,1669464035.757
1903025.0,1669464035.798
1901342.0,1669464035.838
1899713.0,1669464035.877
1898415.0,1669464035.919
1897362.0,1669464035.958
1896037.0,1669464035.998
1895098.0,1669464036.04
1894112.0,1669464036.078
1893633.0,1669464036.118
1892946.0,1669464036.159
1892364.0,1669464036.198
1891947.0,1669464036.239
1892152.0,1669464036.279
1892305.0,1669464036.319
1892066.0,1669464036.359
1891452.0,1669464036.4
1889701.0,1669464036.439
1887159.0,1669464036.479
1883235.0,1669464036.52
1881253.0,1669464036.559
1880448.0,1669464036.599
1881409.0,1669464036.641
1882740.0,1669464036.68
1882830.0,1669464036.72
1882028.0,1669464036.761
1880743.0,1669464036.8
1879878.0,1669464036.841
1879591.0,1669464036.881
1879027.0,1669464036.92
1878876.0,1669464036.96
1879000.0,1669464037.001
1878945.0,1669464037.041
1878179.0,1669464037.081
1877239.0,1669464037.122
1879690.0,1669464037.161
1885263.0,1669464037.201
1894031.0,1669464037.243
1902507.0,1669464037.281
1910586.0,1669464037.321
1918452.0,1669464037.362
1927233.0,1669464037.401
1936185.0,1669464037.442
1945349.0,1669464037.483
1954381.0,1669464037.522
1962293.0,1669464037.562
1969480.0,1669464037.603
1975956.0,1669464037.643
1981619.0,1669464037.682
1986091.0,1669464037.723
1989684.0,1669464037.762
1992542.0,1669464037.802
1995850.0,1669464037.844
1998733.0,1669464037.883
2000978.0,1669464037.923
2002982.0,1669464037.964
2005350.0,1669464038.003
2008076.0,1669464038.044
2011759.0,1669464038.084
2014491.0,1669464038.123
2016267.0,1669464038.163
2017505.0,1669464038.205
2018430.0,1669464038.244
2019041.0,1669464038.284
2019495.0,1669464038.325
2020775.0,1669464038.364
2021583.0,1669464038.404
2022499.0,1669464038.446
2023877.0,1669464038.484
2025174.0,1669464038.524
2026079.0,1669464038.566
2027692.0,1669464038.605
2029214.0,1669464038.646
2030816.0,1669464038.686
2032651.0,1669464038.725
2034589.0,1669464038.766
2036152.0,1669464038.807
2038147.0,1669464038.848
2040619.0,1669464038.887
2042124.0,1669464038.929
2042110.0,1669464038.967
2042722.0,1669464039.007
2043499.0,1669464039.049
2044028.0,1669464039.087
2044888.0,1669464039.128
2045713.0,1669464039.169
2046348.0,1669464039.208
2047026.0,1669464039.249
2048342.0,1669464039.29
2049680.0,1669464039.329
2050643.0,1669464039.369
2051673.0,1669464039.41
2052593.0,1669464039.45
2053367.0,1669464039.489
2054566.0,1669464039.53
2055954.0,1669464039.569
2057186.0,1669464039.609
2058213.0,1669464039.651
2059244.0,1669464039.689
2059793.0,1669464039.729
2059640.0,1669464039.771
2059425.0,1669464039.81
2059406.0,1669464039.85
2059843.0,1669464039.891
2059898.0,1669464039.93
2060379.0,1669464039.97
2061033.0,1669464040.009
2061999.0,1669464040.049
2062569.0,1669464040.088
2063096.0,1669464040.13
2063418.0,1669464040.169
2063908.0,1669464040.209
2064376.0,1669464040.251
2065258.0,1669464040.29
2066056.0,1669464040.33
2066788.0,1669464040.369
2067226.0,1669464040.408
2067984.0,1669464040.449
2068958.0,1669464040.49
2069739.0,1669464040.527
2069171.0,1669464040.567
2068743.0,1669464040.608
2068732.0,1669464040.648
2068634.0,1669464040.687
2068176.0,1669464040.733
2068126.0,1669464040.772
2068754.0,1669464040.854
2069067.0,1669464040.892
2069506.0,1669464040.932
2070095.0,1669464040.974
2070636.0,1669464041.013
2070914.0,1669464041.053
2071260.0,1669464041.094
2071648.0,1669464041.133
2072191.0,1669464041.173
2072730.0,1669464041.214
2068347.0,1669464040.812
2073582.0,1669464041.254
2074229.0,1669464041.294
2074621.0,1669464041.335
2075443.0,1669464041.374
2075727.0,1669464041.414
2076292.0,1669464041.456
2075527.0,1669464041.497
2074646.0,1669464041.537
2074384.0,1669464041.578
2074085.0,1669464041.618
2073765.0,1669464041.657
2073751.0,1669464041.695
2073705.0,1669464041.734
2073816.0,1669464041.765
2073957.0,1669464041.806
2074467.0,1669464041.845
2074544.0,1669464041.885
2074808.0,1669464041.926
2075733.0,1669464041.965
2076044.0,1669464042.005
2076471.0,1669464042.047
2077359.0,1669464042.085
2078073.0,1669464042.125
2078724.0,1669464042.167
2079705.0,1669464042.206
2080658.0,1669464042.246
2081805.0,1669464042.287
2082611.0,1669464042.326
2082315.0,1669464042.407
2082578.0,1669464042.366
2081879.0,1669464042.447
2081906.0,1669464042.48
2081569.0,1669464042.518
2081629.0,1669464042.555
2082124.0,1669464042.595
2082595.0,1669464042.637
2082696.0,1669464042.676
2082820.0,1669464042.716
2083171.0,1669464042.757
2083912.0,1669464042.796
2084509.0,1669464042.837
2085340.0,1669464042.878
2086187.0,1669464042.915
2086874.0,1669464042.955
2087620.0,1669464042.996
2088673.0,1669464043.035
2089736.0,1669464043.075
2090484.0,1669464043.116
2091441.0,1669464043.155
2092590.0,1669464043.195
2093105.0,1669464043.237
2093152.0,1669464043.275
2093054.0,1669464043.315
2093142.0,1669464043.356
2092888.0,1669464043.395
2093053.0,1669464043.436
2093181.0,1669464043.476
2093678.0,1669464043.515
2094292.0,1669464043.556
2094836.0,1669464043.597
2095129.0,1669464043.636
2095496.0,1669464043.676
2096112.0,1669464043.718
2096189.0,1669464043.757
2096580.0,1669464043.797
2097200.0,1669464043.837
2098035.0,1669464043.876
2098611.0,1669464043.916
2099152.0,1669464043.958
2099936.0,1669464043.996
2101244.0,1669464044.037
2101967.0,1669464044.077
2102826.0,1669464044.114
2104228.0,1669464044.155
2104230.0,1669464044.195
2104230.0,1669464044.229
2104572.0,1669464044.269
2104786.0,1669464044.31
2104820.0,1669464044.349
2105319.0,1669464044.389
2105390.0,1669464044.431
2105554.0,1669464044.469
2106130.0,1669464044.509
2106354.0,1669464044.55
2106253.0,1669464044.589
2106317.0,1669464044.63
2106547.0,1669464044.671
2107045.0,1669464044.71
2106901.0,1669464044.75
2107047.0,1669464044.791
2107517.0,1669464044.83
2107759.0,1669464044.87
2108257.0,1669464044.911
2108659.0,1669464044.948
2109098.0,1669464044.986
2109934.0,1669464045.02
2110359.0,1669464045.058
2111456.0,1669464045.097
2111909.0,1669464045.136
2111954.0,1669464045.175
2111587.0,1669464045.216
2111169.0,1669464045.257
2111055.0,1669464045.296
2111035.0,1669464045.336
2110893.0,1669464045.378
2110625.0,1669464045.417
2110832.0,1669464045.453
2110924.0,1669464045.495
2110853.0,1669464045.534
2110773.0,1669464045.574
2110985.0,1669464045.616
2111361.0,1669464045.654
2111691.0,1669464045.694
2112034.0,1669464045.735
2112783.0,1669464045.774
2113901.0,1669464045.815
2114712.0,1669464045.855
2115514.0,1669464045.894
2116105.0,1669464045.934
2117021.0,1669464045.975
2117921.0,1669464046.015
2118035.0,1669464046.054
2117994.0,1669464046.096
2117434.0,1669464046.135
2117240.0,1669464046.176
2117167.0,1669464046.217
2116788.0,1669464046.256
2116627.0,1669464046.296
2116636.0,1669464046.337
2116536.0,1669464046.376
2116567.0,1669464046.417
2116894.0,1669464046.458
2117338.0,1669464046.497
2117889.0,1669464046.537
2118023.0,1669464046.579
2118825.0,1669464046.621
2119731.0,1669464046.66
2120398.0,1669464046.701
2121001.0,1669464046.74
2121935.0,1669464046.78
2122688.0,1669464046.822
2123245.0,1669464046.861
2123915.0,1669464046.901
2124822.0,1669464046.942
2125414.0,1669464046.981
2125521.0,1669464047.022
2124531.0,1669464047.062
2123498.0,1669464047.101
2122590.0,1669464047.141
2121862.0,1669464047.182
2120597.0,1669464047.222
2119318.0,1669464047.261
2118750.0,1669464047.302
2117721.0,1669464047.341
2116559.0,1669464047.378
2116120.0,1669464047.418
2115192.0,1669464047.456
2114386.0,1669464047.496
2114003.0,1669464047.538
2113321.0,1669464047.576
2113026.0,1669464047.617
2112643.0,1669464047.658
2112219.0,1669464047.697
2111686.0,1669464047.728
2111182.0,1669464047.769
2111107.0,1669464047.809
2111064.0,1669464047.848
2110723.0,1669464047.889
2109722.0,1669464047.928
2107935.0,1669464047.968
2105666.0,1669464048.01
2103864.0,1669464048.049
2101739.0,1669464048.089
2099767.0,1669464048.13
2098780.0,1669464048.169
2097276.0,1669464048.21
2095798.0,1669464048.25
2094500.0,1669464048.289
2093207.0,1669464048.329
2092011.0,1669464048.37
2091120.0,1669464048.41
2090341.0,1669464048.45
2089558.0,1669464048.486
2088930.0,1669464048.519
2088462.0,1669464048.557
2087833.0,1669464048.6
2087295.0,1669464048.638
2086817.0,1669464048.678
2086731.0,1669464048.72
2086502.0,1669464048.759
2085643.0,1669464048.799
2083708.0,1669464048.84
2081295.0,1669464048.879
2078900.0,1669464048.915
2078900.0,1669464048.956
2076831.0,1669464048.996
2075045.0,1669464049.035
2073792.0,1669464049.076
2073127.0,1669464049.115
2072238.0,1669464049.155
2071042.0,1669464049.197
2070268.0,1669464049.236
2069911.0,1669464049.276
2068878.0,1669464049.317
2068444.0,1669464049.356
2068271.0,1669464049.396
2068256.0,1669464049.437
2068408.0,1669464049.476
2068943.0,1669464049.516
2069487.0,1669464049.557
2070756.0,1669464049.597
2072886.0,1669464049.637
2075535.0,1669464049.679
2077135.0,1669464049.718
2076773.0,1669464049.758
2074895.0,1669464049.8
2072205.0,1669464049.838
2069360.0,1669464049.878
2065694.0,1669464049.92
2062585.0,1669464049.959
2059944.0,1669464050.0
2058104.0,1669464050.041
2056443.0,1669464050.08
2054783.0,1669464050.118
2053452.0,1669464050.155
2052111.0,1669464050.194
2051035.0,1669464050.234
2049957.0,1669464050.275
2049396.0,1669464050.314
2048619.0,1669464050.354
2047846.0,1669464050.396
2047079.0,1669464050.434
2046833.0,1669464050.474
2046508.0,1669464050.515
2046190.0,1669464050.555
2045853.0,1669464050.595
2043735.0,1669464050.636
2040481.0,1669464050.675
2037071.0,1669464050.715
2033917.0,1669464050.756
2030738.0,1669464050.796
2028256.0,1669464050.835
2025963.0,1669464050.877
2024197.0,1669464050.917
2022583.0,1669464050.957
2020756.0,1669464050.999
2019188.0,1669464051.038
2017288.0,1669464051.078
2016019.0,1669464051.12
2014743.0,1669464051.159
2014250.0,1669464051.2
2013268.0,1669464051.241
2012712.0,1669464051.279
2012113.0,1669464051.32
2011668.0,1669464051.36
2011733.0,1669464051.392
2011414.0,1669464051.431
2011426.0,1669464051.472
2011364.0,1669464051.511
2009486.0,1669464051.551
2006227.0,1669464051.593
2003286.0,1669464051.631
2000582.0,1669464051.671
1997972.0,1669464051.713
1996162.0,1669464051.752
1994789.0,1669464051.792
1993525.0,1669464051.833
1991946.0,1669464051.872
1990733.0,1669464051.912
1989413.0,1669464051.953
1988656.0,1669464051.993
1988130.0,1669464052.032
1987498.0,1669464052.073
1987148.0,1669464052.112
1987041.0,1669464052.152
1987038.0,1669464052.194
1987154.0,1669464052.233
1987207.0,1669464052.273
1987534.0,1669464052.314
1988183.0,1669464052.353
1988933.0,1669464052.394
1988933.0,1669464052.434
1987092.0,1669464052.473
1984575.0,1669464052.512
1982487.0,1669464052.549
1980889.0,1669464052.581
1979562.0,1669464052.622
1979146.0,1669464052.703
1978805.0,1669464052.742
1978519.0,1669464052.782
1978006.0,1669464052.824
1977484.0,1669464052.862
1977801.0,1669464052.902
1977784.0,1669464052.943
1978113.0,1669464052.982
1978713.0,1669464053.023
1979432.0,1669464053.063
1980184.0,1669464053.102
1981394.0,1669464053.142
1982375.0,1669464053.184
1983673.0,1669464053.223
1984967.0,1669464053.263
1986415.0,1669464053.304
1988079.0,1669464053.338
1987630.0,1669464053.379
1985745.0,1669464053.42
1986320.0,1669464053.459
1987368.0,1669464053.499
1989087.0,1669464053.54
1990956.0,1669464053.58
1992705.0,1669464053.621
1993870.0,1669464053.661
1995475.0,1669464053.7
1996915.0,1669464053.741
1997915.0,1669464053.78
1999549.0,1669464053.82
2001088.0,1669464053.859
2003114.0,1669464053.901
2004565.0,1669464053.941
2006409.0,1669464053.972
2008163.0,1669464054.014
2009978.0,1669464054.052
2011815.0,1669464054.092
2013442.0,1669464054.134
2015320.0,1669464054.173
2017382.0,1669464054.213
2019435.0,1669464054.254
2020485.0,1669464054.293
2019203.0,1669464054.333
2017389.0,1669464054.374
2016454.0,1669464054.414
2016109.0,1669464054.453
2015596.0,1669464054.494
2015746.0,1669464054.533
2016455.0,1669464054.573
2017476.0,1669464054.615
2018783.0,1669464054.653
2019909.0,1669464054.69
2021066.0,1669464054.723
2022094.0,1669464054.76
2024007.0,1669464054.801
2025253.0,1669464054.842
2027072.0,1669464054.881
2029220.0,1669464054.921
2030699.0,1669464054.963
2032531.0,1669464055.002
2034459.0,1669464055.042
2036809.0,1669464055.084
2038535.0,1669464055.12
2040870.0,1669464055.16
2042088.0,1669464055.2
2042251.0,1669464055.239
2042176.0,1669464055.279
2042477.0,1669464055.32
2042404.0,1669464055.359
2042648.0,1669464055.4
2043800.0,1669464055.44
2045001.0,1669464055.479
2046059.0,1669464055.519
2046821.0,1669464055.56
2047837.0,1669464055.6
2048716.0,1669464055.639
2050321.0,1669464055.68
2051926.0,1669464055.719
2053090.0,1669464055.759
2054085.0,1669464055.801
2055257.0,1669464055.84
2056447.0,1669464055.88
2058230.0,1669464055.922
2059602.0,1669464055.961
2061044.0,1669464056.002
2062138.0,1669464056.043
2063130.0,1669464056.081
2062446.0,1669464056.122
2061352.0,1669464056.163
2060244.0,1669464056.203
2059671.0,1669464056.242
2059402.0,1669464056.284
2059241.0,1669464056.321
2059589.0,1669464056.361
2060180.0,1669464056.403
2060971.0,1669464056.433
2060971.0,1669464056.473
2061948.0,1669464056.514
2062925.0,1669464056.553
2063618.0,1669464056.594
2064518.0,1669464056.634
2065518.0,1669464056.673
2066619.0,1669464056.713
2067929.0,1669464056.755
2068999.0,1669464056.794
2070560.0,1669464056.834
2071920.0,1669464056.875
2072918.0,1669464056.914
2074294.0,1669464056.954
2076259.0,1669464056.996
2077543.0,1669464057.034
2077290.0,1669464057.074
2075273.0,1669464057.115
2073674.0,1669464057.151
2072276.0,1669464057.185
2070690.0,1669464057.227
2069803.0,1669464057.263
2069287.0,1669464057.3
2068655.0,1669464057.342
2068392.0,1669464057.382
2067802.0,1669464057.421
2067237.0,1669464057.462
2067137.0,1669464057.502
2067059.0,1669464057.542
2066731.0,1669464057.584
2066909.0,1669464057.622
2067311.0,1669464057.657
2067603.0,1669464057.698
2067978.0,1669464057.737
2068327.0,1669464057.778
2068958.0,1669464057.818
2069768.0,1669464057.857
2070437.0,1669464057.897
2070893.0,1669464057.938
2070462.0,1669464057.978
2069029.0,1669464058.018
2066628.0,1669464058.059
2065256.0,1669464058.098
2063737.0,1669464058.138
2062271.0,1669464058.18
2061418.0,1669464058.218
2060950.0,1669464058.258
2060325.0,1669464058.299
2059896.0,1669464058.338
2059581.0,1669464058.373
2058882.0,1669464058.414
2059030.0,1669464058.447
2058994.0,1669464058.484
2059589.0,1669464058.523
2060339.0,1669464058.563
2060700.0,1669464058.602
2061311.0,1669464058.644
2062080.0,1669464058.683
2062707.0,1669464058.723
2063853.0,1669464058.765
2064369.0,1669464058.803
2065486.0,1669464058.843
2066054.0,1669464058.884
2064692.0,1669464058.923
2062895.0,1669464058.964
2061221.0,1669464059.004
2060097.0,1669464059.043
2058947.0,1669464059.083
2058568.0,1669464059.124
2058184.0,1669464059.164
2057879.0,1669464059.204
2057719.0,1669464059.245
2057268.0,1669464059.284
2056959.0,1669464059.324
2057167.0,1669464059.366
2057379.0,1669464059.404
2057605.0,1669464059.444
2058350.0,1669464059.485
2059231.0,1669464059.521
2059498.0,1669464059.562
2059823.0,1669464059.602
2060541.0,1669464059.642
2061805.0,1669464059.682
2062835.0,1669464059.724
2064166.0,1669464059.763
2065036.0,1669464059.803
2064292.0,1669464059.844
2062408.0,1669464059.883
2061266.0,1669464059.924
2060204.0,1669464059.966
2059589.0,1669464060.003
2059589.0,1669464060.035
2059061.0,1669464060.077
2059035.0,1669464060.116
2058665.0,1669464060.157
2058589.0,1669464060.197
2058346.0,1669464060.236
2057866.0,1669464060.276
2057708.0,1669464060.317
2057489.0,1669464060.357
2057811.0,1669464060.396
2058162.0,1669464060.438
2058335.0,1669464060.477
2058564.0,1669464060.517
2059142.0,1669464060.559
2060037.0,1669464060.597
2060330.0,1669464060.637
2061432.0,1669464060.678
2062319.0,1669464060.711
2063228.0,1669464060.745
2064324.0,1669464060.785
2063521.0,1669464060.822
2061565.0,1669464060.863
2059320.0,1669464060.904
2058019.0,1669464060.944
2056715.0,1669464060.983
2055345.0,1669464061.025
2054619.0,1669464061.064
2053976.0,1669464061.102
2054014.0,1669464061.144
2053302.0,1669464061.183
2053175.0,1669464061.224
2052851.0,1669464061.262
2052532.0,1669464061.301
2053283.0,1669464061.342
2053641.0,1669464061.382
2053908.0,1669464061.421
2055062.0,1669464061.462
2055866.0,1669464061.503
2056976.0,1669464061.542
2058022.0,1669464061.582
2058710.0,1669464061.623
2060099.0,1669464061.662
2061258.0,1669464061.702
2062508.0,1669464061.744
2061509.0,1669464061.782
2059932.0,1669464061.822
2058446.0,1669464061.863
2057066.0,1669464061.902
2056348.0,1669464061.943
2055790.0,1669464061.984
2055688.0,1669464062.022
2055875.0,1669464062.062
2055983.0,1669464062.104
2056075.0,1669464062.143
2056260.0,1669464062.183
2056784.0,1669464062.224
2057393.0,1669464062.263
2057968.0,1669464062.303
2059105.0,1669464062.345
2059977.0,1669464062.384
2060907.0,1669464062.424
2061989.0,1669464062.463
2063184.0,1669464062.493
2064223.0,1669464062.534
2065615.0,1669464062.574
2066754.0,1669464062.613
2068338.0,1669464062.653
2068234.0,1669464062.694
2066968.0,1669464062.734
2065379.0,1669464062.774
2064143.0,1669464062.815
2063372.0,1669464062.854
2062406.0,1669464062.894
2062332.0,1669464062.936
2061912.0,1669464062.974
2061914.0,1669464063.014
2062023.0,1669464063.055
2061892.0,1669464063.094
2061655.0,1669464063.135
2062121.0,1669464063.177
2062395.0,1669464063.209
2062572.0,1669464063.25
2062989.0,1669464063.287
2063625.0,1669464063.325
2064529.0,1669464063.364
2065247.0,1669464063.406
2066327.0,1669464063.445
2067398.0,1669464063.485
2067932.0,1669464063.527
2069472.0,1669464063.565
2070466.0,1669464063.606
2070566.0,1669464063.647
2068980.0,1669464063.683
2068980.0,1669464063.719
2067231.0,1669464063.759
2065909.0,1669464063.798
2064436.0,1669464063.839
2063557.0,1669464063.88
2062851.0,1669464063.92
2062368.0,1669464063.959
2062130.0,1669464064.0
2062127.0,1669464064.039
2061833.0,1669464064.079
2061593.0,1669464064.121
2061478.0,1669464064.16
2061695.0,1669464064.2
2061679.0,1669464064.241
2062132.0,1669464064.28
2062442.0,1669464064.321
2062994.0,1669464064.361
2063310.0,1669464064.393
2064384.0,1669464064.434
2065263.0,1669464064.467
2066249.0,1669464064.506
2067438.0,1669464064.544
2068243.0,1669464064.588
2069003.0,1669464064.627
2068317.0,1669464064.667
2066477.0,1669464064.709
2064942.0,1669464064.747
2063724.0,1669464064.787
2062662.0,1669464064.828
2061861.0,1669464064.867
2061031.0,1669464064.908
2060682.0,1669464064.949
2060242.0,1669464064.988
2059765.0,1669464065.028
2059195.0,1669464065.069
2059047.0,1669464065.108
2059151.0,1669464065.148
2059099.0,1669464065.189
2059390.0,1669464065.228
2059816.0,1669464065.268
2060096.0,1669464065.31
2060431.0,1669464065.348
2061160.0,1669464065.388
2061665.0,1669464065.429
2062278.0,1669464065.468
2063271.0,1669464065.509
2064054.0,1669464065.549
2063817.0,1669464065.588
2061701.0,1669464065.629
2059242.0,1669464065.67
2057496.0,1669464065.709
2055785.0,1669464065.749
2054685.0,1669464065.79
2054315.0,1669464065.829
2054063.0,1669464065.869
2053617.0,1669464065.911
2052708.0,1669464065.949
2052076.0,1669464065.989
2052234.0,1669464066.03
2051637.0,1669464066.069
2051731.0,1669464066.11
2051527.0,1669464066.15
2051782.0,1669464066.189
2051542.0,1669464066.23
2051263.0,1669464066.271
2050650.0,1669464066.31
2050712.0,1669464066.35
2050798.0,1669464066.391
2051652.0,1669464066.43
2052028.0,1669464066.47
2052607.0,1669464066.512
2051684.0,1669464066.55
2049247.0,1669464066.59
2046856.0,1669464066.631
2044196.0,1669464066.67
2041876.0,1669464066.711
2040025.0,1669464066.751
2038756.0,1669464066.79
2037770.0,1669464066.831
2036993.0,1669464066.872
2036180.0,1669464066.911
2035310.0,1669464066.951
2034641.0,1669464066.992
2034101.0,1669464067.031
2033715.0,1669464067.071
2033708.0,1669464067.113
2033503.0,1669464067.151
2033455.0,1669464067.191
2033740.0,1669464067.232
2033893.0,1669464067.271
2034508.0,1669464067.353
2033928.0,1669464067.312
2035453.0,1669464067.432
2034782.0,1669464067.392
2036165.0,1669464067.473
2036620.0,1669464067.513
2035829.0,1669464067.552
2033935.0,1669464067.593
2031276.0,1669464067.632
2029459.0,1669464067.672
2027180.0,1669464067.714
2025622.0,1669464067.752
2024380.0,1669464067.792
2023672.0,1669464067.834
2022995.0,1669464067.873
2022403.0,1669464067.913
2021408.0,1669464067.954
2020789.0,1669464067.993
2020542.0,1669464068.033
2020522.0,1669464068.074
2020351.0,1669464068.114
2020828.0,1669464068.153
2021676.0,1669464068.194
2022028.0,1669464068.233
2022385.0,1669464068.273
2023055.0,1669464068.315
2024124.0,1669464068.354
2024688.0,1669464068.394
2025669.0,1669464068.435
2026755.0,1669464068.474
2027091.0,1669464068.515
2026400.0,1669464068.555
2024450.0,1669464068.594
2022565.0,1669464068.634
2021057.0,1669464068.675
2019998.0,1669464068.715
2019462.0,1669464068.755
2019121.0,1669464068.796
2019147.0,1669464068.835
2018837.0,1669464068.875
2018733.0,1669464068.917
2018969.0,1669464068.955
2019425.0,1669464068.995
2019578.0,1669464069.036
2020209.0,1669464069.075
2021347.0,1669464069.116
2022931.0,1669464069.157
2024297.0,1669464069.188
2025687.0,1669464069.229
2027109.0,1669464069.27
2028483.0,1669464069.31
2030354.0,1669464069.349
2031858.0,1669464069.39
2033704.0,1669464069.429
2036081.0,1669464069.469
2036792.0,1669464069.511
2036005.0,1669464069.55
2034682.0,1669464069.59
2033411.0,1669464069.632
2032733.0,1669464069.67
2031958.0,1669464069.709
2031774.0,1669464069.741
2031533.0,1669464069.78
2032040.0,1669464069.82
2032542.0,1669464069.861
2032296.0,1669464069.901
2032274.0,1669464069.94
2032690.0,1669464069.981
2033235.0,1669464070.02
2033912.0,1669464070.061
2034454.0,1669464070.102
2035385.0,1669464070.141
2036684.0,1669464070.181
2037516.0,1669464070.222
2038236.0,1669464070.261
2039451.0,1669464070.302
2040618.0,1669464070.342
2042013.0,1669464070.381
2042920.0,1669464070.422
2044406.0,1669464070.457
2045151.0,1669464070.493
2043507.0,1669464070.53
2041414.0,1669464070.572
2039671.0,1669464070.611
2038566.0,1669464070.651
2037510.0,1669464070.693
2036633.0,1669464070.731
2036531.0,1669464070.771
2036399.0,1669464070.812
2036320.0,1669464070.851
2035688.0,1669464070.892
2035692.0,1669464070.932
2035564.0,1669464070.972
2035649.0,1669464071.012
2035757.0,1669464071.053
2036115.0,1669464071.092
2036471.0,1669464071.132
2037048.0,1669464071.173
2038006.0,1669464071.212
2038767.0,1669464071.252
2039694.0,1669464071.294
2040518.0,1669464071.332
2041798.0,1669464071.372
2042853.0,1669464071.414
2043938.0,1669464071.453
2044216.0,1669464071.494
2042745.0,1669464071.535
2040880.0,1669464071.572
2039367.0,1669464071.611
2038183.0,1669464071.652
2037768.0,1669464071.692
2037282.0,1669464071.731
2037078.0,1669464071.773
2036768.0,1669464071.812
2036624.0,1669464071.852
2035857.0,1669464071.893
2035283.0,1669464071.932
2035091.0,1669464071.972
2035167.0,1669464072.013
2034726.0,1669464072.052
2035412.0,1669464072.093
2035770.0,1669464072.133
2036628.0,1669464072.172
2037033.0,1669464072.212
2038026.0,1669464072.253
2039209.0,1669464072.293
2040210.0,1669464072.332
2041358.0,1669464072.374
2042774.0,1669464072.413
2043127.0,1669464072.453
2041487.0,1669464072.495
2039438.0,1669464072.533
2037717.0,1669464072.573
2036759.0,1669464072.613
2036061.0,1669464072.651
2035426.0,1669464072.692
2035593.0,1669464072.733
2035799.0,1669464072.772
2035925.0,1669464072.813
2035605.0,1669464072.854
2035436.0,1669464072.894
2035699.0,1669464072.931
2035810.0,1669464072.973
2036108.0,1669464073.012
2036162.0,1669464073.052
2036755.0,1669464073.094
2036993.0,1669464073.13
2037873.0,1669464073.17
2038091.0,1669464073.211
2038738.0,1669464073.25
2039189.0,1669464073.291
2040093.0,1669464073.331
2041058.0,1669464073.37
2042215.0,1669464073.41
2041774.0,1669464073.451
2039602.0,1669464073.491
2037107.0,1669464073.53
2034493.0,1669464073.571
2032461.0,1669464073.61
2030793.0,1669464073.651
2029279.0,1669464073.692
2028730.0,1669464073.731
2027686.0,1669464073.771
2026717.0,1669464073.812
2026090.0,1669464073.852
2025698.0,1669464073.893
2024976.0,1669464073.934
2024608.0,1669464073.972
2024561.0,1669464074.013
2024546.0,1669464074.054
2024983.0,1669464074.094
2024924.0,1669464074.133
2025095.0,1669464074.174
2025508.0,1669464074.213
2026125.0,1669464074.253
2026966.0,1669464074.295
2027470.0,1669464074.333
2028186.0,1669464074.373
2029157.0,1669464074.415
2029858.0,1669464074.454
2028778.0,1669464074.494
2026407.0,1669464074.535
2024473.0,1669464074.574
2023187.0,1669464074.614
2022429.0,1669464074.655
2021433.0,1669464074.695
2021100.0,1669464074.734
2020823.0,1669464074.775
2020064.0,1669464074.814
2019878.0,1669464074.854
2019312.0,1669464074.896
2018843.0,1669464074.934
2018864.0,1669464074.974
2019347.0,1669464075.013
2019878.0,1669464075.052
2020883.0,1669464075.093
2021623.0,1669464075.134
2022306.0,1669464075.173
2023426.0,1669464075.213
2024545.0,1669464075.255
2025474.0,1669464075.294
2026322.0,1669464075.334
2027454.0,1669464075.374
2028710.0,1669464075.411
2027858.0,1669464075.451
2025780.0,1669464075.493
2023628.0,1669464075.531
2022213.0,1669464075.571
2021427.0,1669464075.613
2020652.0,1669464075.652
2020156.0,1669464075.692
2019888.0,1669464075.733
2019720.0,1669464075.772
2019635.0,1669464075.812
2019234.0,1669464075.853
2019296.0,1669464075.893
2019518.0,1669464075.932
2019668.0,1669464075.973
2020250.0,1669464076.012
2020924.0,1669464076.052
2021664.0,1669464076.095
2022535.0,1669464076.133
2023413.0,1669464076.173
2024283.0,1669464076.215
2025164.0,1669464076.254
2026379.0,1669464076.295
2027768.0,1669464076.336
2029285.0,1669464076.373
2029759.0,1669464076.413
2028693.0,1669464076.455
2026753.0,1669464076.494
2025251.0,1669464076.534
2023983.0,1669464076.578
2023041.0,1669464076.617
2022468.0,1669464076.657
2022373.0,1669464076.699
2022042.0,1669464076.738
2021808.0,1669464076.778
2021781.0,1669464076.819
2021630.0,1669464076.858
2021794.0,1669464076.899
2021733.0,1669464076.939
2022398.0,1669464076.978
2023284.0,1669464077.018
2024146.0,1669464077.059
2024728.0,1669464077.099
2025471.0,1669464077.138
2026719.0,1669464077.18
2027408.0,1669464077.219
2028482.0,1669464077.259
2029681.0,1669464077.301
2030814.0,1669464077.339
2032138.0,1669464077.379
2033657.0,1669464077.42
2033406.0,1669464077.459
2032530.0,1669464077.5
2031419.0,1669464077.54
2030717.0,1669464077.579
2029967.0,1669464077.619
2029485.0,1669464077.661
2029315.0,1669464077.7
2029221.0,1669464077.74
2029618.0,1669464077.781
2029882.0,1669464077.82
2030272.0,1669464077.86
2030210.0,1669464077.902
2031091.0,1669464077.94
2031929.0,1669464077.98
2032677.0,1669464078.021
2033516.0,1669464078.06
2034688.0,1669464078.101
2035943.0,1669464078.141
2037341.0,1669464078.18
2038509.0,1669464078.221
2039762.0,1669464078.262
2041302.0,1669464078.301
2043004.0,1669464078.341
2044611.0,1669464078.382
2044740.0,1669464078.421
2043470.0,1669464078.461
2041939.0,1669464078.504
2041508.0,1669464078.54
2040995.0,1669464078.58
2040962.0,1669464078.622
2041045.0,1669464078.66
2041162.0,1669464078.701
2041446.0,1669464078.743
2041838.0,1669464078.781
2042086.0,1669464078.822
2042052.0,1669464078.863
2042566.0,1669464078.901
2043257.0,1669464078.94
2044188.0,1669464078.975
2044188.0,1669464079.014
2044979.0,1669464079.054
2045840.0,1669464079.096
2046740.0,1669464079.134
2048485.0,1669464079.215
2047759.0,1669464079.174
2052230.0,1669464079.336
2053228.0,1669464079.375
2049852.0,1669464079.254
2050953.0,1669464079.295
2053615.0,1669464079.415
2050564.0,1669464079.496
2052473.0,1669464079.456
2047789.0,1669464079.576
2046564.0,1669464079.615
2045821.0,1669464079.656
2049012.0,1669464079.535
2045361.0,1669464079.696
2044887.0,1669464079.728
2045008.0,1669464079.762
2044680.0,1669464079.803
2044203.0,1669464079.881
2044495.0,1669464079.921
2044242.0,1669464079.84
2044622.0,1669464079.96
2045292.0,1669464080.0
2046092.0,1669464080.081
2045475.0,1669464080.041
2046695.0,1669464080.121
2047429.0,1669464080.162
2048191.0,1669464080.2
2049257.0,1669464080.24
2049841.0,1669464080.281
2051005.0,1669464080.32
2051862.0,1669464080.36
2052230.0,1669464080.401
2050683.0,1669464080.44
2047958.0,1669464080.481
2046048.0,1669464080.521
2044383.0,1669464080.56
2043193.0,1669464080.6
2042081.0,1669464080.641
2041361.0,1669464080.681
2040747.0,1669464080.72
2040292.0,1669464080.762
2039529.0,1669464080.801
2038680.0,1669464080.841
2038289.0,1669464080.883
2037908.0,1669464080.921
2038065.0,1669464080.961
2038350.0,1669464081.003
2038478.0,1669464081.041
2038532.0,1669464081.082
2038909.0,1669464081.123
2039740.0,1669464081.162
2040346.0,1669464081.202
2040576.0,1669464081.243
2041776.0,1669464081.282
2042820.0,1669464081.322
2043498.0,1669464081.363
2043736.0,1669464081.4
2041637.0,1669464081.438
2038840.0,1669464081.48
2036856.0,1669464081.519
2035694.0,1669464081.559
2033669.0,1669464081.6
2032621.0,1669464081.639
2032707.0,1669464081.68
2032232.0,1669464081.72
2032019.0,1669464081.759
2031802.0,1669464081.799
2031278.0,1669464081.84
2031205.0,1669464081.88
2031095.0,1669464081.92
2031416.0,1669464081.961
2031935.0,1669464082.0
2032638.0,1669464082.04
2033032.0,1669464082.081
2033639.0,1669464082.12
2034474.0,1669464082.161
2034986.0,1669464082.202
2035713.0,1669464082.241
2036715.0,1669464082.281
2037123.0,1669464082.322
2037003.0,1669464082.361
2035015.0,1669464082.401
2031791.0,1669464082.442
2029280.0,1669464082.482
2027851.0,1669464082.521
2026170.0,1669464082.562
2024637.0,1669464082.601
2023872.0,1669464082.642
2022998.0,1669464082.674
2022194.0,1669464082.712
2021071.0,1669464082.752
2019806.0,1669464082.793
2019142.0,1669464082.833
2019055.0,1669464082.873
2019007.0,1669464082.914
2018779.0,1669464082.953
2019198.0,1669464082.993
2019605.0,1669464083.034
2019418.0,1669464083.074
2019881.0,1669464083.113
2020340.0,1669464083.154
2020615.0,1669464083.193
2021379.0,1669464083.234
2021886.0,1669464083.276
2022381.0,1669464083.314
2021940.0,1669464083.354
2018217.0,1669464083.389
2014240.0,1669464083.424
2010832.0,1669464083.463
2007587.0,1669464083.504
2004720.0,1669464083.543
2002594.0,1669464083.583
2000898.0,1669464083.624
1999461.0,1669464083.664
1998539.0,1669464083.704
1996954.0,1669464083.745
1995509.0,1669464083.784
1995157.0,1669464083.822
1994634.0,1669464083.866
1994007.0,1669464083.902
1993933.0,1669464083.942
1993951.0,1669464083.983
1994053.0,1669464084.022
1994506.0,1669464084.063
1994817.0,1669464084.103
1994729.0,1669464084.142
1995597.0,1669464084.182
1996415.0,1669464084.223
1997151.0,1669464084.263
1997913.0,1669464084.302
1998701.0,1669464084.344
1997534.0,1669464084.383
1995045.0,1669464084.423
1992167.0,1669464084.465
1989635.0,1669464084.503
1987544.0,1669464084.543
1985963.0,1669464084.585
1984486.0,1669464084.624
1983492.0,1669464084.665
1982601.0,1669464084.706
1981776.0,1669464084.743
1980391.0,1669464084.783
1979813.0,1669464084.825
1979487.0,1669464084.864
1979184.0,1669464084.904
1979208.0,1669464084.945
1979187.0,1669464084.984
1979481.0,1669464085.024
1979628.0,1669464085.066
1979636.0,1669464085.104
1979779.0,1669464085.144
1980310.0,1669464085.185
1981086.0,1669464085.224
1981817.0,1669464085.265
1982487.0,1669464085.305
1982113.0,1669464085.344
1979108.0,1669464085.385
1975895.0,1669464085.426
1973114.0,1669464085.465
1971428.0,1669464085.505
1969698.0,1669464085.546
1969070.0,1669464085.585
1968302.0,1669464085.625
1967824.0,1669464085.667
1966932.0,1669464085.705
1966451.0,1669464085.745
1966310.0,1669464085.786
1965911.0,1669464085.826
1965762.0,1669464085.867
1966285.0,1669464085.907
1966877.0,1669464085.943
1967777.0,1669464085.983
1968551.0,1669464086.025
1969467.0,1669464086.065
1970473.0,1669464086.104
1971525.0,1669464086.146
1973112.0,1669464086.185
1974027.0,1669464086.225
1975223.0,1669464086.267
1976804.0,1669464086.303
1976091.0,1669464086.338
1976091.0,1669464086.38
1973387.0,1669464086.419
1970312.0,1669464086.459
1968463.0,1669464086.5
1966482.0,1669464086.539
1964685.0,1669464086.579
1963912.0,1669464086.62
1962950.0,1669464086.66
1962318.0,1669464086.699
1961540.0,1669464086.74
1961362.0,1669464086.779
1960898.0,1669464086.82
1961003.0,1669464086.861
1960864.0,1669464086.9
1961606.0,1669464086.94
1962174.0,1669464086.981
1962724.0,1669464087.02
1963514.0,1669464087.061
1964373.0,1669464087.103
1965813.0,1669464087.141
1966942.0,1669464087.182
1969123.0,1669464087.224
1970781.0,1669464087.263
1972841.0,1669464087.303
1974371.0,1669464087.345
1976049.0,1669464087.384
1976109.0,1669464087.424
1974095.0,1669464087.466
1972701.0,1669464087.504
1972102.0,1669464087.545
1971883.0,1669464087.577
1971787.0,1669464087.616
1972283.0,1669464087.657
1973459.0,1669464087.697
1973938.0,1669464087.737
1974529.0,1669464087.777
1975250.0,1669464087.818
1976581.0,1669464087.858
1977814.0,1669464087.897
1979826.0,1669464087.938
1982455.0,1669464087.977
1984362.0,1669464088.017
1986013.0,1669464088.059
1987746.0,1669464088.097
1989901.0,1669464088.138
1991970.0,1669464088.179
1994260.0,1669464088.218
1996447.0,1669464088.258
1998077.0,1669464088.295
2000320.0,1669464088.334
2002308.0,1669464088.369
2003075.0,1669464088.407
2002630.0,1669464088.444
2001855.0,1669464088.484
2001315.0,1669464088.51
2001559.0,1669464088.549
2001890.0,1669464088.589
2002187.0,1669464088.631
2002780.0,1669464088.669
2003539.0,1669464088.709
2003952.0,1669464088.751
2004750.0,1669464088.79
2005734.0,1669464088.83
2007181.0,1669464088.871
2008315.0,1669464088.91
2009997.0,1669464088.95
2011725.0,1669464088.991
2013057.0,1669464089.031
2014958.0,1669464089.07
2016814.0,1669464089.111
2018269.0,1669464089.15
2020122.0,1669464089.19
2022292.0,1669464089.232
2024370.0,1669464089.27
2026287.0,1669464089.31
2027361.0,1669464089.351
2026275.0,1669464089.39
2025689.0,1669464089.432
2024918.0,1669464089.472
2024810.0,1669464089.511
2025008.0,1669464089.551
2024948.0,1669464089.592
2025976.0,1669464089.632
2026510.0,1669464089.671
2026983.0,1669464089.713
2027900.0,1669464089.753
2028380.0,1669464089.792
2029208.0,1669464089.834
2030209.0,1669464089.873
2031443.0,1669464089.913
2032612.0,1669464089.952
2033851.0,1669464089.991
2035113.0,1669464090.032
2036379.0,1669464090.072
2038113.0,1669464090.111
2039826.0,1669464090.151
2041214.0,1669464090.192
2043285.0,1669464090.232
2044792.0,1669464090.271
2046351.0,1669464090.312
2047130.0,1669464090.351
2046002.0,1669464090.392
2043846.0,1669464090.433
2042231.0,1669464090.472
2041240.0,1669464090.512
2040361.0,1669464090.553
2039666.0,1669464090.592
2039584.0,1669464090.633
2039669.0,1669464090.673
2039840.0,1669464090.712
2040027.0,1669464090.753
2040326.0,1669464090.794
2040586.0,1669464090.834
2041004.0,1669464090.873
2041377.0,1669464090.915
2041764.0,1669464090.952
2042383.0,1669464090.992
2043017.0,1669464091.034
2043653.0,1669464091.072
2044417.0,1669464091.113
2045280.0,1669464091.154
2046594.0,1669464091.192
2047191.0,1669464091.233
2048513.0,1669464091.266
2049260.0,1669464091.305
2050449.0,1669464091.345
2050862.0,1669464091.386
2048982.0,1669464091.426
2046909.0,1669464091.465
2045549.0,1669464091.506
2044578.0,1669464091.545
2043462.0,1669464091.586
2042502.0,1669464091.627
2041736.0,1669464091.666
2041390.0,1669464091.706
2040916.0,1669464091.747
2039960.0,1669464091.786
2039423.0,1669464091.827
2039147.0,1669464091.867
2038934.0,1669464091.906
2039247.0,1669464091.947
2039616.0,1669464091.983
2040253.0,1669464092.023
2040546.0,1669464092.053
2041261.0,1669464092.095
2041966.0,1669464092.134
2042916.0,1669464092.174
2043678.0,1669464092.216
2044975.0,1669464092.255
2045852.0,1669464092.295
2047425.0,1669464092.336
2047685.0,1669464092.373
2046196.0,1669464092.414
2044117.0,1669464092.454
2044117.0,1669464092.491
2042667.0,1669464092.531
2041505.0,1669464092.572
2040725.0,1669464092.612
2039851.0,1669464092.651
2039351.0,1669464092.692
2039282.0,1669464092.731
2038775.0,1669464092.771
2038226.0,1669464092.813
2038555.0,1669464092.852
2038430.0,1669464092.892
2038355.0,1669464092.933
2038580.0,1669464092.972
2038459.0,1669464093.012
2039141.0,1669464093.053
2039663.0,1669464093.092
2040409.0,1669464093.132
2041639.0,1669464093.174
2042532.0,1669464093.214
2043549.0,1669464093.253
2044974.0,1669464093.295
2046081.0,1669464093.334
2047169.0,1669464093.374
2048365.0,1669464093.416
2047902.0,1669464093.455
2046133.0,1669464093.495
2043945.0,1669464093.536
2042290.0,1669464093.575
2041025.0,1669464093.616
2040117.0,1669464093.657
2039205.0,1669464093.693
2038941.0,1669464093.728
2038757.0,1669464093.769
2038462.0,1669464093.809
2038027.0,1669464093.849
2038146.0,1669464093.89
2037741.0,1669464093.929
2038286.0,1669464093.969
2038621.0,1669464094.011
2039192.0,1669464094.049
2039914.0,1669464094.089
2040488.0,1669464094.13
2040870.0,1669464094.169
2041827.0,1669464094.21
2042655.0,1669464094.251
2043427.0,1669464094.29
2044677.0,1669464094.33
2045843.0,1669464094.371
2046899.0,1669464094.408
2048087.0,1669464094.448
2048360.0,1669464094.485
2046598.0,1669464094.524
2044821.0,1669464094.557
2043339.0,1669464094.598
2042628.0,1669464094.635
2041297.0,1669464094.675
2040680.0,1669464094.716
2040322.0,1669464094.756
2040191.0,1669464094.794
2039608.0,1669464094.835
2039409.0,1669464094.874
2039067.0,1669464094.914
2038788.0,1669464094.955
2038668.0,1669464094.995
2038894.0,1669464095.035
2039452.0,1669464095.076
2039861.0,1669464095.115
2040642.0,1669464095.155
2040986.0,1669464095.197
2041436.0,1669464095.235
2042404.0,1669464095.275
2043124.0,1669464095.316
2043975.0,1669464095.355
2044908.0,1669464095.396
2045934.0,1669464095.436
2047001.0,1669464095.475
2046248.0,1669464095.515
2044049.0,1669464095.557
2041982.0,1669464095.596
2040347.0,1669464095.636
2039284.0,1669464095.677
2038604.0,1669464095.716
2038097.0,1669464095.756
2038096.0,1669464095.798
2037753.0,1669464095.836
2036999.0,1669464095.876
2036700.0,1669464095.917
2036490.0,1669464095.956
2036366.0,1669464095.997
2036171.0,1669464096.035
2036591.0,1669464096.074
2037126.0,1669464096.114
2037389.0,1669464096.155
2037902.0,1669464096.19
2038557.0,1669464096.23
2039652.0,1669464096.271
2039991.0,1669464096.31
2041016.0,1669464096.35
2041793.0,1669464096.392
2042901.0,1669464096.43
2043686.0,1669464096.471
2044254.0,1669464096.512
2042709.0,1669464096.551
2040472.0,1669464096.592
2038769.0,1669464096.632
2036812.0,1669464096.671
2035640.0,1669464096.711
2034199.0,1669464096.752
2033255.0,1669464096.792
2032965.0,1669464096.831
2032254.0,1669464096.873
2031270.0,1669464096.913
2030928.0,1669464096.953
2030389.0,1669464096.995
2030070.0,1669464097.034
2029562.0,1669464097.074
2029920.0,1669464097.116
2029771.0,1669464097.154
2029797.0,1669464097.196
2030249.0,1669464097.236
2030632.0,1669464097.275
2030725.0,1669464097.315
2031414.0,1669464097.356
2031650.0,1669464097.386
2032561.0,1669464097.426
2033143.0,1669464097.467
2033901.0,1669464097.506
2034670.0,1669464097.546
2034207.0,1669464097.588
2032067.0,1669464097.626
2029299.0,1669464097.666
2027246.0,1669464097.707
2025432.0,1669464097.746
2023638.0,1669464097.787
2022719.0,1669464097.828
2021717.0,1669464097.867
2021108.0,1669464097.907
2019975.0,1669464097.948
2019351.0,1669464097.988
2018775.0,1669464098.027
2018250.0,1669464098.068
2018165.0,1669464098.108
2017763.0,1669464098.141
2017809.0,1669464098.184
2018070.0,1669464098.218
2018402.0,1669464098.256
2018569.0,1669464098.298
2018895.0,1669464098.336
2019598.0,1669464098.377
2020579.0,1669464098.42
2021287.0,1669464098.459
2021823.0,1669464098.499
2022822.0,1669464098.54
2023417.0,1669464098.58
2024291.0,1669464098.619
2023217.0,1669464098.66
2020999.0,1669464098.699
2018508.0,1669464098.739
2017173.0,1669464098.781
2015747.0,1669464098.819
2015245.0,1669464098.859
2014645.0,1669464098.901
2014649.0,1669464098.94
2013964.0,1669464098.98
2013555.0,1669464099.021
2013472.0,1669464099.06
2013562.0,1669464099.1
2013548.0,1669464099.14
2014125.0,1669464099.177
2014776.0,1669464099.217
2014859.0,1669464099.258
2015580.0,1669464099.297
2016185.0,1669464099.337
2017197.0,1669464099.38
2017798.0,1669464099.418
2018696.0,1669464099.458
2019941.0,1669464099.5
2021461.0,1669464099.537
2022429.0,1669464099.577
2023584.0,1669464099.619
2023924.0,1669464099.657
2021769.0,1669464099.698
2019083.0,1669464099.738
2019083.0,1669464099.775
2016901.0,1669464099.814
2015010.0,1669464099.855
2013123.0,1669464099.895
2011929.0,1669464099.935
2011197.0,1669464099.976
2010429.0,1669464100.015
2009459.0,1669464100.055
2008774.0,1669464100.096
2007953.0,1669464100.135
2007918.0,1669464100.176
2007588.0,1669464100.216
2008031.0,1669464100.255
2007789.0,1669464100.295
2008317.0,1669464100.336
2008571.0,1669464100.376
2008809.0,1669464100.415
2009230.0,1669464100.466
2009694.0,1669464100.505
2010487.0,1669464100.545
2010580.0,1669464100.587
2012086.0,1669464100.665
2011325.0,1669464100.625
2012303.0,1669464100.706
2012816.0,1669464100.745
2011009.0,1669464100.786
2007823.0,1669464100.827
2004426.0,1669464100.866
2002136.0,1669464100.906
2000015.0,1669464100.938
1998027.0,1669464100.969
1996884.0,1669464101.002
1995938.0,1669464101.043
1994797.0,1669464101.082
1993536.0,1669464101.122
1992587.0,1669464101.164
1991487.0,1669464101.202
1991150.0,1669464101.243
1990455.0,1669464101.284
1990148.0,1669464101.323
1990033.0,1669464101.363
1990114.0,1669464101.443
1990050.0,1669464101.404
1990406.0,1669464101.483
1990577.0,1669464101.524
1990932.0,1669464101.564
1991431.0,1669464101.603
1992085.0,1669464101.645
1992526.0,1669464101.684
1993364.0,1669464101.725
1994544.0,1669464101.763
1994459.0,1669464101.802
1992824.0,1669464101.835
1987507.0,1669464101.91
1989649.0,1669464101.873
1985357.0,1669464101.951
1983863.0,1669464101.992
1982769.0,1669464102.03
1981785.0,1669464102.071
1980918.0,1669464102.112
1980097.0,1669464102.152
1979167.0,1669464102.192
1978227.0,1669464102.233
1977770.0,1669464102.272
1977462.0,1669464102.313
1977585.0,1669464102.354
1977883.0,1669464102.393
1978065.0,1669464102.433
1978662.0,1669464102.474
1978928.0,1669464102.513
1979741.0,1669464102.554
1980176.0,1669464102.594
1981995.0,1669464102.673
1980990.0,1669464102.633
1983905.0,1669464102.754
1985271.0,1669464102.794
1985394.0,1669464102.835
1983675.0,1669464102.874
1980948.0,1669464102.914
1978213.0,1669464102.952
1982935.0,1669464102.715
1976180.0,1669464102.992
1973505.0,1669464103.07
1972958.0,1669464103.11
1972373.0,1669464103.151
1971720.0,1669464103.192
1974701.0,1669464103.029
1971014.0,1669464103.271
1970475.0,1669464103.312
1970219.0,1669464103.386
1970639.0,1669464103.427
1970219.0,1669464103.346
1971261.0,1669464103.231
1970837.0,1669464103.466
1971336.0,1669464103.506
1972159.0,1669464103.548
1972615.0,1669464103.586
1973337.0,1669464103.626
1974405.0,1669464103.668
1975015.0,1669464103.707
1977175.0,1669464103.788
1978353.0,1669464103.827
1976218.0,1669464103.748
1979674.0,1669464103.867
1980734.0,1669464103.908
1981367.0,1669464103.948
1980347.0,1669464103.987
1977506.0,1669464104.029
1975099.0,1669464104.068
1973109.0,1669464104.109
1971617.0,1669464104.151
1970164.0,1669464104.19
1969253.0,1669464104.23
1968723.0,1669464104.272
1968224.0,1669464104.311
1967602.0,1669464104.351
1967047.0,1669464104.393
1966693.0,1669464104.431
1966298.0,1669464104.471
1966641.0,1669464104.513
1966939.0,1669464104.552
1967453.0,1669464104.587
1968042.0,1669464104.628
1968751.0,1669464104.667
1969265.0,1669464104.707
1970756.0,1669464104.749
1971343.0,1669464104.787
1971942.0,1669464104.827
1973219.0,1669464104.869
1974726.0,1669464104.908
1975245.0,1669464104.948
1976433.0,1669464104.989
1977772.0,1669464105.028
1977941.0,1669464105.068
1975921.0,1669464105.109
1973573.0,1669464105.149
1971624.0,1669464105.188
1970338.0,1669464105.229
1969252.0,1669464105.269
1968326.0,1669464105.309
1967842.0,1669464105.352
1967827.0,1669464105.39
1967166.0,1669464105.43
1966720.0,1669464105.472
1966310.0,1669464105.511
1966312.0,1669464105.551
1966351.0,1669464105.592
1966813.0,1669464105.631
1967517.0,1669464105.671
1967988.0,1669464105.713
1968775.0,1669464105.752
1969696.0,1669464105.791
1970710.0,1669464105.827
1971779.0,1669464105.867
1972935.0,1669464105.907
1974600.0,1669464105.949
1975638.0,1669464105.987
1977470.0,1669464106.027
1978872.0,1669464106.068
1979109.0,1669464106.107
1977375.0,1669464106.148
1975204.0,1669464106.188
1973201.0,1669464106.228
1972090.0,1669464106.268
1971289.0,1669464106.309
1970496.0,1669464106.348
1970492.0,1669464106.388
1970528.0,1669464106.429
1970376.0,1669464106.468
1969985.0,1669464106.509
1970128.0,1669464106.551
1970044.0,1669464106.59
1970555.0,1669464106.63
1970856.0,1669464106.672
1971493.0,1669464106.711
1972233.0,1669464106.752
1973196.0,1669464106.793
1974041.0,1669464106.832
1974978.0,1669464106.872
1976474.0,1669464106.914
1977553.0,1669464106.953
1979086.0,1669464106.993
1980874.0,1669464107.024
1981811.0,1669464107.063
1983446.0,1669464107.103
1984694.0,1669464107.145
1983970.0,1669464107.183
1981376.0,1669464107.223
1979165.0,1669464107.264
1977674.0,1669464107.303
1975964.0,1669464107.344
1974680.0,1669464107.385
1974254.0,1669464107.424
1973579.0,1669464107.464
1973241.0,1669464107.505
1972715.0,1669464107.545
1972158.0,1669464107.584
1971509.0,1669464107.625
1971584.0,1669464107.664
1971892.0,1669464107.704
1972175.0,1669464107.741
1972945.0,1669464107.774
1973390.0,1669464107.812
1974089.0,1669464107.853
1974898.0,1669464107.892
1976242.0,1669464107.933
1977473.0,1669464107.973
1978633.0,1669464108.012
1979477.0,1669464108.053
1981238.0,1669464108.093
1982344.0,1669464108.133
1983865.0,1669464108.172
1984580.0,1669464108.213
1983405.0,1669464108.254
1981019.0,1669464108.295
1979100.0,1669464108.336
1977820.0,1669464108.375
1976774.0,1669464108.415
1975666.0,1669464108.456
1975382.0,1669464108.495
1975120.0,1669464108.536
1974490.0,1669464108.576
1974188.0,1669464108.615
1973681.0,1669464108.655
1973465.0,1669464108.696
1973997.0,1669464108.736
1974343.0,1669464108.776
1975203.0,1669464108.817
1976430.0,1669464108.856
1977349.0,1669464108.896
1978660.0,1669464108.938
1979701.0,1669464108.975
1981282.0,1669464109.012
1982507.0,1669464109.054
1984256.0,1669464109.092
1986090.0,1669464109.133
1987805.0,1669464109.174
1989689.0,1669464109.213
1991328.0,1669464109.253
1990300.0,1669464109.294
1988508.0,1669464109.333
1987344.0,1669464109.373
1986405.0,1669464109.414
1986145.0,1669464109.453
1985876.0,1669464109.486
1986399.0,1669464109.528
1986444.0,1669464109.567
1986482.0,1669464109.607
1986792.0,1669464109.648
1987102.0,1669464109.687
1987819.0,1669464109.728
1988760.0,1669464109.768
1989415.0,1669464109.807
1990539.0,1669464109.847
1991799.0,1669464109.889
1992710.0,1669464109.928
1994212.0,1669464109.968
1995091.0,1669464110.009
1996527.0,1669464110.048
1998077.0,1669464110.088
1999290.0,1669464110.13
2001195.0,1669464110.168
2002885.0,1669464110.209
2003733.0,1669464110.251
2002286.0,1669464110.289
2000261.0,1669464110.33
1998285.0,1669464110.37
1997130.0,1669464110.405
1995931.0,1669464110.439
1995025.0,1669464110.477
1994583.0,1669464110.514
1994583.0,1669464110.545
1994557.0,1669464110.586
1994393.0,1669464110.625
1993973.0,1669464110.665
1994190.0,1669464110.707
1994030.0,1669464110.745
1994205.0,1669464110.785
1994998.0,1669464110.826
1995352.0,1669464110.865
1996046.0,1669464110.906
1997043.0,1669464110.947
1997526.0,1669464110.986
1998786.0,1669464111.026
1999922.0,1669464111.067
2000597.0,1669464111.107
2002092.0,1669464111.146
2003537.0,1669464111.187
2004452.0,1669464111.226
2006127.0,1669464111.266
2006946.0,1669464111.303
2005907.0,1669464111.336
2003495.0,1669464111.373
2001168.0,1669464111.415
1999871.0,1669464111.453
1998214.0,1669464111.494
1997346.0,1669464111.535
1996707.0,1669464111.574
1996540.0,1669464111.612
1996385.0,1669464111.653
1996307.0,1669464111.693
1996104.0,1669464111.732
1995846.0,1669464111.773
1996194.0,1669464111.813
1996556.0,1669464111.853
1996903.0,1669464111.894
1997625.0,1669464111.933
1998254.0,1669464111.973
1999156.0,1669464112.014
1999811.0,1669464112.053
2000801.0,1669464112.094
2001889.0,1669464112.134
2003247.0,1669464112.173
2004344.0,1669464112.213
2005721.0,1669464112.254
2007140.0,1669464112.295
2008446.0,1669464112.334
2009788.0,1669464112.376
2009688.0,1669464112.415
2007795.0,1669464112.455
2006408.0,1669464112.497
2005152.0,1669464112.535
2004598.0,1669464112.576
2004074.0,1669464112.617
2004123.0,1669464112.656
2004574.0,1669464112.696
2004567.0,1669464112.737
2004308.0,1669464112.776
2004240.0,1669464112.816
2004610.0,1669464112.857
2004754.0,1669464112.897
2005228.0,1669464112.936
2006275.0,1669464112.977
2007298.0,1669464113.016
2008322.0,1669464113.056
2009298.0,1669464113.098
2010232.0,1669464113.137
2011779.0,1669464113.177
2012688.0,1669464113.218
2014062.0,1669464113.257
2015372.0,1669464113.298
2017100.0,1669464113.338
2018269.0,1669464113.377
2019635.0,1669464113.417
2019123.0,1669464113.459
2017244.0,1669464113.498
2015458.0,1669464113.537
2014616.0,1669464113.579
2013428.0,1669464113.618
2013292.0,1669464113.658
2013445.0,1669464113.7
2013617.0,1669464113.739
2013314.0,1669464113.779
2013300.0,1669464113.82
2013175.0,1669464113.859
2013625.0,1669464113.9
2014060.0,1669464113.94
2014302.0,1669464113.977
2014979.0,1669464114.01
2015692.0,1669464114.051
2016328.0,1669464114.091
2017253.0,1669464114.13
2017868.0,1669464114.171
2018580.0,1669464114.21
2019719.0,1669464114.25
2020835.0,1669464114.292
2021806.0,1669464114.331
2023154.0,1669464114.371
2024233.0,1669464114.412
2025515.0,1669464114.451
2026250.0,1669464114.492
2024256.0,1669464114.532
2021353.0,1669464114.571
2019770.0,1669464114.611
2018079.0,1669464114.653
2016748.0,1669464114.692
2016162.0,1669464114.729
2015529.0,1669464114.762
2014966.0,1669464114.799
2014690.0,1669464114.839
2014250.0,1669464114.881
2013774.0,1669464114.92
2013475.0,1669464114.96
2013455.0,1669464115.001
2013745.0,1669464115.04
2013745.0,1669464115.075
2013982.0,1669464115.116
2014425.0,1669464115.155
2014904.0,1669464115.195
2015670.0,1669464115.236
2016532.0,1669464115.276
2017177.0,1669464115.315
2018386.0,1669464115.357
2019224.0,1669464115.396
2020352.0,1669464115.436
2021409.0,1669464115.478
2022255.0,1669464115.516
2023715.0,1669464115.556
2023975.0,1669464115.597
2022565.0,1669464115.636
2020041.0,1669464115.677
2018096.0,1669464115.718
2017002.0,1669464115.757
2015581.0,1669464115.797
2014639.0,1669464115.838
2014443.0,1669464115.878
2013690.0,1669464115.917
2013245.0,1669464115.959
2012781.0,1669464115.998
2012309.0,1669464116.039
2012369.0,1669464116.082
2012437.0,1669464116.12
2012729.0,1669464116.16
2013159.0,1669464116.201
2014081.0,1669464116.24
2014754.0,1669464116.281
2015326.0,1669464116.321
2016282.0,1669464116.36
2016905.0,1669464116.4
2017916.0,1669464116.442
2019109.0,1669464116.481
2019992.0,1669464116.521
2021143.0,1669464116.562
2022500.0,1669464116.601
2022202.0,1669464116.641
2020039.0,1669464116.683
2017263.0,1669464116.721
2015328.0,1669464116.761
2013741.0,1669464116.803
2012763.0,1669464116.84
2012345.0,1669464116.881
2012406.0,1669464116.922
2012184.0,1669464116.96
2011745.0,1669464117.001
2011623.0,1669464117.042
2011208.0,1669464117.082
2011072.0,1669464117.122
2011400.0,1669464117.163
2012061.0,1669464117.2
2012271.0,1669464117.24
2012812.0,1669464117.282
2013615.0,1669464117.321
2014266.0,1669464117.36
2014890.0,1669464117.393
2015853.0,1669464117.432
2016230.0,1669464117.473
2017459.0,1669464117.514
2018032.0,1669464117.553
2019090.0,1669464117.593
2019086.0,1669464117.634
2016636.0,1669464117.674
2013150.0,1669464117.713
2010090.0,1669464117.754
2008166.0,1669464117.793
2006342.0,1669464117.833
2004784.0,1669464117.875
2004207.0,1669464117.914
2003558.0,1669464117.954
2002853.0,1669464117.995
2002235.0,1669464118.034
2001520.0,1669464118.072
2000836.0,1669464118.114
2001001.0,1669464118.146
2001017.0,1669464118.182
2000831.0,1669464118.222
2001086.0,1669464118.262
2001474.0,1669464118.301
2002160.0,1669464118.343
2002961.0,1669464118.382
2003749.0,1669464118.42
2004654.0,1669464118.462
2005047.0,1669464118.5
2005997.0,1669464118.54
2007059.0,1669464118.583
2007752.0,1669464118.619
2008168.0,1669464118.659
2005136.0,1669464118.7
2001596.0,1669464118.739
1998619.0,1669464118.779
1995866.0,1669464118.82
1993654.0,1669464118.86
1991751.0,1669464118.899
1990311.0,1669464118.94
1988786.0,1669464118.979
1987340.0,1669464119.019
1985785.0,1669464119.061
1984148.0,1669464119.099
1982705.0,1669464119.139
1981909.0,1669464119.181
1981444.0,1669464119.22
1980917.0,1669464119.26
1980700.0,1669464119.302
1980671.0,1669464119.34
1980686.0,1669464119.38
1980881.0,1669464119.422
1980546.0,1669464119.461
1980915.0,1669464119.5
1981577.0,1669464119.542
1982336.0,1669464119.582
1983339.0,1669464119.621
1983012.0,1669464119.663
1979931.0,1669464119.702
1975777.0,1669464119.742
1972449.0,1669464119.781
1969578.0,1669464119.82
1967266.0,1669464119.854
1964805.0,1669464119.894
1963421.0,1669464119.933
1962324.0,1669464119.973
1960580.0,1669464120.014
1959433.0,1669464120.054
1958124.0,1669464120.094
1957273.0,1669464120.135
1956840.0,1669464120.174
1956341.0,1669464120.214
1956554.0,1669464120.256
1956127.0,1669464120.294
1956210.0,1669464120.334
1956290.0,1669464120.375
1956656.0,1669464120.414
1957437.0,1669464120.455
1958070.0,1669464120.495
1958494.0,1669464120.535
1959267.0,1669464120.575
1960176.0,1669464120.616
1961453.0,1669464120.657
1961564.0,1669464120.692
1959426.0,1669464120.726
1955469.0,1669464120.763
1951822.0,1669464120.802
1949078.0,1669464120.844
1946661.0,1669464120.873
1946661.0,1669464120.913
1944494.0,1669464120.955
1943051.0,1669464120.994
1941900.0,1669464121.034
1940909.0,1669464121.075
1939472.0,1669464121.114
1938441.0,1669464121.154
1937579.0,1669464121.195
1937175.0,1669464121.235
1937294.0,1669464121.274
1937411.0,1669464121.316
1937827.0,1669464121.355
1938517.0,1669464121.395
1938866.0,1669464121.437
1939841.0,1669464121.475
1940687.0,1669464121.515
1941495.0,1669464121.556
1942600.0,1669464121.592
1943261.0,1669464121.626
1944516.0,1669464121.665
1945956.0,1669464121.701
1947379.0,1669464121.742
1948396.0,1669464121.782
1946459.0,1669464121.822
1942879.0,1669464121.862
1939845.0,1669464121.903
1937933.0,1669464121.937
1936381.0,1669464121.977
1935111.0,1669464122.019
1934641.0,1669464122.057
1933996.0,1669464122.097
1933907.0,1669464122.139
1933499.0,1669464122.178
1932892.0,1669464122.218
1933138.0,1669464122.259
1933051.0,1669464122.298
1933810.0,1669464122.338
1934479.0,1669464122.379
1935425.0,1669464122.419
1936157.0,1669464122.458
1938227.0,1669464122.539
1937002.0,1669464122.5
1939161.0,1669464122.579
1940365.0,1669464122.621
1941461.0,1669464122.66
1943951.0,1669464122.741
1945396.0,1669464122.78
1942429.0,1669464122.7
1947295.0,1669464122.861
1946718.0,1669464122.821
1942063.0,1669464122.942
1945105.0,1669464122.901
1940338.0,1669464122.982
1938401.0,1669464123.062
1939189.0,1669464123.022
1938205.0,1669464123.103
1938530.0,1669464123.182
1938572.0,1669464123.142
1938648.0,1669464123.223
1938720.0,1669464123.262
1938665.0,1669464123.302
1940156.0,1669464123.382
1939119.0,1669464123.343
1942299.0,1669464123.463
1941154.0,1669464123.423
1943674.0,1669464123.502
1945126.0,1669464123.542
1946522.0,1669464123.583
1948000.0,1669464123.623
1949484.0,1669464123.663
1950887.0,1669464123.704
1952701.0,1669464123.743
1954454.0,1669464123.783
1956486.0,1669464123.825
1957966.0,1669464123.863
1959930.0,1669464123.903
1960067.0,1669464123.945
1958508.0,1669464123.983
1956657.0,1669464124.024
1955683.0,1669464124.065
1955180.0,1669464124.104
1954670.0,1669464124.144
1955055.0,1669464124.185
1955901.0,1669464124.224
1956453.0,1669464124.264
2063416.0,1669464136.222
2063459.0,1669464136.261
2062842.0,1669464136.301
2062010.0,1669464136.343
2061838.0,1669464136.381
2061299.0,1669464136.421
2061293.0,1669464136.462
2061129.0,1669464136.501
2060995.0,1669464136.542
2061365.0,1669464136.583
2061484.0,1669464136.622
2061211.0,1669464136.662
2061469.0,1669464136.703
2061970.0,1669464136.743
2062082.0,1669464136.782
2062732.0,1669464136.823
2063134.0,1669464136.862
2064164.0,1669464136.903
2064942.0,1669464136.944
2065906.0,1669464136.983
2066790.0,1669464137.023
2067739.0,1669464137.064
2069184.0,1669464137.103
2069722.0,1669464137.144
2069323.0,1669464137.184
2068803.0,1669464137.224
2067816.0,1669464137.264
2067800.0,1669464137.303
2067568.0,1669464137.339
2067375.0,1669464137.371
2067784.0,1669464137.41
2068362.0,1669464137.449
2068505.0,1669464137.489
2068904.0,1669464137.57
2069459.0,1669464137.61
2070158.0,1669464137.652
2068637.0,1669464137.531
2070759.0,1669464137.69
2071654.0,1669464137.729
2071654.0,1669464137.767
2072354.0,1669464137.806
2073257.0,1669464137.847
2074135.0,1669464137.888
2075207.0,1669464137.927
2077013.0,1669464138.008
2078318.0,1669464138.047
2078393.0,1669464138.087
2077276.0,1669464138.129
2076079.0,1669464138.167
2074770.0,1669464138.207
2073992.0,1669464138.248
2076317.0,1669464137.967
2073200.0,1669464138.287
2072552.0,1669464138.328
2072529.0,1669464138.369
2072134.0,1669464138.407
2071549.0,1669464138.449
2071398.0,1669464138.49
2070544.0,1669464138.53
2070698.0,1669464138.569
2070671.0,1669464138.611
2070492.0,1669464138.65
2070583.0,1669464138.69
2070645.0,1669464138.732
2070792.0,1669464138.771
2070896.0,1669464138.811
2071204.0,1669464138.851
2071492.0,1669464138.89
2071930.0,1669464138.931
2072042.0,1669464138.972
2072666.0,1669464139.011
2072269.0,1669464139.051
2069914.0,1669464139.092
2067623.0,1669464139.132
2065699.0,1669464139.171
2063825.0,1669464139.212
2062429.0,1669464139.251
2061579.0,1669464139.291
2060689.0,1669464139.333
2059595.0,1669464139.371
2058753.0,1669464139.412
2058097.0,1669464139.453
2057169.0,1669464139.492
2056485.0,1669464139.533
2055884.0,1669464139.573
2055797.0,1669464139.612
2055452.0,1669464139.653
2055003.0,1669464139.693
2055186.0,1669464139.73
2055280.0,1669464139.77
2054742.0,1669464139.812
2055162.0,1669464139.85
2055316.0,1669464139.891
2055403.0,1669464139.933
2055496.0,1669464139.971
2055613.0,1669464140.012
2054196.0,1669464140.053
2051417.0,1669464140.09
2048578.0,1669464140.131
2046835.0,1669464140.172
2044704.0,1669464140.204
2043033.0,1669464140.244
2041579.0,1669464140.285
2040425.0,1669464140.325
2039580.0,1669464140.364
2038197.0,1669464140.405
2037266.0,1669464140.444
2036294.0,1669464140.484
2035180.0,1669464140.526
2034502.0,1669464140.565
2034353.0,1669464140.605
2033866.0,1669464140.646
2033392.0,1669464140.685
2033380.0,1669464140.726
2033180.0,1669464140.766
2033111.0,1669464140.805
2033098.0,1669464140.845
2033350.0,1669464140.887
2033538.0,1669464140.925
2034070.0,1669464140.962
2033341.0,1669464140.998
2031481.0,1669464141.032
2028416.0,1669464141.07
2026272.0,1669464141.112
2024824.0,1669464141.15
2023018.0,1669464141.19
2022216.0,1669464141.232
2021263.0,1669464141.271
2020410.0,1669464141.312
2019709.0,1669464141.352
2018390.0,1669464141.392
2017731.0,1669464141.429
2016874.0,1669464141.47
2016918.0,1669464141.51
2016355.0,1669464141.549
2016368.0,1669464141.59
2015988.0,1669464141.629
2016042.0,1669464141.669
2016000.0,1669464141.711
2016383.0,1669464141.75
2016455.0,1669464141.79
2016767.0,1669464141.831
2016892.0,1669464141.87
2017508.0,1669464141.911
2017445.0,1669464141.951
2014977.0,1669464141.99
2011903.0,1669464142.03
2009369.0,1669464142.071
2006622.0,1669464142.111
2004585.0,1669464142.15
2002409.0,1669464142.191
2000909.0,1669464142.23
1999897.0,1669464142.271
1998616.0,1669464142.312
1996770.0,1669464142.351
1995479.0,1669464142.391
1994299.0,1669464142.432
1993433.0,1669464142.471
1992788.0,1669464142.512
1992003.0,1669464142.552
1991631.0,1669464142.591
1990718.0,1669464142.672
1991030.0,1669464142.631
1990657.0,1669464142.712
1990618.0,1669464142.752
1990279.0,1669464142.793
1990402.0,1669464142.832
1990433.0,1669464142.872
1990765.0,1669464142.914
1990721.0,1669464142.952
1988812.0,1669464142.992
1985355.0,1669464143.033
1981899.0,1669464143.072
1978768.0,1669464143.113
1976319.0,1669464143.153
1973646.0,1669464143.19
1971500.0,1669464143.231
1970299.0,1669464143.272
1968728.0,1669464143.311
1966967.0,1669464143.351
1965286.0,1669464143.392
1964267.0,1669464143.432
1963155.0,1669464143.472
1962466.0,1669464143.514
1961619.0,1669464143.552
1960879.0,1669464143.583
1960825.0,1669464143.624
1960714.0,1669464143.663
1960615.0,1669464143.704
1960379.0,1669464143.745
1960191.0,1669464143.784
1960552.0,1669464143.824
1960679.0,1669464143.865
1960756.0,1669464143.905
1961109.0,1669464143.944
1961107.0,1669464143.985
1960417.0,1669464144.024
1958011.0,1669464144.064
1954652.0,1669464144.106
1951546.0,1669464144.145
1949422.0,1669464144.185
1947208.0,1669464144.226
1945356.0,1669464144.265
1944223.0,1669464144.301
1943347.0,1669464144.335
1941806.0,1669464144.372
1940746.0,1669464144.412
1939840.0,1669464144.454
1938994.0,1669464144.493
1938394.0,1669464144.533
1938222.0,1669464144.574
1938217.0,1669464144.612
1938108.0,1669464144.653
1938613.0,1669464144.695
1938925.0,1669464144.733
1939497.0,1669464144.773
1940423.0,1669464144.814
1941434.0,1669464144.853
1942051.0,1669464144.894
1943164.0,1669464144.934
1944119.0,1669464144.973
1944829.0,1669464145.013
1943986.0,1669464145.054
1941504.0,1669464145.094
1938828.0,1669464145.134
1936985.0,1669464145.175
1935623.0,1669464145.214
1934711.0,1669464145.254
1934257.0,1669464145.296
1933958.0,1669464145.334
1933473.0,1669464145.374
1932999.0,1669464145.415
1932824.0,1669464145.454
1932916.0,1669464145.495
1933235.0,1669464145.537
1933480.0,1669464145.574
1933960.0,1669464145.612
1934588.0,1669464145.654
1935629.0,1669464145.694
1936075.0,1669464145.733
1936890.0,1669464145.775
1938169.0,1669464145.814
1939353.0,1669464145.854
1940257.0,1669464145.896
1941445.0,1669464145.934
1942771.0,1669464145.973
1943922.0,1669464146.014
1944984.0,1669464146.045
1944984.0,1669464146.086
1943193.0,1669464146.127
1940827.0,1669464146.166
1938412.0,1669464146.206
1936731.0,1669464146.247
1935185.0,1669464146.287
1934130.0,1669464146.326
1933483.0,1669464146.367
1933372.0,1669464146.406
1933130.0,1669464146.446
1932974.0,1669464146.488
1932673.0,1669464146.527
1932597.0,1669464146.567
1932940.0,1669464146.608
1933447.0,1669464146.647
1934150.0,1669464146.688
1935137.0,1669464146.728
1935755.0,1669464146.764
1936633.0,1669464146.798
1937700.0,1669464146.839
1938841.0,1669464146.875
1940038.0,1669464146.912
1941182.0,1669464146.953
1942541.0,1669464146.993
1944169.0,1669464147.033
1945565.0,1669464147.075
1947253.0,1669464147.113
1948424.0,1669464147.154
1947163.0,1669464147.195
1945101.0,1669464147.234
1943737.0,1669464147.269
1942600.0,1669464147.309
1941985.0,1669464147.348
1941132.0,1669464147.388
1941121.0,1669464147.429
1940946.0,1669464147.469
1941263.0,1669464147.509
1941407.0,1669464147.55
1941859.0,1669464147.589
1942004.0,1669464147.629
1942326.0,1669464147.671
1943278.0,1669464147.709
1944298.0,1669464147.749
1945299.0,1669464147.79
1946537.0,1669464147.829
1947646.0,1669464147.87
1948911.0,1669464147.911
1950231.0,1669464147.95
1951868.0,1669464147.983
1953708.0,1669464148.016
1955293.0,1669464148.056
1957320.0,1669464148.094
1958971.0,1669464148.127
1958971.0,1669464148.166
1960843.0,1669464148.206
1960728.0,1669464148.248
1959899.0,1669464148.286
1959037.0,1669464148.326
1958532.0,1669464148.368
1957999.0,1669464148.407
1958125.0,1669464148.447
1958649.0,1669464148.488
1959424.0,1669464148.527
1959863.0,1669464148.567
1960797.0,1669464148.608
1961491.0,1669464148.648
1962308.0,1669464148.687
1963270.0,1669464148.728
1964603.0,1669464148.767
1965740.0,1669464148.807
1967032.0,1669464148.849
1968458.0,1669464148.887
1969930.0,1669464148.927
1971452.0,1669464148.968
1972957.0,1669464149.007
1974316.0,1669464149.048
1975923.0,1669464149.089
1977652.0,1669464149.128
1979464.0,1669464149.168
1981004.0,1669464149.209
1980904.0,1669464149.249
1979905.0,1669464149.288
1978669.0,1669464149.329
1977855.0,1669464149.368
1977516.0,1669464149.408
1977582.0,1669464149.451
1977405.0,1669464149.489
1977767.0,1669464149.522
1978150.0,1669464149.563
1977803.0,1669464149.602
1977758.0,1669464149.643
1978315.0,1669464149.683
1979023.0,1669464149.722
1979675.0,1669464149.762
1980673.0,1669464149.803
1981763.0,1669464149.843
1982942.0,1669464149.882
1983699.0,1669464149.924
1984782.0,1669464149.963
1985725.0,1669464150.003
1987170.0,1669464150.045
1988712.0,1669464150.083
1989925.0,1669464150.123
1991138.0,1669464150.164
1992657.0,1669464150.203
1993358.0,1669464150.242
1992664.0,1669464150.276
1991207.0,1669464150.311
1989831.0,1669464150.351
1988499.0,1669464150.39
1987737.0,1669464150.43
1987315.0,1669464150.46
1987233.0,1669464150.501
1986740.0,1669464150.54
1986773.0,1669464150.58
1986740.0,1669464150.622
1986724.0,1669464150.661
1986860.0,1669464150.701
1986902.0,1669464150.742
1987593.0,1669464150.781
1988088.0,1669464150.822
1988783.0,1669464150.862
1989366.0,1669464150.901
1989934.0,1669464150.941
1990833.0,1669464150.982
1991616.0,1669464151.022
1992813.0,1669464151.062
1993759.0,1669464151.103
1994227.0,1669464151.142
1995795.0,1669464151.182
1996938.0,1669464151.224
1997039.0,1669464151.262
1995731.0,1669464151.302
1994002.0,1669464151.339
1992307.0,1669464151.372
1991256.0,1669464151.411
1990268.0,1669464151.452
1989562.0,1669464151.49
1989397.0,1669464151.531
1988940.0,1669464151.572
1988520.0,1669464151.612
1987913.0,1669464151.648
1987774.0,1669464151.689
1987657.0,1669464151.728
1987354.0,1669464151.769
1987545.0,1669464151.811
1987988.0,1669464151.85
1988580.0,1669464151.89
1989225.0,1669464151.932
1989949.0,1669464151.97
1989949.0,1669464152.007
1990597.0,1669464152.047
1991423.0,1669464152.086
1992361.0,1669464152.126
1993072.0,1669464152.167
1994004.0,1669464152.207
1995084.0,1669464152.246
1995512.0,1669464152.288
1994145.0,1669464152.327
1992060.0,1669464152.367
1990595.0,1669464152.409
1989078.0,1669464152.447
1988369.0,1669464152.487
1987790.0,1669464152.528
1987659.0,1669464152.567
1987496.0,1669464152.608
1987064.0,1669464152.649
1986634.0,1669464152.687
1986560.0,1669464152.728
1986604.0,1669464152.769
1987052.0,1669464152.809
1987530.0,1669464152.849
1988042.0,1669464152.891
1988480.0,1669464152.93
1989433.0,1669464152.97
1990371.0,1669464153.012
1991338.0,1669464153.051
1992108.0,1669464153.091
1993111.0,1669464153.132
1994580.0,1669464153.171
1995627.0,1669464153.206
1996778.0,1669464153.246
1996735.0,1669464153.285
1995394.0,1669464153.326
1993448.0,1669464153.367
1992311.0,1669464153.407
1991219.0,1669464153.446
1990398.0,1669464153.487
1989516.0,1669464153.526
1989335.0,1669464153.566
1989417.0,1669464153.608
1989061.0,1669464153.647
1989108.0,1669464153.687
1989269.0,1669464153.728
1989333.0,1669464153.767
1989784.0,1669464153.808
1990259.0,1669464153.848
1991144.0,1669464153.887
1991635.0,1669464153.928
1992452.0,1669464153.969
1993315.0,1669464154.009
1994418.0,1669464154.049
1995444.0,1669464154.09
1996617.0,1669464154.129
1997869.0,1669464154.17
1998658.0,1669464154.211
1999886.0,1669464154.25
2001254.0,1669464154.29
2001799.0,1669464154.332
2000699.0,1669464154.371
1999382.0,1669464154.412
1998426.0,1669464154.449
1997745.0,1669464154.488
1996832.0,1669464154.528
1996571.0,1669464154.569
1996746.0,1669464154.609
1997007.0,1669464154.689
1996724.0,1669464154.648
1997231.0,1669464154.769
1997078.0,1669464154.729
1997655.0,1669464154.81
1997898.0,1669464154.849
1998778.0,1669464154.889
1999372.0,1669464154.93
1999757.0,1669464154.969
2000690.0,1669464155.01
2001802.0,1669464155.05
2002191.0,1669464155.089
2003220.0,1669464155.13
2004191.0,1669464155.172
2005397.0,1669464155.212
2006645.0,1669464155.251
2007751.0,1669464155.292
2009108.0,1669464155.332
2010543.0,1669464155.372
2011246.0,1669464155.414
2010471.0,1669464155.452
2009997.0,1669464155.492
2009377.0,1669464155.534
2008834.0,1669464155.573
2008403.0,1669464155.614
2008657.0,1669464155.654
2008834.0,1669464155.684
2009090.0,1669464155.724
2009220.0,1669464155.765
2009287.0,1669464155.805
2009656.0,1669464155.844
2010434.0,1669464155.885
2011419.0,1669464155.924
2012574.0,1669464155.964
2013994.0,1669464156.006
2014941.0,1669464156.045
2015709.0,1669464156.085
2016434.0,1669464156.126
2017655.0,1669464156.165
2018638.0,1669464156.206
2019880.0,1669464156.246
2021306.0,1669464156.285
2022500.0,1669464156.323
2023518.0,1669464156.365
2024448.0,1669464156.399
2024558.0,1669464156.434
2023636.0,1669464156.473
2022437.0,1669464156.512
2021409.0,1669464156.552
2020413.0,1669464156.594
2019906.0,1669464156.632
2019918.0,1669464156.673
2019601.0,1669464156.714
2019452.0,1669464156.747
2019464.0,1669464156.788
2019070.0,1669464156.828
2019094.0,1669464156.867
2019379.0,1669464156.908
2019538.0,1669464156.949
2019922.0,1669464156.988
2020347.0,1669464157.028
2020720.0,1669464157.069
2021367.0,1669464157.108
2021647.0,1669464157.148
2022406.0,1669464157.19
2022952.0,1669464157.228
2023736.0,1669464157.268
2024634.0,1669464157.31
2025547.0,1669464157.349
2026419.0,1669464157.389
2027804.0,1669464157.43
2028120.0,1669464157.47
2027398.0,1669464157.51
2025983.0,1669464157.551
2024790.0,1669464157.591
2023617.0,1669464157.63
2022583.0,1669464157.672
2021841.0,1669464157.711
2021135.0,1669464157.752
2020775.0,1669464157.795
2020564.0,1669464157.834
2020077.0,1669464157.874
2019453.0,1669464157.915
2019355.0,1669464157.954
2018825.0,1669464157.995
2018805.0,1669464158.035
2018709.0,1669464158.074
2019087.0,1669464158.114
2019272.0,1669464158.155
2019481.0,1669464158.195
2019994.0,1669464158.234
2020355.0,1669464158.275
2020775.0,1669464158.314
2021491.0,1669464158.355
2022200.0,1669464158.396
2023117.0,1669464158.435
2024009.0,1669464158.475
2024470.0,1669464158.513
2024251.0,1669464158.552
2022867.0,1669464158.593
2020822.0,1669464158.634
2019150.0,1669464158.673
2017991.0,1669464158.713
2016212.0,1669464158.754
2015096.0,1669464158.793
2014556.0,1669464158.833
2013891.0,1669464158.875
2012766.0,1669464158.914
2011835.0,1669464158.954
2010735.0,1669464158.996
2010069.0,1669464159.034
2009612.0,1669464159.074
2009334.0,1669464159.116
2008893.0,1669464159.155
2008704.0,1669464159.195
2008669.0,1669464159.236
2008721.0,1669464159.275
2008992.0,1669464159.315
2009051.0,1669464159.356
2009417.0,1669464159.396
2009957.0,1669464159.435
2010321.0,1669464159.476
2010639.0,1669464159.515
2011126.0,1669464159.555
2009876.0,1669464159.595
2006753.0,1669464159.633
2004309.0,1669464159.673
2002477.0,1669464159.715
2000814.0,1669464159.754
1999114.0,1669464159.795
1997947.0,1669464159.835
1997101.0,1669464159.875
1996198.0,1669464159.915
1994990.0,1669464159.955
1993732.0,1669464159.995
1992576.0,1669464160.035
1992099.0,1669464160.074
1991641.0,1669464160.113
1991260.0,1669464160.152
1990861.0,1669464160.191
1990911.0,1669464160.23
1990748.0,1669464160.269
1990741.0,1669464160.308
1990569.0,1669464160.347
1990553.0,1669464160.386
1991090.0,1669464160.425
1991375.0,1669464160.464
1991630.0,1669464160.503
1991692.0,1669464160.542
1989127.0,1669464160.581
1985320.0,1669464160.62
1982309.0,1669464160.659
1979254.0,1669464160.698
1976323.0,1669464160.737
1974133.0,1669464160.776
1971884.0,1669464160.815
1970147.0,1669464160.854
1968424.0,1669464160.893
1966633.0,1669464160.932
1964873.0,1669464160.971
1963402.0,1669464161.01
1960879.0,1669464161.088
1961772.0,1669464161.049
1960023.0,1669464161.127
1959093.0,1669464161.166
1958571.0,1669464161.205
1958328.0,1669464161.244
1957584.0,1669464161.322
1957517.0,1669464161.283
1957036.0,1669464161.361
1957107.0,1669464161.4
1957401.0,1669464161.439
1957273.0,1669464161.517
1956114.0,1669464161.556
1952845.0,1669464161.595
1949240.0,1669464161.634
1945629.0,1669464161.673
1956956.0,1669464161.478
1942419.0,1669464161.712
1939389.0,1669464161.751
1935541.0,1669464161.829
1937023.0,1669464161.79
1933673.0,1669464161.868
1932275.0,1669464161.907
1930296.0,1669464161.946
1928933.0,1669464161.985
1927926.0,1669464162.024
1926751.0,1669464162.063
1926315.0,1669464162.102
1925584.0,1669464162.141
1925389.0,1669464162.18
1925267.0,1669464162.219
1925192.0,1669464162.336
1925007.0,1669464162.297
1925042.0,1669464162.258
1925475.0,1669464162.375
1925758.0,1669464162.414
1926131.0,1669464162.453
1926554.0,1669464162.492
1927424.0,1669464162.531
1927308.0,1669464162.57
1925519.0,1669464162.609
1917074.0,1669464162.726
1919185.0,1669464162.687
1913532.0,1669464162.804
1911782.0,1669464162.882
1910377.0,1669464162.921
1909372.0,1669464162.96
1922232.0,1669464162.648
1915000.0,1669464162.765
1912398.0,1669464162.843
1908710.0,1669464162.999
1907947.0,1669464163.038
1907974.0,1669464163.077
1907732.0,1669464163.116
1908036.0,1669464163.155
1908368.0,1669464163.194
1908660.0,1669464163.233
1909253.0,1669464163.272
1909788.0,1669464163.311
1910714.0,1669464163.35
1911583.0,1669464163.389
1912382.0,1669464163.428
1913600.0,1669464163.467
1914954.0,1669464163.506
1916008.0,1669464163.545
1915136.0,1669464163.584
1912819.0,1669464163.623
1910229.0,1669464163.662
1908537.0,1669464163.701
1906974.0,1669464163.74
1905988.0,1669464163.779
1905462.0,1669464163.818
1905319.0,1669464163.857
1905088.0,1669464163.896
1904893.0,1669464163.935
1904625.0,1669464163.974
1904549.0,1669464164.013
1904848.0,1669464164.052
1905594.0,1669464164.091
1906124.0,1669464164.13
1907320.0,1669464164.169
1908072.0,1669464164.208
1908943.0,1669464164.247
1910151.0,1669464164.286
1911224.0,1669464164.325
1912342.0,1669464164.364
1914048.0,1669464164.403
1915460.0,1669464164.442
1916954.0,1669464164.481
1918721.0,1669464164.52
1920208.0,1669464164.559
1919836.0,1669464164.598
1918178.0,1669464164.637
1916550.0,1669464164.676
1915210.0,1669464164.715
1914012.0,1669464164.754
1913496.0,1669464164.793
1912958.0,1669464164.832
1912913.0,1669464164.872
1913259.0,1669464164.912
1913225.0,1669464164.952
1913186.0,1669464164.992
1913186.0,1669464165.032
1913366.0,1669464165.072
1913884.0,1669464165.112
1914829.0,1669464165.152
1915516.0,1669464165.192
1916575.0,1669464165.232
1917818.0,1669464165.272
1918938.0,1669464165.312
1920364.0,1669464165.352
1921397.0,1669464165.392
1922619.0,1669464165.432
1924044.0,1669464165.472
1925455.0,1669464165.512
1926875.0,1669464165.552
1928301.0,1669464165.592
1929749.0,1669464165.632
1931127.0,1669464165.672
1931119.0,1669464165.712
1930023.0,1669464165.752
1928519.0,1669464165.792
1927954.0,1669464165.832
1927464.0,1669464165.872
1926554.0,1669464165.912
1926738.0,1669464165.952
1927314.0,1669464165.992
1927356.0,1669464166.032
1927789.0,1669464166.072
1928684.0,1669464166.112
1929209.0,1669464166.152
1930605.0,1669464166.192
1931913.0,1669464166.232
1933444.0,1669464166.272
1935117.0,1669464166.312
1936257.0,1669464166.352
1937757.0,1669464166.392
1939607.0,1669464166.432
1941451.0,1669464166.472
1942864.0,1669464166.512
1944884.0,1669464166.552
1946649.0,1669464166.592
1948354.0,1669464166.632
1950580.0,1669464166.672
1952572.0,1669464166.712
1953525.0,1669464166.752
1953072.0,1669464166.792
1952261.0,1669464166.832
1951929.0,1669464166.872
1951679.0,1669464166.912
1951876.0,1669464166.952
1952213.0,1669464166.992
1952884.0,1669464167.032
1953741.0,1669464167.072
1954209.0,1669464167.112
1954691.0,1669464167.152
1955408.0,1669464167.192
1956165.0,1669464167.232
1957373.0,1669464167.272
1958681.0,1669464167.312
1960107.0,1669464167.352
1961348.0,1669464167.392
1962894.0,1669464167.432
1964612.0,1669464167.472
1966161.0,1669464167.512
1967657.0,1669464167.552
1969479.0,1669464167.592
1971103.0,1669464167.632
1973036.0,1669464167.672
1974879.0,1669464167.712
1976999.0,1669464167.752
1977521.0,1669464167.792
1976736.0,1669464167.832
1976018.0,1669464167.872
1975335.0,1669464167.912
1974823.0,1669464167.952
1974517.0,1669464167.992
1974791.0,1669464168.032
1974693.0,1669464168.072
1975281.0,1669464168.112
1975654.0,1669464168.152
1975739.0,1669464168.192
1976367.0,1669464168.232
1976972.0,1669464168.272
1977265.0,1669464168.312
1978262.0,1669464168.352
1979434.0,1669464168.392
1980302.0,1669464168.432
1981303.0,1669464168.472
1982533.0,1669464168.512
1983603.0,1669464168.552
1984902.0,1669464168.592
1986257.0,1669464168.632
1987747.0,1669464168.672
1988876.0,1669464168.712
1988876.0,1669464168.752
1990397.0,1669464168.792
1991989.0,1669464168.832
1992338.0,1669464168.872
1991411.0,1669464168.912
1990000.0,1669464168.952
1988552.0,1669464168.992
1987685.0,1669464169.032
1986990.0,1669464169.072
1986176.0,1669464169.112
1986238.0,1669464169.152
1986051.0,1669464169.192
1985694.0,1669464169.232
1985797.0,1669464169.272
1985647.0,1669464169.312
1985490.0,1669464169.352
1985603.0,1669464169.392
1986161.0,1669464169.432
1986619.0,1669464169.472
1987513.0,1669464169.512
1988037.0,1669464169.552
1988741.0,1669464169.592
1989741.0,1669464169.632
1990328.0,1669464169.672
1991436.0,1669464169.712
1992808.0,1669464169.752
1993589.0,1669464169.792
1994732.0,1669464169.832
1995898.0,1669464169.872
1995909.0,1669464169.912
1994076.0,1669464169.952
1992498.0,1669464169.992
1991153.0,1669464170.032
1990182.0,1669464170.072
1989601.0,1669464170.112
1989490.0,1669464170.152
1988835.0,1669464170.192
1988998.0,1669464170.232
1988740.0,1669464170.272
1988788.0,1669464170.312
1988392.0,1669464170.352
1988850.0,1669464170.392
1989169.0,1669464170.432
1989882.0,1669464170.472
1990352.0,1669464170.512
1991023.0,1669464170.552
1991982.0,1669464170.592
1992799.0,1669464170.632
1993584.0,1669464170.672
1994511.0,1669464170.712
1995362.0,1669464170.752
1996385.0,1669464170.792
1997557.0,1669464170.832
1998170.0,1669464170.872
1997191.0,1669464170.912
1994641.0,1669464170.952
1993029.0,1669464170.992
1991229.0,1669464171.032
1989802.0,1669464171.072
1988619.0,1669464171.112
1987671.0,1669464171.152
1987154.0,1669464171.192
1986855.0,1669464171.232
1985877.0,1669464171.272
1985256.0,1669464171.312
1985014.0,1669464171.352
1984904.0,1669464171.392
1984863.0,1669464171.432
1985237.0,1669464171.472
1985298.0,1669464171.512
1985491.0,1669464171.552
1986078.0,1669464171.592
1986443.0,1669464171.632
1987642.0,1669464171.712
1986878.0,1669464171.672
1988351.0,1669464171.752
1988834.0,1669464171.792
1989825.0,1669464171.832
1990517.0,1669464171.872
1990386.0,1669464171.912
1988280.0,1669464172.005
1985663.0,1669464172.044
1983562.0,1669464172.085
1981714.0,1669464172.126
1980269.0,1669464172.165
1978977.0,1669464172.205
1977814.0,1669464172.246
1977532.0,1669464172.285
1976683.0,1669464172.326
1976272.0,1669464172.366
1975556.0,1669464172.405
1974943.0,1669464172.445
1975057.0,1669464172.486
1974938.0,1669464172.526
1975146.0,1669464172.566
1975018.0,1669464172.607
1975686.0,1669464172.646
1975863.0,1669464172.686
1976175.0,1669464172.727
1976530.0,1669464172.766
1977136.0,1669464172.806
1977682.0,1669464172.847
1978651.0,1669464172.886
1979153.0,1669464172.927
1980339.0,1669464172.968
1980324.0,1669464173.007
1978276.0,1669464173.047
1975804.0,1669464173.088
1974188.0,1669464173.128
1972593.0,1669464173.167
1971169.0,1669464173.208
1970533.0,1669464173.248
1969671.0,1669464173.288
1969186.0,1669464173.33
1968387.0,1669464173.369
1967809.0,1669464173.409
1967049.0,1669464173.45
1966749.0,1669464173.487
1966467.0,1669464173.528
1966607.0,1669464173.568
1966869.0,1669464173.607
1967547.0,1669464173.647
1967622.0,1669464173.688
1968095.0,1669464173.728
1968887.0,1669464173.768
1969588.0,1669464173.809
1970508.0,1669464173.848
1971424.0,1669464173.888
1972461.0,1669464173.93
1973170.0,1669464173.968
1972908.0,1669464174.008
1970765.0,1669464174.049
1968657.0,1669464174.088
1966830.0,1669464174.129
1965606.0,1669464174.169
1964331.0,1669464174.208
1963763.0,1669464174.249
1963449.0,1669464174.29
1962727.0,1669464174.33
1962579.0,1669464174.37
1961913.0,1669464174.411
1961610.0,1669464174.448
1961306.0,1669464174.488
1961853.0,1669464174.53
1962220.0,1669464174.568
1962382.0,1669464174.609
1963368.0,1669464174.65
1963593.0,1669464174.687
1964448.0,1669464174.725
1965516.0,1669464174.766
1966130.0,1669464174.805
1967288.0,1669464174.845
1968412.0,1669464174.886
1969429.0,1669464174.926
1970438.0,1669464174.965
1969589.0,1669464175.006
1967615.0,1669464175.045
1965072.0,1669464175.085
1963452.0,1669464175.127
1961761.0,1669464175.165
1960430.0,1669464175.206
1959397.0,1669464175.247
1959073.0,1669464175.286
1958480.0,1669464175.327
1957776.0,1669464175.367
1957294.0,1669464175.407
1957197.0,1669464175.447
1956793.0,1669464175.488
1957306.0,1669464175.528
1957609.0,1669464175.568
1957952.0,1669464175.61
1958553.0,1669464175.648
1959311.0,1669464175.688
1959886.0,1669464175.73
1960988.0,1669464175.769
1961649.0,1669464175.809
1962460.0,1669464175.851
1963982.0,1669464175.89
1964917.0,1669464175.928
1965736.0,1669464175.965
1967016.0,1669464176.004
1966145.0,1669464176.044
1964308.0,1669464176.085
1962403.0,1669464176.125
1960239.0,1669464176.164
1958780.0,1669464176.205
1957505.0,1669464176.244
1956790.0,1669464176.285
1956262.0,1669464176.326
1955706.0,1669464176.365
1955356.0,1669464176.405
1954764.0,1669464176.446
1954198.0,1669464176.485
1954109.0,1669464176.526
1954334.0,1669464176.566
1954626.0,1669464176.605
1955439.0,1669464176.646
1956096.0,1669464176.687
1956605.0,1669464176.727
1957352.0,1669464176.765
1958379.0,1669464176.802
1959581.0,1669464176.835
1961065.0,1669464176.875
1962516.0,1669464176.914
1964045.0,1669464176.95
1965656.0,1669464176.99
1967286.0,1669464177.031
1968093.0,1669464177.07
1967370.0,1669464177.111
1966165.0,1669464177.152
1965301.0,1669464177.187
1965301.0,1669464177.227
1964852.0,1669464177.269
1964460.0,1669464177.308
1965482.0,1669464177.389
1964715.0,1669464177.348
1965493.0,1669464177.428
1966274.0,1669464177.468
1967836.0,1669464177.548
1966816.0,1669464177.51
1968686.0,1669464177.588
1969874.0,1669464177.629
1973330.0,1669464177.709
1971398.0,1669464177.668
1975268.0,1669464177.749
1977028.0,1669464177.788
1979164.0,1669464177.828
1981657.0,1669464177.87
1983702.0,1669464177.91
1985739.0,1669464177.95
1988151.0,1669464177.991
1990285.0,1669464178.03
1992357.0,1669464178.071
1993469.0,1669464178.113
1992581.0,1669464178.151
1992329.0,1669464178.191
1991742.0,1669464178.233
1991543.0,1669464178.272
1991493.0,1669464178.306
1991984.0,1669464178.346
1992668.0,1669464178.385
1993705.0,1669464178.425
1994799.0,1669464178.467
1995584.0,1669464178.506
1996211.0,1669464178.546
1997573.0,1669464178.587
1998893.0,1669464178.626
2000453.0,1669464178.666
2001933.0,1669464178.708
2003527.0,1669464178.746
2005292.0,1669464178.786
2006588.0,1669464178.828
2007897.0,1669464178.867
2009403.0,1669464178.907
2010842.0,1669464178.948
2012356.0,1669464178.987
2013756.0,1669464179.028
2014826.0,1669464179.068
2016481.0,1669464179.108
2017642.0,1669464179.148
2016569.0,1669464179.189
2014709.0,1669464179.228
2014000.0,1669464179.268
2013353.0,1669464179.311
2012294.0,1669464179.349
2011999.0,1669464179.39
2011814.0,1669464179.427
2011895.0,1669464179.466
2011952.0,1669464179.507
2011841.0,1669464179.547
2012076.0,1669464179.586
2012297.0,1669464179.626
2012700.0,1669464179.667
2013112.0,1669464179.707
2013662.0,1669464179.747
2014502.0,1669464179.788
2015000.0,1669464179.827
2015894.0,1669464179.867
2016819.0,1669464179.909
2017697.0,1669464179.947
2018545.0,1669464179.987
2019749.0,1669464180.028
2020911.0,1669464180.067
2021988.0,1669464180.108
2023662.0,1669464180.149
2024554.0,1669464180.188
2024596.0,1669464180.228
2023461.0,1669464180.269
2022392.0,1669464180.309
2021441.0,1669464180.349
2021022.0,1669464180.389
2020410.0,1669464180.429
2020132.0,1669464180.469
2020222.0,1669464180.511
2020819.0,1669464180.55
2020713.0,1669464180.59
2020727.0,1669464180.631
2020850.0,1669464180.67
2021061.0,1669464180.711
2021814.0,1669464180.751
2022602.0,1669464180.79
2023722.0,1669464180.83
2024202.0,1669464180.871
2024902.0,1669464180.911
2025945.0,1669464180.95
2027134.0,1669464180.992
2028513.0,1669464181.031
2029767.0,1669464181.071
2031071.0,1669464181.112
2032484.0,1669464181.151
2033627.0,1669464181.191
2033623.0,1669464181.232
2032025.0,1669464181.271
2030484.0,1669464181.312
2029535.0,1669464181.353
2028503.0,1669464181.392
2027982.0,1669464181.432
2027654.0,1669464181.474
2027646.0,1669464181.513
2027293.0,1669464181.553
2027037.0,1669464181.594
2026773.0,1669464181.633
2026488.0,1669464181.674
2026915.0,1669464181.714
2027087.0,1669464181.752
2027053.0,1669464181.792
2027863.0,1669464181.834
2028518.0,1669464181.872
2028924.0,1669464181.903
2029433.0,1669464181.944
2030346.0,1669464181.983
2031311.0,1669464182.023
2031805.0,1669464182.064
2032618.0,1669464182.104
2033447.0,1669464182.143
2034303.0,1669464182.184
2033675.0,1669464182.223
2031317.0,1669464182.264
2029005.0,1669464182.305
2027176.0,1669464182.344
2025681.0,1669464182.384
2024353.0,1669464182.425
2023201.0,1669464182.464
2022347.0,1669464182.505
2021674.0,1669464182.545
2020570.0,1669464182.584
2019910.0,1669464182.62
2019206.0,1669464182.655
2018633.0,1669464182.692
2018269.0,1669464182.732
2018038.0,1669464182.773
2018344.0,1669464182.812
2018350.0,1669464182.853
2018258.0,1669464182.895
2018510.0,1669464182.933
2018987.0,1669464182.973
2019226.0,1669464183.015
2019622.0,1669464183.052
2020200.0,1669464183.094
2020827.0,1669464183.134
2021530.0,1669464183.173
2020562.0,1669464183.213
2018174.0,1669464183.255
2015590.0,1669464183.294
2013247.0,1669464183.334
2011306.0,1669464183.375
2009199.0,1669464183.414
2008145.0,1669464183.454
2007080.0,1669464183.496
2006572.0,1669464183.534
2005843.0,1669464183.574
2004866.0,1669464183.615
2003545.0,1669464183.654
2002924.0,1669464183.695
2002409.0,1669464183.736
2002035.0,1669464183.774
2001748.0,1669464183.812
2001648.0,1669464183.854
2001776.0,1669464183.893
2001868.0,1669464183.932
2001398.0,1669464183.968
2000777.0,1669464184.007
2000255.0,1669464184.047
2000081.0,1669464184.089
2000812.0,1669464184.128
2000828.0,1669464184.168
1999254.0,1669464184.209
1996894.0,1669464184.248
1994365.0,1669464184.289
1992637.0,1669464184.329
1991153.0,1669464184.368
1990420.0,1669464184.408
1989654.0,1669464184.449
1988757.0,1669464184.489
1988075.0,1669464184.528
1987063.0,1669464184.569
1986371.0,1669464184.608
1985792.0,1669464184.648
1985732.0,1669464184.69
1985472.0,1669464184.729
1985722.0,1669464184.769
1985918.0,1669464184.81
1986070.0,1669464184.849
1986324.0,1669464184.889
1986896.0,1669464184.93
1987704.0,1669464184.969
1988428.0,1669464185.009
1989210.0,1669464185.05
1989768.0,1669464185.09
1990199.0,1669464185.129
1989611.0,1669464185.17
1987036.0,1669464185.209
1984784.0,1669464185.249
1982459.0,1669464185.291
1981020.0,1669464185.33
1979514.0,1669464185.37
1978438.0,1669464185.411
1978020.0,1669464185.45
1977364.0,1669464185.491
1976753.0,1669464185.532
1976383.0,1669464185.571
1976200.0,1669464185.611
1975986.0,1669464185.652
1976634.0,1669464185.691
1976970.0,1669464185.731
1977446.0,1669464185.772
1977904.0,1669464185.812
1978593.0,1669464185.852
1979610.0,1669464185.89
1980033.0,1669464185.928
1981173.0,1669464185.968
1982239.0,1669464186.009
1983182.0,1669464186.048
1984472.0,1669464186.089
1985642.0,1669464186.13
1985529.0,1669464186.169
1984074.0,1669464186.209
1982423.0,1669464186.25
1980827.0,1669464186.29
1979735.0,1669464186.329
1978975.0,1669464186.37
1978107.0,1669464186.409
1978199.0,1669464186.449
1978547.0,1669464186.491
1978449.0,1669464186.529
1978137.0,1669464186.57
1978536.0,1669464186.612
1978863.0,1669464186.65
1979370.0,1669464186.691
1980037.0,1669464186.732
1980886.0,1669464186.771
1981792.0,1669464186.811
1982334.0,1669464186.851
1983216.0,1669464186.891
1984195.0,1669464186.931
1985080.0,1669464186.972
1986091.0,1669464187.011
1987845.0,1669464187.052
1989131.0,1669464187.091
1990361.0,1669464187.13
1991726.0,1669464187.17
1991363.0,1669464187.211
1990035.0,1669464187.25
1989256.0,1669464187.291
1988560.0,1669464187.331
1988215.0,1669464187.37
1988006.0,1669464187.41
1988155.0,1669464187.451
1988741.0,1669464187.491
1989000.0,1669464187.53
1989137.0,1669464187.571
1989290.0,1669464187.61
1989908.0,1669464187.65
1990489.0,1669464187.692
1991402.0,1669464187.731
1992519.0,1669464187.771
1993955.0,1669464187.812
1995235.0,1669464187.851
1996687.0,1669464187.892
1998030.0,1669464187.933
1999464.0,1669464187.972
2001435.0,1669464188.012
2002689.0,1669464188.052
2004749.0,1669464188.092
2006344.0,1669464188.132
2006884.0,1669464188.173
2006179.0,1669464188.213
2005508.0,1669464188.253
2004825.0,1669464188.293
2004584.0,1669464188.331
2004064.0,1669464188.372
2004085.0,1669464188.413
2004485.0,1669464188.452
2004786.0,1669464188.493
2005085.0,1669464188.533
2005457.0,1669464188.572
2006140.0,1669464188.612
2006896.0,1669464188.653
2007449.0,1669464188.693
2008506.0,1669464188.733
2009536.0,1669464188.774
2010417.0,1669464188.813
2011772.0,1669464188.853
2012592.0,1669464188.895
2013812.0,1669464188.933
2015037.0,1669464188.973
2016674.0,1669464189.014
2017932.0,1669464189.053
2019353.0,1669464189.094
2021183.0,1669464189.134
2021963.0,1669464189.172
2020946.0,1669464189.212
2019588.0,1669464189.253
2018745.0,1669464189.293
2018447.0,1669464189.333
2017452.0,1669464189.374
2017068.0,1669464189.413
2017378.0,1669464189.453
2017629.0,1669464189.493
2017492.0,1669464189.532
2017556.0,1669464189.572
2017936.0,1669464189.613
2018147.0,1669464189.653
2018496.0,1669464189.684
2019233.0,1669464189.724
2020190.0,1669464189.763
2021097.0,1669464189.803
2021473.0,1669464189.844
2022478.0,1669464189.884
2023438.0,1669464189.923
2024262.0,1669464189.965
2025246.0,1669464190.004
2026322.0,1669464190.044
2027567.0,1669464190.085
2028642.0,1669464190.124
2029770.0,1669464190.164
2029893.0,1669464190.205
2028865.0,1669464190.244
2027373.0,1669464190.285
2026517.0,1669464190.325
2025616.0,1669464190.364
2024582.0,1669464190.405
2024110.0,1669464190.446
2024026.0,1669464190.485
2023790.0,1669464190.525
2023540.0,1669464190.566
2023152.0,1669464190.605
2023214.0,1669464190.645
2023445.0,1669464190.687
2023601.0,1669464190.725
2023985.0,1669464190.765
2024775.0,1669464190.803
2025386.0,1669464190.835
2026048.0,1669464190.875
2026729.0,1669464190.913
2027696.0,1669464190.952
2028417.0,1669464190.992
2029456.0,1669464191.033
2030348.0,1669464191.073
2031739.0,1669464191.112
2032622.0,1669464191.153
2031471.0,1669464191.192
2030175.0,1669464191.232
2028566.0,1669464191.274
2027649.0,1669464191.313
2026985.0,1669464191.353
2026461.0,1669464191.394
2026200.0,1669464191.433
2026196.0,1669464191.474
2026356.0,1669464191.514
2026239.0,1669464191.553
2026083.0,1669464191.594
2026240.0,1669464191.635
2026463.0,1669464191.675
2027028.0,1669464191.715
2027460.0,1669464191.756
2028044.0,1669464191.795
2028983.0,1669464191.835
2029375.0,1669464191.877
2030467.0,1669464191.914
2031188.0,1669464191.954
2032327.0,1669464191.995
2033238.0,1669464192.034
2034442.0,1669464192.075
2035757.0,1669464192.116
2034829.0,1669464192.155
2032882.0,1669464192.195
2031377.0,1669464192.228
2031377.0,1669464192.268
2029763.0,1669464192.307
2028508.0,1669464192.348
2027577.0,1669464192.387
2026969.0,1669464192.428
2026367.0,1669464192.469
2025877.0,1669464192.508
2025143.0,1669464192.548
2024544.0,1669464192.589
2024234.0,1669464192.628
2023725.0,1669464192.669
2023457.0,1669464192.71
2023580.0,1669464192.749
2023526.0,1669464192.789
2023670.0,1669464192.83
2023801.0,1669464192.87
2023994.0,1669464192.909
2024511.0,1669464192.951
2024714.0,1669464192.988
2025019.0,1669464193.026
2025688.0,1669464193.061
2026134.0,1669464193.096
2026572.0,1669464193.133
2024640.0,1669464193.175
2022002.0,1669464193.214
2019614.0,1669464193.255
2017474.0,1669464193.296
2015430.0,1669464193.335
2013715.0,1669464193.375
2012463.0,1669464193.415
2011587.0,1669464193.455
2010355.0,1669464193.495
2009264.0,1669464193.536
2008286.0,1669464193.575
2007494.0,1669464193.615
2006815.0,1669464193.657
2006308.0,1669464193.695
2005840.0,1669464193.735
2005469.0,1669464193.776
2005554.0,1669464193.815
2005109.0,1669464193.856
2005518.0,1669464193.897
2005486.0,1669464193.936
2005581.0,1669464193.976
2006146.0,1669464194.017
2006334.0,1669464194.057
2006501.0,1669464194.096
2006761.0,1669464194.137
2005146.0,1669464194.176
2002011.0,1669464194.214
1999402.0,1669464194.256
1996846.0,1669464194.294
1995260.0,1669464194.335
1993192.0,1669464194.376
1991996.0,1669464194.415
1990694.0,1669464194.456
1989502.0,1669464194.497
1988372.0,1669464194.536
1986934.0,1669464194.574
1985887.0,1669464194.616
1985135.0,1669464194.655
1984428.0,1669464194.688
1984083.0,1669464194.729
1984126.0,1669464194.768
1983862.0,1669464194.808
1983526.0,1669464194.85
1983696.0,1669464194.888
1983537.0,1669464194.928
1983789.0,1669464194.97
1984103.0,1669464195.009
1984854.0,1669464195.049
1985389.0,1669464195.09
1984640.0,1669464195.129
1981821.0,1669464195.169
1979013.0,1669464195.21
1976645.0,1669464195.25
1974183.0,1669464195.289
1972421.0,1669464195.33
1971422.0,1669464195.369
1970317.0,1669464195.405
1969643.0,1669464195.439
1969082.0,1669464195.477
1968764.0,1669464195.515
1968188.0,1669464195.557
1967994.0,1669464195.596
1967873.0,1669464195.637
1968218.0,1669464195.678
1968230.0,1669464195.716
1968760.0,1669464195.757
1969103.0,1669464195.798
1969437.0,1669464195.838
1970339.0,1669464195.875
1971547.0,1669464195.917
1971547.0,1669464195.956
1972313.0,1669464195.996
1973338.0,1669464196.038
1973867.0,1669464196.076
1974407.0,1669464196.116
1972563.0,1669464196.158
1969695.0,1669464196.197
1967017.0,1669464196.237
1964769.0,1669464196.278
1962879.0,1669464196.317
1961056.0,1669464196.357
1960432.0,1669464196.398
1960037.0,1669464196.438
