bvp,time
14.65,1675335480.0
17.52,1675335480.015625
19.76,1675335480.03125
21.34,1675335480.046875
22.32,1675335480.0625
22.83,1675335480.078125
22.97,1675335480.09375
22.8,1675335480.109375
22.34,1675335480.125
21.66,1675335480.140625
20.92,1675335480.15625
20.31,1675335480.171875
19.95,1675335480.1875
19.85,1675335480.203125
19.81,1675335480.21875
19.59,1675335480.234375
18.97,1675335480.25
17.86,1675335480.265625
16.3,1675335480.28125
14.39,1675335480.296875
12.23,1675335480.3125
9.88,1675335480.328125
7.43,1675335480.34375
5.01,1675335480.359375
2.82,1675335480.375
1.01,1675335480.390625
-0.37,1675335480.40625
-1.55,1675335480.421875
-2.92,1675335480.4375
-4.84,1675335480.453125
-7.51,1675335480.46875
-10.83,1675335480.484375
-14.43,1675335480.5
-17.9,1675335480.515625
-20.97,1675335480.53125
-23.59,1675335480.546875
-25.93,1675335480.5625
-28.2,1675335480.578125
-30.6,1675335480.59375
-33.23,1675335480.609375
-36.09,1675335480.625
-39.13,1675335480.640625
-42.14,1675335480.65625
-44.78,1675335480.671875
-46.51,1675335480.6875
-46.73,1675335480.703125
-45.02,1675335480.71875
-41.3,1675335480.734375
-35.93,1675335480.75
-29.51,1675335480.765625
-22.77,1675335480.78125
-16.19,1675335480.796875
-9.99,1675335480.8125
-4.11,1675335480.828125
1.56,1675335480.84375
7.07,1675335480.859375
12.28,1675335480.875
16.91,1675335480.890625
20.69,1675335480.90625
23.48,1675335480.921875
25.34,1675335480.9375
26.49,1675335480.953125
27.24,1675335480.96875
27.74,1675335480.984375
28.08,1675335481.0
28.22,1675335481.015625
28.18,1675335481.03125
28.04,1675335481.046875
27.99,1675335481.0625
28.13,1675335481.078125
28.47,1675335481.09375
28.82,1675335481.109375
28.86,1675335481.125
28.35,1675335481.140625
27.21,1675335481.15625
25.53,1675335481.171875
23.55,1675335481.1875
21.43,1675335481.203125
19.28,1675335481.21875
17.03,1675335481.234375
14.57,1675335481.25
11.83,1675335481.265625
8.82,1675335481.28125
5.59,1675335481.296875
2.26,1675335481.3125
-1.09,1675335481.328125
-4.4,1675335481.34375
-7.7,1675335481.359375
-11.11,1675335481.375
-14.84,1675335481.390625
-19.18,1675335481.40625
-24.34,1675335481.421875
-30.33,1675335481.4375
-36.78,1675335481.453125
-42.95,1675335481.46875
-47.87,1675335481.484375
-50.65,1675335481.5
-50.69,1675335481.515625
-47.87,1675335481.53125
-42.5,1675335481.546875
-35.2,1675335481.5625
-26.65,1675335481.578125
-17.47,1675335481.59375
-8.14,1675335481.609375
0.95,1675335481.625
9.54,1675335481.640625
17.45,1675335481.65625
24.55,1675335481.671875
30.7,1675335481.6875
35.68,1675335481.703125
39.31,1675335481.71875
41.42,1675335481.734375
42.04,1675335481.75
41.45,1675335481.765625
40.1,1675335481.78125
38.44,1675335481.796875
36.71,1675335481.8125
34.91,1675335481.828125
32.82,1675335481.84375
30.18,1675335481.859375
26.87,1675335481.875
22.97,1675335481.890625
18.65,1675335481.90625
14.12,1675335481.921875
9.46,1675335481.9375
4.77,1675335481.953125
0.08,1675335481.96875
-4.55,1675335481.984375
-9.1,1675335482.0
-13.72,1675335482.015625
-18.69,1675335482.03125
-24.3,1675335482.046875
-30.66,1675335482.0625
-37.54,1675335482.078125
-44.3,1675335482.09375
-50.12,1675335482.109375
-54.19,1675335482.125
-56.15,1675335482.140625
-56.25,1675335482.15625
-55.51,1675335482.171875
-55.51,1675335482.1875
-57.86,1675335482.203125
-63.65,1675335482.21875
-72.75,1675335482.234375
-83.7,1675335482.25
-93.93,1675335482.265625
-100.55,1675335482.28125
-101.32,1675335482.296875
-95.39,1675335482.3125
-83.54,1675335482.328125
-67.8,1675335482.34375
-50.75,1675335482.359375
-34.66,1675335482.375
-21.04,1675335482.390625
-10.42,1675335482.40625
-2.58,1675335482.421875
3.1,1675335482.4375
7.29,1675335482.453125
10.56,1675335482.46875
13.27,1675335482.484375
15.69,1675335482.5
18.06,1675335482.515625
20.56,1675335482.53125
23.34,1675335482.546875
26.34,1675335482.5625
29.32,1675335482.578125
31.95,1675335482.59375
33.94,1675335482.609375
35.19,1675335482.625
35.86,1675335482.640625
36.28,1675335482.65625
36.76,1675335482.671875
37.42,1675335482.6875
38.13,1675335482.703125
38.6,1675335482.71875
38.5,1675335482.734375
37.67,1675335482.75
36.17,1675335482.765625
34.27,1675335482.78125
32.29,1675335482.796875
30.44,1675335482.8125
28.81,1675335482.828125
27.28,1675335482.84375
25.66,1675335482.859375
23.79,1675335482.875
21.49,1675335482.890625
18.71,1675335482.90625
15.41,1675335482.921875
11.55,1675335482.9375
7.05,1675335482.953125
1.79,1675335482.96875
-4.44,1675335482.984375
-11.87,1675335483.0
-20.65,1675335483.015625
-30.64,1675335483.03125
-41.31,1675335483.046875
-51.73,1675335483.0625
-60.68,1675335483.078125
-67.01,1675335483.09375
-69.88,1675335483.109375
-69.03,1675335483.125
-64.7,1675335483.140625
-57.54,1675335483.15625
-48.35,1675335483.171875
-37.9,1675335483.1875
-26.83,1675335483.203125
-15.63,1675335483.21875
-4.7,1675335483.234375
5.7,1675335483.25
15.39,1675335483.265625
24.26,1675335483.28125
32.18,1675335483.296875
38.97,1675335483.3125
44.39,1675335483.328125
48.28,1675335483.34375
50.62,1675335483.359375
51.72,1675335483.375
52.05,1675335483.390625
52.15,1675335483.40625
52.44,1675335483.421875
53.05,1675335483.4375
53.99,1675335483.453125
55.22,1675335483.46875
56.72,1675335483.484375
58.54,1675335483.5
60.59,1675335483.515625
62.47,1675335483.53125
63.51,1675335483.546875
62.95,1675335483.5625
60.21,1675335483.578125
55.24,1675335483.59375
48.51,1675335483.609375
40.82,1675335483.625
33.02,1675335483.640625
25.75,1675335483.65625
19.31,1675335483.671875
13.69,1675335483.6875
8.69,1675335483.703125
4.09,1675335483.71875
-0.3,1675335483.734375
-4.59,1675335483.75
-8.93,1675335483.765625
-13.46,1675335483.78125
-18.43,1675335483.796875
-24.22,1675335483.8125
-31.24,1675335483.828125
-39.8,1675335483.84375
-49.79,1675335483.859375
-60.49,1675335483.875
-70.52,1675335483.890625
-78.18,1675335483.90625
-81.89,1675335483.921875
-80.72,1675335483.9375
-74.66,1675335483.953125
-64.55,1675335483.96875
-51.73,1675335483.984375
-37.57,1675335484.0
-23.15,1675335484.015625
-9.09,1675335484.03125
4.34,1675335484.046875
17.04,1675335484.0625
28.86,1675335484.078125
39.54,1675335484.09375
48.78,1675335484.109375
56.35,1675335484.125
62.25,1675335484.140625
66.71,1675335484.15625
70.13,1675335484.171875
72.89,1675335484.1875
75.22,1675335484.203125
77.13,1675335484.21875
78.53,1675335484.234375
79.35,1675335484.25
79.66,1675335484.265625
79.71,1675335484.28125
79.8,1675335484.296875
80.08,1675335484.3125
80.52,1675335484.328125
80.83,1675335484.34375
80.68,1675335484.359375
79.75,1675335484.375
77.94,1675335484.390625
75.29,1675335484.40625
71.93,1675335484.421875
68.0,1675335484.4375
63.55,1675335484.453125
58.53,1675335484.46875
52.83,1675335484.484375
46.33,1675335484.5
38.94,1675335484.515625
30.73,1675335484.53125
21.86,1675335484.546875
12.68,1675335484.5625
3.62,1675335484.578125
-4.91,1675335484.59375
-12.66,1675335484.609375
-19.67,1675335484.625
-26.31,1675335484.640625
-33.16,1675335484.65625
-40.82,1675335484.671875
-49.62,1675335484.6875
-59.48,1675335484.703125
-69.78,1675335484.71875
-79.44,1675335484.734375
-87.21,1675335484.75
-91.96,1675335484.765625
-92.96,1675335484.78125
-90.12,1675335484.796875
-83.91,1675335484.8125
-75.21,1675335484.828125
-65.02,1675335484.84375
-54.24,1675335484.859375
-43.49,1675335484.875
-33.09,1675335484.890625
-23.15,1675335484.90625
-13.68,1675335484.921875
-4.71,1675335484.9375
3.58,1675335484.953125
10.87,1675335484.96875
16.75,1675335484.984375
20.91,1675335485.0
23.26,1675335485.015625
24.09,1675335485.03125
24.01,1675335485.046875
23.69,1675335485.0625
23.64,1675335485.078125
23.95,1675335485.09375
24.39,1675335485.109375
24.55,1675335485.125
24.13,1675335485.140625
23.06,1675335485.15625
21.51,1675335485.171875
19.79,1675335485.1875
18.14,1675335485.203125
16.71,1675335485.21875
15.51,1675335485.234375
14.48,1675335485.25
13.48,1675335485.265625
12.31,1675335485.28125
10.71,1675335485.296875
8.4,1675335485.3125
5.17,1675335485.328125
0.98,1675335485.34375
-4.05,1675335485.359375
-9.68,1675335485.375
-15.69,1675335485.390625
-21.98,1675335485.40625
-28.62,1675335485.421875
-35.82,1675335485.4375
-43.81,1675335485.453125
-52.74,1675335485.46875
-62.54,1675335485.484375
-72.75,1675335485.5
-82.5,1675335485.515625
-90.58,1675335485.53125
-95.62,1675335485.546875
-96.44,1675335485.5625
-92.48,1675335485.578125
-83.95,1675335485.59375
-71.86,1675335485.609375
-57.66,1675335485.625
-42.77,1675335485.640625
-28.19,1675335485.65625
-14.36,1675335485.671875
-1.27,1675335485.6875
11.16,1675335485.703125
22.84,1675335485.71875
33.36,1675335485.734375
42.16,1675335485.75
48.79,1675335485.765625
53.16,1675335485.78125
55.62,1675335485.796875
56.83,1675335485.8125
57.47,1675335485.828125
58.1,1675335485.84375
58.97,1675335485.859375
60.06,1675335485.875
61.21,1675335485.890625
62.2,1675335485.90625
62.81,1675335485.921875
62.85,1675335485.9375
62.15,1675335485.953125
60.61,1675335485.96875
58.31,1675335485.984375
55.42,1675335486.0
52.24,1675335486.015625
48.95,1675335486.03125
45.59,1675335486.046875
41.99,1675335486.0625
37.92,1675335486.078125
33.31,1675335486.09375
28.26,1675335486.109375
23.11,1675335486.125
18.2,1675335486.140625
13.71,1675335486.15625
9.58,1675335486.171875
5.52,1675335486.1875
1.13,1675335486.203125
-3.89,1675335486.21875
-9.77,1675335486.234375
-16.53,1675335486.25
-24.03,1675335486.265625
-31.84,1675335486.28125
-39.25,1675335486.296875
-45.28,1675335486.3125
-48.85,1675335486.328125
-49.13,1675335486.34375
-45.73,1675335486.359375
-38.94,1675335486.375
-29.55,1675335486.390625
-18.61,1675335486.40625
-7.14,1675335486.421875
4.11,1675335486.4375
14.73,1675335486.453125
24.6,1675335486.46875
33.69,1675335486.484375
41.98,1675335486.5
49.31,1675335486.515625
55.5,1675335486.53125
60.33,1675335486.546875
63.71,1675335486.5625
65.69,1675335486.578125
66.48,1675335486.59375
66.34,1675335486.609375
65.57,1675335486.625
64.43,1675335486.640625
63.1,1675335486.65625
61.74,1675335486.671875
60.44,1675335486.6875
59.19,1675335486.703125
57.91,1675335486.71875
56.46,1675335486.734375
54.67,1675335486.75
52.42,1675335486.765625
49.66,1675335486.78125
46.38,1675335486.796875
42.69,1675335486.8125
38.74,1675335486.828125
34.7,1675335486.84375
30.77,1675335486.859375
27.05,1675335486.875
23.52,1675335486.890625
19.97,1675335486.90625
16.13,1675335486.921875
11.8,1675335486.9375
6.99,1675335486.953125
1.95,1675335486.96875
-2.94,1675335486.984375
-7.42,1675335487.0
-11.5,1675335487.015625
-15.52,1675335487.03125
-20.03,1675335487.046875
-25.49,1675335487.0625
-32.13,1675335487.078125
-39.69,1675335487.09375
-47.45,1675335487.109375
-54.36,1675335487.125
-59.26,1675335487.140625
-61.14,1675335487.15625
-59.44,1675335487.171875
-54.22,1675335487.1875
-46.09,1675335487.203125
-36.07,1675335487.21875
-25.3,1675335487.234375
-14.68,1675335487.25
-4.75,1675335487.265625
4.38,1675335487.28125
12.86,1675335487.296875
20.84,1675335487.3125
28.31,1675335487.328125
35.08,1675335487.34375
40.79,1675335487.359375
45.22,1675335487.375
48.28,1675335487.390625
50.16,1675335487.40625
51.29,1675335487.421875
52.16,1675335487.4375
53.14,1675335487.453125
54.39,1675335487.46875
55.86,1675335487.484375
57.32,1675335487.5
58.54,1675335487.515625
59.37,1675335487.53125
59.74,1675335487.546875
59.58,1675335487.5625
58.78,1675335487.578125
57.19,1675335487.59375
54.74,1675335487.609375
51.49,1675335487.625
47.69,1675335487.640625
43.76,1675335487.65625
40.07,1675335487.671875
36.93,1675335487.6875
34.44,1675335487.703125
32.52,1675335487.71875
31.05,1675335487.734375
29.78,1675335487.75
28.49,1675335487.765625
26.87,1675335487.78125
24.66,1675335487.796875
21.66,1675335487.8125
17.9,1675335487.828125
13.57,1675335487.84375
8.93,1675335487.859375
4.18,1675335487.875
-0.57,1675335487.890625
-5.36,1675335487.90625
-10.29,1675335487.921875
-15.4,1675335487.9375
-20.69,1675335487.953125
-26.05,1675335487.96875
-31.17,1675335487.984375
-35.5,1675335488.0
-38.33,1675335488.015625
-38.91,1675335488.03125
-36.69,1675335488.046875
-31.66,1675335488.0625
-24.35,1675335488.078125
-15.73,1675335488.09375
-6.84,1675335488.109375
1.54,1675335488.125
9.1,1675335488.140625
15.88,1675335488.15625
22.03,1675335488.171875
27.6,1675335488.1875
32.39,1675335488.203125
36.03,1675335488.21875
38.21,1675335488.234375
38.79,1675335488.25
37.99,1675335488.265625
36.33,1675335488.28125
34.48,1675335488.296875
33.01,1675335488.3125
32.21,1675335488.328125
31.98,1675335488.34375
31.88,1675335488.359375
31.38,1675335488.375
30.11,1675335488.390625
28.01,1675335488.40625
25.23,1675335488.421875
22.01,1675335488.4375
18.49,1675335488.453125
14.65,1675335488.46875
10.39,1675335488.484375
5.73,1675335488.5
0.82,1675335488.515625
-3.98,1675335488.53125
-8.25,1675335488.546875
-11.62,1675335488.5625
-13.93,1675335488.578125
-15.25,1675335488.59375
-15.95,1675335488.609375
-16.6,1675335488.625
-17.86,1675335488.640625
-20.25,1675335488.65625
-23.91,1675335488.671875
-28.53,1675335488.6875
-33.35,1675335488.703125
-37.46,1675335488.71875
-40.19,1675335488.734375
-41.36,1675335488.75
-41.44,1675335488.765625
-41.41,1675335488.78125
-42.5,1675335488.796875
-45.83,1675335488.8125
-52.02,1675335488.828125
-60.93,1675335488.84375
-71.51,1675335488.859375
-81.93,1675335488.875
-89.89,1675335488.890625
-93.23,1675335488.90625
-90.55,1675335488.921875
-81.72,1675335488.9375
-67.92,1675335488.953125
-51.32,1675335488.96875
-34.41,1675335488.984375
-19.39,1675335489.0
-7.63,1675335489.015625
0.4,1675335489.03125
4.94,1675335489.046875
6.67,1675335489.0625
6.35,1675335489.078125
4.76,1675335489.09375
2.59,1675335489.109375
0.36,1675335489.125
-1.63,1675335489.140625
-3.38,1675335489.15625
-5.25,1675335489.171875
-7.76,1675335489.1875
-11.33,1675335489.203125
-16.02,1675335489.21875
-21.36,1675335489.234375
-26.55,1675335489.25
-30.75,1675335489.265625
-33.48,1675335489.28125
-34.86,1675335489.296875
-35.58,1675335489.3125
-36.61,1675335489.328125
-38.73,1675335489.34375
-42.15,1675335489.359375
-46.5,1675335489.375
-51.07,1675335489.390625
-55.2,1675335489.40625
-58.6,1675335489.421875
-61.41,1675335489.4375
-63.96,1675335489.453125
-66.54,1675335489.46875
-69.21,1675335489.484375
-71.88,1675335489.5
-74.45,1675335489.515625
-76.82,1675335489.53125
-78.74,1675335489.546875
-79.6,1675335489.5625
-78.35,1675335489.578125
-73.81,1675335489.59375
-65.23,1675335489.609375
-52.78,1675335489.625
-37.68,1675335489.640625
-21.71,1675335489.65625
-6.55,1675335489.671875
6.81,1675335489.6875
18.13,1675335489.703125
27.58,1675335489.71875
35.26,1675335489.734375
41.0,1675335489.75
44.49,1675335489.765625
45.64,1675335489.78125
44.84,1675335489.796875
42.88,1675335489.8125
40.65,1675335489.828125
38.67,1675335489.84375
36.99,1675335489.859375
35.21,1675335489.875
32.89,1675335489.890625
29.83,1675335489.90625
26.21,1675335489.921875
22.41,1675335489.9375
18.82,1675335489.953125
15.61,1675335489.96875
12.59,1675335489.984375
9.38,1675335490.0
5.55,1675335490.015625
0.87,1675335490.03125
-4.59,1675335490.046875
-10.51,1675335490.0625
-16.45,1675335490.078125
-22.04,1675335490.09375
-27.04,1675335490.109375
-31.39,1675335490.125
-35.12,1675335490.140625
-38.33,1675335490.15625
-41.21,1675335490.171875
-44.04,1675335490.1875
-47.26,1675335490.203125
-51.28,1675335490.21875
-56.3,1675335490.234375
-62.1,1675335490.25
-67.99,1675335490.265625
-72.96,1675335490.28125
-76.03,1675335490.296875
-76.5,1675335490.3125
-74.18,1675335490.328125
-69.32,1675335490.34375
-62.43,1675335490.359375
-54.03,1675335490.375
-44.56,1675335490.390625
-34.38,1675335490.40625
-23.86,1675335490.421875
-13.44,1675335490.4375
-3.6,1675335490.453125
5.2,1675335490.46875
12.65,1675335490.484375
18.58,1675335490.5
23.01,1675335490.515625
26.0,1675335490.53125
27.67,1675335490.546875
28.18,1675335490.5625
27.69,1675335490.578125
26.38,1675335490.59375
24.4,1675335490.609375
21.85,1675335490.625
18.81,1675335490.640625
15.36,1675335490.65625
11.63,1675335490.671875
7.8,1675335490.6875
4.08,1675335490.703125
0.61,1675335490.71875
-2.54,1675335490.734375
-5.48,1675335490.75
-8.38,1675335490.765625
-11.39,1675335490.78125
-14.58,1675335490.796875
-17.87,1675335490.8125
-21.06,1675335490.828125
-23.93,1675335490.84375
-26.37,1675335490.859375
-28.39,1675335490.875
-30.24,1675335490.890625
-32.26,1675335490.90625
-34.83,1675335490.921875
-38.21,1675335490.9375
-42.47,1675335490.953125
-47.43,1675335490.96875
-52.64,1675335490.984375
-57.47,1675335491.0
-61.13,1675335491.015625
-62.87,1675335491.03125
-62.16,1675335491.046875
-58.87,1675335491.0625
-53.33,1675335491.078125
-46.21,1675335491.09375
-38.36,1675335491.109375
-30.51,1675335491.125
-23.08,1675335491.140625
-16.16,1675335491.15625
-9.6,1675335491.171875
-3.21,1675335491.1875
3.05,1675335491.203125
9.03,1675335491.21875
14.43,1675335491.234375
18.93,1675335491.25
22.33,1675335491.265625
24.62,1675335491.28125
25.98,1675335491.296875
26.65,1675335491.3125
26.91,1675335491.328125
26.98,1675335491.34375
27.01,1675335491.359375
27.04,1675335491.375
27.06,1675335491.390625
26.99,1675335491.40625
26.74,1675335491.421875
26.19,1675335491.4375
25.31,1675335491.453125
24.06,1675335491.46875
22.46,1675335491.484375
20.54,1675335491.5
18.32,1675335491.515625
15.77,1675335491.53125
12.89,1675335491.546875
9.67,1675335491.5625
6.12,1675335491.578125
2.34,1675335491.59375
-1.5,1675335491.609375
-5.2,1675335491.625
-8.56,1675335491.640625
-11.55,1675335491.65625
-14.26,1675335491.671875
-17.02,1675335491.6875
-20.27,1675335491.703125
-24.32,1675335491.71875
-29.24,1675335491.734375
-34.74,1675335491.75
-40.16,1675335491.765625
-44.61,1675335491.78125
-47.23,1675335491.796875
-47.42,1675335491.8125
-44.95,1675335491.828125
-40.02,1675335491.84375
-33.18,1675335491.859375
-25.11,1675335491.875
-16.52,1675335491.890625
-7.89,1675335491.90625
0.4,1675335491.921875
8.21,1675335491.9375
15.44,1675335491.953125
21.99,1675335491.96875
27.76,1675335491.984375
32.64,1675335492.0
36.58,1675335492.015625
39.57,1675335492.03125
41.71,1675335492.046875
43.14,1675335492.0625
44.04,1675335492.078125
44.56,1675335492.09375
44.83,1675335492.109375
44.92,1675335492.125
44.82,1675335492.140625
44.58,1675335492.15625
44.23,1675335492.171875
43.86,1675335492.1875
43.54,1675335492.203125
43.26,1675335492.21875
42.88,1675335492.234375
42.15,1675335492.25
40.75,1675335492.265625
38.55,1675335492.28125
35.56,1675335492.296875
32.05,1675335492.3125
28.42,1675335492.328125
25.02,1675335492.34375
22.05,1675335492.359375
19.53,1675335492.375
17.27,1675335492.390625
15.01,1675335492.40625
12.51,1675335492.421875
9.65,1675335492.4375
6.38,1675335492.453125
2.8,1675335492.46875
-0.95,1675335492.484375
-4.67,1675335492.5
-8.18,1675335492.515625
-11.42,1675335492.53125
-14.52,1675335492.546875
-17.77,1675335492.5625
-21.6,1675335492.578125
-26.33,1675335492.59375
-32.03,1675335492.609375
-38.3,1675335492.625
-44.41,1675335492.640625
-49.35,1675335492.65625
-52.28,1675335492.671875
-52.67,1675335492.6875
-50.44,1675335492.703125
-45.92,1675335492.71875
-39.7,1675335492.734375
-32.37,1675335492.75
-24.48,1675335492.765625
-16.48,1675335492.78125
-8.68,1675335492.796875
-1.3,1675335492.8125
5.53,1675335492.828125
11.78,1675335492.84375
17.47,1675335492.859375
22.6,1675335492.875
27.1,1675335492.890625
30.84,1675335492.90625
33.75,1675335492.921875
35.82,1675335492.9375
37.19,1675335492.953125
38.09,1675335492.96875
38.76,1675335492.984375
39.35,1675335493.0
39.87,1675335493.015625
40.23,1675335493.03125
40.33,1675335493.046875
40.13,1675335493.0625
39.61,1675335493.078125
38.78,1675335493.09375
37.62,1675335493.109375
36.09,1675335493.125
34.11,1675335493.140625
31.67,1675335493.15625
28.86,1675335493.171875
25.85,1675335493.1875
22.91,1675335493.203125
20.31,1675335493.21875
18.18,1675335493.234375
16.43,1675335493.25
14.77,1675335493.265625
12.77,1675335493.28125
10.12,1675335493.296875
6.72,1675335493.3125
2.83,1675335493.328125
-1.05,1675335493.34375
-4.39,1675335493.359375
-6.8,1675335493.375
-8.21,1675335493.390625
-8.9,1675335493.40625
-9.41,1675335493.421875
-10.33,1675335493.4375
-12.24,1675335493.453125
-15.43,1675335493.46875
-19.97,1675335493.484375
-25.56,1675335493.5
-31.62,1675335493.515625
-37.4,1675335493.53125
-42.02,1675335493.546875
-44.77,1675335493.5625
-45.12,1675335493.578125
-42.84,1675335493.59375
-38.05,1675335493.609375
-31.18,1675335493.625
-22.85,1675335493.640625
-13.78,1675335493.65625
-4.65,1675335493.671875
4.0,1675335493.6875
11.9,1675335493.703125
18.98,1675335493.71875
25.35,1675335493.734375
31.15,1675335493.75
36.51,1675335493.765625
41.45,1675335493.78125
45.96,1675335493.796875
50.0,1675335493.8125
53.5,1675335493.828125
56.48,1675335493.84375
58.96,1675335493.859375
60.98,1675335493.875
62.58,1675335493.890625
63.83,1675335493.90625
64.75,1675335493.921875
65.38,1675335493.9375
65.77,1675335493.953125
65.92,1675335493.96875
65.82,1675335493.984375
65.35,1675335494.0
64.37,1675335494.015625
62.76,1675335494.03125
60.5,1675335494.046875
57.67,1675335494.0625
54.48,1675335494.078125
51.09,1675335494.09375
47.56,1675335494.109375
43.83,1675335494.125
39.67,1675335494.140625
34.92,1675335494.15625
29.55,1675335494.171875
23.72,1675335494.1875
17.75,1675335494.203125
11.91,1675335494.21875
6.36,1675335494.234375
1.1,1675335494.25
-4.05,1675335494.265625
-9.29,1675335494.28125
-14.83,1675335494.296875
-20.8,1675335494.3125
-27.23,1675335494.328125
-33.98,1675335494.34375
-40.68,1675335494.359375
-46.67,1675335494.375
-51.16,1675335494.390625
-53.48,1675335494.40625
-53.32,1675335494.421875
-50.89,1675335494.4375
-46.89,1675335494.453125
-42.18,1675335494.46875
-37.41,1675335494.484375
-32.89,1675335494.5
-28.57,1675335494.515625
-24.3,1675335494.53125
-20.08,1675335494.546875
-16.17,1675335494.5625
-12.92,1675335494.578125
-10.56,1675335494.59375
-8.95,1675335494.609375
-7.68,1675335494.625
-6.19,1675335494.640625
-4.11,1675335494.65625
-1.42,1675335494.671875
1.59,1675335494.6875
4.52,1675335494.703125
7.08,1675335494.71875
9.2,1675335494.734375
11.01,1675335494.75
12.65,1675335494.765625
14.15,1675335494.78125
15.43,1675335494.796875
16.36,1675335494.8125
16.86,1675335494.828125
16.94,1675335494.84375
16.65,1675335494.859375
16.03,1675335494.875
15.03,1675335494.890625
13.63,1675335494.90625
11.95,1675335494.921875
10.22,1675335494.9375
8.78,1675335494.953125
7.83,1675335494.96875
7.37,1675335494.984375
7.12,1675335495.0
6.72,1675335495.015625
5.89,1675335495.03125
4.58,1675335495.046875
2.95,1675335495.0625
1.2,1675335495.078125
-0.54,1675335495.09375
-2.28,1675335495.109375
-4.05,1675335495.125
-5.84,1675335495.140625
-7.56,1675335495.15625
-9.21,1675335495.171875
-10.94,1675335495.1875
-13.08,1675335495.203125
-15.97,1675335495.21875
-19.67,1675335495.234375
-23.88,1675335495.25
-27.88,1675335495.265625
-30.89,1675335495.28125
-32.26,1675335495.296875
-31.8,1675335495.3125
-29.76,1675335495.328125
-26.61,1675335495.34375
-22.93,1675335495.359375
-19.15,1675335495.375
-15.58,1675335495.390625
-12.43,1675335495.40625
-9.83,1675335495.421875
-7.85,1675335495.4375
-6.47,1675335495.453125
-5.5,1675335495.46875
-4.69,1675335495.484375
-3.76,1675335495.5
-2.45,1675335495.515625
-0.59,1675335495.53125
1.81,1675335495.546875
4.65,1675335495.5625
7.73,1675335495.578125
10.84,1675335495.59375
13.77,1675335495.609375
16.43,1675335495.625
18.82,1675335495.640625
21.06,1675335495.65625
23.24,1675335495.671875
25.39,1675335495.6875
27.39,1675335495.703125
28.92,1675335495.71875
29.69,1675335495.734375
29.48,1675335495.75
28.28,1675335495.765625
26.35,1675335495.78125
24.12,1675335495.796875
22.03,1675335495.8125
20.45,1675335495.828125
19.41,1675335495.84375
18.58,1675335495.859375
17.31,1675335495.875
14.77,1675335495.890625
10.24,1675335495.90625
3.44,1675335495.921875
-5.37,1675335495.9375
-15.35,1675335495.953125
-25.16,1675335495.96875
-33.51,1675335495.984375
-39.39,1675335496.0
-42.49,1675335496.015625
-43.21,1675335496.03125
-42.52,1675335496.046875
-41.73,1675335496.0625
-42.04,1675335496.078125
-44.25,1675335496.09375
-48.53,1675335496.109375
-54.36,1675335496.125
-60.68,1675335496.140625
-66.2,1675335496.15625
-69.79,1675335496.171875
-70.78,1675335496.1875
-69.13,1675335496.203125
-65.33,1675335496.21875
-60.24,1675335496.234375
-54.7,1675335496.25
-49.31,1675335496.265625
-44.31,1675335496.28125
-39.66,1675335496.296875
-35.2,1675335496.3125
-30.88,1675335496.328125
-26.85,1675335496.34375
-23.4,1675335496.359375
-20.79,1675335496.375
-19.05,1675335496.390625
-17.97,1675335496.40625
-17.13,1675335496.421875
-16.05,1675335496.4375
-14.31,1675335496.453125
-11.63,1675335496.46875
-7.84,1675335496.484375
-2.92,1675335496.5
2.95,1675335496.515625
9.35,1675335496.53125
15.7,1675335496.546875
21.46,1675335496.5625
26.29,1675335496.578125
30.19,1675335496.59375
33.4,1675335496.609375
36.14,1675335496.625
38.35,1675335496.640625
39.65,1675335496.65625
39.59,1675335496.671875
37.81,1675335496.6875
34.35,1675335496.703125
29.61,1675335496.71875
24.08,1675335496.734375
18.17,1675335496.75
12.11,1675335496.765625
5.94,1675335496.78125
-0.33,1675335496.796875
-6.68,1675335496.8125
-12.96,1675335496.828125
-18.91,1675335496.84375
-24.14,1675335496.859375
-28.3,1675335496.875
-31.22,1675335496.890625
-33.11,1675335496.90625
-34.62,1675335496.921875
-36.72,1675335496.9375
-40.29,1675335496.953125
-45.76,1675335496.96875
-52.81,1675335496.984375
-60.48,1675335497.0
-67.43,1675335497.015625
-72.44,1675335497.03125
-74.72,1675335497.046875
-74.06,1675335497.0625
-70.63,1675335497.078125
-64.75,1675335497.09375
-56.71,1675335497.109375
-46.75,1675335497.125
-35.2,1675335497.140625
-22.65,1675335497.15625
-9.93,1675335497.171875
2.0,1675335497.1875
12.35,1675335497.203125
20.73,1675335497.21875
27.18,1675335497.234375
32.05,1675335497.25
35.69,1675335497.265625
38.2,1675335497.28125
39.49,1675335497.296875
39.35,1675335497.3125
37.76,1675335497.328125
34.94,1675335497.34375
31.37,1675335497.359375
27.61,1675335497.375
24.21,1675335497.390625
21.57,1675335497.40625
19.95,1675335497.421875
19.44,1675335497.4375
19.88,1675335497.453125
20.86,1675335497.46875
21.79,1675335497.484375
22.05,1675335497.5
21.23,1675335497.515625
19.29,1675335497.53125
16.56,1675335497.546875
13.57,1675335497.5625
10.79,1675335497.578125
8.41,1675335497.59375
6.31,1675335497.609375
4.15,1675335497.625
1.6,1675335497.640625
-1.56,1675335497.65625
-5.37,1675335497.671875
-9.76,1675335497.6875
-14.57,1675335497.703125
-19.69,1675335497.71875
-25.0,1675335497.734375
-30.43,1675335497.75
-35.92,1675335497.765625
-41.44,1675335497.78125
-47.03,1675335497.796875
-52.72,1675335497.8125
-58.38,1675335497.828125
-63.67,1675335497.84375
-68.01,1675335497.859375
-70.69,1675335497.875
-71.11,1675335497.890625
-68.97,1675335497.90625
-64.34,1675335497.921875
-57.58,1675335497.9375
-49.17,1675335497.953125
-39.59,1675335497.96875
-29.19,1675335497.984375
-18.3,1675335498.0
-7.26,1675335498.015625
3.5,1675335498.03125
13.58,1675335498.046875
22.6,1675335498.0625
30.39,1675335498.078125
36.91,1675335498.09375
42.2,1675335498.109375
46.38,1675335498.125
49.55,1675335498.140625
51.88,1675335498.15625
53.61,1675335498.171875
55.08,1675335498.1875
56.63,1675335498.203125
58.5,1675335498.21875
60.71,1675335498.234375
63.04,1675335498.25
65.14,1675335498.265625
66.65,1675335498.28125
67.36,1675335498.296875
67.36,1675335498.3125
66.92,1675335498.328125
66.41,1675335498.34375
66.15,1675335498.359375
66.32,1675335498.375
66.91,1675335498.390625
67.73,1675335498.40625
68.35,1675335498.421875
68.08,1675335498.4375
66.11,1675335498.453125
61.7,1675335498.46875
54.52,1675335498.484375
44.88,1675335498.5
33.68,1675335498.515625
22.32,1675335498.53125
12.24,1675335498.546875
4.69,1675335498.5625
0.48,1675335498.578125
-0.03,1675335498.59375
3.11,1675335498.609375
9.45,1675335498.625
18.14,1675335498.640625
27.98,1675335498.65625
37.61,1675335498.671875
45.77,1675335498.6875
51.67,1675335498.703125
55.18,1675335498.71875
56.7,1675335498.734375
56.94,1675335498.75
56.5,1675335498.765625
55.68,1675335498.78125
54.41,1675335498.796875
52.26,1675335498.8125
48.66,1675335498.828125
43.03,1675335498.84375
34.88,1675335498.859375
24.02,1675335498.875
10.79,1675335498.890625
-3.77,1675335498.90625
-17.93,1675335498.921875
-29.63,1675335498.9375
-37.18,1675335498.953125
-39.93,1675335498.96875
-38.6,1675335498.984375
-35.11,1675335499.0
-31.82,1675335499.015625
-30.65,1675335499.03125
-32.4,1675335499.046875
-36.74,1675335499.0625
-42.58,1675335499.078125
-48.79,1675335499.09375
-54.65,1675335499.109375
-59.98,1675335499.125
-64.95,1675335499.140625
-69.72,1675335499.15625
-74.31,1675335499.171875
-78.56,1675335499.1875
-82.39,1675335499.203125
-85.97,1675335499.21875
-89.75,1675335499.234375
-94.24,1675335499.25
-99.68,1675335499.265625
-105.74,1675335499.28125
-111.46,1675335499.296875
-115.51,1675335499.3125
-116.6,1675335499.328125
-114.0,1675335499.34375
-107.74,1675335499.359375
-98.56,1675335499.375
-87.58,1675335499.390625
-75.93,1675335499.40625
-64.47,1675335499.421875
-53.77,1675335499.4375
-44.12,1675335499.453125
-35.69,1675335499.46875
-28.43,1675335499.484375
-22.12,1675335499.5
-16.24,1675335499.515625
-10.15,1675335499.53125
-3.27,1675335499.546875
4.72,1675335499.5625
13.83,1675335499.578125
23.8,1675335499.59375
34.29,1675335499.609375
44.92,1675335499.625
55.24,1675335499.640625
64.68,1675335499.65625
72.48,1675335499.671875
77.83,1675335499.6875
80.09,1675335499.703125
79.1,1675335499.71875
75.19,1675335499.734375
69.19,1675335499.75
62.1,1675335499.765625
54.79,1675335499.78125
47.73,1675335499.796875
40.95,1675335499.8125
34.17,1675335499.828125
27.1,1675335499.84375
19.59,1675335499.859375
11.83,1675335499.875
4.22,1675335499.890625
-2.82,1675335499.90625
-9.07,1675335499.921875
-14.63,1675335499.9375
-19.88,1675335499.953125
-25.27,1675335499.96875
-31.18,1675335499.984375
-37.72,1675335500.0
-44.77,1675335500.015625
-52.02,1675335500.03125
-59.0,1675335500.046875
-65.1,1675335500.0625
-69.62,1675335500.078125
-71.92,1675335500.09375
-71.54,1675335500.109375
-68.38,1675335500.125
-62.71,1675335500.140625
-55.03,1675335500.15625
-45.86,1675335500.171875
-35.62,1675335500.1875
-24.66,1675335500.203125
-13.35,1675335500.21875
-2.17,1675335500.234375
8.24,1675335500.25
17.29,1675335500.265625
24.6,1675335500.28125
30.1,1675335500.296875
34.03,1675335500.3125
36.79,1675335500.328125
38.76,1675335500.34375
40.27,1675335500.359375
41.53,1675335500.375
42.6,1675335500.390625
43.42,1675335500.40625
43.75,1675335500.421875
43.28,1675335500.4375
41.73,1675335500.453125
39.09,1675335500.46875
35.63,1675335500.484375
31.85,1675335500.5
28.33,1675335500.515625
25.4,1675335500.53125
23.14,1675335500.546875
21.37,1675335500.5625
19.83,1675335500.578125
18.35,1675335500.59375
16.91,1675335500.609375
15.6,1675335500.625
14.45,1675335500.640625
13.34,1675335500.65625
12.04,1675335500.671875
10.29,1675335500.6875
7.98,1675335500.703125
5.21,1675335500.71875
2.28,1675335500.734375
-0.47,1675335500.75
-2.79,1675335500.765625
-4.68,1675335500.78125
-6.37,1675335500.796875
-8.31,1675335500.8125
-10.97,1675335500.828125
-14.76,1675335500.84375
-19.78,1675335500.859375
-25.87,1675335500.875
-32.47,1675335500.890625
-38.79,1675335500.90625
-43.9,1675335500.921875
-46.99,1675335500.9375
-47.48,1675335500.953125
-45.18,1675335500.96875
-40.29,1675335500.984375
-33.27,1675335501.0
-24.78,1675335501.015625
-15.45,1675335501.03125
-5.93,1675335501.046875
3.28,1675335501.0625
11.76,1675335501.078125
19.25,1675335501.09375
25.65,1675335501.109375
30.97,1675335501.125
35.29,1675335501.140625
38.68,1675335501.15625
41.22,1675335501.171875
43.03,1675335501.1875
44.26,1675335501.203125
45.16,1675335501.21875
45.94,1675335501.234375
46.7,1675335501.25
47.4,1675335501.265625
47.88,1675335501.28125
47.97,1675335501.296875
47.61,1675335501.3125
46.86,1675335501.328125
45.85,1675335501.34375
44.7,1675335501.359375
43.43,1675335501.375
41.96,1675335501.390625
40.19,1675335501.40625
38.08,1675335501.421875
35.67,1675335501.4375
33.06,1675335501.453125
30.33,1675335501.46875
27.45,1675335501.484375
24.34,1675335501.5
20.91,1675335501.515625
17.23,1675335501.53125
13.5,1675335501.546875
9.98,1675335501.5625
6.88,1675335501.578125
4.23,1675335501.59375
1.89,1675335501.609375
-0.43,1675335501.625
-3.05,1675335501.640625
-6.24,1675335501.65625
-10.2,1675335501.671875
-14.98,1675335501.6875
-20.41,1675335501.703125
-26.03,1675335501.71875
-31.02,1675335501.734375
-34.38,1675335501.75
-35.21,1675335501.765625
-33.05,1675335501.78125
-28.07,1675335501.796875
-20.99,1675335501.8125
-12.83,1675335501.828125
-4.54,1675335501.84375
3.28,1675335501.859375
10.47,1675335501.875
17.1,1675335501.890625
23.3,1675335501.90625
29.11,1675335501.921875
34.39,1675335501.9375
38.89,1675335501.953125
42.46,1675335501.96875
45.06,1675335501.984375
46.88,1675335502.0
48.2,1675335502.015625
49.33,1675335502.03125
50.41,1675335502.046875
51.42,1675335502.0625
52.14,1675335502.078125
52.32,1675335502.09375
51.77,1675335502.109375
50.41,1675335502.125
48.35,1675335502.140625
45.79,1675335502.15625
42.93,1675335502.171875
39.98,1675335502.1875
37.03,1675335502.203125
34.13,1675335502.21875
31.26,1675335502.234375
28.4,1675335502.25
25.52,1675335502.265625
22.66,1675335502.28125
19.86,1675335502.296875
17.26,1675335502.3125
14.94,1675335502.328125
12.92,1675335502.34375
11.1,1675335502.359375
9.31,1675335502.375
7.34,1675335502.390625
5.05,1675335502.40625
2.39,1675335502.421875
-0.54,1675335502.4375
-3.61,1675335502.453125
-6.66,1675335502.46875
-9.58,1675335502.484375
-12.35,1675335502.5
-14.98,1675335502.515625
-17.54,1675335502.53125
-20.17,1675335502.546875
-23.07,1675335502.5625
-26.47,1675335502.578125
-30.51,1675335502.59375
-35.17,1675335502.609375
-40.15,1675335502.625
-44.84,1675335502.640625
-48.43,1675335502.65625
-50.14,1675335502.671875
-49.48,1675335502.6875
-46.36,1675335502.703125
-41.17,1675335502.71875
-34.59,1675335502.734375
-27.36,1675335502.75
-20.14,1675335502.765625
-13.33,1675335502.78125
-7.08,1675335502.796875
-1.42,1675335502.8125
3.7,1675335502.828125
8.32,1675335502.84375
12.43,1675335502.859375
16.02,1675335502.875
19.08,1675335502.890625
21.64,1675335502.90625
23.72,1675335502.921875
25.38,1675335502.9375
26.64,1675335502.953125
27.54,1675335502.96875
28.1,1675335502.984375
28.33,1675335503.0
28.3,1675335503.015625
28.09,1675335503.03125
27.79,1675335503.046875
27.51,1675335503.0625
27.31,1675335503.078125
27.17,1675335503.09375
26.98,1675335503.109375
26.57,1675335503.125
25.8,1675335503.140625
24.6,1675335503.15625
23.07,1675335503.171875
21.38,1675335503.1875
19.71,1675335503.203125
18.15,1675335503.21875
16.66,1675335503.234375
15.14,1675335503.25
13.46,1675335503.265625
11.64,1675335503.28125
9.75,1675335503.296875
7.92,1675335503.3125
6.2,1675335503.328125
4.47,1675335503.34375
2.56,1675335503.359375
0.24,1675335503.375
-2.59,1675335503.390625
-5.82,1675335503.40625
-9.24,1675335503.421875
-12.58,1675335503.4375
-15.62,1675335503.453125
-18.26,1675335503.46875
-20.57,1675335503.484375
-22.69,1675335503.5
-24.78,1675335503.515625
-27.03,1675335503.53125
-29.58,1675335503.546875
-32.59,1675335503.5625
-36.09,1675335503.578125
-39.91,1675335503.59375
-43.62,1675335503.609375
-46.52,1675335503.625
-47.9,1675335503.640625
-47.21,1675335503.65625
-44.35,1675335503.671875
-39.69,1675335503.6875
-33.9,1675335503.703125
-27.8,1675335503.71875
-21.98,1675335503.734375
-16.73,1675335503.75
-12.07,1675335503.765625
-7.83,1675335503.78125
-3.85,1675335503.796875
-0.05,1675335503.8125
3.53,1675335503.828125
6.76,1675335503.84375
9.52,1675335503.859375
11.72,1675335503.875
13.32,1675335503.890625
14.39,1675335503.90625
15.08,1675335503.921875
15.5,1675335503.9375
15.76,1675335503.953125
15.92,1675335503.96875
15.95,1675335503.984375
15.85,1675335504.0
15.61,1675335504.015625
15.25,1675335504.03125
14.82,1675335504.046875
14.29,1675335504.0625
13.62,1675335504.078125
12.74,1675335504.09375
11.61,1675335504.109375
10.25,1675335504.125
8.78,1675335504.140625
7.33,1675335504.15625
6.03,1675335504.171875
4.92,1675335504.1875
3.97,1675335504.203125
3.05,1675335504.21875
2.06,1675335504.234375
0.98,1675335504.25
-0.23,1675335504.265625
-1.54,1675335504.28125
-2.96,1675335504.296875
-4.55,1675335504.3125
-6.41,1675335504.328125
-8.6,1675335504.34375
-11.09,1675335504.359375
-13.7,1675335504.375
-16.19,1675335504.390625
-18.32,1675335504.40625
-20.02,1675335504.421875
-21.44,1675335504.4375
-22.9,1675335504.453125
-24.75,1675335504.46875
-27.28,1675335504.484375
-30.51,1675335504.5
-34.21,1675335504.515625
-37.89,1675335504.53125
-40.94,1675335504.546875
-42.73,1675335504.5625
-42.79,1675335504.578125
-40.95,1675335504.59375
-37.37,1675335504.609375
-32.54,1675335504.625
-27.09,1675335504.640625
-21.6,1675335504.65625
-16.46,1675335504.671875
-11.78,1675335504.6875
-7.42,1675335504.703125
-3.18,1675335504.71875
1.13,1675335504.734375
5.47,1675335504.75
9.7,1675335504.765625
13.55,1675335504.78125
16.74,1675335504.796875
19.1,1675335504.8125
20.57,1675335504.828125
21.18,1675335504.84375
21.02,1675335504.859375
20.22,1675335504.875
18.94,1675335504.890625
17.44,1675335504.90625
16.03,1675335504.921875
15.14,1675335504.9375
15.13,1675335504.953125
16.19,1675335504.96875
18.22,1675335504.984375
20.78,1675335505.0
23.25,1675335505.015625
25.0,1675335505.03125
25.63,1675335505.046875
25.08,1675335505.0625
23.6,1675335505.078125
21.61,1675335505.09375
19.49,1675335505.109375
17.51,1675335505.125
15.69,1675335505.140625
14.03,1675335505.15625
12.47,1675335505.171875
10.99,1675335505.1875
9.55,1675335505.203125
8.16,1675335505.21875
6.72,1675335505.234375
5.12,1675335505.25
3.23,1675335505.265625
1.01,1675335505.28125
-1.47,1675335505.296875
-4.1,1675335505.3125
-6.75,1675335505.328125
-9.37,1675335505.34375
-11.96,1675335505.359375
-14.48,1675335505.375
-16.75,1675335505.390625
-18.36,1675335505.40625
-18.78,1675335505.421875
-17.57,1675335505.4375
-14.58,1675335505.453125
-10.14,1675335505.46875
-4.92,1675335505.484375
0.35,1675335505.5
5.05,1675335505.515625
8.92,1675335505.53125
11.94,1675335505.546875
14.15,1675335505.5625
15.54,1675335505.578125
16.06,1675335505.59375
15.68,1675335505.609375
14.54,1675335505.625
12.92,1675335505.640625
11.19,1675335505.65625
9.59,1675335505.671875
8.24,1675335505.6875
7.07,1675335505.703125
5.95,1675335505.71875
4.74,1675335505.734375
3.38,1675335505.75
1.88,1675335505.765625
0.26,1675335505.78125
-1.45,1675335505.796875
-3.22,1675335505.8125
-5.03,1675335505.828125
-6.89,1675335505.84375
-8.79,1675335505.859375
-10.65,1675335505.875
-12.31,1675335505.890625
-13.36,1675335505.90625
-13.34,1675335505.921875
-11.84,1675335505.9375
-8.73,1675335505.953125
-4.26,1675335505.96875
0.9,1675335505.984375
5.88,1675335506.0
9.86,1675335506.015625
12.46,1675335506.03125
13.8,1675335506.046875
14.43,1675335506.0625
14.99,1675335506.078125
15.85,1675335506.09375
16.91,1675335506.109375
17.67,1675335506.125
17.54,1675335506.140625
16.2,1675335506.15625
13.71,1675335506.171875
10.42,1675335506.1875
6.72,1675335506.203125
2.82,1675335506.21875
-1.25,1675335506.234375
-5.45,1675335506.25
-9.47,1675335506.265625
-12.62,1675335506.28125
-14.08,1675335506.296875
-13.24,1675335506.3125
-10.11,1675335506.328125
-5.45,1675335506.34375
-0.54,1675335506.359375
3.25,1675335506.375
4.81,1675335506.390625
3.69,1675335506.40625
0.09,1675335506.421875
-5.29,1675335506.4375
-11.53,1675335506.453125
-17.79,1675335506.46875
-23.44,1675335506.484375
-28.23,1675335506.5
-32.23,1675335506.515625
-35.74,1675335506.53125
-39.16,1675335506.546875
-42.85,1675335506.5625
-46.96,1675335506.578125
-51.37,1675335506.59375
-55.75,1675335506.609375
-59.71,1675335506.625
-62.97,1675335506.640625
-65.49,1675335506.65625
-67.47,1675335506.671875
-69.18,1675335506.6875
-70.87,1675335506.703125
-72.68,1675335506.71875
-74.66,1675335506.734375
-76.7,1675335506.75
-78.55,1675335506.765625
-79.66,1675335506.78125
-79.26,1675335506.796875
-76.58,1675335506.8125
-71.27,1675335506.828125
-63.64,1675335506.84375
-54.69,1675335506.859375
-45.79,1675335506.875
-38.04,1675335506.890625
-31.98,1675335506.90625
-27.43,1675335506.921875
-23.85,1675335506.9375
-20.77,1675335506.953125
-18.03,1675335506.96875
-15.75,1675335506.984375
-14.1,1675335507.0
-13.0,1675335507.015625
-12.16,1675335507.03125
-11.22,1675335507.046875
-9.99,1675335507.0625
-8.6,1675335507.078125
-7.42,1675335507.09375
-6.84,1675335507.109375
-7.16,1675335507.125
-8.39,1675335507.140625
-10.3,1675335507.15625
-12.54,1675335507.171875
-14.79,1675335507.1875
-16.86,1675335507.203125
-18.76,1675335507.21875
-20.69,1675335507.234375
-22.85,1675335507.25
-25.35,1675335507.265625
-27.99,1675335507.28125
-30.35,1675335507.296875
-31.94,1675335507.3125
-32.45,1675335507.328125
-31.94,1675335507.34375
-30.77,1675335507.359375
-29.51,1675335507.375
-28.59,1675335507.390625
-28.21,1675335507.40625
-28.3,1675335507.421875
-28.65,1675335507.4375
-28.96,1675335507.453125
-28.95,1675335507.46875
-28.34,1675335507.484375
-26.9,1675335507.5
-24.5,1675335507.515625
-21.27,1675335507.53125
-17.63,1675335507.546875
-14.22,1675335507.5625
-11.63,1675335507.578125
-10.21,1675335507.59375
-9.93,1675335507.609375
-10.59,1675335507.625
-11.99,1675335507.640625
-14.14,1675335507.65625
-17.25,1675335507.671875
-21.6,1675335507.6875
-27.24,1675335507.703125
-33.89,1675335507.71875
-40.86,1675335507.734375
-47.27,1675335507.75
-52.19,1675335507.765625
-54.84,1675335507.78125
-54.74,1675335507.796875
-51.83,1675335507.8125
-46.36,1675335507.828125
-38.9,1675335507.84375
-30.18,1675335507.859375
-20.89,1675335507.875
-11.58,1675335507.890625
-2.56,1675335507.90625
6.0,1675335507.921875
14.03,1675335507.9375
21.39,1675335507.953125
27.9,1675335507.96875
33.38,1675335507.984375
37.81,1675335508.0
41.36,1675335508.015625
44.4,1675335508.03125
47.3,1675335508.046875
50.24,1675335508.0625
53.18,1675335508.078125
55.8,1675335508.09375
57.79,1675335508.109375
59.04,1675335508.125
59.7,1675335508.140625
60.16,1675335508.15625
60.77,1675335508.171875
61.72,1675335508.1875
62.92,1675335508.203125
64.06,1675335508.21875
64.83,1675335508.234375
65.04,1675335508.25
64.68,1675335508.265625
63.84,1675335508.28125
62.69,1675335508.296875
61.38,1675335508.3125
60.1,1675335508.328125
59.01,1675335508.34375
58.21,1675335508.359375
57.52,1675335508.375
56.38,1675335508.390625
53.98,1675335508.40625
49.48,1675335508.421875
42.33,1675335508.4375
32.44,1675335508.453125
20.27,1675335508.46875
6.64,1675335508.484375
-7.31,1675335508.5
-20.27,1675335508.515625
-30.81,1675335508.53125
-37.58,1675335508.546875
-39.62,1675335508.5625
-36.59,1675335508.578125
-29.0,1675335508.59375
-18.11,1675335508.609375
-5.56,1675335508.625
7.03,1675335508.640625
18.51,1675335508.65625
28.32,1675335508.671875
36.51,1675335508.6875
43.61,1675335508.703125
50.38,1675335508.71875
57.61,1675335508.734375
65.87,1675335508.75
75.27,1675335508.765625
85.38,1675335508.78125
95.29,1675335508.796875
103.85,1675335508.8125
110.02,1675335508.828125
113.2,1675335508.84375
113.44,1675335508.859375
111.37,1675335508.875
107.9,1675335508.890625
103.86,1675335508.90625
99.68,1675335508.921875
95.27,1675335508.9375
90.19,1675335508.953125
83.95,1675335508.96875
76.39,1675335508.984375
67.72,1675335509.0
58.43,1675335509.015625
49.08,1675335509.03125
40.09,1675335509.046875
31.71,1675335509.0625
24.02,1675335509.078125
17.02,1675335509.09375
10.58,1675335509.109375
4.35,1675335509.125
-2.28,1675335509.140625
-10.08,1675335509.15625
-19.75,1675335509.171875
-31.63,1675335509.1875
-45.47,1675335509.203125
-60.48,1675335509.21875
-75.56,1675335509.234375
-89.6,1675335509.25
-101.81,1675335509.265625
-111.76,1675335509.28125
-119.34,1675335509.296875
-124.54,1675335509.3125
-127.28,1675335509.328125
-127.46,1675335509.34375
-125.02,1675335509.359375
-120.09,1675335509.375
-113.09,1675335509.390625
-104.59,1675335509.40625
-95.11,1675335509.421875
-84.96,1675335509.4375
-74.17,1675335509.453125
-62.69,1675335509.46875
-50.59,1675335509.484375
-38.24,1675335509.5
-26.32,1675335509.515625
-15.62,1675335509.53125
-6.83,1675335509.546875
-0.3,1675335509.5625
3.97,1675335509.578125
6.32,1675335509.59375
7.23,1675335509.609375
7.22,1675335509.625
6.75,1675335509.640625
6.24,1675335509.65625
6.04,1675335509.671875
6.42,1675335509.6875
7.51,1675335509.703125
9.24,1675335509.71875
11.4,1675335509.734375
13.74,1675335509.75
16.18,1675335509.765625
18.89,1675335509.78125
22.2,1675335509.796875
26.39,1675335509.8125
31.47,1675335509.828125
37.01,1675335509.84375
42.32,1675335509.859375
46.69,1675335509.875
49.6,1675335509.890625
50.83,1675335509.90625
50.29,1675335509.921875
47.95,1675335509.9375
43.68,1675335509.953125
37.42,1675335509.96875
29.34,1675335509.984375
19.95,1675335510.0
10.0,1675335510.015625
0.23,1675335510.03125
-9.0,1675335510.046875
-17.76,1675335510.0625
-26.54,1675335510.078125
-35.89,1675335510.09375
-46.19,1675335510.109375
-57.42,1675335510.125
-69.2,1675335510.140625
-80.83,1675335510.15625
-91.36,1675335510.171875
-99.75,1675335510.1875
-104.97,1675335510.203125
-106.3,1675335510.21875
-103.54,1675335510.234375
-97.17,1675335510.25
-88.21,1675335510.265625
-77.9,1675335510.28125
-67.26,1675335510.296875
-56.76,1675335510.3125
-46.39,1675335510.328125
-35.92,1675335510.34375
-25.3,1675335510.359375
-14.85,1675335510.375
-5.19,1675335510.390625
3.09,1675335510.40625
9.67,1675335510.421875
14.73,1675335510.4375
18.81,1675335510.453125
22.5,1675335510.46875
26.29,1675335510.484375
30.34,1675335510.5
34.58,1675335510.515625
38.79,1675335510.53125
42.73,1675335510.546875
46.24,1675335510.5625
49.26,1675335510.578125
51.77,1675335510.59375
53.72,1675335510.609375
55.04,1675335510.625
55.58,1675335510.640625
55.23,1675335510.65625
53.96,1675335510.671875
51.81,1675335510.6875
48.99,1675335510.703125
45.77,1675335510.71875
42.44,1675335510.734375
39.24,1675335510.75
36.25,1675335510.765625
33.41,1675335510.78125
30.49,1675335510.796875
27.26,1675335510.8125
23.53,1675335510.828125
19.27,1675335510.84375
14.62,1675335510.859375
9.81,1675335510.875
5.1,1675335510.890625
0.64,1675335510.90625
-3.59,1675335510.921875
-7.73,1675335510.9375
-11.97,1675335510.953125
-16.55,1675335510.96875
-21.66,1675335510.984375
-27.45,1675335511.0
-33.91,1675335511.015625
-40.8,1675335511.03125
-47.6,1675335511.046875
-53.41,1675335511.0625
-57.2,1675335511.078125
-58.04,1675335511.09375
-55.46,1675335511.109375
-49.6,1675335511.125
-41.14,1675335511.140625
-31.09,1675335511.15625
-20.43,1675335511.171875
-9.88,1675335511.1875
0.21,1675335511.203125
9.69,1675335511.21875
18.51,1675335511.234375
26.58,1675335511.25
33.73,1675335511.265625
39.84,1675335511.28125
44.87,1675335511.296875
48.93,1675335511.3125
52.25,1675335511.328125
55.02,1675335511.34375
57.27,1675335511.359375
58.93,1675335511.375
59.83,1675335511.390625
59.88,1675335511.40625
59.19,1675335511.421875
58.02,1675335511.4375
56.76,1675335511.453125
55.69,1675335511.46875
54.9,1675335511.484375
54.17,1675335511.5
53.18,1675335511.515625
51.55,1675335511.53125
49.13,1675335511.546875
46.04,1675335511.5625
42.55,1675335511.578125
38.99,1675335511.59375
35.58,1675335511.609375
32.32,1675335511.625
28.99,1675335511.640625
25.32,1675335511.65625
21.15,1675335511.671875
16.49,1675335511.6875
11.65,1675335511.703125
6.99,1675335511.71875
2.86,1675335511.734375
-0.7,1675335511.75
-3.88,1675335511.765625
-7.09,1675335511.78125
-10.74,1675335511.796875
-15.14,1675335511.8125
-20.43,1675335511.828125
-26.51,1675335511.84375
-33.08,1675335511.859375
-39.52,1675335511.875
-44.96,1675335511.890625
-48.36,1675335511.90625
-48.82,1675335511.921875
-45.86,1675335511.9375
-39.63,1675335511.953125
-30.89,1675335511.96875
-20.76,1675335511.984375
-10.32,1675335512.0
-0.36,1675335512.015625
8.79,1675335512.03125
17.07,1675335512.046875
24.56,1675335512.0625
31.24,1675335512.078125
36.99,1675335512.09375
41.68,1675335512.109375
45.28,1675335512.125
47.92,1675335512.140625
49.89,1675335512.15625
51.49,1675335512.171875
52.98,1675335512.1875
54.43,1675335512.203125
55.74,1675335512.21875
56.71,1675335512.234375
57.1,1675335512.25
56.78,1675335512.265625
55.82,1675335512.28125
54.48,1675335512.296875
53.11,1675335512.3125
51.99,1675335512.328125
51.24,1675335512.34375
50.74,1675335512.359375
50.19,1675335512.375
49.15,1675335512.390625
47.19,1675335512.40625
43.96,1675335512.421875
39.33,1675335512.4375
33.43,1675335512.453125
26.58,1675335512.46875
19.21,1675335512.484375
11.72,1675335512.5
4.38,1675335512.515625
-2.69,1675335512.53125
-9.43,1675335512.546875
-15.77,1675335512.5625
-21.56,1675335512.578125
-26.74,1675335512.59375
-31.27,1675335512.609375
-35.22,1675335512.625
-38.72,1675335512.640625
-41.82,1675335512.65625
-44.52,1675335512.671875
-46.86,1675335512.6875
-49.01,1675335512.703125
-51.17,1675335512.71875
-53.39,1675335512.734375
-55.19,1675335512.75
-55.48,1675335512.765625
-52.82,1675335512.78125
-45.98,1675335512.796875
-34.57,1675335512.8125
-19.38,1675335512.828125
-2.11,1675335512.84375
15.15,1675335512.859375
30.62,1675335512.875
43.22,1675335512.890625
52.66,1675335512.90625
59.11,1675335512.921875
62.92,1675335512.9375
64.39,1675335512.953125
63.81,1675335512.96875
61.54,1675335512.984375
58.14,1675335513.0
54.3,1675335513.015625
50.7,1675335513.03125
47.74,1675335513.046875
45.4,1675335513.0625
43.33,1675335513.078125
40.99,1675335513.09375
37.96,1675335513.109375
34.13,1675335513.125
29.76,1675335513.140625
25.35,1675335513.15625
21.35,1675335513.171875
18.01,1675335513.1875
15.26,1675335513.203125
12.72,1675335513.21875
9.83,1675335513.234375
6.14,1675335513.25
1.36,1675335513.265625
-4.43,1675335513.28125
-10.8,1675335513.296875
-17.04,1675335513.3125
-22.34,1675335513.328125
-26.05,1675335513.34375
-27.86,1675335513.359375
-27.91,1675335513.375
-26.73,1675335513.390625
-24.98,1675335513.40625
-23.29,1675335513.421875
-21.9,1675335513.4375
-20.76,1675335513.453125
-19.55,1675335513.46875
-17.95,1675335513.484375
-15.91,1675335513.5
-13.73,1675335513.515625
-12.05,1675335513.53125
-11.67,1675335513.546875
-13.26,1675335513.5625
-17.06,1675335513.578125
-22.79,1675335513.59375
-29.55,1675335513.609375
-36.05,1675335513.625
-40.88,1675335513.640625
-42.94,1675335513.65625
-41.69,1675335513.671875
-37.28,1675335513.6875
-30.52,1675335513.703125
-22.52,1675335513.71875
-14.38,1675335513.734375
-6.87,1675335513.75
-0.34,1675335513.765625
5.23,1675335513.78125
10.01,1675335513.796875
14.16,1675335513.8125
17.76,1675335513.828125
20.83,1675335513.84375
23.36,1675335513.859375
25.37,1675335513.875
26.96,1675335513.890625
28.31,1675335513.90625
29.7,1675335513.921875
31.47,1675335513.9375
33.9,1675335513.953125
37.01,1675335513.96875
40.42,1675335513.984375
43.3,1675335514.0
44.6,1675335514.015625
43.4,1675335514.03125
39.32,1675335514.046875
32.79,1675335514.0625
24.9,1675335514.078125
17.02,1675335514.09375
10.28,1675335514.109375
5.26,1675335514.125
1.91,1675335514.140625
-0.2,1675335514.15625
-1.63,1675335514.171875
-2.91,1675335514.1875
-4.45,1675335514.203125
-6.61,1675335514.21875
-9.67,1675335514.234375
-13.78,1675335514.25
-18.87,1675335514.265625
-24.62,1675335514.28125
-30.57,1675335514.296875
-36.32,1675335514.3125
-41.6,1675335514.328125
-46.41,1675335514.34375
-50.79,1675335514.359375
-54.87,1675335514.375
-58.72,1675335514.390625
-62.41,1675335514.40625
-66.07,1675335514.421875
-69.77,1675335514.4375
-73.55,1675335514.453125
-77.33,1675335514.46875
-81.01,1675335514.484375
-84.49,1675335514.5
-87.71,1675335514.515625
-90.56,1675335514.53125
-92.76,1675335514.546875
-93.8,1675335514.5625
-93.06,1675335514.578125
-90.02,1675335514.59375
-84.61,1675335514.609375
-77.3,1675335514.625
-68.96,1675335514.640625
-60.53,1675335514.65625
-52.63,1675335514.671875
-45.46,1675335514.6875
-38.95,1675335514.703125
-32.98,1675335514.71875
-27.6,1675335514.734375
-22.85,1675335514.75
-18.41,1675335514.765625
-13.42,1675335514.78125
-6.68,1675335514.796875
2.79,1675335514.8125
15.1,1675335514.828125
29.28,1675335514.84375
43.63,1675335514.859375
56.43,1675335514.875
66.68,1675335514.890625
74.26,1675335514.90625
79.66,1675335514.921875
83.32,1675335514.9375
85.22,1675335514.953125
84.87,1675335514.96875
81.79,1675335514.984375
75.95,1675335515.0
67.97,1675335515.015625
58.91,1675335515.03125
49.78,1675335515.046875
41.17,1675335515.0625
33.15,1675335515.078125
25.42,1675335515.09375
17.65,1675335515.109375
9.63,1675335515.125
1.4,1675335515.140625
-6.8,1675335515.15625
-14.67,1675335515.171875
-21.95,1675335515.1875
-28.54,1675335515.203125
-34.47,1675335515.21875
-39.85,1675335515.234375
-44.81,1675335515.25
-49.38,1675335515.265625
-53.54,1675335515.28125
-57.35,1675335515.296875
-60.94,1675335515.3125
-64.47,1675335515.328125
-68.05,1675335515.34375
-71.49,1675335515.359375
-74.31,1675335515.375
-75.82,1675335515.390625
-75.33,1675335515.40625
-72.55,1675335515.421875
-67.59,1675335515.4375
-61.05,1675335515.453125
-53.65,1675335515.46875
-46.05,1675335515.484375
-38.62,1675335515.5
-31.46,1675335515.515625
-24.5,1675335515.53125
-17.69,1675335515.546875
-11.09,1675335515.5625
-4.89,1675335515.578125
0.69,1675335515.59375
5.49,1675335515.609375
9.42,1675335515.625
12.52,1675335515.640625
14.88,1675335515.65625
16.59,1675335515.671875
17.72,1675335515.6875
18.38,1675335515.703125
18.7,1675335515.71875
18.8,1675335515.734375
18.84,1675335515.75
18.87,1675335515.765625
18.86,1675335515.78125
18.73,1675335515.796875
18.38,1675335515.8125
17.78,1675335515.828125
16.96,1675335515.84375
15.98,1675335515.859375
14.93,1675335515.875
13.86,1675335515.890625
12.8,1675335515.90625
11.73,1675335515.921875
10.65,1675335515.9375
9.53,1675335515.953125
8.33,1675335515.96875
7.0,1675335515.984375
5.52,1675335516.0
3.82,1675335516.015625
1.95,1675335516.03125
0.0,1675335516.046875
-1.92,1675335516.0625
-3.78,1675335516.078125
-5.68,1675335516.09375
-7.84,1675335516.109375
-10.54,1675335516.125
-13.92,1675335516.140625
-17.78,1675335516.15625
-21.59,1675335516.171875
-24.49,1675335516.1875
-25.61,1675335516.203125
-24.31,1675335516.21875
-20.39,1675335516.234375
-14.15,1675335516.25
-6.22,1675335516.265625
2.64,1675335516.28125
11.82,1675335516.296875
20.91,1675335516.3125
29.73,1675335516.328125
38.17,1675335516.34375
46.12,1675335516.359375
53.5,1675335516.375
60.22,1675335516.390625
66.38,1675335516.40625
72.23,1675335516.421875
78.15,1675335516.4375
84.41,1675335516.453125
90.99,1675335516.46875
97.44,1675335516.484375
102.89,1675335516.5
106.41,1675335516.515625
107.23,1675335516.53125
105.13,1675335516.546875
100.47,1675335516.5625
94.07,1675335516.578125
86.94,1675335516.59375
80.01,1675335516.609375
73.96,1675335516.625
69.17,1675335516.640625
65.73,1675335516.65625
63.41,1675335516.671875
61.76,1675335516.6875
60.1,1675335516.703125
57.7,1675335516.71875
53.98,1675335516.734375
48.72,1675335516.75
42.13,1675335516.765625
34.79,1675335516.78125
27.38,1675335516.796875
20.5,1675335516.8125
14.43,1675335516.828125
9.19,1675335516.84375
4.62,1675335516.859375
0.53,1675335516.875
-3.41,1675335516.890625
-7.68,1675335516.90625
-13.05,1675335516.921875
-20.41,1675335516.9375
-30.55,1675335516.953125
-43.65,1675335516.96875
-58.93,1675335516.984375
-74.63,1675335517.0
-88.34,1675335517.015625
-97.76,1675335517.03125
-101.44,1675335517.046875
-99.31,1675335517.0625
-92.61,1675335517.078125
-83.35,1675335517.09375
-73.55,1675335517.109375
-64.71,1675335517.125
-57.43,1675335517.140625
-51.64,1675335517.15625
-46.95,1675335517.171875
-42.96,1675335517.1875
-39.47,1675335517.203125
-36.45,1675335517.21875
-33.97,1675335517.234375
-32.06,1675335517.25
-30.8,1675335517.265625
-30.25,1675335517.28125
-30.47,1675335517.296875
-31.39,1675335517.3125
-32.74,1675335517.328125
-34.17,1675335517.34375
-35.28,1675335517.359375
-35.9,1675335517.375
-36.09,1675335517.390625
-36.16,1675335517.40625
-36.5,1675335517.421875
-37.36,1675335517.4375
-38.81,1675335517.453125
-40.63,1675335517.46875
-42.34,1675335517.484375
-43.21,1675335517.5
-42.34,1675335517.515625
-38.85,1675335517.53125
-32.24,1675335517.546875
-22.74,1675335517.5625
-11.5,1675335517.578125
-0.24,1675335517.59375
9.43,1675335517.609375
16.64,1675335517.625
21.62,1675335517.640625
25.36,1675335517.65625
28.86,1675335517.671875
32.42,1675335517.6875
35.45,1675335517.703125
36.85,1675335517.71875
35.89,1675335517.734375
32.69,1675335517.75
28.21,1675335517.765625
23.64,1675335517.78125
19.58,1675335517.796875
15.64,1675335517.8125
10.73,1675335517.828125
3.77,1675335517.84375
-5.53,1675335517.859375
-16.41,1675335517.875
-27.33,1675335517.890625
-36.7,1675335517.90625
-43.5,1675335517.921875
-47.59,1675335517.9375
-49.51,1675335517.953125
-50.07,1675335517.96875
-49.89,1675335517.984375
-49.2,1675335518.0
-47.85,1675335518.015625
-45.64,1675335518.03125
-42.46,1675335518.046875
-38.52,1675335518.0625
-34.25,1675335518.078125
-30.12,1675335518.09375
-26.46,1675335518.109375
-23.3,1675335518.125
-20.46,1675335518.140625
-17.75,1675335518.15625
-15.01,1675335518.171875
-12.25,1675335518.1875
-9.55,1675335518.203125
-7.04,1675335518.21875
-4.82,1675335518.234375
-2.96,1675335518.25
-1.53,1675335518.265625
-0.56,1675335518.28125
-0.05,1675335518.296875
0.12,1675335518.3125
0.13,1675335518.328125
0.17,1675335518.34375
0.26,1675335518.359375
0.31,1675335518.375
0.11,1675335518.390625
-0.51,1675335518.40625
-1.53,1675335518.421875
-2.79,1675335518.4375
-4.02,1675335518.453125
-5.07,1675335518.46875
-5.93,1675335518.484375
-6.77,1675335518.5
-7.81,1675335518.515625
-9.24,1675335518.53125
-11.12,1675335518.546875
-13.37,1675335518.5625
-15.86,1675335518.578125
-18.47,1675335518.59375
-21.13,1675335518.609375
-23.89,1675335518.625
-26.87,1675335518.640625
-30.23,1675335518.65625
-34.12,1675335518.671875
-38.58,1675335518.6875
-43.43,1675335518.703125
-48.22,1675335518.71875
-52.16,1675335518.734375
-54.36,1675335518.75
-54.09,1675335518.765625
-51.06,1675335518.78125
-45.59,1675335518.796875
-38.49,1675335518.8125
-30.72,1675335518.828125
-23.07,1675335518.84375
-15.91,1675335518.859375
-9.25,1675335518.875
-2.92,1675335518.890625
3.15,1675335518.90625
8.84,1675335518.921875
13.82,1675335518.9375
17.79,1675335518.953125
20.65,1675335518.96875
22.5,1675335518.984375
23.63,1675335519.0
24.34,1675335519.015625
24.89,1675335519.03125
25.41,1675335519.046875
25.9,1675335519.0625
26.3,1675335519.078125
26.47,1675335519.09375
26.28,1675335519.109375
25.66,1675335519.125
24.69,1675335519.140625
23.53,1675335519.15625
22.35,1675335519.171875
21.25,1675335519.1875
20.11,1675335519.203125
18.72,1675335519.21875
16.86,1675335519.234375
14.48,1675335519.25
11.77,1675335519.265625
9.02,1675335519.28125
6.48,1675335519.296875
4.23,1675335519.3125
2.1,1675335519.328125
-0.21,1675335519.34375
-2.98,1675335519.359375
-6.45,1675335519.375
-10.73,1675335519.390625
-15.81,1675335519.40625
-21.54,1675335519.421875
-27.59,1675335519.4375
-33.42,1675335519.453125
-38.32,1675335519.46875
-41.57,1675335519.484375
-42.66,1675335519.5
-41.38,1675335519.515625
-37.88,1675335519.53125
-32.58,1675335519.546875
-26.06,1675335519.5625
-18.9,1675335519.578125
-11.57,1675335519.59375
-4.39,1675335519.609375
2.48,1675335519.625
8.95,1675335519.640625
14.96,1675335519.65625
20.36,1675335519.671875
24.92,1675335519.6875
28.41,1675335519.703125
30.69,1675335519.71875
31.82,1675335519.734375
32.11,1675335519.75
31.97,1675335519.765625
31.79,1675335519.78125
31.82,1675335519.796875
32.09,1675335519.8125
32.47,1675335519.828125
32.73,1675335519.84375
32.69,1675335519.859375
32.23,1675335519.875
31.33,1675335519.890625
30.05,1675335519.90625
28.48,1675335519.921875
26.69,1675335519.9375
24.7,1675335519.953125
22.46,1675335519.96875
19.91,1675335519.984375
16.99,1675335520.0
13.72,1675335520.015625
10.2,1675335520.03125
6.61,1675335520.046875
3.14,1675335520.0625
-0.14,1675335520.078125
-3.26,1675335520.09375
-6.37,1675335520.109375
-9.68,1675335520.125
-13.36,1675335520.140625
-17.52,1675335520.15625
-22.21,1675335520.171875
-27.48,1675335520.1875
-33.26,1675335520.203125
-39.31,1675335520.21875
-45.05,1675335520.234375
-49.64,1675335520.25
-52.24,1675335520.265625
-52.31,1675335520.28125
-49.88,1675335520.296875
-45.53,1675335520.3125
-40.08,1675335520.328125
-34.18,1675335520.34375
-28.03,1675335520.359375
-21.46,1675335520.375
-14.13,1675335520.390625
-5.97,1675335520.40625
2.68,1675335520.421875
11.16,1675335520.4375
18.81,1675335520.453125
25.21,1675335520.46875
30.31,1675335520.484375
34.29,1675335520.5
37.4,1675335520.515625
39.83,1675335520.53125
41.66,1675335520.546875
42.93,1675335520.5625
43.74,1675335520.578125
44.19,1675335520.59375
44.41,1675335520.609375
44.55,1675335520.625
44.68,1675335520.640625
44.84,1675335520.65625
44.95,1675335520.671875
44.84,1675335520.6875
44.25,1675335520.703125
42.97,1675335520.71875
40.88,1675335520.734375
38.08,1675335520.75
34.87,1675335520.765625
31.61,1675335520.78125
28.58,1675335520.796875
25.87,1675335520.8125
23.35,1675335520.828125
20.68,1675335520.84375
17.59,1675335520.859375
13.9,1675335520.875
9.65,1675335520.890625
5.05,1675335520.90625
0.39,1675335520.921875
-4.08,1675335520.9375
-8.24,1675335520.953125
-12.14,1675335520.96875
-15.97,1675335520.984375
-20.04,1675335521.0
-24.65,1675335521.015625
-30.08,1675335521.03125
-36.38,1675335521.046875
-43.34,1675335521.0625
-50.38,1675335521.078125
-56.62,1675335521.09375
-61.07,1675335521.109375
-62.85,1675335521.125
-61.5,1675335521.140625
-57.05,1675335521.15625
-50.04,1675335521.171875
-41.25,1675335521.1875
-31.48,1675335521.203125
-21.34,1675335521.21875
-11.26,1675335521.234375
-1.43,1675335521.25
7.99,1675335521.265625
16.93,1675335521.28125
25.27,1675335521.296875
32.86,1675335521.3125
39.52,1675335521.328125
45.05,1675335521.34375
49.3,1675335521.359375
52.34,1675335521.375
54.39,1675335521.390625
55.81,1675335521.40625
56.96,1675335521.421875
58.02,1675335521.4375
58.93,1675335521.453125
59.51,1675335521.46875
59.63,1675335521.484375
59.31,1675335521.5
58.77,1675335521.515625
58.2,1675335521.53125
57.68,1675335521.546875
57.03,1675335521.5625
55.98,1675335521.578125
54.33,1675335521.59375
52.04,1675335521.609375
49.35,1675335521.625
46.52,1675335521.640625
43.79,1675335521.65625
41.2,1675335521.671875
38.63,1675335521.6875
35.95,1675335521.703125
33.05,1675335521.71875
29.97,1675335521.734375
26.81,1675335521.75
23.67,1675335521.765625
20.56,1675335521.78125
17.41,1675335521.796875
14.02,1675335521.8125
10.26,1675335521.828125
6.07,1675335521.84375
1.57,1675335521.859375
-3.06,1675335521.875
-7.63,1675335521.890625
-12.03,1675335521.90625
-16.29,1675335521.921875
-20.54,1675335521.9375
-24.96,1675335521.953125
-29.67,1675335521.96875
-34.81,1675335521.984375
-40.38,1675335522.0
-46.34,1675335522.015625
-52.44,1675335522.03125
-58.16,1675335522.046875
-62.7,1675335522.0625
-65.16,1675335522.078125
-64.8,1675335522.09375
-61.34,1675335522.109375
-55.07,1675335522.125
-46.77,1675335522.140625
-37.35,1675335522.15625
-27.63,1675335522.171875
-18.06,1675335522.1875
-8.79,1675335522.203125
0.19,1675335522.21875
8.82,1675335522.234375
16.89,1675335522.25
24.12,1675335522.265625
30.2,1675335522.28125
35.03,1675335522.296875
38.67,1675335522.3125
41.36,1675335522.328125
43.42,1675335522.34375
45.12,1675335522.359375
46.61,1675335522.375
47.89,1675335522.390625
48.89,1675335522.40625
49.48,1675335522.421875
49.63,1675335522.4375
49.39,1675335522.453125
48.87,1675335522.46875
48.22,1675335522.484375
47.52,1675335522.5
46.73,1675335522.515625
45.74,1675335522.53125
44.36,1675335522.546875
42.46,1675335522.5625
40.04,1675335522.578125
37.28,1675335522.59375
34.43,1675335522.609375
31.72,1675335522.625
29.25,1675335522.640625
26.96,1675335522.65625
24.65,1675335522.671875
22.14,1675335522.6875
19.33,1675335522.703125
16.24,1675335522.71875
12.99,1675335522.734375
9.67,1675335522.75
6.33,1675335522.765625
2.96,1675335522.78125
-0.49,1675335522.796875
-3.97,1675335522.8125
-7.4,1675335522.828125
-10.66,1675335522.84375
-13.71,1675335522.859375
-16.57,1675335522.875
-19.41,1675335522.890625
-22.53,1675335522.90625
-26.21,1675335522.921875
-30.69,1675335522.9375
-35.96,1675335522.953125
-41.73,1675335522.96875
-47.37,1675335522.984375
-52.09,1675335523.0
-55.08,1675335523.015625
-55.75,1675335523.03125
-53.85,1675335523.046875
-49.48,1675335523.0625
-43.09,1675335523.078125
-35.3,1675335523.09375
-26.76,1675335523.109375
-18.12,1675335523.125
-9.88,1675335523.140625
-2.33,1675335523.15625
4.45,1675335523.171875
10.53,1675335523.1875
16.11,1675335523.203125
21.29,1675335523.21875
26.06,1675335523.234375
30.25,1675335523.25
33.7,1675335523.265625
36.3,1675335523.28125
38.15,1675335523.296875
39.48,1675335523.3125
40.52,1675335523.328125
41.38,1675335523.34375
42.0,1675335523.359375
42.33,1675335523.375
42.46,1675335523.390625
42.66,1675335523.40625
43.27,1675335523.421875
44.36,1675335523.4375
45.56,1675335523.453125
46.03,1675335523.46875
44.86,1675335523.484375
41.47,1675335523.5
35.88,1675335523.515625
28.73,1675335523.53125
20.96,1675335523.546875
13.42,1675335523.5625
6.69,1675335523.578125
1.1,1675335523.59375
-3.23,1675335523.609375
-6.22,1675335523.625
-7.95,1675335523.640625
-8.69,1675335523.65625
-8.9,1675335523.671875
-9.04,1675335523.6875
-9.38,1675335523.703125
-9.89,1675335523.71875
-10.23,1675335523.734375
-10.04,1675335523.75
-9.13,1675335523.765625
-7.58,1675335523.78125
-5.73,1675335523.796875
-3.98,1675335523.8125
-2.69,1675335523.828125
-2.12,1675335523.84375
-2.45,1675335523.859375
-3.7,1675335523.875
-5.76,1675335523.890625
-8.27,1675335523.90625
-10.62,1675335523.921875
-12.03,1675335523.9375
-11.75,1675335523.953125
-9.27,1675335523.96875
-4.55,1675335523.984375
2.0,1675335524.0
9.52,1675335524.015625
17.04,1675335524.03125
23.72,1675335524.046875
29.07,1675335524.0625
33.03,1675335524.078125
35.93,1675335524.09375
38.29,1675335524.109375
40.64,1675335524.125
43.41,1675335524.140625
46.73,1675335524.15625
50.44,1675335524.171875
53.97,1675335524.1875
56.47,1675335524.203125
56.9,1675335524.21875
54.38,1675335524.234375
48.5,1675335524.25
39.62,1675335524.265625
28.99,1675335524.28125
18.44,1675335524.296875
9.96,1675335524.3125
4.95,1675335524.328125
3.77,1675335524.34375
5.61,1675335524.359375
8.82,1675335524.375
11.52,1675335524.390625
12.24,1675335524.40625
10.3,1675335524.421875
5.77,1675335524.4375
-0.86,1675335524.453125
-9.04,1675335524.46875
-18.34,1675335524.484375
-28.41,1675335524.5
-38.82,1675335524.515625
-48.99,1675335524.53125
-58.28,1675335524.546875
-66.19,1675335524.5625
-72.63,1675335524.578125
-77.96,1675335524.59375
-82.85,1675335524.609375
-87.94,1675335524.625
-93.59,1675335524.640625
-99.67,1675335524.65625
-105.63,1675335524.671875
-110.64,1675335524.6875
-113.76,1675335524.703125
-114.15,1675335524.71875
-111.26,1675335524.734375
-105.08,1675335524.75
-96.27,1675335524.765625
-86.1,1675335524.78125
-76.04,1675335524.796875
-67.11,1675335524.8125
-59.45,1675335524.828125
-52.18,1675335524.84375
-43.98,1675335524.859375
-33.93,1675335524.875
-22.06,1675335524.890625
-9.6,1675335524.90625
1.69,1675335524.921875
10.37,1675335524.9375
15.97,1675335524.953125
19.09,1675335524.96875
20.93,1675335524.984375
22.47,1675335525.0
23.94,1675335525.015625
24.87,1675335525.03125
24.46,1675335525.046875
22.23,1675335525.0625
18.4,1675335525.078125
13.78,1675335525.09375
9.43,1675335525.109375
6.1,1675335525.125
4.02,1675335525.140625
2.84,1675335525.15625
1.95,1675335525.171875
0.85,1675335525.1875
-0.63,1675335525.203125
-2.3,1675335525.21875
-3.91,1675335525.234375
-5.31,1675335525.25
-6.62,1675335525.265625
-8.12,1675335525.28125
-10.04,1675335525.296875
-12.38,1675335525.3125
-14.94,1675335525.328125
-17.43,1675335525.34375
-19.6,1675335525.359375
-21.4,1675335525.375
-22.87,1675335525.390625
-24.21,1675335525.40625
-25.52,1675335525.421875
-26.85,1675335525.4375
-28.18,1675335525.453125
-29.5,1675335525.46875
-30.8,1675335525.484375
-32.1,1675335525.5
-33.38,1675335525.515625
-34.54,1675335525.53125
-35.45,1675335525.546875
-36.06,1675335525.5625
-36.46,1675335525.578125
-36.98,1675335525.59375
-38.02,1675335525.609375
-39.96,1675335525.625
-42.9,1675335525.640625
-46.55,1675335525.65625
-50.3,1675335525.671875
-53.4,1675335525.6875
-55.15,1675335525.703125
-55.1,1675335525.71875
-53.09,1675335525.734375
-49.24,1675335525.75
-43.84,1675335525.765625
-37.36,1675335525.78125
-30.3,1675335525.796875
-23.17,1675335525.8125
-16.37,1675335525.828125
-10.12,1675335525.84375
-4.45,1675335525.859375
0.73,1675335525.875
5.48,1675335525.890625
9.74,1675335525.90625
13.32,1675335525.921875
16.06,1675335525.9375
17.89,1675335525.953125
18.98,1675335525.96875
19.63,1675335525.984375
20.19,1675335526.0
20.82,1675335526.015625
21.5,1675335526.03125
22.08,1675335526.046875
22.37,1675335526.0625
22.32,1675335526.078125
22.02,1675335526.09375
21.64,1675335526.109375
21.3,1675335526.125
20.97,1675335526.140625
20.52,1675335526.15625
19.73,1675335526.171875
18.47,1675335526.1875
16.75,1675335526.203125
14.73,1675335526.21875
12.63,1675335526.234375
10.57,1675335526.25
8.6,1675335526.265625
6.64,1675335526.28125
4.6,1675335526.296875
2.42,1675335526.3125
0.12,1675335526.328125
-2.27,1675335526.34375
-4.75,1675335526.359375
-7.35,1675335526.375
-10.17,1675335526.390625
-13.27,1675335526.40625
-16.63,1675335526.421875
-20.11,1675335526.4375
-23.4,1675335526.453125
-26.05,1675335526.46875
-27.54,1675335526.484375
-27.38,1675335526.5
-25.32,1675335526.515625
-21.45,1675335526.53125
-16.19,1675335526.546875
-10.19,1675335526.5625
-4.13,1675335526.578125
1.53,1675335526.59375
6.62,1675335526.609375
11.17,1675335526.625
15.24,1675335526.640625
18.81,1675335526.65625
21.73,1675335526.671875
23.84,1675335526.6875
25.13,1675335526.703125
25.75,1675335526.71875
26.02,1675335526.734375
26.25,1675335526.75
26.62,1675335526.765625
27.14,1675335526.78125
27.66,1675335526.796875
27.99,1675335526.8125
28.0,1675335526.828125
27.63,1675335526.84375
26.91,1675335526.859375
25.92,1675335526.875
24.76,1675335526.890625
23.42,1675335526.90625
21.84,1675335526.921875
19.89,1675335526.9375
17.48,1675335526.953125
14.64,1675335526.96875
11.5,1675335526.984375
8.33,1675335527.0
5.33,1675335527.015625
2.58,1675335527.03125
0.03,1675335527.046875
-2.52,1675335527.0625
-5.26,1675335527.078125
-8.32,1675335527.09375
-11.8,1675335527.109375
-15.7,1675335527.125
-19.93,1675335527.140625
-24.29,1675335527.15625
-28.34,1675335527.171875
-31.43,1675335527.1875
-32.86,1675335527.203125
-32.07,1675335527.21875
-28.84,1675335527.234375
-23.47,1675335527.25
-16.61,1675335527.265625
-9.06,1675335527.28125
-1.48,1675335527.296875
5.77,1675335527.3125
12.7,1675335527.328125
19.51,1675335527.34375
26.38,1675335527.359375
33.3,1675335527.375
39.97,1675335527.390625
45.96,1675335527.40625
50.85,1675335527.421875
54.48,1675335527.4375
57.08,1675335527.453125
59.14,1675335527.46875
61.28,1675335527.484375
64.01,1675335527.5
67.55,1675335527.515625
71.82,1675335527.53125
76.62,1675335527.546875
81.62,1675335527.5625
86.4,1675335527.578125
90.38,1675335527.59375
92.79,1675335527.609375
92.84,1675335527.625
90.01,1675335527.640625
84.31,1675335527.65625
76.31,1675335527.671875
67.03,1675335527.6875
57.45,1675335527.703125
48.22,1675335527.71875
39.55,1675335527.734375
31.32,1675335527.75
23.48,1675335527.765625
16.2,1675335527.78125
9.78,1675335527.796875
4.48,1675335527.8125
0.24,1675335527.828125
-3.49,1675335527.84375
-7.54,1675335527.859375
-12.73,1675335527.875
-19.53,1675335527.890625
-27.83,1675335527.90625
-36.83,1675335527.921875
-45.36,1675335527.9375
-52.1,1675335527.953125
-56.12,1675335527.96875
-57.19,1675335527.984375
-55.94,1675335528.0
-53.61,1675335528.015625
-51.62,1675335528.03125
-50.92,1675335528.046875
-51.57,1675335528.0625
-52.78,1675335528.078125
-53.25,1675335528.09375
-51.83,1675335528.109375
-48.13,1675335528.125
-42.69,1675335528.140625
-36.64,1675335528.15625
-31.19,1675335528.171875
-27.03,1675335528.1875
-24.11,1675335528.203125
-21.87,1675335528.21875
-19.71,1675335528.234375
-17.44,1675335528.25
-15.47,1675335528.265625
-14.54,1675335528.28125
-15.25,1675335528.296875
-17.67,1675335528.3125
-21.17,1675335528.328125
-24.78,1675335528.34375
-27.64,1675335528.359375
-29.47,1675335528.375
-30.64,1675335528.390625
-31.98,1675335528.40625
-34.31,1675335528.421875
-38.17,1675335528.4375
-43.58,1675335528.453125
-49.95,1675335528.46875
-56.2,1675335528.484375
-60.84,1675335528.5
-62.37,1675335528.515625
-59.73,1675335528.53125
-52.82,1675335528.546875
-42.63,1675335528.5625
-30.92,1675335528.578125
-19.51,1675335528.59375
-9.6,1675335528.609375
-1.4,1675335528.625
5.48,1675335528.640625
11.48,1675335528.65625
16.34,1675335528.671875
19.15,1675335528.6875
18.81,1675335528.703125
14.72,1675335528.71875
7.32,1675335528.734375
-1.97,1675335528.75
-11.34,1675335528.765625
-19.24,1675335528.78125
-24.86,1675335528.796875
-28.11,1675335528.8125
-29.32,1675335528.828125
-28.88,1675335528.84375
-27.03,1675335528.859375
-23.8,1675335528.875
-19.21,1675335528.890625
-13.35,1675335528.90625
-6.54,1675335528.921875
0.67,1675335528.9375
7.64,1675335528.953125
13.72,1675335528.96875
18.49,1675335528.984375
21.82,1675335529.0
24.02,1675335529.015625
25.62,1675335529.03125
27.25,1675335529.046875
29.26,1675335529.0625
31.61,1675335529.078125
33.86,1675335529.09375
35.35,1675335529.109375
35.59,1675335529.125
34.41,1675335529.140625
32.09,1675335529.15625
29.18,1675335529.171875
26.28,1675335529.1875
23.84,1675335529.203125
22.08,1675335529.21875
21.01,1675335529.234375
20.52,1675335529.25
20.43,1675335529.265625
20.44,1675335529.28125
20.15,1675335529.296875
19.19,1675335529.3125
17.43,1675335529.328125
15.07,1675335529.34375
12.6,1675335529.359375
10.55,1675335529.375
9.15,1675335529.390625
8.24,1675335529.40625
7.29,1675335529.421875
5.82,1675335529.4375
3.62,1675335529.453125
0.95,1675335529.46875
-1.54,1675335529.484375
-3.21,1675335529.5
-3.75,1675335529.515625
-3.42,1675335529.53125
-3.01,1675335529.546875
-3.56,1675335529.5625
-6.06,1675335529.578125
-11.17,1675335529.59375
-19.06,1675335529.609375
-29.35,1675335529.625
-41.2,1675335529.640625
-53.26,1675335529.65625
-63.99,1675335529.671875
-71.79,1675335529.6875
-75.45,1675335529.703125
-74.41,1675335529.71875
-68.93,1675335529.734375
-60.03,1675335529.75
-49.19,1675335529.765625
-37.83,1675335529.78125
-26.99,1675335529.796875
-17.15,1675335529.8125
-8.37,1675335529.828125
-0.48,1675335529.84375
6.56,1675335529.859375
12.66,1675335529.875
17.62,1675335529.890625
21.32,1675335529.90625
23.84,1675335529.921875
25.48,1675335529.9375
26.58,1675335529.953125
27.44,1675335529.96875
28.24,1675335529.984375
29.12,1675335530.0
30.26,1675335530.015625
32.03,1675335530.03125
34.93,1675335530.046875
39.44,1675335530.0625
45.72,1675335530.078125
53.43,1675335530.09375
61.69,1675335530.109375
69.25,1675335530.125
74.89,1675335530.140625
77.76,1675335530.15625
77.72,1675335530.171875
75.32,1675335530.1875
71.54,1675335530.203125
67.45,1675335530.21875
63.78,1675335530.234375
60.73,1675335530.25
57.95,1675335530.265625
54.85,1675335530.28125
50.9,1675335530.296875
45.84,1675335530.3125
39.8,1675335530.328125
33.13,1675335530.34375
26.19,1675335530.359375
19.22,1675335530.375
12.36,1675335530.390625
5.69,1675335530.40625
-0.71,1675335530.421875
-6.83,1675335530.4375
-12.8,1675335530.453125
-18.95,1675335530.46875
-25.79,1675335530.484375
-33.77,1675335530.5
-42.96,1675335530.515625
-52.93,1675335530.53125
-62.76,1675335530.546875
-71.17,1675335530.5625
-76.95,1675335530.578125
-79.17,1675335530.59375
-77.43,1675335530.609375
-71.92,1675335530.625
-63.39,1675335530.640625
-52.99,1675335530.65625
-41.93,1675335530.671875
-31.31,1675335530.6875
-21.87,1675335530.703125
-13.95,1675335530.71875
-7.57,1675335530.734375
-2.6,1675335530.75
1.14,1675335530.765625
3.85,1675335530.78125
5.75,1675335530.796875
7.15,1675335530.8125
8.38,1675335530.828125
9.72,1675335530.84375
11.26,1675335530.859375
12.89,1675335530.875
14.33,1675335530.890625
15.25,1675335530.90625
15.41,1675335530.921875
14.71,1675335530.9375
13.28,1675335530.953125
11.43,1675335530.96875
9.53,1675335530.984375
7.92,1675335531.0
6.72,1675335531.015625
5.8,1675335531.03125
4.82,1675335531.046875
3.38,1675335531.0625
1.27,1675335531.078125
-1.41,1675335531.09375
-4.33,1675335531.109375
-7.08,1675335531.125
-9.49,1675335531.140625
-11.64,1675335531.15625
-13.9,1675335531.171875
-16.65,1675335531.1875
-20.01,1675335531.203125
-23.8,1675335531.21875
-27.61,1675335531.234375
-31.07,1675335531.25
-34.04,1675335531.265625
-36.64,1675335531.28125
-39.24,1675335531.296875
-42.21,1675335531.3125
-45.82,1675335531.328125
-50.16,1675335531.34375
-55.22,1675335531.359375
-60.83,1675335531.375
-66.64,1675335531.390625
-72.05,1675335531.40625
-76.23,1675335531.421875
-78.3,1675335531.4375
-77.6,1675335531.453125
-73.92,1675335531.46875
-67.56,1675335531.484375
-59.26,1675335531.5
-49.86,1675335531.515625
-40.08,1675335531.53125
-30.32,1675335531.546875
-20.71,1675335531.5625
-11.25,1675335531.578125
-1.96,1675335531.59375
7.0,1675335531.609375
15.32,1675335531.625
22.66,1675335531.640625
28.77,1675335531.65625
33.56,1675335531.671875
37.08,1675335531.6875
39.58,1675335531.703125
41.36,1675335531.71875
42.7,1675335531.734375
43.77,1675335531.75
44.66,1675335531.765625
45.32,1675335531.78125
45.71,1675335531.796875
45.77,1675335531.8125
45.54,1675335531.828125
45.14,1675335531.84375
44.64,1675335531.859375
44.09,1675335531.875
43.38,1675335531.890625
42.35,1675335531.90625
40.79,1675335531.921875
38.57,1675335531.9375
35.76,1675335531.953125
32.55,1675335531.96875
29.19,1675335531.984375
25.88,1675335532.0
22.67,1675335532.015625
19.41,1675335532.03125
15.9,1675335532.046875
11.96,1675335532.0625
7.58,1675335532.078125
2.97,1675335532.09375
-1.55,1675335532.109375
-5.71,1675335532.125
-9.35,1675335532.140625
-12.63,1675335532.15625
-15.88,1675335532.171875
-19.58,1675335532.1875
-24.19,1675335532.203125
-29.9,1675335532.21875
-36.54,1675335532.234375
-43.52,1675335532.25
-49.9,1675335532.265625
-54.64,1675335532.28125
-56.84,1675335532.296875
-56.0,1675335532.3125
-52.15,1675335532.328125
-45.78,1675335532.34375
-37.64,1675335532.359375
-28.59,1675335532.375
-19.3,1675335532.390625
-10.24,1675335532.40625
-1.65,1675335532.421875
6.38,1675335532.4375
13.86,1675335532.453125
20.77,1675335532.46875
27.0,1675335532.484375
32.45,1675335532.5
36.98,1675335532.515625
40.5,1675335532.53125
43.04,1675335532.546875
44.76,1675335532.5625
45.89,1675335532.578125
46.69,1675335532.59375
47.37,1675335532.609375
47.96,1675335532.625
48.41,1675335532.640625
48.59,1675335532.65625
48.35,1675335532.671875
47.65,1675335532.6875
46.55,1675335532.703125
45.17,1675335532.71875
43.68,1675335532.734375
42.14,1675335532.75
40.52,1675335532.765625
38.68,1675335532.78125
36.49,1675335532.796875
33.84,1675335532.8125
30.77,1675335532.828125
27.43,1675335532.84375
23.98,1675335532.859375
20.55,1675335532.875
17.13,1675335532.890625
13.58,1675335532.90625
9.76,1675335532.921875
5.61,1675335532.9375
1.25,1675335532.953125
-3.06,1675335532.96875
-7.09,1675335532.984375
-10.74,1675335533.0
-14.2,1675335533.015625
-17.86,1675335533.03125
-22.24,1675335533.046875
-27.68,1675335533.0625
-34.22,1675335533.078125
-41.45,1675335533.09375
-48.6,1675335533.109375
-54.66,1675335533.125
-58.62,1675335533.140625
-59.76,1675335533.15625
-57.76,1675335533.171875
-52.83,1675335533.1875
-45.59,1675335533.203125
-36.94,1675335533.21875
-27.72,1675335533.234375
-18.62,1675335533.25
-10.0,1675335533.265625
-2.02,1675335533.28125
5.35,1675335533.296875
12.11,1675335533.3125
18.21,1675335533.328125
23.5,1675335533.34375
27.77,1675335533.359375
30.9,1675335533.375
32.91,1675335533.390625
34.03,1675335533.40625
34.61,1675335533.421875
35.0,1675335533.4375
35.45,1675335533.453125
35.99,1675335533.46875
36.47,1675335533.484375
36.67,1675335533.5
36.42,1675335533.515625
35.7,1675335533.53125
34.61,1675335533.546875
33.3,1675335533.5625
31.82,1675335533.578125
30.15,1675335533.59375
28.17,1675335533.609375
25.76,1675335533.625
22.9,1675335533.640625
19.68,1675335533.65625
16.24,1675335533.671875
12.72,1675335533.6875
9.25,1675335533.703125
5.9,1675335533.71875
2.69,1675335533.734375
-0.41,1675335533.75
-3.47,1675335533.765625
-6.66,1675335533.78125
-10.2,1675335533.796875
-14.39,1675335533.8125
-19.44,1675335533.828125
-25.39,1675335533.84375
-32.08,1675335533.859375
-38.99,1675335533.875
-45.43,1675335533.890625
-50.54,1675335533.90625
-53.56,1675335533.921875
-53.93,1675335533.9375
-51.4,1675335533.953125
-46.16,1675335533.96875
-38.74,1675335533.984375
-29.99,1675335534.0
-20.85,1675335534.015625
-12.09,1675335534.03125
-4.23,1675335534.046875
2.61,1675335534.0625
8.57,1675335534.078125
13.87,1675335534.09375
18.66,1675335534.109375
22.96,1675335534.125
26.65,1675335534.140625
29.64,1675335534.15625
31.96,1675335534.171875
33.76,1675335534.1875
35.3,1675335534.203125
36.79,1675335534.21875
38.33,1675335534.234375
39.9,1675335534.25
41.38,1675335534.265625
42.63,1675335534.28125
43.53,1675335534.296875
44.0,1675335534.3125
43.99,1675335534.328125
43.53,1675335534.34375
42.58,1675335534.359375
41.17,1675335534.375
39.32,1675335534.390625
37.12,1675335534.40625
34.67,1675335534.421875
32.03,1675335534.4375
29.28,1675335534.453125
26.41,1675335534.46875
23.4,1675335534.484375
20.21,1675335534.5
16.76,1675335534.515625
12.93,1675335534.53125
8.62,1675335534.546875
3.8,1675335534.5625
-1.36,1675335534.578125
-6.46,1675335534.59375
-11.06,1675335534.609375
-14.84,1675335534.625
-17.97,1675335534.640625
-21.08,1675335534.65625
-25.0,1675335534.671875
-30.17,1675335534.6875
-36.18,1675335534.703125
-41.73,1675335534.71875
-45.08,1675335534.734375
-44.9,1675335534.75
-40.84,1675335534.765625
-33.67,1675335534.78125
-24.82,1675335534.796875
-15.61,1675335534.8125
-6.77,1675335534.828125
1.65,1675335534.84375
9.92,1675335534.859375
18.23,1675335534.875
26.36,1675335534.890625
33.81,1675335534.90625
40.01,1675335534.921875
44.53,1675335534.9375
47.23,1675335534.953125
48.19,1675335534.96875
47.74,1675335534.984375
46.31,1675335535.0
44.58,1675335535.015625
43.25,1675335535.03125
42.98,1675335535.046875
44.13,1675335535.0625
46.71,1675335535.078125
50.4,1675335535.09375
54.72,1675335535.109375
59.22,1675335535.125
63.53,1675335535.140625
67.41,1675335535.15625
70.63,1675335535.171875
73.04,1675335535.1875
74.5,1675335535.203125
74.87,1675335535.21875
73.95,1675335535.234375
71.41,1675335535.25
66.86,1675335535.265625
60.06,1675335535.28125
51.16,1675335535.296875
40.92,1675335535.3125
30.54,1675335535.328125
21.25,1675335535.34375
13.79,1675335535.359375
8.01,1675335535.375
3.0,1675335535.390625
-2.52,1675335535.40625
-9.54,1675335535.421875
-18.41,1675335535.4375
-28.76,1675335535.453125
-39.76,1675335535.46875
-50.52,1675335535.484375
-60.29,1675335535.5
-68.57,1675335535.515625
-75.12,1675335535.53125
-79.97,1675335535.546875
-83.45,1675335535.5625
-86.21,1675335535.578125
-89.02,1675335535.59375
-92.42,1675335535.609375
-96.48,1675335535.625
-100.6,1675335535.640625
-103.81,1675335535.65625
-105.14,1675335535.671875
-104.03,1675335535.6875
-100.57,1675335535.703125
-95.33,1675335535.71875
-89.02,1675335535.734375
-82.26,1675335535.75
-75.28,1675335535.765625
-68.1,1675335535.78125
-60.76,1675335535.796875
-53.43,1675335535.8125
-46.39,1675335535.828125
-39.71,1675335535.84375
-33.06,1675335535.859375
-25.58,1675335535.875
-16.37,1675335535.890625
-5.05,1675335535.90625
7.83,1675335535.921875
20.79,1675335535.9375
32.05,1675335535.953125
40.33,1675335535.96875
45.42,1675335535.984375
48.18,1675335536.0
49.94,1675335536.015625
51.76,1675335536.03125
53.88,1675335536.046875
55.82,1675335536.0625
56.79,1675335536.078125
56.21,1675335536.09375
54.02,1675335536.109375
50.58,1675335536.125
46.36,1675335536.140625
41.71,1675335536.15625
36.74,1675335536.171875
31.38,1675335536.1875
25.57,1675335536.203125
19.42,1675335536.21875
13.2,1675335536.234375
7.31,1675335536.25
2.04,1675335536.265625
-2.6,1675335536.28125
-6.9,1675335536.296875
-11.39,1675335536.3125
-16.53,1675335536.328125
-22.39,1675335536.34375
-28.61,1675335536.359375
-34.48,1675335536.375
-39.28,1675335536.390625
-42.68,1675335536.40625
-44.82,1675335536.421875
-46.23,1675335536.4375
-47.61,1675335536.453125
-49.46,1675335536.46875
-52.07,1675335536.484375
-55.51,1675335536.5
-59.79,1675335536.515625
-64.81,1675335536.53125
-70.31,1675335536.546875
-75.74,1675335536.5625
-80.25,1675335536.578125
-82.92,1675335536.59375
-83.05,1675335536.609375
-80.42,1675335536.625
-75.32,1675335536.640625
-68.42,1675335536.65625
-60.44,1675335536.671875
-51.97,1675335536.6875
-43.35,1675335536.703125
-34.76,1675335536.71875
-26.29,1675335536.734375
-18.09,1675335536.75
-10.32,1675335536.765625
-3.21,1675335536.78125
3.06,1675335536.796875
8.36,1675335536.8125
12.67,1675335536.828125
16.04,1675335536.84375
18.66,1675335536.859375
20.79,1675335536.875
22.7,1675335536.890625
24.53,1675335536.90625
26.31,1675335536.921875
27.9,1675335536.9375
29.12,1675335536.953125
29.89,1675335536.96875
30.22,1675335536.984375
30.29,1675335537.0
30.26,1675335537.015625
30.2,1675335537.03125
30.02,1675335537.046875
29.52,1675335537.0625
28.52,1675335537.078125
27.01,1675335537.09375
25.15,1675335537.109375
23.23,1675335537.125
21.53,1675335537.140625
20.09,1675335537.15625
18.77,1675335537.171875
17.27,1675335537.1875
15.33,1675335537.203125
12.93,1675335537.21875
10.24,1675335537.234375
7.58,1675335537.25
5.26,1675335537.265625
3.4,1675335537.28125
1.9,1675335537.296875
0.49,1675335537.3125
-1.14,1675335537.328125
-3.21,1675335537.34375
-5.86,1675335537.359375
-9.1,1675335537.375
-12.86,1675335537.390625
-16.96,1675335537.40625
-21.06,1675335537.421875
-24.67,1675335537.4375
-27.17,1675335537.453125
-27.97,1675335537.46875
-26.69,1675335537.484375
-23.32,1675335537.5
-18.21,1675335537.515625
-11.97,1675335537.53125
-5.28,1675335537.546875
1.35,1675335537.5625
7.65,1675335537.578125
13.55,1675335537.59375
19.0,1675335537.609375
23.94,1675335537.625
28.17,1675335537.640625
31.46,1675335537.65625
33.71,1675335537.671875
35.0,1675335537.6875
35.63,1675335537.703125
35.97,1675335537.71875
36.28,1675335537.734375
36.65,1675335537.75
36.97,1675335537.765625
37.03,1675335537.78125
36.72,1675335537.796875
36.04,1675335537.8125
35.15,1675335537.828125
34.26,1675335537.84375
33.46,1675335537.859375
32.64,1675335537.875
31.6,1675335537.890625
30.11,1675335537.90625
28.05,1675335537.921875
25.47,1675335537.9375
22.58,1675335537.953125
19.59,1675335537.96875
16.62,1675335537.984375
13.73,1675335538.0
10.83,1675335538.015625
7.89,1675335538.03125
4.84,1675335538.046875
1.69,1675335538.0625
-1.56,1675335538.078125
-4.88,1675335538.09375
-8.25,1675335538.109375
-11.6,1675335538.125
-14.88,1675335538.140625
-18.06,1675335538.15625
-21.3,1675335538.171875
-24.89,1675335538.1875
-29.11,1675335538.203125
-34.08,1675335538.21875
-39.55,1675335538.234375
-44.88,1675335538.25
-49.21,1675335538.265625
-51.71,1675335538.28125
-51.83,1675335538.296875
-49.48,1675335538.3125
-45.03,1675335538.328125
-39.06,1675335538.34375
-32.28,1675335538.359375
-25.25,1675335538.375
-18.33,1675335538.390625
-11.71,1675335538.40625
-5.42,1675335538.421875
0.56,1675335538.4375
6.21,1675335538.453125
11.4,1675335538.46875
15.99,1675335538.484375
19.76,1675335538.5
22.59,1675335538.515625
24.53,1675335538.53125
25.75,1675335538.546875
26.54,1675335538.5625
27.15,1675335538.578125
27.72,1675335538.59375
28.2,1675335538.609375
28.49,1675335538.625
28.45,1675335538.640625
28.08,1675335538.65625
27.48,1675335538.671875
26.81,1675335538.6875
26.16,1675335538.703125
25.47,1675335538.71875
24.58,1675335538.734375
23.31,1675335538.75
21.55,1675335538.765625
19.37,1675335538.78125
16.92,1675335538.796875
14.37,1675335538.8125
11.87,1675335538.828125
9.48,1675335538.84375
7.19,1675335538.859375
4.99,1675335538.875
2.79,1675335538.890625
0.5,1675335538.90625
-2.03,1675335538.921875
-4.9,1675335538.9375
-8.12,1675335538.953125
-11.58,1675335538.96875
-15.02,1675335538.984375
-18.19,1675335539.0
-20.97,1675335539.015625
-23.44,1675335539.03125
-25.9,1675335539.046875
-28.76,1675335539.0625
-32.43,1675335539.078125
-37.12,1675335539.09375
-42.74,1675335539.109375
-48.85,1675335539.125
-54.68,1675335539.140625
-59.29,1675335539.15625
-61.84,1675335539.171875
-61.72,1675335539.1875
-58.82,1675335539.203125
-53.46,1675335539.21875
-46.32,1675335539.234375
-38.22,1675335539.25
-29.95,1675335539.265625
-22.03,1675335539.28125
-14.68,1675335539.296875
-7.89,1675335539.3125
-1.51,1675335539.328125
4.58,1675335539.34375
10.4,1675335539.359375
15.81,1675335539.375
20.57,1675335539.390625
24.5,1675335539.40625
27.51,1675335539.421875
29.73,1675335539.4375
31.39,1675335539.453125
32.77,1675335539.46875
34.08,1675335539.484375
35.39,1675335539.5
36.62,1675335539.515625
37.62,1675335539.53125
38.21,1675335539.546875
38.3,1675335539.5625
37.91,1675335539.578125
37.17,1675335539.59375
36.27,1675335539.609375
35.36,1675335539.625
34.51,1675335539.640625
33.58,1675335539.65625
32.36,1675335539.671875
30.63,1675335539.6875
28.29,1675335539.703125
25.42,1675335539.71875
22.27,1675335539.734375
19.13,1675335539.75
16.23,1675335539.765625
13.69,1675335539.78125
11.46,1675335539.796875
9.41,1675335539.8125
7.29,1675335539.828125
4.93,1675335539.84375
2.17,1675335539.859375
-0.96,1675335539.875
-4.31,1675335539.890625
-7.63,1675335539.90625
-10.66,1675335539.921875
-13.34,1675335539.9375
-15.87,1675335539.953125
-18.72,1675335539.96875
-22.44,1675335539.984375
-27.49,1675335540.0
-33.96,1675335540.015625
-41.46,1675335540.03125
-49.1,1675335540.046875
-55.54,1675335540.0625
-59.28,1675335540.078125
-59.17,1675335540.09375
-54.81,1675335540.109375
-46.87,1675335540.125
-37.0,1675335540.140625
-27.22,1675335540.15625
-19.17,1675335540.171875
-13.45,1675335540.1875
-9.51,1675335540.203125
-6.18,1675335540.21875
-2.38,1675335540.234375
2.16,1675335540.25
6.76,1675335540.265625
10.09,1675335540.28125
10.84,1675335540.296875
8.09,1675335540.3125
1.53,1675335540.328125
-8.52,1675335540.34375
-21.15,1675335540.359375
-34.73,1675335540.375
-46.94,1675335540.390625
-55.05,1675335540.40625
-56.72,1675335540.421875
-50.8,1675335540.4375
-37.99,1675335540.453125
-20.66,1675335540.46875
-2.06,1675335540.484375
14.85,1675335540.5
28.38,1675335540.515625
38.38,1675335540.53125
45.82,1675335540.546875
52.01,1675335540.5625
57.86,1675335540.578125
63.49,1675335540.59375
68.38,1675335540.609375
71.79,1675335540.625
73.13,1675335540.640625
72.22,1675335540.65625
69.24,1675335540.671875
64.53,1675335540.6875
58.36,1675335540.703125
50.95,1675335540.71875
42.48,1675335540.734375
33.25,1675335540.75
23.64,1675335540.765625
14.07,1675335540.78125
4.84,1675335540.796875
-3.86,1675335540.8125
-11.91,1675335540.828125
-18.97,1675335540.84375
-24.4,1675335540.859375
-27.45,1675335540.875
-27.76,1675335540.890625
-25.84,1675335540.90625
-23.1,1675335540.921875
-21.4,1675335540.9375
-22.07,1675335540.953125
-25.14,1675335540.96875
-29.06,1675335540.984375
-31.33,1675335541.0
-29.58,1675335541.015625
-22.61,1675335541.03125
-10.9,1675335541.046875
3.62,1675335541.0625
18.28,1675335541.078125
30.51,1675335541.09375
38.49,1675335541.109375
41.59,1675335541.125
40.57,1675335541.140625
37.37,1675335541.15625
34.6,1675335541.171875
34.54,1675335541.1875
38.19,1675335541.203125
44.86,1675335541.21875
52.36,1675335541.234375
58.15,1675335541.25
60.37,1675335541.265625
58.53,1675335541.28125
53.33,1675335541.296875
45.9,1675335541.3125
36.99,1675335541.328125
26.71,1675335541.34375
14.87,1675335541.359375
1.65,1675335541.375
-12.07,1675335541.390625
-24.88,1675335541.40625
-35.43,1675335541.421875
-43.05,1675335541.4375
-48.01,1675335541.453125
-51.12,1675335541.46875
-53.28,1675335541.484375
-55.0,1675335541.5
-56.37,1675335541.515625
-57.3,1675335541.53125
-57.74,1675335541.546875
-57.78,1675335541.5625
-57.38,1675335541.578125
-56.13,1675335541.59375
-53.27,1675335541.609375
-48.04,1675335541.625
-40.16,1675335541.640625
-30.19,1675335541.65625
-19.45,1675335541.671875
-9.61,1675335541.6875
-2.18,1675335541.703125
1.92,1675335541.71875
2.25,1675335541.734375
-1.13,1675335541.75
-7.87,1675335541.765625
-17.22,1675335541.78125
-27.97,1675335541.796875
-38.51,1675335541.8125
-47.16,1675335541.828125
-52.72,1675335541.84375
-54.89,1675335541.859375
-54.22,1675335541.875
-51.88,1675335541.890625
-49.11,1675335541.90625
-46.73,1675335541.921875
-45.02,1675335541.9375
-43.77,1675335541.953125
-42.57,1675335541.96875
-41.13,1675335541.984375
-39.42,1675335542.0
-37.7,1675335542.015625
-36.31,1675335542.03125
-35.46,1675335542.046875
-35.08,1675335542.0625
-34.82,1675335542.078125
-34.19,1675335542.09375
-32.76,1675335542.109375
-30.34,1675335542.125
-27.01,1675335542.140625
-23.05,1675335542.15625
-18.81,1675335542.171875
-14.68,1675335542.1875
-10.95,1675335542.203125
-7.89,1675335542.21875
-5.62,1675335542.234375
-4.15,1675335542.25
-3.31,1675335542.265625
-2.86,1675335542.28125
-2.61,1675335542.296875
-2.51,1675335542.3125
-2.67,1675335542.328125
-3.31,1675335542.34375
-4.65,1675335542.359375
-6.74,1675335542.375
-9.51,1675335542.390625
-12.79,1675335542.40625
-16.35,1675335542.421875
-20.04,1675335542.4375
-23.73,1675335542.453125
-27.36,1675335542.46875
-30.91,1675335542.484375
-34.55,1675335542.5
-38.53,1675335542.515625
-43.17,1675335542.53125
-48.62,1675335542.546875
-54.7,1675335542.5625
-60.76,1675335542.578125
-65.76,1675335542.59375
-68.61,1675335542.609375
-68.51,1675335542.625
-65.21,1675335542.640625
-59.03,1675335542.65625
-50.75,1675335542.671875
-41.26,1675335542.6875
-31.3,1675335542.703125
-21.38,1675335542.71875
-11.69,1675335542.734375
-2.35,1675335542.75
6.62,1675335542.765625
15.14,1675335542.78125
23.06,1675335542.796875
30.22,1675335542.8125
36.4,1675335542.828125
41.45,1675335542.84375
45.28,1675335542.859375
47.98,1675335542.875
49.73,1675335542.890625
50.77,1675335542.90625
51.34,1675335542.921875
51.57,1675335542.9375
51.55,1675335542.953125
51.28,1675335542.96875
50.78,1675335542.984375
50.07,1675335543.0
49.19,1675335543.015625
48.1,1675335543.03125
46.72,1675335543.046875
44.92,1675335543.0625
42.64,1675335543.078125
39.89,1675335543.09375
36.81,1675335543.109375
33.56,1675335543.125
30.22,1675335543.140625
26.78,1675335543.15625
23.11,1675335543.171875
19.13,1675335543.1875
14.83,1675335543.203125
10.39,1675335543.21875
6.04,1675335543.234375
1.98,1675335543.25
-1.77,1675335543.265625
-5.4,1675335543.28125
-9.25,1675335543.296875
-13.64,1675335543.3125
-18.82,1675335543.328125
-24.8,1675335543.34375
-31.38,1675335543.359375
-38.14,1675335543.375
-44.41,1675335543.390625
-49.35,1675335543.40625
-52.13,1675335543.421875
-52.12,1675335543.4375
-49.12,1675335543.453125
-43.43,1675335543.46875
-35.76,1675335543.484375
-26.95,1675335543.5
-17.7,1675335543.515625
-8.44,1675335543.53125
0.71,1675335543.546875
9.73,1675335543.5625
18.53,1675335543.578125
26.89,1675335543.59375
34.46,1675335543.609375
40.88,1675335543.625
45.98,1675335543.640625
49.72,1675335543.65625
52.27,1675335543.671875
53.86,1675335543.6875
54.74,1675335543.703125
55.11,1675335543.71875
55.13,1675335543.734375
54.92,1675335543.75
54.56,1675335543.765625
54.1,1675335543.78125
53.55,1675335543.796875
52.8,1675335543.8125
51.74,1675335543.828125
50.24,1675335543.84375
48.28,1675335543.859375
45.95,1675335543.875
43.41,1675335543.890625
40.78,1675335543.90625
38.1,1675335543.921875
35.27,1675335543.9375
32.19,1675335543.953125
28.79,1675335543.96875
25.12,1675335543.984375
21.33,1675335544.0
17.57,1675335544.015625
13.93,1675335544.03125
10.36,1675335544.046875
6.78,1675335544.0625
3.1,1675335544.078125
-0.74,1675335544.09375
-4.8,1675335544.109375
-9.2,1675335544.125
-14.14,1675335544.140625
-19.79,1675335544.15625
-26.11,1675335544.171875
-32.69,1675335544.1875
-38.75,1675335544.203125
-43.36,1675335544.21875
-45.7,1675335544.234375
-45.39,1675335544.25
-42.54,1675335544.265625
-37.63,1675335544.28125
-31.26,1675335544.296875
-23.94,1675335544.3125
-16.03,1675335544.328125
-7.77,1675335544.34375
0.57,1675335544.359375
8.66,1675335544.375
16.14,1675335544.390625
22.65,1675335544.40625
27.99,1675335544.421875
32.05,1675335544.4375
34.86,1675335544.453125
36.59,1675335544.46875
37.49,1675335544.484375
37.87,1675335544.5
38.09,1675335544.515625
38.37,1675335544.53125
38.81,1675335544.546875
39.3,1675335544.5625
39.69,1675335544.578125
39.76,1675335544.59375
39.4,1675335544.609375
38.6,1675335544.625
37.37,1675335544.640625
35.74,1675335544.65625
33.75,1675335544.671875
31.43,1675335544.6875
28.86,1675335544.703125
26.11,1675335544.71875
23.21,1675335544.734375
20.15,1675335544.75
16.81,1675335544.765625
13.09,1675335544.78125
8.95,1675335544.796875
4.51,1675335544.8125
-0.0,1675335544.828125
-4.38,1675335544.84375
-8.54,1675335544.859375
-12.59,1675335544.875
-16.83,1675335544.890625
-21.62,1675335544.90625
-27.23,1675335544.921875
-33.76,1675335544.9375
-41.05,1675335544.953125
-48.67,1675335544.96875
-55.87,1675335544.984375
-61.7,1675335545.0
-65.14,1675335545.015625
-65.41,1675335545.03125
-62.21,1675335545.046875
-55.86,1675335545.0625
-47.21,1675335545.078125
-37.38,1675335545.09375
-27.34,1675335545.109375
-17.69,1675335545.125
-8.56,1675335545.140625
0.19,1675335545.15625
8.71,1675335545.171875
16.92,1675335545.1875
24.49,1675335545.203125
30.98,1675335545.21875
36.05,1675335545.234375
39.67,1675335545.25
42.12,1675335545.265625
43.83,1675335545.28125
45.15,1675335545.296875
46.25,1675335545.3125
47.09,1675335545.328125
47.54,1675335545.34375
47.52,1675335545.359375
47.1,1675335545.375
46.46,1675335545.390625
45.72,1675335545.40625
44.89,1675335545.421875
43.83,1675335545.4375
42.32,1675335545.453125
40.21,1675335545.46875
37.47,1675335545.484375
34.27,1675335545.5
30.87,1675335545.515625
27.52,1675335545.53125
24.41,1675335545.546875
21.53,1675335545.5625
18.78,1675335545.578125
15.95,1675335545.59375
12.82,1675335545.609375
9.22,1675335545.625
5.09,1675335545.640625
0.49,1675335545.65625
-4.43,1675335545.671875
-9.47,1675335545.6875
-14.47,1675335545.703125
-19.32,1675335545.71875
-23.97,1675335545.734375
-28.53,1675335545.75
-33.19,1675335545.765625
-38.27,1675335545.78125
-44.1,1675335545.796875
-50.82,1675335545.8125
-58.25,1675335545.828125
-65.7,1675335545.84375
-72.13,1675335545.859375
-76.32,1675335545.875
-77.27,1675335545.890625
-74.5,1675335545.90625
-68.2,1675335545.921875
-59.16,1675335545.9375
-48.47,1675335545.953125
-37.14,1675335545.96875
-25.83,1675335545.984375
-14.87,1675335546.0
-4.3,1675335546.015625
5.85,1675335546.03125
15.41,1675335546.046875
24.06,1675335546.0625
31.47,1675335546.078125
37.44,1675335546.09375
41.98,1675335546.109375
45.29,1675335546.125
47.64,1675335546.140625
49.25,1675335546.15625
50.19,1675335546.171875
50.53,1675335546.1875
50.34,1675335546.203125
49.81,1675335546.21875
49.18,1675335546.234375
48.65,1675335546.25
48.26,1675335546.265625
47.86,1675335546.28125
47.22,1675335546.296875
46.06,1675335546.3125
44.3,1675335546.328125
41.96,1675335546.34375
39.23,1675335546.359375
36.3,1675335546.375
33.28,1675335546.390625
30.19,1675335546.40625
26.97,1675335546.421875
23.66,1675335546.4375
20.34,1675335546.453125
17.11,1675335546.46875
13.99,1675335546.484375
10.86,1675335546.5
7.45,1675335546.515625
3.49,1675335546.53125
-1.07,1675335546.546875
-6.03,1675335546.5625
-11.03,1675335546.578125
-15.72,1675335546.59375
-19.95,1675335546.609375
-23.86,1675335546.625
-27.78,1675335546.640625
-32.04,1675335546.65625
-36.87,1675335546.671875
-42.35,1675335546.6875
-48.46,1675335546.703125
-55.02,1675335546.71875
-61.66,1675335546.734375
-67.72,1675335546.75
-72.34,1675335546.765625
-74.55,1675335546.78125
-73.62,1675335546.796875
-69.32,1675335546.8125
-62.04,1675335546.828125
-52.59,1675335546.84375
-41.98,1675335546.859375
-31.04,1675335546.875
-20.29,1675335546.890625
-9.97,1675335546.90625
-0.13,1675335546.921875
9.19,1675335546.9375
17.87,1675335546.953125
25.69,1675335546.96875
32.38,1675335546.984375
37.69,1675335547.0
41.52,1675335547.015625
43.91,1675335547.03125
45.12,1675335547.046875
45.53,1675335547.0625
45.53,1675335547.078125
45.41,1675335547.09375
45.37,1675335547.109375
45.4,1675335547.125
45.43,1675335547.140625
45.35,1675335547.15625
45.08,1675335547.171875
44.56,1675335547.1875
43.76,1675335547.203125
42.66,1675335547.21875
41.18,1675335547.234375
39.29,1675335547.25
36.98,1675335547.265625
34.26,1675335547.28125
31.26,1675335547.296875
28.1,1675335547.3125
24.87,1675335547.328125
21.67,1675335547.34375
18.48,1675335547.359375
15.28,1675335547.375
12.0,1675335547.390625
8.6,1675335547.40625
4.99,1675335547.421875
1.16,1675335547.4375
-2.87,1675335547.453125
-7.03,1675335547.46875
-11.19,1675335547.484375
-15.19,1675335547.5
-18.93,1675335547.515625
-22.43,1675335547.53125
-25.85,1675335547.546875
-29.52,1675335547.5625
-33.81,1675335547.578125
-38.99,1675335547.59375
-45.11,1675335547.609375
-51.88,1675335547.625
-58.62,1675335547.640625
-64.37,1675335547.65625
-68.11,1675335547.671875
-68.99,1675335547.6875
-66.61,1675335547.703125
-61.1,1675335547.71875
-53.08,1675335547.734375
-43.45,1675335547.75
-33.13,1675335547.765625
-22.83,1675335547.78125
-13.03,1675335547.796875
-3.98,1675335547.8125
4.2,1675335547.828125
11.44,1675335547.84375
17.67,1675335547.859375
22.81,1675335547.875
26.81,1675335547.890625
29.67,1675335547.90625
31.47,1675335547.921875
32.39,1675335547.9375
32.65,1675335547.953125
32.55,1675335547.96875
32.32,1675335547.984375
32.17,1675335548.0
32.19,1675335548.015625
32.35,1675335548.03125
32.55,1675335548.046875
32.61,1675335548.0625
32.3,1675335548.078125
31.46,1675335548.09375
30.01,1675335548.109375
27.98,1675335548.125
25.5,1675335548.140625
22.78,1675335548.15625
19.99,1675335548.171875
17.25,1675335548.1875
14.57,1675335548.203125
11.94,1675335548.21875
9.29,1675335548.234375
6.58,1675335548.25
3.8,1675335548.265625
0.98,1675335548.28125
-1.89,1675335548.296875
-4.79,1675335548.3125
-7.76,1675335548.328125
-10.84,1675335548.34375
-14.13,1675335548.359375
-17.78,1675335548.375
-21.97,1675335548.390625
-26.84,1675335548.40625
-32.28,1675335548.421875
-37.88,1675335548.4375
-42.84,1675335548.453125
-46.2,1675335548.46875
-47.04,1675335548.484375
-44.93,1675335548.5
-40.0,1675335548.515625
-32.99,1675335548.53125
-24.88,1675335548.546875
-16.61,1675335548.5625
-8.82,1675335548.578125
-1.72,1675335548.59375
4.7,1675335548.609375
10.46,1675335548.625
15.51,1675335548.640625
19.61,1675335548.65625
22.55,1675335548.671875
24.25,1675335548.6875
24.89,1675335548.703125
24.87,1675335548.71875
24.67,1675335548.734375
24.67,1675335548.75
24.99,1675335548.765625
25.5,1675335548.78125
25.89,1675335548.796875
25.92,1675335548.8125
25.44,1675335548.828125
24.55,1675335548.84375
23.43,1675335548.859375
22.2,1675335548.875
20.86,1675335548.890625
19.24,1675335548.90625
17.18,1675335548.921875
14.55,1675335548.9375
11.41,1675335548.953125
7.88,1675335548.96875
4.15,1675335548.984375
0.34,1675335549.0
-3.46,1675335549.015625
-7.22,1675335549.03125
-10.9,1675335549.046875
-14.47,1675335549.0625
-17.87,1675335549.078125
-21.13,1675335549.09375
-24.35,1675335549.109375
-27.73,1675335549.125
-31.52,1675335549.140625
-35.95,1675335549.15625
-41.09,1675335549.171875
-46.71,1675335549.1875
-52.28,1675335549.203125
-56.95,1675335549.21875
-59.79,1675335549.234375
-60.02,1675335549.25
-57.34,1675335549.265625
-51.92,1675335549.28125
-44.47,1675335549.296875
-35.88,1675335549.3125
-27.01,1675335549.328125
-18.49,1675335549.34375
-10.63,1675335549.359375
-3.54,1675335549.375
2.8,1675335549.390625
8.39,1675335549.40625
13.16,1675335549.421875
17.03,1675335549.4375
19.96,1675335549.453125
22.0,1675335549.46875
23.32,1675335549.484375
24.18,1675335549.5
24.81,1675335549.515625
25.38,1675335549.53125
25.9,1675335549.546875
26.3,1675335549.5625
26.44,1675335549.578125
26.29,1675335549.59375
25.84,1675335549.609375
25.16,1675335549.625
24.29,1675335549.640625
23.2,1675335549.65625
21.83,1675335549.671875
20.1,1675335549.6875
17.98,1675335549.703125
15.51,1675335549.71875
12.76,1675335549.734375
9.85,1675335549.75
6.82,1675335549.765625
3.74,1675335549.78125
0.66,1675335549.796875
-2.42,1675335549.8125
-5.47,1675335549.828125
-8.47,1675335549.84375
-11.42,1675335549.859375
-14.3,1675335549.875
-17.17,1675335549.890625
-20.17,1675335549.90625
-23.51,1675335549.921875
-27.47,1675335549.9375
-32.27,1675335549.953125
-37.83,1675335549.96875
-43.71,1675335549.984375
-49.08,1675335550.0
-52.9,1675335550.015625
-54.22,1675335550.03125
-52.54,1675335550.046875
-47.91,1675335550.0625
-40.96,1675335550.078125
-32.66,1675335550.09375
-23.94,1675335550.109375
-15.45,1675335550.125
-7.44,1675335550.140625
0.14,1675335550.15625
7.42,1675335550.171875
14.4,1675335550.1875
20.87,1675335550.203125
26.49,1675335550.21875
30.98,1675335550.234375
34.27,1675335550.25
36.54,1675335550.265625
38.12,1675335550.28125
39.35,1675335550.296875
40.45,1675335550.3125
41.5,1675335550.328125
42.46,1675335550.34375
43.28,1675335550.359375
43.94,1675335550.375
44.49,1675335550.390625
44.98,1675335550.40625
45.43,1675335550.421875
45.81,1675335550.4375
46.02,1675335550.453125
45.9,1675335550.46875
45.3,1675335550.484375
44.13,1675335550.5
42.41,1675335550.515625
40.27,1675335550.53125
37.9,1675335550.546875
35.56,1675335550.5625
33.41,1675335550.578125
31.52,1675335550.59375
29.83,1675335550.609375
28.18,1675335550.625
26.34,1675335550.640625
24.16,1675335550.65625
21.59,1675335550.671875
18.75,1675335550.6875
15.82,1675335550.703125
12.91,1675335550.71875
9.91,1675335550.734375
6.44,1675335550.75
1.98,1675335550.765625
-3.95,1675335550.78125
-11.51,1675335550.796875
-20.45,1675335550.8125
-30.14,1675335550.828125
-39.7,1675335550.84375
-48.16,1675335550.859375
-54.61,1675335550.875
-58.2,1675335550.890625
-58.3,1675335550.90625
-54.52,1675335550.921875
-46.87,1675335550.9375
-35.85,1675335550.953125
-22.39,1675335550.96875
-7.63,1675335550.984375
7.32,1675335551.0
21.68,1675335551.015625
34.97,1675335551.03125
47.08,1675335551.046875
58.01,1675335551.0625
67.8,1675335551.078125
76.41,1675335551.09375
83.68,1675335551.109375
89.42,1675335551.125
93.43,1675335551.140625
95.62,1675335551.15625
96.09,1675335551.171875
95.09,1675335551.1875
93.04,1675335551.203125
90.41,1675335551.21875
87.71,1675335551.234375
85.4,1675335551.25
83.69,1675335551.265625
82.52,1675335551.28125
81.26,1675335551.296875
78.77,1675335551.3125
73.55,1675335551.328125
64.2,1675335551.34375
49.95,1675335551.359375
31.11,1675335551.375
9.16,1675335551.390625
-13.51,1675335551.40625
-34.21,1675335551.421875
-50.7,1675335551.4375
-61.7,1675335551.453125
-67.22,1675335551.46875
-68.37,1675335551.484375
-66.88,1675335551.5
-64.6,1675335551.515625
-63.05,1675335551.53125
-63.09,1675335551.546875
-65.07,1675335551.5625
-68.92,1675335551.578125
-74.41,1675335551.59375
-81.21,1675335551.609375
-88.88,1675335551.625
-96.82,1675335551.640625
-104.38,1675335551.65625
-111.02,1675335551.671875
-116.56,1675335551.6875
-121.23,1675335551.703125
-125.46,1675335551.71875
-129.56,1675335551.734375
-133.4,1675335551.75
-136.39,1675335551.765625
-137.56,1675335551.78125
-135.83,1675335551.796875
-130.23,1675335551.8125
-120.1,1675335551.828125
-105.39,1675335551.84375
-86.78,1675335551.859375
-65.8,1675335551.875
-44.59,1675335551.890625
-25.34,1675335551.90625
-9.55,1675335551.921875
2.46,1675335551.9375
11.51,1675335551.953125
19.03,1675335551.96875
26.13,1675335551.984375
33.12,1675335552.0
39.41,1675335552.015625
43.99,1675335552.03125
46.14,1675335552.046875
45.82,1675335552.0625
43.6,1675335552.078125
40.3,1675335552.09375
36.51,1675335552.109375
32.43,1675335552.125
27.88,1675335552.140625
22.64,1675335552.15625
16.65,1675335552.171875
10.14,1675335552.1875
3.47,1675335552.203125
-2.92,1675335552.21875
-8.78,1675335552.234375
-14.06,1675335552.25
-18.94,1675335552.265625
-23.73,1675335552.28125
-28.74,1675335552.296875
-34.11,1675335552.3125
-39.68,1675335552.328125
-44.99,1675335552.34375
-49.46,1675335552.359375
-52.59,1675335552.375
-54.22,1675335552.390625
-54.62,1675335552.40625
-54.34,1675335552.421875
-53.93,1675335552.4375
-53.72,1675335552.453125
-53.75,1675335552.46875
-53.93,1675335552.484375
-54.21,1675335552.5
-54.73,1675335552.515625
-55.75,1675335552.53125
-57.36,1675335552.546875
-59.28,1675335552.5625
-60.76,1675335552.578125
-60.81,1675335552.59375
-58.55,1675335552.609375
-53.63,1675335552.625
-46.28,1675335552.640625
-37.27,1675335552.65625
-27.57,1675335552.671875
-18.08,1675335552.6875
-9.34,1675335552.703125
-1.59,1675335552.71875
5.22,1675335552.734375
11.18,1675335552.75
16.35,1675335552.765625
20.65,1675335552.78125
23.9,1675335552.796875
25.94,1675335552.8125
26.76,1675335552.828125
26.6,1675335552.84375
25.86,1675335552.859375
25.01,1675335552.875
24.42,1675335552.890625
24.19,1675335552.90625
24.17,1675335552.921875
24.09,1675335552.9375
23.7,1675335552.953125
22.87,1675335552.96875
21.69,1675335552.984375
20.32,1675335553.0
18.91,1675335553.015625
17.52,1675335553.03125
16.07,1675335553.046875
14.42,1675335553.0625
12.43,1675335553.078125
10.03,1675335553.09375
7.26,1675335553.109375
4.27,1675335553.125
1.25,1675335553.140625
-1.59,1675335553.15625
-4.13,1675335553.171875
-6.33,1675335553.1875
-8.31,1675335553.203125
-10.27,1675335553.21875
-12.51,1675335553.234375
-15.3,1675335553.25
-18.86,1675335553.265625
-23.2,1675335553.28125
-28.09,1675335553.296875
-32.94,1675335553.3125
-36.96,1675335553.328125
-39.28,1675335553.34375
-39.23,1675335553.359375
-36.57,1675335553.375
-31.54,1675335553.390625
-24.75,1675335553.40625
-16.97,1675335553.421875
-8.86,1675335553.4375
-0.88,1675335553.453125
6.7,1675335553.46875
13.74,1675335553.484375
20.1,1675335553.5
25.61,1675335553.515625
30.19,1675335553.53125
33.78,1675335553.546875
36.45,1675335553.5625
38.28,1675335553.578125
39.38,1675335553.59375
39.85,1675335553.609375
39.79,1675335553.625
39.32,1675335553.640625
38.61,1675335553.65625
37.84,1675335553.671875
37.1,1675335553.6875
36.4,1675335553.703125
35.67,1675335553.71875
34.78,1675335553.734375
33.63,1675335553.75
32.12,1675335553.765625
30.2,1675335553.78125
27.87,1675335553.796875
25.18,1675335553.8125
22.21,1675335553.828125
19.09,1675335553.84375
15.89,1675335553.859375
12.69,1675335553.875
9.46,1675335553.890625
6.2,1675335553.90625
2.92,1675335553.921875
-0.35,1675335553.9375
-3.58,1675335553.953125
-6.75,1675335553.96875
-9.96,1675335553.984375
-13.34,1675335554.0
-17.04,1675335554.015625
-21.2,1675335554.03125
-25.84,1675335554.046875
-30.91,1675335554.0625
-36.19,1675335554.078125
-41.27,1675335554.09375
-45.55,1675335554.109375
-48.31,1675335554.125
-48.9,1675335554.140625
-46.94,1675335554.15625
-42.5,1675335554.171875
-36.08,1675335554.1875
-28.46,1675335554.203125
-20.47,1675335554.21875
-12.73,1675335554.234375
-5.61,1675335554.25
0.85,1675335554.265625
6.74,1675335554.28125
12.22,1675335554.296875
17.43,1675335554.3125
22.38,1675335554.328125
26.94,1675335554.34375
30.88,1675335554.359375
33.98,1675335554.375
36.1,1675335554.390625
37.29,1675335554.40625
37.77,1675335554.421875
37.89,1675335554.4375
37.9,1675335554.453125
37.94,1675335554.46875
38.0,1675335554.484375
37.99,1675335554.5
37.85,1675335554.515625
37.49,1675335554.53125
36.85,1675335554.546875
35.82,1675335554.5625
34.3,1675335554.578125
32.25,1675335554.59375
29.76,1675335554.609375
27.07,1675335554.625
24.45,1675335554.640625
22.04,1675335554.65625
19.84,1675335554.671875
17.64,1675335554.6875
15.16,1675335554.703125
12.2,1675335554.71875
8.69,1675335554.734375
4.69,1675335554.75
0.37,1675335554.765625
-4.08,1675335554.78125
-8.46,1675335554.796875
-12.61,1675335554.8125
-16.45,1675335554.828125
-20.0,1675335554.84375
-23.49,1675335554.859375
-27.28,1675335554.875
-31.75,1675335554.890625
-37.11,1675335554.90625
-43.19,1675335554.921875
-49.35,1675335554.9375
-54.61,1675335554.953125
-57.91,1675335554.96875
-58.43,1675335554.984375
-55.88,1675335555.0
-50.6,1675335555.015625
-43.38,1675335555.03125
-35.14,1675335555.046875
-26.71,1675335555.0625
-18.54,1675335555.078125
-10.77,1675335555.09375
-3.34,1675335555.109375
3.82,1675335555.125
10.71,1675335555.140625
17.17,1675335555.15625
22.96,1675335555.171875
27.85,1675335555.1875
31.68,1675335555.203125
34.43,1675335555.21875
36.2,1675335555.234375
37.22,1675335555.25
37.75,1675335555.265625
38.03,1675335555.28125
38.2,1675335555.296875
38.31,1675335555.3125
38.35,1675335555.328125
38.32,1675335555.34375
38.21,1675335555.359375
38.01,1675335555.375
37.64,1675335555.390625
36.99,1675335555.40625
35.91,1675335555.421875
34.34,1675335555.4375
32.33,1675335555.453125
30.03,1675335555.46875
27.66,1675335555.484375
25.34,1675335555.5
23.15,1675335555.515625
21.03,1675335555.53125
18.93,1675335555.546875
16.73,1675335555.5625
14.36,1675335555.578125
11.74,1675335555.59375
8.81,1675335555.609375
5.56,1675335555.625
2.0,1675335555.640625
-1.75,1675335555.65625
-5.55,1675335555.671875
-9.25,1675335555.6875
-12.75,1675335555.703125
-16.06,1675335555.71875
-19.28,1675335555.734375
-22.59,1675335555.75
-26.27,1675335555.765625
-30.58,1675335555.78125
-35.66,1675335555.796875
-41.45,1675335555.8125
-47.54,1675335555.828125
-53.17,1675335555.84375
-57.39,1675335555.859375
-59.26,1675335555.875
-58.21,1675335555.890625
-54.16,1675335555.90625
-47.63,1675335555.921875
-39.47,1675335555.9375
-30.64,1675335555.953125
-21.87,1675335555.96875
-13.56,1675335555.984375
-5.83,1675335556.0
1.38,1675335556.015625
8.07,1675335556.03125
14.18,1675335556.046875
19.57,1675335556.0625
24.1,1675335556.078125
27.73,1675335556.09375
30.51,1675335556.109375
32.6,1675335556.125
34.21,1675335556.140625
35.52,1675335556.15625
36.68,1675335556.171875
37.73,1675335556.1875
38.63,1675335556.203125
39.2,1675335556.21875
39.25,1675335556.234375
38.64,1675335556.25
37.33,1675335556.265625
35.42,1675335556.28125
33.11,1675335556.296875
30.64,1675335556.3125
28.2,1675335556.328125
25.88,1675335556.34375
23.64,1675335556.359375
21.44,1675335556.375
19.19,1675335556.390625
16.84,1675335556.40625
14.37,1675335556.421875
11.76,1675335556.4375
9.01,1675335556.453125
6.12,1675335556.46875
3.09,1675335556.484375
-0.05,1675335556.5
-3.26,1675335556.515625
-6.5,1675335556.53125
-9.78,1675335556.546875
-13.08,1675335556.5625
-16.51,1675335556.578125
-20.24,1675335556.59375
-24.5,1675335556.609375
-29.41,1675335556.625
-34.89,1675335556.640625
-40.47,1675335556.65625
-45.39,1675335556.671875
-48.72,1675335556.6875
-49.67,1675335556.703125
-47.86,1675335556.71875
-43.46,1675335556.734375
-37.06,1675335556.75
-29.52,1675335556.765625
-21.61,1675335556.78125
-13.9,1675335556.796875
-6.64,1675335556.8125
0.14,1675335556.828125
6.45,1675335556.84375
12.26,1675335556.859375
17.46,1675335556.875
21.85,1675335556.890625
25.24,1675335556.90625
27.62,1675335556.921875
29.13,1675335556.9375
30.05,1675335556.953125
30.74,1675335556.96875
31.42,1675335556.984375
32.16,1675335557.0
32.83,1675335557.015625
33.28,1675335557.03125
33.41,1675335557.046875
33.26,1675335557.0625
32.96,1675335557.078125
32.57,1675335557.09375
32.02,1675335557.109375
31.1,1675335557.125
29.51,1675335557.140625
27.12,1675335557.15625
24.02,1675335557.171875
20.53,1675335557.1875
17.08,1675335557.203125
14.02,1675335557.21875
11.44,1675335557.234375
9.15,1675335557.25
6.86,1675335557.265625
4.23,1675335557.28125
1.13,1675335557.296875
-2.39,1675335557.3125
-6.11,1675335557.328125
