PPG GREEN,time
2240782.0,1675335480.034
2239866.0,1675335480.074
2232404.0,1675335480.154
2237053.0,1675335480.115
2227467.0,1675335480.195
2222438.0,1675335480.236
2217567.0,1675335480.275
2214285.0,1675335480.315
2211406.0,1675335480.356
2208609.0,1675335480.396
2206732.0,1675335480.435
2204943.0,1675335480.476
2203419.0,1675335480.516
2202755.0,1675335480.556
2202003.0,1675335480.597
2201644.0,1675335480.636
2201505.0,1675335480.676
2201426.0,1675335480.717
2201891.0,1675335480.756
2203141.0,1675335480.797
2203957.0,1675335480.837
2205294.0,1675335480.876
2204631.0,1675335480.917
2202877.0,1675335480.958
2197107.0,1675335480.997
2189653.0,1675335481.037
2181120.0,1675335481.078
2174666.0,1675335481.117
2169361.0,1675335481.157
2163605.0,1675335481.199
2158328.0,1675335481.237
2154896.0,1675335481.278
2153123.0,1675335481.319
2152580.0,1675335481.358
2153620.0,1675335481.399
2155194.0,1675335481.439
2154553.0,1675335481.478
2153724.0,1675335481.518
2153097.0,1675335481.56
2153025.0,1675335481.599
2153045.0,1675335481.639
2151907.0,1675335481.68
2148258.0,1675335481.719
2144043.0,1675335481.759
2139265.0,1675335481.801
2134067.0,1675335481.839
2129274.0,1675335481.88
2125487.0,1675335481.921
2122416.0,1675335481.96
2119601.0,1675335482.001
2116557.0,1675335482.041
2114184.0,1675335482.08
2112347.0,1675335482.12
2110993.0,1675335482.161
2109907.0,1675335482.201
2109497.0,1675335482.241
2109589.0,1675335482.282
2110308.0,1675335482.321
2112731.0,1675335482.361
2115972.0,1675335482.403
2119617.0,1675335482.441
2122542.0,1675335482.482
2122268.0,1675335482.523
2120747.0,1675335482.562
2119019.0,1675335482.603
2117264.0,1675335482.643
2115919.0,1675335482.682
2114551.0,1675335482.722
2114630.0,1675335482.763
2114513.0,1675335482.803
2114516.0,1675335482.843
2114568.0,1675335482.884
2114766.0,1675335482.923
2115050.0,1675335482.963
2116086.0,1675335483.005
2117387.0,1675335483.043
2118333.0,1675335483.083
2119075.0,1675335483.125
2119646.0,1675335483.164
2120550.0,1675335483.204
2121700.0,1675335483.245
2122517.0,1675335483.284
2121590.0,1675335483.324
2118981.0,1675335483.365
2116900.0,1675335483.405
2114439.0,1675335483.445
2112187.0,1675335483.486
2110620.0,1675335483.525
2110142.0,1675335483.565
2109853.0,1675335483.607
2109674.0,1675335483.645
2110008.0,1675335483.686
2110576.0,1675335483.727
2111271.0,1675335483.766
2112465.0,1675335483.807
2113450.0,1675335483.847
2114997.0,1675335483.886
2116146.0,1675335483.926
2117367.0,1675335483.968
2118350.0,1675335484.007
2119392.0,1675335484.047
2122531.0,1675335484.088
2124013.0,1675335484.127
2123572.0,1675335484.167
2122356.0,1675335484.209
2121530.0,1675335484.247
2120585.0,1675335484.287
2120116.0,1675335484.328
2120487.0,1675335484.367
2121238.0,1675335484.408
2122742.0,1675335484.449
2125346.0,1675335484.488
2128130.0,1675335484.528
2130519.0,1675335484.569
2132421.0,1675335484.609
2134317.0,1675335484.648
2135602.0,1675335484.689
2136032.0,1675335484.728
2136413.0,1675335484.768
2138168.0,1675335484.81
2140312.0,1675335484.848
2143245.0,1675335484.888
2145507.0,1675335484.93
2147308.0,1675335484.969
2150326.0,1675335485.009
2153603.0,1675335485.05
2157025.0,1675335485.089
2160918.0,1675335485.129
2162540.0,1675335485.17
2161404.0,1675335485.21
2159631.0,1675335485.249
2157761.0,1675335485.29
2156165.0,1675335485.33
2154695.0,1675335485.37
2152777.0,1675335485.411
2152090.0,1675335485.45
2151389.0,1675335485.49
2150829.0,1675335485.531
2151527.0,1675335485.57
2153792.0,1675335485.611
2155851.0,1675335485.651
2157142.0,1675335485.69
2156735.0,1675335485.73
2156197.0,1675335485.772
2156145.0,1675335485.811
2156667.0,1675335485.851
2157961.0,1675335485.892
2160213.0,1675335485.931
2162727.0,1675335485.971
2165573.0,1675335486.013
2169118.0,1675335486.051
2172030.0,1675335486.091
2175354.0,1675335486.133
2178275.0,1675335486.172
2180517.0,1675335486.212
2182335.0,1675335486.253
2184891.0,1675335486.292
2187512.0,1675335486.332
2189769.0,1675335486.373
2192463.0,1675335486.413
2194955.0,1675335486.452
2197520.0,1675335486.493
2199635.0,1675335486.533
2200249.0,1675335486.573
2200835.0,1675335486.614
2201374.0,1675335486.653
2201982.0,1675335486.693
2201797.0,1675335486.734
2199225.0,1675335486.773
2196983.0,1675335486.814
2196493.0,1675335486.854
2197045.0,1675335486.894
2196981.0,1675335486.934
2196539.0,1675335486.975
2194553.0,1675335487.015
2192004.0,1675335487.054
2189434.0,1675335487.095
2187187.0,1675335487.134
2185725.0,1675335487.174
2184742.0,1675335487.216
2183879.0,1675335487.255
2183511.0,1675335487.295
2183160.0,1675335487.336
2183054.0,1675335487.375
2181762.0,1675335487.416
2179389.0,1675335487.456
2177030.0,1675335487.495
2175230.0,1675335487.535
2173897.0,1675335487.577
2172299.0,1675335487.616
2171259.0,1675335487.656
2169851.0,1675335487.697
2169488.0,1675335487.736
2169601.0,1675335487.776
2170568.0,1675335487.818
2171643.0,1675335487.856
2172791.0,1675335487.896
2174545.0,1675335487.938
2176067.0,1675335487.977
2177869.0,1675335488.017
2179299.0,1675335488.058
2180582.0,1675335488.097
2182475.0,1675335488.137
2184506.0,1675335488.178
2185406.0,1675335488.218
2185513.0,1675335488.257
2184966.0,1675335488.299
2184658.0,1675335488.338
2184014.0,1675335488.378
2183297.0,1675335488.42
2182849.0,1675335488.458
2181744.0,1675335488.498
2180706.0,1675335488.539
2180218.0,1675335488.578
2178771.0,1675335488.619
2178291.0,1675335488.66
2177705.0,1675335488.699
2176101.0,1675335488.739
2173490.0,1675335488.78
2171210.0,1675335488.82
2169555.0,1675335488.859
2169483.0,1675335488.9
2169921.0,1675335488.939
2169705.0,1675335488.98
2168504.0,1675335489.021
2166965.0,1675335489.06
2165692.0,1675335489.1
2164648.0,1675335489.141
2163667.0,1675335489.18
2163014.0,1675335489.221
2162163.0,1675335489.261
2161652.0,1675335489.303
2161650.0,1675335489.343
2161730.0,1675335489.384
2161909.0,1675335489.424
2162050.0,1675335489.504
2161977.0,1675335489.463
2162180.0,1675335489.543
2162767.0,1675335489.583
2163818.0,1675335489.625
2164338.0,1675335489.664
2163081.0,1675335489.704
2161396.0,1675335489.745
2159368.0,1675335489.784
2157688.0,1675335489.825
2156556.0,1675335489.865
2155475.0,1675335489.904
2155093.0,1675335489.945
2154552.0,1675335489.986
2154611.0,1675335490.025
2154767.0,1675335490.065
2155561.0,1675335490.106
2156353.0,1675335490.145
2157777.0,1675335490.185
2159091.0,1675335490.227
2160222.0,1675335490.265
2161082.0,1675335490.306
2162239.0,1675335490.347
2163122.0,1675335490.386
2163460.0,1675335490.427
2162712.0,1675335490.467
2161709.0,1675335490.506
2160385.0,1675335490.546
2158797.0,1675335490.588
2157813.0,1675335490.627
2157097.0,1675335490.667
2156505.0,1675335490.708
2155829.0,1675335490.747
2155374.0,1675335490.787
2155079.0,1675335490.829
2154768.0,1675335490.868
2154968.0,1675335490.908
2154761.0,1675335490.949
2154871.0,1675335490.988
2154843.0,1675335491.029
2154901.0,1675335491.069
2155270.0,1675335491.108
2155339.0,1675335491.149
2155074.0,1675335491.19
2153646.0,1675335491.229
2149369.0,1675335491.31
2151736.0,1675335491.269
2147465.0,1675335491.349
2145605.0,1675335491.389
2144199.0,1675335491.431
2143064.0,1675335491.47
2141791.0,1675335491.51
2140281.0,1675335491.59
2139801.0,1675335491.631
2139348.0,1675335491.671
2139066.0,1675335491.71
2138447.0,1675335491.791
2138569.0,1675335491.831
2138785.0,1675335491.75
2138415.0,1675335491.87
2138517.0,1675335491.912
2138428.0,1675335491.951
2138624.0,1675335491.991
2140898.0,1675335491.551
2137896.0,1675335492.071
2138451.0,1675335492.032
2135540.0,1675335492.111
2132724.0,1675335492.152
2129696.0,1675335492.191
2126085.0,1675335492.232
2122655.0,1675335492.272
2120065.0,1675335492.311
2117571.0,1675335492.351
2115560.0,1675335492.393
2111427.0,1675335492.513
2113855.0,1675335492.432
2110658.0,1675335492.552
2112405.0,1675335492.472
2109966.0,1675335492.592
2109347.0,1675335492.634
2108716.0,1675335492.672
2107582.0,1675335492.754
2107295.0,1675335492.793
2107040.0,1675335492.833
2107024.0,1675335492.874
2106296.0,1675335492.913
2108016.0,1675335492.712
2104756.0,1675335492.953
2102111.0,1675335492.994
2099474.0,1675335493.034
2096519.0,1675335493.073
2093972.0,1675335493.114
2091692.0,1675335493.154
2089806.0,1675335493.194
2088485.0,1675335493.235
2087322.0,1675335493.274
2086146.0,1675335493.314
2085364.0,1675335493.355
2084903.0,1675335493.394
2085032.0,1675335493.435
2084992.0,1675335493.475
2085167.0,1675335493.514
2085438.0,1675335493.555
2085634.0,1675335493.596
2086174.0,1675335493.636
2086722.0,1675335493.675
2087205.0,1675335493.716
2087705.0,1675335493.755
2087521.0,1675335493.795
2086776.0,1675335493.837
2085353.0,1675335493.875
2084115.0,1675335493.916
2082963.0,1675335493.957
2082027.0,1675335493.996
2081127.0,1675335494.037
2080698.0,1675335494.077
2080015.0,1675335494.116
2079465.0,1675335494.156
2079307.0,1675335494.197
2079095.0,1675335494.237
2078781.0,1675335494.277
2078767.0,1675335494.318
2078807.0,1675335494.357
2078997.0,1675335494.397
2079149.0,1675335494.439
2079662.0,1675335494.477
2079933.0,1675335494.517
2080407.0,1675335494.558
2081111.0,1675335494.597
2081514.0,1675335494.638
2081190.0,1675335494.679
2079858.0,1675335494.718
2078498.0,1675335494.758
2076836.0,1675335494.799
2075052.0,1675335494.839
2073816.0,1675335494.878
2072842.0,1675335494.919
2072359.0,1675335494.958
2071683.0,1675335494.999
2071295.0,1675335495.04
2071035.0,1675335495.079
2071084.0,1675335495.119
2070931.0,1675335495.16
2071325.0,1675335495.199
2071559.0,1675335495.24
2071821.0,1675335495.28
2072255.0,1675335495.319
2072717.0,1675335495.36
2073330.0,1675335495.401
2073695.0,1675335495.441
2073874.0,1675335495.48
2074564.0,1675335495.521
2074295.0,1675335495.56
2073048.0,1675335495.6
2070989.0,1675335495.642
2068858.0,1675335495.681
2066880.0,1675335495.721
2065036.0,1675335495.762
2063532.0,1675335495.801
2062350.0,1675335495.842
2061501.0,1675335495.882
2060808.0,1675335495.921
2060402.0,1675335495.962
2060393.0,1675335496.003
2060111.0,1675335496.042
2060055.0,1675335496.082
2060347.0,1675335496.123
2060666.0,1675335496.162
2061001.0,1675335496.202
2061588.0,1675335496.244
2062424.0,1675335496.283
2062814.0,1675335496.323
2063366.0,1675335496.364
2064257.0,1675335496.403
2064767.0,1675335496.444
2062767.0,1675335496.484
2058741.0,1675335496.523
2052748.0,1675335496.564
2035915.0,1675335496.605
2024812.0,1675335496.645
2017985.0,1675335496.684
2012177.0,1675335496.725
2004580.0,1675335496.764
1998719.0,1675335496.804
1992888.0,1675335496.846
1992576.0,1675335496.885
1995166.0,1675335496.925
1998910.0,1675335496.966
2000565.0,1675335497.005
2002508.0,1675335497.046
2004016.0,1675335497.086
2003331.0,1675335497.125
2005598.0,1675335497.166
2008487.0,1675335497.207
2013676.0,1675335497.246
2019368.0,1675335497.286
2026232.0,1675335497.327
2030165.0,1675335497.366
2034707.0,1675335497.406
2041575.0,1675335497.448
2047606.0,1675335497.487
2055247.0,1675335497.527
2060279.0,1675335497.568
2064968.0,1675335497.607
2070797.0,1675335497.648
2076036.0,1675335497.688
2079835.0,1675335497.727
2083675.0,1675335497.768
2087769.0,1675335497.809
2090903.0,1675335497.848
2093042.0,1675335497.888
2095844.0,1675335497.929
2099085.0,1675335497.968
2101045.0,1675335498.008
2102308.0,1675335498.05
2103203.0,1675335498.089
2104007.0,1675335498.129
2104357.0,1675335498.17
2105053.0,1675335498.209
2105801.0,1675335498.25
2106984.0,1675335498.291
2108201.0,1675335498.33
2109221.0,1675335498.371
2109293.0,1675335498.411
2109196.0,1675335498.451
2109083.0,1675335498.49
2109031.0,1675335498.531
2108516.0,1675335498.571
2107991.0,1675335498.611
2107702.0,1675335498.653
2107312.0,1675335498.691
2103763.0,1675335498.731
2101029.0,1675335498.772
2097862.0,1675335498.811
2094494.0,1675335498.852
2090934.0,1675335498.892
2088034.0,1675335498.932
2084905.0,1675335498.972
2081992.0,1675335499.013
2080554.0,1675335499.052
2079404.0,1675335499.092
2077811.0,1675335499.133
2078000.0,1675335499.172
2080548.0,1675335499.212
2085357.0,1675335499.254
2089539.0,1675335499.292
2093389.0,1675335499.332
2097655.0,1675335499.374
2101187.0,1675335499.413
2103945.0,1675335499.453
2104050.0,1675335499.494
2104458.0,1675335499.533
2104244.0,1675335499.573
2104504.0,1675335499.614
2103592.0,1675335499.654
2103067.0,1675335499.693
2102513.0,1675335499.734
2100585.0,1675335499.774
2098068.0,1675335499.814
2096728.0,1675335499.855
2096384.0,1675335499.894
2096805.0,1675335499.934
2097634.0,1675335499.975
2098894.0,1675335500.014
2100030.0,1675335500.055
2101508.0,1675335500.096
2104087.0,1675335500.135
2106325.0,1675335500.175
2108309.0,1675335500.216
2110066.0,1675335500.256
2109693.0,1675335500.295
2106256.0,1675335500.336
2103155.0,1675335500.375
2101195.0,1675335500.415
2100639.0,1675335500.457
2102122.0,1675335500.496
2104610.0,1675335500.536
2107289.0,1675335500.577
2109116.0,1675335500.616
2111442.0,1675335500.657
2114304.0,1675335500.697
2117282.0,1675335500.736
2119986.0,1675335500.776
2122535.0,1675335500.817
2124761.0,1675335500.857
2126703.0,1675335500.896
2129688.0,1675335500.938
2131960.0,1675335500.977
2134292.0,1675335501.017
2136719.0,1675335501.059
2138977.0,1675335501.097
2139814.0,1675335501.137
2138900.0,1675335501.178
2137454.0,1675335501.217
2135870.0,1675335501.258
2133607.0,1675335501.298
2132149.0,1675335501.336
2132106.0,1675335501.377
2133067.0,1675335501.418
2135241.0,1675335501.458
2137751.0,1675335501.497
2140041.0,1675335501.538
2141062.0,1675335501.577
2142183.0,1675335501.617
2143518.0,1675335501.659
2144198.0,1675335501.698
2145461.0,1675335501.738
2147653.0,1675335501.779
2149818.0,1675335501.818
2152197.0,1675335501.859
2154926.0,1675335501.899
2158389.0,1675335501.938
2161452.0,1675335501.978
2164031.0,1675335502.02
2165841.0,1675335502.059
2166925.0,1675335502.14
2165860.0,1675335502.179
2164875.0,1675335502.219
2167008.0,1675335502.099
2164755.0,1675335502.261
2165880.0,1675335502.3
2167200.0,1675335502.34
2168858.0,1675335502.381
2170500.0,1675335502.42
2172084.0,1675335502.461
2173579.0,1675335502.501
2175001.0,1675335502.54
2176887.0,1675335502.58
2179112.0,1675335502.622
2183481.0,1675335502.701
2185882.0,1675335502.742
2187057.0,1675335502.781
2181370.0,1675335502.661
2189386.0,1675335502.821
2191139.0,1675335502.863
2192164.0,1675335502.901
2193241.0,1675335502.942
2194346.0,1675335502.983
2196259.0,1675335503.022
2196770.0,1675335503.063
2197170.0,1675335503.103
2197688.0,1675335503.142
2196790.0,1675335503.182
2195947.0,1675335503.224
2195691.0,1675335503.263
2195945.0,1675335503.303
2196015.0,1675335503.344
2195835.0,1675335503.383
2196041.0,1675335503.423
2197035.0,1675335503.465
2198538.0,1675335503.503
2199989.0,1675335503.543
2201429.0,1675335503.585
2202798.0,1675335503.624
2203740.0,1675335503.665
2205051.0,1675335503.705
2206229.0,1675335503.744
2207512.0,1675335503.784
2211452.0,1675335503.946
2209442.0,1675335503.865
2210407.0,1675335503.905
2208689.0,1675335503.826
2212178.0,1675335503.985
2210929.0,1675335504.067
2210082.0,1675335504.146
2211427.0,1675335504.025
2210217.0,1675335504.105
2210061.0,1675335504.187
2210054.0,1675335504.226
2210784.0,1675335504.267
2211844.0,1675335504.307
2212243.0,1675335504.346
2212855.0,1675335504.386
2213338.0,1675335504.428
2211863.0,1675335504.467
2210858.0,1675335504.507
2211226.0,1675335504.548
2213186.0,1675335504.587
2215200.0,1675335504.627
2216892.0,1675335504.669
2218477.0,1675335504.708
2219758.0,1675335504.748
2220136.0,1675335504.789
2220252.0,1675335504.828
2220277.0,1675335504.869
2220130.0,1675335504.91
2222005.0,1675335504.949
2225545.0,1675335504.989
2228799.0,1675335505.03
2231063.0,1675335505.07
2232492.0,1675335505.109
2233443.0,1675335505.15
2234509.0,1675335505.19
2234858.0,1675335505.23
2235094.0,1675335505.272
2234837.0,1675335505.31
2236240.0,1675335505.35
2237165.0,1675335505.391
2238210.0,1675335505.431
2238229.0,1675335505.471
2237994.0,1675335505.512
2237744.0,1675335505.551
2236779.0,1675335505.591
2235566.0,1675335505.632
2234533.0,1675335505.672
2232900.0,1675335505.711
2230991.0,1675335505.752
2227954.0,1675335505.791
2225539.0,1675335505.832
2224013.0,1675335505.873
2222827.0,1675335505.912
2221182.0,1675335505.952
2220141.0,1675335505.993
2220209.0,1675335506.032
2219505.0,1675335506.073
2218912.0,1675335506.113
2218865.0,1675335506.152
2218173.0,1675335506.192
2217233.0,1675335506.234
2216085.0,1675335506.273
2214768.0,1675335506.313
2212239.0,1675335506.354
2208002.0,1675335506.393
2203135.0,1675335506.433
2197619.0,1675335506.475
2192362.0,1675335506.513
2187091.0,1675335506.553
2182563.0,1675335506.594
2178945.0,1675335506.633
2175082.0,1675335506.674
2171594.0,1675335506.715
2168174.0,1675335506.754
2165342.0,1675335506.794
2162884.0,1675335506.835
2161219.0,1675335506.875
2159346.0,1675335506.914
2157706.0,1675335506.955
2156719.0,1675335506.994
2158832.0,1675335507.034
2160723.0,1675335507.076
2161313.0,1675335507.115
2161199.0,1675335507.155
2159185.0,1675335507.196
2156409.0,1675335507.235
2152344.0,1675335507.276
2147600.0,1675335507.316
2143078.0,1675335507.355
2139181.0,1675335507.395
2135058.0,1675335507.437
2131227.0,1675335507.476
2126731.0,1675335507.516
2123253.0,1675335507.557
2121034.0,1675335507.596
2121271.0,1675335507.636
2120632.0,1675335507.678
2119159.0,1675335507.716
2117540.0,1675335507.756
2116160.0,1675335507.798
2115327.0,1675335507.837
2114564.0,1675335507.877
2113376.0,1675335507.918
2109902.0,1675335507.957
2105202.0,1675335507.997
2099582.0,1675335508.038
2094505.0,1675335508.078
2089025.0,1675335508.118
2084669.0,1675335508.159
2080402.0,1675335508.198
2076310.0,1675335508.238
2072768.0,1675335508.28
2069826.0,1675335508.318
2067527.0,1675335508.358
2066118.0,1675335508.4
2065530.0,1675335508.438
2065218.0,1675335508.479
2064925.0,1675335508.52
2064763.0,1675335508.559
2064052.0,1675335508.599
2063050.0,1675335508.64
2062148.0,1675335508.68
2060478.0,1675335508.719
2057251.0,1675335508.76
2051720.0,1675335508.8
2046841.0,1675335508.84
2042358.0,1675335508.881
2037273.0,1675335508.92
2033406.0,1675335508.96
2029716.0,1675335509.001
2027357.0,1675335509.04
2025350.0,1675335509.081
2023603.0,1675335509.122
2022518.0,1675335509.161
2022700.0,1675335509.201
2022980.0,1675335509.242
2023560.0,1675335509.282
2024228.0,1675335509.321
2024535.0,1675335509.362
2025326.0,1675335509.401
2026208.0,1675335509.442
2026738.0,1675335509.483
2027741.0,1675335509.522
2029885.0,1675335509.562
2030364.0,1675335509.603
2028726.0,1675335509.642
2025179.0,1675335509.683
2021588.0,1675335509.724
2018235.0,1675335509.763
2014866.0,1675335509.803
2013553.0,1675335509.844
2012825.0,1675335509.884
2011763.0,1675335509.923
2010476.0,1675335509.964
2008926.0,1675335510.003
2007781.0,1675335510.044
2007540.0,1675335510.085
2007701.0,1675335510.124
2008176.0,1675335510.164
2008896.0,1675335510.205
2010067.0,1675335510.244
2011942.0,1675335510.285
2014583.0,1675335510.326
2017902.0,1675335510.365
2021876.0,1675335510.405
2025374.0,1675335510.446
2026986.0,1675335510.486
2025923.0,1675335510.525
2024878.0,1675335510.566
2023810.0,1675335510.605
2022150.0,1675335510.645
2021447.0,1675335510.687
2021434.0,1675335510.726
2022407.0,1675335510.766
2023479.0,1675335510.807
2024984.0,1675335510.846
2026691.0,1675335510.887
2028573.0,1675335510.927
2030920.0,1675335510.967
2033458.0,1675335511.007
2036234.0,1675335511.048
2042013.0,1675335511.127
2039405.0,1675335511.088
2045073.0,1675335511.168
2048487.0,1675335511.207
2051943.0,1675335511.247
2055929.0,1675335511.328
2054730.0,1675335511.289
2055592.0,1675335511.368
2054658.0,1675335511.409
2053669.0,1675335511.448
2053005.0,1675335511.489
2053211.0,1675335511.529
2054469.0,1675335511.568
2055916.0,1675335511.609
2057652.0,1675335511.65
2059332.0,1675335511.69
2061554.0,1675335511.729
2063969.0,1675335511.77
2066731.0,1675335511.809
2069882.0,1675335511.849
2073020.0,1675335511.891
2076624.0,1675335511.93
2080134.0,1675335511.97
2083112.0,1675335512.011
2085988.0,1675335512.05
2088371.0,1675335512.091
2091255.0,1675335512.132
2093513.0,1675335512.171
2093796.0,1675335512.211
2094021.0,1675335512.252
2093305.0,1675335512.292
2092717.0,1675335512.331
2091917.0,1675335512.372
2091817.0,1675335512.412
2092359.0,1675335512.452
2093234.0,1675335512.493
2093946.0,1675335512.532
2095583.0,1675335512.572
2098419.0,1675335512.613
2100182.0,1675335512.652
2102016.0,1675335512.693
2104248.0,1675335512.733
2106563.0,1675335512.772
2108955.0,1675335512.813
2111214.0,1675335512.854
2113573.0,1675335512.893
2116081.0,1675335512.933
2118376.0,1675335512.974
2119868.0,1675335513.013
2119760.0,1675335513.053
2119080.0,1675335513.095
2118199.0,1675335513.133
2117292.0,1675335513.173
2115691.0,1675335513.214
2115011.0,1675335513.254
2115001.0,1675335513.294
2114862.0,1675335513.335
2114871.0,1675335513.37
2115149.0,1675335513.41
2115923.0,1675335513.451
2117074.0,1675335513.491
2118407.0,1675335513.53
2120350.0,1675335513.571
2122410.0,1675335513.61
2124849.0,1675335513.651
2127251.0,1675335513.692
2130140.0,1675335513.731
2133061.0,1675335513.771
2135832.0,1675335513.812
2138107.0,1675335513.851
2141027.0,1675335513.892
2143313.0,1675335513.932
2143449.0,1675335513.971
2142917.0,1675335514.011
2141544.0,1675335514.053
2140771.0,1675335514.092
2139702.0,1675335514.132
2139507.0,1675335514.173
2138727.0,1675335514.212
2137201.0,1675335514.252
2135463.0,1675335514.294
2132766.0,1675335514.372
2131908.0,1675335514.414
2129435.0,1675335514.453
2133929.0,1675335514.332
2122127.0,1675335514.493
2116879.0,1675335514.534
2115060.0,1675335514.573
2114766.0,1675335514.613
2113973.0,1675335514.654
2113674.0,1675335514.694
2113711.0,1675335514.733
2113545.0,1675335514.774
2112701.0,1675335514.813
2111708.0,1675335514.854
2111093.0,1675335514.895
2111188.0,1675335514.934
2112520.0,1675335514.974
2112914.0,1675335515.015
2112907.0,1675335515.054
2114080.0,1675335515.135
2115239.0,1675335515.174
2116104.0,1675335515.215
2118890.0,1675335515.295
2117592.0,1675335515.256
2122522.0,1675335515.376
2124123.0,1675335515.415
2125756.0,1675335515.455
2120682.0,1675335515.335
2113431.0,1675335515.095
2127454.0,1675335515.498
2128923.0,1675335515.535
2128709.0,1675335515.617
2125455.0,1675335515.696
2129608.0,1675335515.576
2127169.0,1675335515.656
2123709.0,1675335515.737
2121433.0,1675335515.776
2119886.0,1675335515.816
2117803.0,1675335515.857
2114244.0,1675335515.897
2110491.0,1675335515.936
2107503.0,1675335515.978
2103105.0,1675335516.057
2101209.0,1675335516.099
2099558.0,1675335516.137
2105079.0,1675335516.017
2098334.0,1675335516.177
2097589.0,1675335516.218
2097154.0,1675335516.257
2096538.0,1675335516.298
2097336.0,1675335516.378
2097177.0,1675335516.418
2096781.0,1675335516.339
2095425.0,1675335516.459
2093959.0,1675335516.499
2092614.0,1675335516.538
2091880.0,1675335516.579
2091875.0,1675335516.7
2091459.0,1675335516.618
2092598.0,1675335516.779
2093176.0,1675335516.82
2092254.0,1675335516.739
2091370.0,1675335516.658
2093770.0,1675335516.859
2094045.0,1675335516.9
2092988.0,1675335516.979
2093746.0,1675335516.94
2092311.0,1675335517.061
2092619.0,1675335517.02
2091818.0,1675335517.101
2091499.0,1675335517.14
2091604.0,1675335517.22
2091533.0,1675335517.181
2091273.0,1675335517.26
2087255.0,1675335517.341
2090148.0,1675335517.302
2082609.0,1675335517.381
2076757.0,1675335517.422
2071217.0,1675335517.461
2065626.0,1675335517.502
2061398.0,1675335517.542
2059961.0,1675335517.582
2061296.0,1675335517.622
2064530.0,1675335517.663
2068955.0,1675335517.703
2072493.0,1675335517.742
2076123.0,1675335517.783
2079172.0,1675335517.822
2081937.0,1675335517.863
2084427.0,1675335517.904
2086764.0,1675335517.943
2088859.0,1675335517.983
2090989.0,1675335518.024
2093307.0,1675335518.063
2095205.0,1675335518.104
2096066.0,1675335518.145
2095374.0,1675335518.184
2094632.0,1675335518.224
2093325.0,1675335518.265
2092258.0,1675335518.305
2090587.0,1675335518.344
2088500.0,1675335518.385
2086363.0,1675335518.425
2084997.0,1675335518.465
2084037.0,1675335518.506
2083911.0,1675335518.545
2083975.0,1675335518.585
2084055.0,1675335518.626
2084608.0,1675335518.665
2085128.0,1675335518.706
2086490.0,1675335518.747
2087659.0,1675335518.786
2089018.0,1675335518.826
2090325.0,1675335518.867
2090539.0,1675335518.907
2090052.0,1675335518.946
2089400.0,1675335518.988
2088309.0,1675335519.027
2087603.0,1675335519.067
2087319.0,1675335519.109
2087184.0,1675335519.147
2087315.0,1675335519.187
2087574.0,1675335519.229
2087989.0,1675335519.268
2088500.0,1675335519.309
2089263.0,1675335519.349
2090225.0,1675335519.388
2091143.0,1675335519.428
2092072.0,1675335519.47
2093164.0,1675335519.509
2094404.0,1675335519.549
2095600.0,1675335519.59
2096601.0,1675335519.629
2096055.0,1675335519.669
2094432.0,1675335519.711
2092736.0,1675335519.749
2090585.0,1675335519.789
2088694.0,1675335519.83
2087140.0,1675335519.87
2086619.0,1675335519.91
2085998.0,1675335519.951
2085832.0,1675335519.99
2085664.0,1675335520.03
2085731.0,1675335520.071
2086242.0,1675335520.111
2086779.0,1675335520.15
2087747.0,1675335520.191
2088874.0,1675335520.23
2089756.0,1675335520.27
2091089.0,1675335520.312
2092532.0,1675335520.351
2093674.0,1675335520.391
2095515.0,1675335520.432
2097057.0,1675335520.471
2097289.0,1675335520.512
2096316.0,1675335520.552
2095146.0,1675335520.591
2093687.0,1675335520.631
2092484.0,1675335520.673
2091344.0,1675335520.712
2091280.0,1675335520.752
2091607.0,1675335520.793
2091759.0,1675335520.832
2092266.0,1675335520.872
2092919.0,1675335520.914
2094056.0,1675335520.952
2095153.0,1675335520.992
2096712.0,1675335521.034
2098183.0,1675335521.073
2099723.0,1675335521.113
2101511.0,1675335521.154
2103457.0,1675335521.193
2104864.0,1675335521.233
2106943.0,1675335521.274
2108876.0,1675335521.314
2110970.0,1675335521.353
2113039.0,1675335521.395
2115183.0,1675335521.434
2115973.0,1675335521.474
2116607.0,1675335521.516
2116184.0,1675335521.554
2116217.0,1675335521.594
2116242.0,1675335521.635
2116327.0,1675335521.674
2116995.0,1675335521.715
2117704.0,1675335521.756
2118747.0,1675335521.795
2119980.0,1675335521.835
2120870.0,1675335521.876
2122405.0,1675335521.916
2124018.0,1675335521.955
2125784.0,1675335521.996
2127254.0,1675335522.035
2129009.0,1675335522.075
2131069.0,1675335522.117
2132965.0,1675335522.156
2134872.0,1675335522.196
2137132.0,1675335522.237
2139189.0,1675335522.276
2141242.0,1675335522.317
2143261.0,1675335522.357
2145267.0,1675335522.396
2146479.0,1675335522.436
2147254.0,1675335522.477
2148126.0,1675335522.517
2148624.0,1675335522.557
2149385.0,1675335522.598
2150265.0,1675335522.637
2151358.0,1675335522.677
2152757.0,1675335522.719
2153930.0,1675335522.757
2156774.0,1675335522.838
2155107.0,1675335522.797
2158299.0,1675335522.877
2160246.0,1675335522.918
2162099.0,1675335522.959
2163810.0,1675335522.998
2167836.0,1675335523.079
2165928.0,1675335523.038
2169911.0,1675335523.119
2171778.0,1675335523.158
2173822.0,1675335523.199
2175660.0,1675335523.239
2177601.0,1675335523.279
2179107.0,1675335523.321
2179937.0,1675335523.359
2180354.0,1675335523.399
2180948.0,1675335523.44
2181842.0,1675335523.479
2182403.0,1675335523.52
2183275.0,1675335523.561
2184097.0,1675335523.6
2185074.0,1675335523.64
2185874.0,1675335523.681
2186908.0,1675335523.721
2188127.0,1675335523.76
2189424.0,1675335523.801
2190828.0,1675335523.841
2192182.0,1675335523.881
2193566.0,1675335523.923
2194966.0,1675335523.961
2196494.0,1675335524.001
2197660.0,1675335524.042
2200412.0,1675335524.122
2199333.0,1675335524.081
2201715.0,1675335524.163
2202943.0,1675335524.202
2203736.0,1675335524.242
2203827.0,1675335524.283
2203886.0,1675335524.323
2203595.0,1675335524.362
2203653.0,1675335524.403
2203691.0,1675335524.443
2204112.0,1675335524.483
2204424.0,1675335524.525
2204459.0,1675335524.563
2204002.0,1675335524.603
2204290.0,1675335524.644
2205822.0,1675335524.683
2207317.0,1675335524.724
2210224.0,1675335524.765
2210481.0,1675335524.804
2209308.0,1675335524.844
2207822.0,1675335524.885
2207125.0,1675335524.925
2207263.0,1675335524.964
2207258.0,1675335525.006
2208094.0,1675335525.045
2209365.0,1675335525.085
2210319.0,1675335525.127
2211407.0,1675335525.165
2212681.0,1675335525.205
2212850.0,1675335525.246
2211998.0,1675335525.285
2211091.0,1675335525.326
2210506.0,1675335525.367
2210435.0,1675335525.408
2210880.0,1675335525.448
2211811.0,1675335525.489
2212819.0,1675335525.529
2216867.0,1675335525.61
2219124.0,1675335525.649
2214601.0,1675335525.568
2221478.0,1675335525.689
2224140.0,1675335525.731
2226433.0,1675335525.769
2228451.0,1675335525.809
2230178.0,1675335525.85
2231668.0,1675335525.889
2231928.0,1675335525.93
2229914.0,1675335525.971
2227110.0,1675335526.01
2223819.0,1675335526.05
2222022.0,1675335526.091
2220732.0,1675335526.131
2219401.0,1675335526.171
2218818.0,1675335526.212
2218244.0,1675335526.251
2218321.0,1675335526.291
2218158.0,1675335526.333
2218273.0,1675335526.371
2218210.0,1675335526.411
2218093.0,1675335526.453
2217426.0,1675335526.492
2216014.0,1675335526.532
2213577.0,1675335526.573
2210966.0,1675335526.612
2208256.0,1675335526.652
2205488.0,1675335526.693
2202840.0,1675335526.733
2200189.0,1675335526.772
2198217.0,1675335526.813
2196641.0,1675335526.852
2194704.0,1675335526.893
2193407.0,1675335526.934
2192293.0,1675335526.973
2191012.0,1675335527.013
2188809.0,1675335527.093
2187116.0,1675335527.134
2190105.0,1675335527.054
2185699.0,1675335527.174
2183629.0,1675335527.253
2183590.0,1675335527.295
2182158.0,1675335527.334
2178978.0,1675335527.374
2184281.0,1675335527.213
2171638.0,1675335527.454
2175419.0,1675335527.415
2163831.0,1675335527.536
2150037.0,1675335527.776
2160956.0,1675335527.574
2153920.0,1675335527.695
2151656.0,1675335527.735
2156147.0,1675335527.656
2148686.0,1675335527.815
2147390.0,1675335527.855
2167654.0,1675335527.494
2158535.0,1675335527.614
2146568.0,1675335527.896
2145517.0,1675335527.936
2144015.0,1675335528.017
2143264.0,1675335528.096
2143563.0,1675335528.056
2144741.0,1675335527.975
2142573.0,1675335528.138
2139727.0,1675335528.176
2129993.0,1675335528.257
2119068.0,1675335528.337
2124228.0,1675335528.296
2135412.0,1675335528.216
2114521.0,1675335528.378
2110485.0,1675335528.417
2107441.0,1675335528.457
2105092.0,1675335528.498
2102768.0,1675335528.538
2101074.0,1675335528.577
2099594.0,1675335528.618
2098536.0,1675335528.657
2097775.0,1675335528.697
2097635.0,1675335528.739
2097288.0,1675335528.777
2097031.0,1675335528.817
2097104.0,1675335528.859
2097333.0,1675335528.898
2097675.0,1675335528.938
2097948.0,1675335528.979
2098592.0,1675335529.018
2097947.0,1675335529.058
2095670.0,1675335529.099
2092735.0,1675335529.139
2089306.0,1675335529.179
2086033.0,1675335529.22
2082853.0,1675335529.259
2080845.0,1675335529.299
2079171.0,1675335529.341
2077863.0,1675335529.379
2076700.0,1675335529.419
2075934.0,1675335529.46
2075355.0,1675335529.499
2075180.0,1675335529.54
2075055.0,1675335529.581
2075469.0,1675335529.62
2075848.0,1675335529.66
2076289.0,1675335529.701
2077425.0,1675335529.741
2078328.0,1675335529.78
2079338.0,1675335529.821
2080437.0,1675335529.86
2081499.0,1675335529.9
2080393.0,1675335529.942
2078418.0,1675335529.981
2076483.0,1675335530.021
2074661.0,1675335530.062
2073145.0,1675335530.101
2072459.0,1675335530.142
2072040.0,1675335530.182
2071893.0,1675335530.221
2071815.0,1675335530.261
2071688.0,1675335530.303
2072225.0,1675335530.342
2072828.0,1675335530.382
2073748.0,1675335530.423
2074069.0,1675335530.462
2073212.0,1675335530.502
2071863.0,1675335530.544
2072411.0,1675335530.582
2074756.0,1675335530.623
2078624.0,1675335530.664
2082045.0,1675335530.703
2086512.0,1675335530.744
2091039.0,1675335530.784
2094088.0,1675335530.823
2094878.0,1675335530.863
2093829.0,1675335530.904
2092302.0,1675335530.944
2091262.0,1675335530.984
2090542.0,1675335531.025
2090920.0,1675335531.064
2091326.0,1675335531.104
2091746.0,1675335531.146
2092738.0,1675335531.184
2093825.0,1675335531.225
2094827.0,1675335531.266
2096272.0,1675335531.305
2097601.0,1675335531.346
2099306.0,1675335531.386
2100765.0,1675335531.425
2102382.0,1675335531.465
2103995.0,1675335531.506
2106042.0,1675335531.546
2107911.0,1675335531.586
2109743.0,1675335531.627
2111035.0,1675335531.666
2110763.0,1675335531.706
2109919.0,1675335531.748
2109313.0,1675335531.786
2108274.0,1675335531.826
2107490.0,1675335531.868
2107379.0,1675335531.907
2107578.0,1675335531.947
2107888.0,1675335531.988
2108593.0,1675335532.027
2109082.0,1675335532.067
2109846.0,1675335532.108
2110999.0,1675335532.148
2112045.0,1675335532.188
2113307.0,1675335532.229
2114768.0,1675335532.268
2116529.0,1675335532.308
2118545.0,1675335532.35
2120308.0,1675335532.388
2121928.0,1675335532.429
2124091.0,1675335532.47
2126188.0,1675335532.509
2126870.0,1675335532.55
2128013.0,1675335532.59
2129668.0,1675335532.629
2131447.0,1675335532.669
2133199.0,1675335532.71
2135524.0,1675335532.75
2138527.0,1675335532.79
2142451.0,1675335532.831
2145970.0,1675335532.87
2149762.0,1675335532.91
2153464.0,1675335532.952
2157579.0,1675335532.99
2161703.0,1675335533.031
2165334.0,1675335533.072
2169293.0,1675335533.111
2172885.0,1675335533.152
2175957.0,1675335533.192
2179240.0,1675335533.231
2182251.0,1675335533.271
2183770.0,1675335533.313
2182957.0,1675335533.352
2180986.0,1675335533.392
2176318.0,1675335533.433
2171356.0,1675335533.472
2167553.0,1675335533.512
2165472.0,1675335533.554
2164403.0,1675335533.592
2163666.0,1675335533.633
2163267.0,1675335533.674
2163561.0,1675335533.713
2163833.0,1675335533.754
2164338.0,1675335533.794
2164593.0,1675335533.833
2165588.0,1675335533.873
2166410.0,1675335533.914
2167510.0,1675335533.954
2168922.0,1675335533.993
2170066.0,1675335534.034
2171647.0,1675335534.074
2172533.0,1675335534.114
2171775.0,1675335534.155
2170778.0,1675335534.194
2169320.0,1675335534.234
2167852.0,1675335534.275
2166176.0,1675335534.314
2165239.0,1675335534.355
2165177.0,1675335534.395
2164769.0,1675335534.434
2164683.0,1675335534.474
2164863.0,1675335534.516
2165023.0,1675335534.555
2165859.0,1675335534.595
2166351.0,1675335534.636
2167099.0,1675335534.675
2168468.0,1675335534.715
2169374.0,1675335534.757
2170489.0,1675335534.795
2171906.0,1675335534.835
2173142.0,1675335534.876
2174485.0,1675335534.915
2175949.0,1675335534.956
2177404.0,1675335534.997
2177827.0,1675335535.036
2177326.0,1675335535.076
2176158.0,1675335535.117
2175292.0,1675335535.157
2173982.0,1675335535.196
2172997.0,1675335535.237
2172377.0,1675335535.276
2172460.0,1675335535.316
2172590.0,1675335535.358
2172672.0,1675335535.396
2172908.0,1675335535.437
2173393.0,1675335535.478
2174021.0,1675335535.517
2174844.0,1675335535.558
2175581.0,1675335535.598
2176675.0,1675335535.637
2177151.0,1675335535.677
2177701.0,1675335535.718
2178426.0,1675335535.758
2178855.0,1675335535.798
2179862.0,1675335535.839
2180511.0,1675335535.878
2181770.0,1675335535.918
2182711.0,1675335535.96
2182980.0,1675335535.998
2182611.0,1675335536.038
2182457.0,1675335536.079
2181740.0,1675335536.118
2181149.0,1675335536.159
2180834.0,1675335536.2
2181348.0,1675335536.239
2181460.0,1675335536.279
2181856.0,1675335536.32
2182464.0,1675335536.36
2183118.0,1675335536.399
2183968.0,1675335536.44
2185046.0,1675335536.479
2186130.0,1675335536.519
2187200.0,1675335536.561
2188790.0,1675335536.6
2190364.0,1675335536.64
2192208.0,1675335536.681
2193551.0,1675335536.72
2195344.0,1675335536.761
2197262.0,1675335536.801
2198592.0,1675335536.84
2199331.0,1675335536.88
2199789.0,1675335536.921
2200043.0,1675335536.961
2200239.0,1675335537.001
2200906.0,1675335537.042
2201791.0,1675335537.081
2202585.0,1675335537.121
2203396.0,1675335537.163
2204533.0,1675335537.201
2205247.0,1675335537.241
2206542.0,1675335537.282
2207712.0,1675335537.321
2209180.0,1675335537.362
2210298.0,1675335537.402
2211977.0,1675335537.441
2213231.0,1675335537.482
2214779.0,1675335537.523
2220569.0,1675335537.722
2220623.0,1675335537.802
2217776.0,1675335537.602
2220556.0,1675335537.764
2220259.0,1675335537.682
2220540.0,1675335537.842
2219208.0,1675335537.643
2216074.0,1675335537.562
2220966.0,1675335537.923
2220671.0,1675335537.884
2222258.0,1675335538.004
2221487.0,1675335537.964
2222936.0,1675335538.083
2223712.0,1675335538.124
2224460.0,1675335538.164
2225217.0,1675335538.203
2222474.0,1675335538.043
2226027.0,1675335538.245
2227118.0,1675335538.284
2227966.0,1675335538.324
2228519.0,1675335538.366
2229450.0,1675335538.404
2230249.0,1675335538.444
2231132.0,1675335538.485
2232217.0,1675335538.525
2233088.0,1675335538.565
2233425.0,1675335538.606
2233635.0,1675335538.645
2233613.0,1675335538.685
2233825.0,1675335538.726
2233643.0,1675335538.766
2233597.0,1675335538.805
2234241.0,1675335538.886
2234362.0,1675335538.926
2234593.0,1675335538.968
2234184.0,1675335538.847
2234906.0,1675335539.006
2235151.0,1675335539.046
2235825.0,1675335539.087
2236296.0,1675335539.126
2236786.0,1675335539.167
2237736.0,1675335539.208
2238312.0,1675335539.247
2238662.0,1675335539.287
2239525.0,1675335539.328
2240391.0,1675335539.368
2240898.0,1675335539.407
2241604.0,1675335539.448
2241333.0,1675335539.488
2240616.0,1675335539.528
2239291.0,1675335539.569
2236527.0,1675335539.648
2235743.0,1675335539.689
2235051.0,1675335539.728
2237953.0,1675335539.608
2234528.0,1675335539.769
2233687.0,1675335539.81
2233222.0,1675335539.849
2232264.0,1675335539.889
2231872.0,1675335539.93
2231305.0,1675335539.97
2231482.0,1675335540.009
2231545.0,1675335540.051
2232381.0,1675335540.09
2233348.0,1675335540.13
2238609.0,1675335540.172
2247003.0,1675335540.25
2243911.0,1675335540.21
2247766.0,1675335540.291
2246321.0,1675335540.371
2244679.0,1675335540.412
2242598.0,1675335540.451
2239982.0,1675335540.491
2237689.0,1675335540.532
2247265.0,1675335540.331
2235602.0,1675335540.572
2233433.0,1675335540.611
2231530.0,1675335540.653
2229933.0,1675335540.692
2228218.0,1675335540.732
2226634.0,1675335540.774
2224874.0,1675335540.812
2223150.0,1675335540.852
2220458.0,1675335540.932
2221693.0,1675335540.893
2219343.0,1675335540.973
2218495.0,1675335541.014
2216964.0,1675335541.093
2217632.0,1675335541.053
2215985.0,1675335541.134
2214987.0,1675335541.174
2213587.0,1675335541.213
2210931.0,1675335541.255
2205070.0,1675335541.294
2202381.0,1675335541.334
2200083.0,1675335541.376
2198569.0,1675335541.414
2196829.0,1675335541.454
2195663.0,1675335541.495
2195535.0,1675335541.534
2195958.0,1675335541.575
2196055.0,1675335541.615
2195563.0,1675335541.654
2195020.0,1675335541.694
2194488.0,1675335541.736
2194211.0,1675335541.775
2194106.0,1675335541.815
2194104.0,1675335541.856
2193992.0,1675335541.935
2193054.0,1675335541.977
2194178.0,1675335541.895
2188460.0,1675335542.055
2190903.0,1675335542.015
2185364.0,1675335542.096
2181993.0,1675335542.136
2176564.0,1675335542.217
2173159.0,1675335542.296
2171569.0,1675335542.337
2174779.0,1675335542.256
2179099.0,1675335542.176
2170138.0,1675335542.377
2168121.0,1675335542.457
2168968.0,1675335542.416
2166644.0,1675335542.537
2167410.0,1675335542.496
2166060.0,1675335542.578
2160653.0,1675335542.657
2164306.0,1675335542.617
2143134.0,1675335542.737
2141044.0,1675335542.818
2142237.0,1675335542.857
2143857.0,1675335542.898
2145636.0,1675335542.939
2150737.0,1675335542.698
2141149.0,1675335542.778
2146010.0,1675335542.978
2146242.0,1675335543.018
2146776.0,1675335543.059
2147124.0,1675335543.098
2147253.0,1675335543.138
2147518.0,1675335543.218
2147145.0,1675335543.18
2147732.0,1675335543.258
2147922.0,1675335543.3
2148310.0,1675335543.339
2148680.0,1675335543.379
2148968.0,1675335543.42
2149821.0,1675335543.499
2150663.0,1675335543.54
2149422.0,1675335543.459
2150923.0,1675335543.58
2149840.0,1675335543.619
2147732.0,1675335543.66
2145334.0,1675335543.699
2142634.0,1675335543.74
2139996.0,1675335543.781
2138153.0,1675335543.82
2136734.0,1675335543.86
2135052.0,1675335543.901
2133951.0,1675335543.94
2131341.0,1675335544.06
2130898.0,1675335544.101
2130335.0,1675335544.182
2130256.0,1675335544.221
2130501.0,1675335544.142
2130480.0,1675335544.262
2132723.0,1675335543.981
2131875.0,1675335544.021
2130542.0,1675335544.301
2130150.0,1675335544.383
2130726.0,1675335544.341
2127845.0,1675335544.421
2121926.0,1675335544.503
2125071.0,1675335544.462
2118780.0,1675335544.542
2115831.0,1675335544.583
2111446.0,1675335544.662
2108509.0,1675335544.743
2109803.0,1675335544.702
2113360.0,1675335544.623
2106532.0,1675335544.823
2107522.0,1675335544.783
2105325.0,1675335544.903
2106048.0,1675335544.864
2105371.0,1675335544.943
2105133.0,1675335544.985
2105326.0,1675335545.023
2105507.0,1675335545.063
2105898.0,1675335545.104
2106251.0,1675335545.144
2106816.0,1675335545.184
2107334.0,1675335545.225
2105874.0,1675335545.264
2103584.0,1675335545.304
2100476.0,1675335545.345
2097194.0,1675335545.385
2093928.0,1675335545.424
2089287.0,1675335545.505
2090980.0,1675335545.465
2087678.0,1675335545.545
2086520.0,1675335545.587
2085305.0,1675335545.625
2084294.0,1675335545.706
2084248.0,1675335545.745
2084145.0,1675335545.786
2084321.0,1675335545.827
2084654.0,1675335545.665
2084786.0,1675335545.866
2085218.0,1675335545.906
2085850.0,1675335545.947
2086680.0,1675335545.987
2087480.0,1675335546.026
2088334.0,1675335546.067
2089241.0,1675335546.107
2089420.0,1675335546.147
2087943.0,1675335546.189
2085441.0,1675335546.227
2082797.0,1675335546.267
2080106.0,1675335546.308
2077397.0,1675335546.347
2075561.0,1675335546.388
2074229.0,1675335546.428
2073224.0,1675335546.468
2072390.0,1675335546.508
2071969.0,1675335546.549
2071887.0,1675335546.589
2071868.0,1675335546.628
2072122.0,1675335546.669
2073066.0,1675335546.708
2074236.0,1675335546.749
2074016.0,1675335546.79
2071759.0,1675335546.829
2069229.0,1675335546.869
2070049.0,1675335546.91
2072555.0,1675335546.949
2075726.0,1675335546.99
2074278.0,1675335547.03
2072297.0,1675335547.07
2071314.0,1675335547.11
2071180.0,1675335547.151
2068647.0,1675335547.191
2066910.0,1675335547.23
2066507.0,1675335547.271
2067375.0,1675335547.311
2067782.0,1675335547.351
2067564.0,1675335547.393
2067537.0,1675335547.431
2068021.0,1675335547.471
2068543.0,1675335547.512
2067605.0,1675335547.551
2066863.0,1675335547.592
2065780.0,1675335547.634
2064931.0,1675335547.672
2064195.0,1675335547.712
2064952.0,1675335547.753
2066832.0,1675335547.793
2070044.0,1675335547.832
2072109.0,1675335547.874
2072000.0,1675335547.913
2072657.0,1675335547.953
2072732.0,1675335547.995
2072802.0,1675335548.033
2072865.0,1675335548.073
2070723.0,1675335548.115
2067588.0,1675335548.154
2064712.0,1675335548.194
2062438.0,1675335548.235
2059598.0,1675335548.274
2057236.0,1675335548.314
2055104.0,1675335548.355
2053118.0,1675335548.395
2051974.0,1675335548.435
2051624.0,1675335548.476
2052202.0,1675335548.515
2053590.0,1675335548.555
2055641.0,1675335548.597
2056974.0,1675335548.635
2057960.0,1675335548.675
2059169.0,1675335548.716
2060347.0,1675335548.755
2060793.0,1675335548.796
2061801.0,1675335548.836
2063767.0,1675335548.875
2065435.0,1675335548.916
2067690.0,1675335548.957
2070243.0,1675335548.996
2072723.0,1675335549.036
2075085.0,1675335549.077
2077727.0,1675335549.116
2080090.0,1675335549.156
2082691.0,1675335549.198
2084968.0,1675335549.236
2087954.0,1675335549.276
2091819.0,1675335549.318
2095621.0,1675335549.357
2099324.0,1675335549.397
2100545.0,1675335549.438
2101072.0,1675335549.479
2099937.0,1675335549.56
2100541.0,1675335549.519
2099291.0,1675335549.6
2099247.0,1675335549.639
2099095.0,1675335549.681
2097892.0,1675335549.72
2097530.0,1675335549.76
2099669.0,1675335549.84
2103075.0,1675335549.921
2098056.0,1675335549.802
2101366.0,1675335549.88
2104233.0,1675335549.96
2105674.0,1675335550.001
2107241.0,1675335550.041
2108840.0,1675335550.08
2110565.0,1675335550.121
2112703.0,1675335550.162
2114610.0,1675335550.202
2117067.0,1675335550.282
2116597.0,1675335550.241
2115624.0,1675335550.321
2112911.0,1675335550.361
2110389.0,1675335550.403
2107782.0,1675335550.442
2105736.0,1675335550.482
2104223.0,1675335550.523
2103160.0,1675335550.562
2102709.0,1675335550.603
2102556.0,1675335550.643
2102596.0,1675335550.682
2102699.0,1675335550.722
2102514.0,1675335550.764
2101373.0,1675335550.803
2100701.0,1675335550.843
2098574.0,1675335550.884
2095428.0,1675335550.923
2093579.0,1675335550.963
2094425.0,1675335551.005
2098345.0,1675335551.043
2103984.0,1675335551.083
2109030.0,1675335551.125
2113609.0,1675335551.164
2116022.0,1675335551.205
2117108.0,1675335551.245
2117538.0,1675335551.284
2116175.0,1675335551.365
2110533.0,1675335551.645
2108884.0,1675335551.685
2106977.0,1675335551.726
2105334.0,1675335551.766
2104123.0,1675335551.806
2102715.0,1675335551.847
2114948.0,1675335551.405
2117128.0,1675335551.324
2114471.0,1675335551.445
2101860.0,1675335551.886
2114597.0,1675335551.525
2100736.0,1675335551.926
2099334.0,1675335551.967
2097051.0,1675335552.007
2114377.0,1675335551.486
2094563.0,1675335552.046
2114104.0,1675335551.565
2112517.0,1675335551.607
2092285.0,1675335552.088
2090171.0,1675335552.127
2088500.0,1675335552.167
2088410.0,1675335552.209
2088602.0,1675335552.247
2089490.0,1675335552.287
2092194.0,1675335552.328
2095671.0,1675335552.367
2098523.0,1675335552.408
2100226.0,1675335552.449
2101675.0,1675335552.488
2102568.0,1675335552.529
2103845.0,1675335552.569
2106106.0,1675335552.609
2109994.0,1675335552.649
2113554.0,1675335552.69
2115877.0,1675335552.729
2117393.0,1675335552.769
2118731.0,1675335552.811
2120831.0,1675335552.849
2123427.0,1675335552.889
2126570.0,1675335552.931
2130028.0,1675335552.97
2133969.0,1675335553.01
2137836.0,1675335553.051
2141652.0,1675335553.09
2145180.0,1675335553.13
2148991.0,1675335553.171
2152117.0,1675335553.211
2155833.0,1675335553.251
2159117.0,1675335553.292
2162534.0,1675335553.331
2165665.0,1675335553.371
2168835.0,1675335553.413
2171920.0,1675335553.451
2175018.0,1675335553.492
2177273.0,1675335553.533
2178803.0,1675335553.572
2179861.0,1675335553.613
2181141.0,1675335553.653
2181771.0,1675335553.692
2181442.0,1675335553.733
2180042.0,1675335553.774
2177315.0,1675335553.813
2174933.0,1675335553.853
2172772.0,1675335553.894
2171725.0,1675335553.933
2171822.0,1675335553.973
2172059.0,1675335554.015
2172975.0,1675335554.054
2173410.0,1675335554.094
2173716.0,1675335554.135
2173956.0,1675335554.174
2174882.0,1675335554.215
2176259.0,1675335554.255
2178724.0,1675335554.294
2181766.0,1675335554.335
2183955.0,1675335554.376
2185658.0,1675335554.416
2186397.0,1675335554.455
2186892.0,1675335554.496
2187280.0,1675335554.535
2188052.0,1675335554.576
2189315.0,1675335554.617
2190617.0,1675335554.656
2192256.0,1675335554.696
2193221.0,1675335554.737
2194270.0,1675335554.776
2193808.0,1675335554.817
2193366.0,1675335554.858
2191850.0,1675335554.897
2190153.0,1675335554.937
2188781.0,1675335554.978
2187418.0,1675335555.018
2185846.0,1675335555.057
2185516.0,1675335555.098
2185249.0,1675335555.137
2185530.0,1675335555.177
2186070.0,1675335555.219
2185214.0,1675335555.258
2183948.0,1675335555.298
2182386.0,1675335555.339
2181387.0,1675335555.378
2180233.0,1675335555.419
2179849.0,1675335555.459
2180255.0,1675335555.498
2181467.0,1675335555.538
2182970.0,1675335555.579
2184385.0,1675335555.619
2185401.0,1675335555.659
2186205.0,1675335555.7
2187120.0,1675335555.739
2187873.0,1675335555.779
2188602.0,1675335555.821
2189218.0,1675335555.859
2189303.0,1675335555.899
2188185.0,1675335555.94
2186898.0,1675335555.979
2184176.0,1675335556.02
2181606.0,1675335556.061
2178003.0,1675335556.1
2175266.0,1675335556.14
2172095.0,1675335556.181
2169465.0,1675335556.221
2167585.0,1675335556.26
2165885.0,1675335556.301
2164345.0,1675335556.34
2163249.0,1675335556.38
2162236.0,1675335556.422
2161527.0,1675335556.461
2162302.0,1675335556.501
2163454.0,1675335556.542
2164784.0,1675335556.581
2166114.0,1675335556.622
2167140.0,1675335556.662
2169112.0,1675335556.701
2171230.0,1675335556.741
2173922.0,1675335556.783
2176475.0,1675335556.822
2179009.0,1675335556.862
2180385.0,1675335556.903
2180311.0,1675335556.942
2179441.0,1675335556.982
2178264.0,1675335557.024
2176900.0,1675335557.062
2175076.0,1675335557.102
2173835.0,1675335557.144
2172780.0,1675335557.183
2171582.0,1675335557.224
2170241.0,1675335557.264
2168183.0,1675335557.303
2165437.0,1675335557.343
2162910.0,1675335557.384
2159681.0,1675335557.424
2156448.0,1675335557.464
2153418.0,1675335557.505
2151238.0,1675335557.544
2150026.0,1675335557.584
2149307.0,1675335557.626
2148416.0,1675335557.664
2148548.0,1675335557.704
2149086.0,1675335557.745
2149251.0,1675335557.784
2148260.0,1675335557.825
2145738.0,1675335557.866
2143471.0,1675335557.905
2141407.0,1675335557.945
2140118.0,1675335557.986
2139406.0,1675335558.026
2139301.0,1675335558.065
2138982.0,1675335558.106
2138216.0,1675335558.146
2137607.0,1675335558.186
2135992.0,1675335558.228
2134248.0,1675335558.266
2132290.0,1675335558.306
2130653.0,1675335558.347
2129074.0,1675335558.386
2127822.0,1675335558.427
2127201.0,1675335558.468
2127037.0,1675335558.507
2127969.0,1675335558.547
2128837.0,1675335558.588
2129738.0,1675335558.628
2129922.0,1675335558.667
2129899.0,1675335558.708
2129005.0,1675335558.747
2126113.0,1675335558.788
2123305.0,1675335558.829
2120551.0,1675335558.868
2118295.0,1675335558.908
2116031.0,1675335558.949
2114750.0,1675335558.988
2113742.0,1675335559.029
2112859.0,1675335559.07
2111788.0,1675335559.109
2110200.0,1675335559.149
2107810.0,1675335559.19
2106407.0,1675335559.23
2105529.0,1675335559.269
2105473.0,1675335559.31
2103917.0,1675335559.349
2100614.0,1675335559.39
2096527.0,1675335559.431
2092807.0,1675335559.47
2089450.0,1675335559.51
2087436.0,1675335559.551
2084831.0,1675335559.59
2080825.0,1675335559.631
2076400.0,1675335559.672
2072358.0,1675335559.711
2068423.0,1675335559.751
2065147.0,1675335559.792
2063320.0,1675335559.832
2061703.0,1675335559.871
2061037.0,1675335559.912
2060782.0,1675335559.951
2060930.0,1675335559.992
2060726.0,1675335560.033
2060762.0,1675335560.072
2060229.0,1675335560.112
2059143.0,1675335560.153
2058088.0,1675335560.192
2057051.0,1675335560.233
2055578.0,1675335560.274
2054678.0,1675335560.313
2054053.0,1675335560.353
2051685.0,1675335560.394
2048743.0,1675335560.434
2045561.0,1675335560.473
2042731.0,1675335560.514
2040712.0,1675335560.554
2039068.0,1675335560.594
2038307.0,1675335560.636
2037820.0,1675335560.674
2037815.0,1675335560.714
2037533.0,1675335560.755
2038140.0,1675335560.794
2038528.0,1675335560.835
2038912.0,1675335560.876
2039686.0,1675335560.915
2040227.0,1675335560.955
2040887.0,1675335560.996
2042042.0,1675335561.036
2042751.0,1675335561.075
2043202.0,1675335561.117
2044196.0,1675335561.156
2043102.0,1675335561.196
2039938.0,1675335561.238
2036265.0,1675335561.276
2032725.0,1675335561.316
2028838.0,1675335561.358
2025832.0,1675335561.397
2024691.0,1675335561.437
2023880.0,1675335561.478
2023288.0,1675335561.517
2023645.0,1675335561.557
2024068.0,1675335561.599
2025034.0,1675335561.638
2025918.0,1675335561.678
2026870.0,1675335561.719
2028226.0,1675335561.758
2029969.0,1675335561.798
2031840.0,1675335561.84
2033622.0,1675335561.878
2035151.0,1675335561.918
2036281.0,1675335561.959
2037801.0,1675335561.998
2039489.0,1675335562.039
2039291.0,1675335562.08
2036852.0,1675335562.119
2033275.0,1675335562.159
2029622.0,1675335562.2
2025290.0,1675335562.24
2020972.0,1675335562.279
2017575.0,1675335562.32
2015316.0,1675335562.359
2013400.0,1675335562.4
2010880.0,1675335562.52
2008933.0,1675335562.6
2011692.0,1675335562.48
2010057.0,1675335562.561
2008065.0,1675335562.641
2012458.0,1675335562.441
2007087.0,1675335562.681
2006461.0,1675335562.761
2006473.0,1675335562.72
2008172.0,1675335562.841
2007385.0,1675335562.802
2009611.0,1675335562.881
2011700.0,1675335562.922
2013327.0,1675335562.961
2013332.0,1675335563.001
2012831.0,1675335563.043
2012393.0,1675335563.121
2014002.0,1675335563.202
2015334.0,1675335563.242
2012904.0,1675335563.163
2012472.0,1675335563.081
2017123.0,1675335563.283
2018847.0,1675335563.322
2021028.0,1675335563.362
2023469.0,1675335563.403
2025860.0,1675335563.443
2028615.0,1675335563.482
2034065.0,1675335563.563
2030971.0,1675335563.524
2037024.0,1675335563.603
2039658.0,1675335563.645
2042339.0,1675335563.683
2045018.0,1675335563.723
2047850.0,1675335563.764
2050616.0,1675335563.803
2051222.0,1675335563.844
2051190.0,1675335563.885
2051137.0,1675335563.924
2050808.0,1675335563.964
2050255.0,1675335564.005
2050030.0,1675335564.045
2051509.0,1675335564.164
2050573.0,1675335564.084
2051239.0,1675335564.125
2052200.0,1675335564.205
2053304.0,1675335564.246
2054384.0,1675335564.285
2056466.0,1675335564.325
2058766.0,1675335564.366
2061649.0,1675335564.405
2064677.0,1675335564.446
2067118.0,1675335564.487
2068484.0,1675335564.526
2069225.0,1675335564.566
2070750.0,1675335564.607
2072456.0,1675335564.647
2074009.0,1675335564.686
2075223.0,1675335564.727
2075007.0,1675335564.766
2074548.0,1675335564.807
2074398.0,1675335564.848
2074160.0,1675335564.887
2074330.0,1675335564.927
2075262.0,1675335564.968
2076080.0,1675335565.007
2077580.0,1675335565.048
2078578.0,1675335565.088
2080129.0,1675335565.127
2081506.0,1675335565.168
2083422.0,1675335565.209
2084422.0,1675335565.249
2085829.0,1675335565.288
2088193.0,1675335565.329
2090411.0,1675335565.368
2093205.0,1675335565.408
2097762.0,1675335565.489
2095715.0,1675335565.45
2099574.0,1675335565.529
2100728.0,1675335565.57
2101436.0,1675335565.609
2101835.0,1675335565.65
2101453.0,1675335565.69
2099374.0,1675335565.729
2097634.0,1675335565.769
2096368.0,1675335565.811
2095534.0,1675335565.85
2094681.0,1675335565.89
2094550.0,1675335565.931
2095626.0,1675335565.97
2095900.0,1675335566.01
2096994.0,1675335566.052
2098366.0,1675335566.09
2099846.0,1675335566.131
2101685.0,1675335566.172
2103793.0,1675335566.211
2106933.0,1675335566.252
2110784.0,1675335566.292
2115008.0,1675335566.331
2118901.0,1675335566.371
2122750.0,1675335566.413
2126876.0,1675335566.452
2130812.0,1675335566.492
2135434.0,1675335566.533
2139789.0,1675335566.572
2142941.0,1675335566.612
2144964.0,1675335566.654
2146327.0,1675335566.693
2147003.0,1675335566.733
2146257.0,1675335566.774
2145682.0,1675335566.813
2144989.0,1675335566.854
2144722.0,1675335566.894
2145015.0,1675335566.933
2145928.0,1675335566.974
2147534.0,1675335567.015
2149548.0,1675335567.055
2151519.0,1675335567.094
2153827.0,1675335567.135
2156278.0,1675335567.174
2158606.0,1675335567.215
2160956.0,1675335567.256
2163221.0,1675335567.295
2165474.0,1675335567.335
2167743.0,1675335567.376
2168699.0,1675335567.415
2168790.0,1675335567.456
2168826.0,1675335567.497
2168293.0,1675335567.536
2166796.0,1675335567.576
2164565.0,1675335567.617
2161362.0,1675335567.657
2158178.0,1675335567.696
2155696.0,1675335567.738
2153713.0,1675335567.777
2152225.0,1675335567.817
2151414.0,1675335567.859
2150944.0,1675335567.897
2151220.0,1675335567.937
2152319.0,1675335567.978
2153871.0,1675335568.018
2155688.0,1675335568.058
2157274.0,1675335568.099
2159391.0,1675335568.138
2161414.0,1675335568.178
2162442.0,1675335568.22
2161381.0,1675335568.259
2160134.0,1675335568.299
2159333.0,1675335568.34
2158395.0,1675335568.379
2158367.0,1675335568.419
2158947.0,1675335568.461
2158612.0,1675335568.499
2158878.0,1675335568.539
2159305.0,1675335568.58
2159779.0,1675335568.619
2160346.0,1675335568.66
2161075.0,1675335568.701
2161888.0,1675335568.74
2162563.0,1675335568.78
2163325.0,1675335568.821
2163501.0,1675335568.861
2163989.0,1675335568.9
2164399.0,1675335568.941
2164986.0,1675335568.98
2164966.0,1675335569.02
2162898.0,1675335569.062
2159900.0,1675335569.101
2156018.0,1675335569.141
2151822.0,1675335569.182
2147446.0,1675335569.221
2143014.0,1675335569.262
2139084.0,1675335569.302
2134767.0,1675335569.342
2130130.0,1675335569.382
2125812.0,1675335569.423
2122143.0,1675335569.462
2119273.0,1675335569.502
2116987.0,1675335569.543
2115099.0,1675335569.582
2113582.0,1675335569.622
2112752.0,1675335569.664
2112140.0,1675335569.702
2112061.0,1675335569.743
2111576.0,1675335569.784
2111408.0,1675335569.823
2111556.0,1675335569.864
2112263.0,1675335569.904
2111131.0,1675335569.943
2109368.0,1675335569.983
2107209.0,1675335570.024
2104796.0,1675335570.064
2102484.0,1675335570.104
2100596.0,1675335570.145
2099283.0,1675335570.184
2098191.0,1675335570.224
2096833.0,1675335570.266
2095800.0,1675335570.304
2094722.0,1675335570.344
2094093.0,1675335570.386
2092990.0,1675335570.425
2091369.0,1675335570.465
2090132.0,1675335570.506
2088897.0,1675335570.545
2087241.0,1675335570.585
2085628.0,1675335570.626
2084526.0,1675335570.666
2083587.0,1675335570.705
2081190.0,1675335570.747
2077522.0,1675335570.786
2073425.0,1675335570.826
2069084.0,1675335570.868
2065075.0,1675335570.906
2062200.0,1675335570.946
2060434.0,1675335570.987
2058632.0,1675335571.026
2057037.0,1675335571.067
2055975.0,1675335571.108
2055116.0,1675335571.147
2054894.0,1675335571.187
2055351.0,1675335571.228
2055612.0,1675335571.268
2056025.0,1675335571.307
2056075.0,1675335571.348
2056501.0,1675335571.388
2057157.0,1675335571.428
2057794.0,1675335571.469
2057521.0,1675335571.508
2055092.0,1675335571.548
2051412.0,1675335571.589
2047329.0,1675335571.628
2042975.0,1675335571.669
2039039.0,1675335571.709
2035613.0,1675335571.748
2033551.0,1675335571.789
2031759.0,1675335571.83
2030595.0,1675335571.87
2029754.0,1675335571.909
2029692.0,1675335571.95
2029499.0,1675335571.989
2030040.0,1675335572.029
2030477.0,1675335572.071
2031223.0,1675335572.11
2032617.0,1675335572.15
2034091.0,1675335572.191
2036054.0,1675335572.23
2037588.0,1675335572.271
2039744.0,1675335572.311
2041420.0,1675335572.35
2043163.0,1675335572.391
2043362.0,1675335572.432
2042180.0,1675335572.472
2040695.0,1675335572.511
2038565.0,1675335572.552
2036239.0,1675335572.591
2033720.0,1675335572.631
2031064.0,1675335572.673
2028611.0,1675335572.712
2026570.0,1675335572.752
2025305.0,1675335572.793
2024930.0,1675335572.832
2024722.0,1675335572.873
2024484.0,1675335572.913
2025108.0,1675335572.953
2025885.0,1675335572.993
2027117.0,1675335573.034
2028548.0,1675335573.074
2030217.0,1675335573.113
2031989.0,1675335573.154
2034404.0,1675335573.193
2037071.0,1675335573.234
2040121.0,1675335573.275
2042754.0,1675335573.314
2044729.0,1675335573.354
2044500.0,1675335573.395
2043860.0,1675335573.434
2043077.0,1675335573.475
2041905.0,1675335573.516
2040316.0,1675335573.555
2039691.0,1675335573.595
2039472.0,1675335573.636
2039350.0,1675335573.676
2039399.0,1675335573.716
2039856.0,1675335573.757
2040397.0,1675335573.796
2041330.0,1675335573.836
2042798.0,1675335573.878
2044556.0,1675335573.916
2046328.0,1675335573.956
2047998.0,1675335573.998
2049885.0,1675335574.037
2052102.0,1675335574.078
2053960.0,1675335574.118
2056091.0,1675335574.157
2058625.0,1675335574.197
2061139.0,1675335574.239
2063220.0,1675335574.278
2063480.0,1675335574.318
2062185.0,1675335574.398
2061151.0,1675335574.438
2060356.0,1675335574.48
2062796.0,1675335574.359
2062311.0,1675335574.68
2061633.0,1675335574.639
2061029.0,1675335574.6
2060485.0,1675335574.559
2060044.0,1675335574.519
2075010.0,1675335575.601
2068855.0,1675335574.961
2074187.0,1675335575.641
2067480.0,1675335574.92
2072923.0,1675335575.683
2069793.0,1675335575.0
2072502.0,1675335575.722
2072846.0,1675335575.762
2070980.0,1675335575.082
2062954.0,1675335574.72
2065735.0,1675335574.88
2068754.0,1675335575.281
2069384.0,1675335575.322
2069543.0,1675335575.361
2069270.0,1675335575.24
2064703.0,1675335574.841
2069947.0,1675335575.401
2070596.0,1675335575.201
2071207.0,1675335575.442
2064198.0,1675335574.799
2074650.0,1675335575.562
2063235.0,1675335574.759
2071356.0,1675335575.16
2073813.0,1675335575.521
2071123.0,1675335575.12
2072563.0,1675335575.482
2070296.0,1675335575.04
2074009.0,1675335575.803
2076231.0,1675335575.842
2079211.0,1675335575.883
2081449.0,1675335575.923
2082944.0,1675335575.962
2082254.0,1675335576.002
2080855.0,1675335576.043
2074997.0,1675335576.164
2072743.0,1675335576.203
2070474.0,1675335576.243
2068318.0,1675335576.285
2066322.0,1675335576.323
2064581.0,1675335576.363
2063108.0,1675335576.404
2079236.0,1675335576.083
2077228.0,1675335576.123
2061900.0,1675335576.444
2060714.0,1675335576.484
2060076.0,1675335576.525
2059373.0,1675335576.564
2058696.0,1675335576.604
2058005.0,1675335576.645
2057499.0,1675335576.685
2057235.0,1675335576.724
2056136.0,1675335576.765
2053416.0,1675335576.805
2050040.0,1675335576.845
2046248.0,1675335576.886
2042152.0,1675335576.925
2038770.0,1675335576.965
2036289.0,1675335577.006
2032906.0,1675335577.086
2034647.0,1675335577.045
2031029.0,1675335577.165
2031686.0,1675335577.126
2031000.0,1675335577.206
2032031.0,1675335577.286
2033197.0,1675335577.326
2034635.0,1675335577.367
2037468.0,1675335577.446
2036033.0,1675335577.406
2031227.0,1675335577.247
2039147.0,1675335577.488
2041015.0,1675335577.526
2042996.0,1675335577.567
2044414.0,1675335577.608
2043997.0,1675335577.647
2041976.0,1675335577.688
2039185.0,1675335577.728
2036364.0,1675335577.767
2033124.0,1675335577.807
2030808.0,1675335577.848
2029546.0,1675335577.888
2028202.0,1675335577.928
2027275.0,1675335577.969
2027015.0,1675335578.008
2027264.0,1675335578.048
2027495.0,1675335578.09
2027687.0,1675335578.128
2028019.0,1675335578.168
2028742.0,1675335578.209
2030087.0,1675335578.248
2030780.0,1675335578.289
2031836.0,1675335578.33
2035072.0,1675335578.409
2033303.0,1675335578.369
2037195.0,1675335578.45
2039504.0,1675335578.49
2040063.0,1675335578.529
2039520.0,1675335578.57
2038729.0,1675335578.609
2037578.0,1675335578.65
2036761.0,1675335578.691
2036092.0,1675335578.73
2036728.0,1675335578.811
2038548.0,1675335578.891
2039650.0,1675335578.931
2036351.0,1675335578.77
2037578.0,1675335578.85
2040500.0,1675335578.971
2040706.0,1675335579.011
2040456.0,1675335579.052
2040384.0,1675335579.131
2040301.0,1675335579.092
2041116.0,1675335579.172
2041651.0,1675335579.211
2041953.0,1675335579.251
2042016.0,1675335579.293
2042872.0,1675335579.332
2044416.0,1675335579.372
2045880.0,1675335579.413
2045951.0,1675335579.452
2045273.0,1675335579.533
2045517.0,1675335579.493
2045083.0,1675335579.572
2045664.0,1675335579.612
2046767.0,1675335579.654
2048572.0,1675335579.693
2050929.0,1675335579.733
2053708.0,1675335579.774
2056231.0,1675335579.813
2059130.0,1675335579.853
2062092.0,1675335579.895
2065153.0,1675335579.933
2068304.0,1675335579.974
2070920.0,1675335580.015
2073260.0,1675335580.054
2076301.0,1675335580.095
2079721.0,1675335580.135
2083303.0,1675335580.174
2085537.0,1675335580.214
2086544.0,1675335580.256
2087033.0,1675335580.295
2087771.0,1675335580.335
2089007.0,1675335580.376
2090605.0,1675335580.415
2092255.0,1675335580.455
2093644.0,1675335580.497
2094823.0,1675335580.536
2096170.0,1675335580.576
2097816.0,1675335580.617
2099414.0,1675335580.656
2100838.0,1675335580.697
2102156.0,1675335580.737
2103604.0,1675335580.776
2105092.0,1675335580.817
2106481.0,1675335580.858
2106346.0,1675335580.898
2104400.0,1675335580.937
2100780.0,1675335580.978
2097098.0,1675335581.017
2093818.0,1675335581.057
2091017.0,1675335581.099
2089143.0,1675335581.138
2088856.0,1675335581.178
2089750.0,1675335581.219
2091535.0,1675335581.258
2093399.0,1675335581.299
2094874.0,1675335581.339
2095518.0,1675335581.379
2096952.0,1675335581.419
2099010.0,1675335581.46
2101528.0,1675335581.5
2104630.0,1675335581.539
2107513.0,1675335581.58
2110069.0,1675335581.619
2111041.0,1675335581.66
2111240.0,1675335581.702
2110375.0,1675335581.74
2110437.0,1675335581.78
2111113.0,1675335581.821
2111712.0,1675335581.86
2111283.0,1675335581.901
2109651.0,1675335581.941
2108231.0,1675335581.98
2106012.0,1675335582.021
2102797.0,1675335582.062
2099785.0,1675335582.101
2097743.0,1675335582.141
2096032.0,1675335582.182
2094480.0,1675335582.221
2091807.0,1675335582.261
2088285.0,1675335582.303
2084490.0,1675335582.341
2080155.0,1675335582.381
2076334.0,1675335582.423
2073622.0,1675335582.462
2072143.0,1675335582.502
2070626.0,1675335582.543
2069838.0,1675335582.582
2069520.0,1675335582.623
2069852.0,1675335582.663
2070277.0,1675335582.703
2071390.0,1675335582.742
2072407.0,1675335582.784
2073452.0,1675335582.823
2075216.0,1675335582.863
2077242.0,1675335582.905
2079719.0,1675335582.943
2081635.0,1675335582.983
2082767.0,1675335583.024
2082574.0,1675335583.063
2081254.0,1675335583.104
2079360.0,1675335583.145
2077470.0,1675335583.184
2076045.0,1675335583.224
2074472.0,1675335583.265
2072767.0,1675335583.305
2071825.0,1675335583.344
2071250.0,1675335583.385
2070664.0,1675335583.424
2070873.0,1675335583.465
2070990.0,1675335583.506
2071656.0,1675335583.545
2072850.0,1675335583.585
2073884.0,1675335583.626
2075040.0,1675335583.665
2076416.0,1675335583.706
2078247.0,1675335583.746
2080407.0,1675335583.785
2083140.0,1675335583.826
2086772.0,1675335583.867
2090127.0,1675335583.906
2092784.0,1675335583.946
2095137.0,1675335583.987
2096675.0,1675335584.026
2098158.0,1675335584.066
2099256.0,1675335584.108
2100986.0,1675335584.146
2103345.0,1675335584.187
2105730.0,1675335584.228
2107653.0,1675335584.267
2110120.0,1675335584.308
2112288.0,1675335584.348
2115333.0,1675335584.387
2118184.0,1675335584.427
2121152.0,1675335584.468
2124221.0,1675335584.508
2126966.0,1675335584.548
2130167.0,1675335584.589
2133033.0,1675335584.628
2135921.0,1675335584.668
2139308.0,1675335584.71
2142896.0,1675335584.748
2146389.0,1675335584.788
2149426.0,1675335584.829
2152006.0,1675335584.869
2153805.0,1675335584.909
2155559.0,1675335584.95
2157779.0,1675335584.989
2160238.0,1675335585.029
2162976.0,1675335585.07
2166061.0,1675335585.11
2169517.0,1675335585.149
2172760.0,1675335585.19
2176700.0,1675335585.23
2180798.0,1675335585.27
2184948.0,1675335585.311
2187589.0,1675335585.35
2188598.0,1675335585.39
2188659.0,1675335585.431
2187571.0,1675335585.47
2188410.0,1675335585.511
2192429.0,1675335585.551
2193803.0,1675335585.591
2198073.0,1675335585.712
2196827.0,1675335585.672
2195246.0,1675335585.631
2201545.0,1675335585.751
2207149.0,1675335585.792
2212749.0,1675335585.831
2217320.0,1675335585.871
2221768.0,1675335585.913
2225722.0,1675335585.952
2229354.0,1675335585.992
2232429.0,1675335586.033
2236450.0,1675335586.072
2240733.0,1675335586.113
2244905.0,1675335586.153
2249026.0,1675335586.192
2252731.0,1675335586.233
2256664.0,1675335586.274
2259447.0,1675335586.313
2262141.0,1675335586.353
2266773.0,1675335586.433
2270398.0,1675335586.515
2275540.0,1675335586.594
2272302.0,1675335586.554
2279282.0,1675335586.636
2294391.0,1675335586.795
2287602.0,1675335586.715
2291410.0,1675335586.755
2283394.0,1675335586.674
2268579.0,1675335586.473
2297758.0,1675335586.835
2264644.0,1675335586.394
2301214.0,1675335586.876
2304132.0,1675335586.916
2306994.0,1675335586.955
2309959.0,1675335586.996
2312147.0,1675335587.035
2314703.0,1675335587.076
2317445.0,1675335587.117
2323291.0,1675335587.196
2326998.0,1675335587.237
2335067.0,1675335587.317
2343516.0,1675335587.437
2345989.0,1675335587.518
2344797.0,1675335587.478
2347557.0,1675335587.557
2341526.0,1675335587.397
2330352.0,1675335587.276
2338418.0,1675335587.358
2349530.0,1675335587.599
2351293.0,1675335587.638
2320297.0,1675335587.156
2356538.0,1675335587.758
2357604.0,1675335587.839
2353452.0,1675335587.678
2357360.0,1675335587.919
2358349.0,1675335587.96
2354727.0,1675335587.72
2357584.0,1675335587.798
2357333.0,1675335587.879
2361648.0,1675335588.039
2363431.0,1675335588.08
2359916.0,1675335587.999
2365860.0,1675335588.12
2368515.0,1675335588.16
2371804.0,1675335588.201
2377405.0,1675335588.28
2374206.0,1675335588.24
2382216.0,1675335588.322
2388088.0,1675335588.401
2388103.0,1675335588.442
2387372.0,1675335588.481
2385450.0,1675335588.522
2377872.0,1675335588.601
2385921.0,1675335588.36
2374559.0,1675335588.682
2381881.0,1675335588.562
2373057.0,1675335588.722
2375860.0,1675335588.641
2372471.0,1675335588.761
2370923.0,1675335588.803
2368855.0,1675335588.842
2365326.0,1675335588.882
2361989.0,1675335588.924
2358346.0,1675335588.962
2356021.0,1675335589.002
2354672.0,1675335589.043
2353778.0,1675335589.082
2352955.0,1675335589.123
2352208.0,1675335589.164
2351389.0,1675335589.203
2351131.0,1675335589.243
2349181.0,1675335589.284
2346173.0,1675335589.324
2343079.0,1675335589.363
2339846.0,1675335589.404
2336143.0,1675335589.443
2333226.0,1675335589.483
2330030.0,1675335589.525
2326142.0,1675335589.564
2316444.0,1675335589.645
2321460.0,1675335589.604
2311322.0,1675335589.684
2306177.0,1675335589.725
2301851.0,1675335589.765
2298454.0,1675335589.804
2294924.0,1675335589.844
2292303.0,1675335589.886
2289902.0,1675335589.925
2286635.0,1675335589.965
2281000.0,1675335590.006
2273947.0,1675335590.045
2266312.0,1675335590.085
2258961.0,1675335590.127
2251665.0,1675335590.165
2245295.0,1675335590.205
2236403.0,1675335590.285
2240574.0,1675335590.246
2232443.0,1675335590.326
2228661.0,1675335590.367
2225508.0,1675335590.406
2222993.0,1675335590.446
2220695.0,1675335590.487
2218800.0,1675335590.527
2217905.0,1675335590.566
2216599.0,1675335590.607
2215523.0,1675335590.646
2215571.0,1675335590.687
2215069.0,1675335590.728
2212084.0,1675335590.767
2207388.0,1675335590.807
2201764.0,1675335590.848
2195142.0,1675335590.887
2188297.0,1675335590.928
2182145.0,1675335590.969
2168822.0,1675335591.048
2175623.0,1675335591.008
2162778.0,1675335591.089
2156794.0,1675335591.129
2151346.0,1675335591.168
2146707.0,1675335591.209
2142997.0,1675335591.248
2140067.0,1675335591.289
2137588.0,1675335591.33
2135405.0,1675335591.369
2133648.0,1675335591.409
2132458.0,1675335591.45
2131040.0,1675335591.489
2129626.0,1675335591.53
2128096.0,1675335591.57
2123914.0,1675335591.61
2117539.0,1675335591.65
2111623.0,1675335591.691
2105411.0,1675335591.731
2100565.0,1675335591.77
2096494.0,1675335591.811
2094213.0,1675335591.85
2092180.0,1675335591.891
2090645.0,1675335591.932
2090063.0,1675335591.971
2089784.0,1675335592.011
2089830.0,1675335592.052
2089408.0,1675335592.091
2088901.0,1675335592.132
2088489.0,1675335592.173
2088648.0,1675335592.212
2088895.0,1675335592.252
2089867.0,1675335592.293
2090872.0,1675335592.333
2091566.0,1675335592.372
2093243.0,1675335592.413
2094843.0,1675335592.452
2094091.0,1675335592.493
2090667.0,1675335592.534
2087018.0,1675335592.573
2083019.0,1675335592.613
2079235.0,1675335592.654
2076193.0,1675335592.693
2075202.0,1675335592.734
2075233.0,1675335592.775
2075813.0,1675335592.814
2077266.0,1675335592.854
2079058.0,1675335592.895
2080725.0,1675335592.935
2082467.0,1675335592.974
2084731.0,1675335593.015
2087351.0,1675335593.055
2089949.0,1675335593.095
2092420.0,1675335593.137
2095584.0,1675335593.175
2098981.0,1675335593.215
2102085.0,1675335593.256
2105601.0,1675335593.295
2109171.0,1675335593.336
2112693.0,1675335593.377
2115487.0,1675335593.416
2115505.0,1675335593.456
2114418.0,1675335593.497
2112862.0,1675335593.537
2110623.0,1675335593.576
2109094.0,1675335593.618
2108024.0,1675335593.657
2107701.0,1675335593.697
2107760.0,1675335593.739
2107886.0,1675335593.777
2108446.0,1675335593.817
2109596.0,1675335593.858
2111009.0,1675335593.898
2112918.0,1675335593.938
2114336.0,1675335593.979
2116063.0,1675335594.018
2118322.0,1675335594.058
2120339.0,1675335594.099
2123130.0,1675335594.139
2125341.0,1675335594.179
2127923.0,1675335594.22
2130737.0,1675335594.259
2133521.0,1675335594.299
2136431.0,1675335594.341
2138435.0,1675335594.379
2137994.0,1675335594.42
2136944.0,1675335594.461
2135214.0,1675335594.5
2133535.0,1675335594.541
2131887.0,1675335594.581
2131499.0,1675335594.62
2131818.0,1675335594.66
2132449.0,1675335594.702
2133916.0,1675335594.741
2136406.0,1675335594.781
2138159.0,1675335594.822
2142261.0,1675335594.861
2144294.0,1675335594.901
2145976.0,1675335594.943
2147975.0,1675335594.982
2149719.0,1675335595.022
2151206.0,1675335595.063
2153197.0,1675335595.102
2155157.0,1675335595.143
2157611.0,1675335595.183
2159950.0,1675335595.222
2160477.0,1675335595.262
2159487.0,1675335595.303
2157387.0,1675335595.343
2156085.0,1675335595.383
2154615.0,1675335595.424
2153794.0,1675335595.463
2153932.0,1675335595.503
2154544.0,1675335595.545
2155656.0,1675335595.583
2157614.0,1675335595.623
2160401.0,1675335595.664
2163658.0,1675335595.703
2167377.0,1675335595.744
2170535.0,1675335595.785
2173942.0,1675335595.824
2177032.0,1675335595.864
2180804.0,1675335595.905
2184666.0,1675335595.945
2188777.0,1675335595.984
2191564.0,1675335596.025
2190850.0,1675335596.064
2186928.0,1675335596.104
2182615.0,1675335596.146
2178086.0,1675335596.184
2174992.0,1675335596.225
2172941.0,1675335596.266
2171940.0,1675335596.305
2170576.0,1675335596.346
2169668.0,1675335596.386
2168865.0,1675335596.425
2168400.0,1675335596.465
2168312.0,1675335596.506
2168954.0,1675335596.546
2169235.0,1675335596.586
2169696.0,1675335596.627
2170476.0,1675335596.666
2171780.0,1675335596.706
2172898.0,1675335596.748
2173777.0,1675335596.786
2172047.0,1675335596.826
2168489.0,1675335596.867
2164744.0,1675335596.906
2161321.0,1675335596.947
2158031.0,1675335596.988
2155050.0,1675335597.027
2152804.0,1675335597.067
2150731.0,1675335597.108
2148861.0,1675335597.148
2146700.0,1675335597.228
2147720.0,1675335597.187
2145708.0,1675335597.267
2144558.0,1675335597.307
2143496.0,1675335597.349
2142668.0,1675335597.388
2143195.0,1675335597.428
2145913.0,1675335597.469
2149575.0,1675335597.508
2153923.0,1675335597.549
2155327.0,1675335597.589
2152919.0,1675335597.628
2148502.0,1675335597.668
2143272.0,1675335597.71
2137651.0,1675335597.749
2132381.0,1675335597.789
2129298.0,1675335597.83
2124938.0,1675335597.909
2126978.0,1675335597.869
2123189.0,1675335597.951
2121432.0,1675335597.989
2119861.0,1675335598.029
2118623.0,1675335598.071
2117928.0,1675335598.11
2117630.0,1675335598.151
2117651.0,1675335598.191
2118109.0,1675335598.23
2118566.0,1675335598.27
2119409.0,1675335598.311
2119413.0,1675335598.351
2115915.0,1675335598.391
2111302.0,1675335598.432
2106495.0,1675335598.471
2101822.0,1675335598.511
2097138.0,1675335598.553
2093832.0,1675335598.591
2092133.0,1675335598.631
2090468.0,1675335598.673
2089415.0,1675335598.712
2088765.0,1675335598.753
2088814.0,1675335598.793
2088667.0,1675335598.832
2089322.0,1675335598.872
2089852.0,1675335598.914
2090890.0,1675335598.953
2091879.0,1675335598.993
2093074.0,1675335599.034
2094658.0,1675335599.073
2096447.0,1675335599.113
2098230.0,1675335599.155
2099632.0,1675335599.193
2098492.0,1675335599.234
2095434.0,1675335599.275
2091977.0,1675335599.314
2080862.0,1675335599.474
2084848.0,1675335599.395
2088515.0,1675335599.355
2082022.0,1675335599.434
2079135.0,1675335599.555
2079802.0,1675335599.516
2079639.0,1675335599.675
2079486.0,1675335599.636
2080405.0,1675335599.715
2079093.0,1675335599.595
2081572.0,1675335599.757
2083120.0,1675335599.796
2084775.0,1675335599.836
2086769.0,1675335599.877
2088970.0,1675335599.916
2091099.0,1675335599.957
2093704.0,1675335599.997
2096302.0,1675335600.036
2099112.0,1675335600.077
2100331.0,1675335600.238
2101945.0,1675335600.118
2103276.0,1675335600.157
2096765.0,1675335600.317
2098248.0,1675335600.277
2095042.0,1675335600.359
2094340.0,1675335600.398
2094467.0,1675335600.438
2102157.0,1675335600.197
2094708.0,1675335600.479
2094580.0,1675335600.518
2095209.0,1675335600.559
2095748.0,1675335600.599
2096959.0,1675335600.639
2098218.0,1675335600.679
2099962.0,1675335600.72
2101872.0,1675335600.76
2106630.0,1675335600.84
2104106.0,1675335600.799
2114465.0,1675335600.961
2111830.0,1675335600.919
2117770.0,1675335601.0
2120920.0,1675335601.04
2123597.0,1675335601.081
2124407.0,1675335601.12
2124201.0,1675335601.161
2123632.0,1675335601.202
2109184.0,1675335600.879
2122988.0,1675335601.241
2122481.0,1675335601.281
2122213.0,1675335601.322
2122848.0,1675335601.362
2124191.0,1675335601.401
2125419.0,1675335601.443
2126935.0,1675335601.482
2128927.0,1675335601.522
2130993.0,1675335601.563
2133039.0,1675335601.602
2135648.0,1675335601.642
2138165.0,1675335601.683
2140811.0,1675335601.722
2143703.0,1675335601.763
2146717.0,1675335601.803
2149672.0,1675335601.842
2152864.0,1675335601.882
2155786.0,1675335601.924
2158724.0,1675335601.963
2161546.0,1675335602.003
2163924.0,1675335602.044
2164181.0,1675335602.083
2164321.0,1675335602.123
2164333.0,1675335602.165
2164337.0,1675335602.203
2164340.0,1675335602.243
2164841.0,1675335602.284
2166208.0,1675335602.323
2167244.0,1675335602.364
2168512.0,1675335602.405
2170670.0,1675335602.444
2173013.0,1675335602.484
2175044.0,1675335602.525
2177596.0,1675335602.565
2180203.0,1675335602.604
2182809.0,1675335602.645
2185262.0,1675335602.684
2190587.0,1675335602.766
2188017.0,1675335602.724
2193159.0,1675335602.805
2195776.0,1675335602.845
2198544.0,1675335602.886
2200722.0,1675335602.925
2201047.0,1675335602.966
2200559.0,1675335603.007
2199847.0,1675335603.045
2199649.0,1675335603.085
2198846.0,1675335603.127
2198464.0,1675335603.166
2198877.0,1675335603.206
2199047.0,1675335603.247
2199205.0,1675335603.286
2199489.0,1675335603.326
2199945.0,1675335603.368
2200937.0,1675335603.406
2201821.0,1675335603.446
2202976.0,1675335603.487
2204199.0,1675335603.527
2205159.0,1675335603.567
2206357.0,1675335603.608
2207544.0,1675335603.647
2208688.0,1675335603.687
2209596.0,1675335603.728
2210972.0,1675335603.768
2210980.0,1675335603.808
2209391.0,1675335603.849
2207759.0,1675335603.888
2205878.0,1675335603.928
2204201.0,1675335603.97
2202043.0,1675335604.008
2201161.0,1675335604.048
2200693.0,1675335604.089
2200216.0,1675335604.128
2199568.0,1675335604.169
2199782.0,1675335604.21
2200167.0,1675335604.249
2200233.0,1675335604.289
2200857.0,1675335604.33
2201076.0,1675335604.37
2202127.0,1675335604.409
2202981.0,1675335604.45
2203972.0,1675335604.489
2205063.0,1675335604.53
2206215.0,1675335604.571
2207903.0,1675335604.61
2207811.0,1675335604.65
2205632.0,1675335604.691
2203413.0,1675335604.73
2200967.0,1675335604.771
2198151.0,1675335604.812
2195584.0,1675335604.85
2193813.0,1675335604.891
2192477.0,1675335604.932
2191290.0,1675335604.972
2190539.0,1675335605.011
2189794.0,1675335605.052
2189619.0,1675335605.091
2189641.0,1675335605.131
2189530.0,1675335605.173
2189354.0,1675335605.212
2189852.0,1675335605.252
2190261.0,1675335605.293
2190578.0,1675335605.332
2191346.0,1675335605.373
2192388.0,1675335605.413
2193195.0,1675335605.452
2194294.0,1675335605.492
2194169.0,1675335605.534
2192266.0,1675335605.573
2189097.0,1675335605.613
2185939.0,1675335605.654
2182412.0,1675335605.693
2178818.0,1675335605.733
2175795.0,1675335605.775
2173862.0,1675335605.814
2171879.0,1675335605.854
2170218.0,1675335605.895
2168931.0,1675335605.934
2167749.0,1675335605.975
2167039.0,1675335606.015
2166453.0,1675335606.054
2166288.0,1675335606.095
2166069.0,1675335606.136
2166087.0,1675335606.175
2165994.0,1675335606.215
2165868.0,1675335606.256
2165886.0,1675335606.295
2166098.0,1675335606.335
2166407.0,1675335606.377
2166810.0,1675335606.416
2165634.0,1675335606.456
2162937.0,1675335606.497
2159774.0,1675335606.536
2156619.0,1675335606.577
2153646.0,1675335606.617
2151066.0,1675335606.656
2149885.0,1675335606.696
2149317.0,1675335606.738
2148468.0,1675335606.777
2148401.0,1675335606.817
2148843.0,1675335606.858
2149557.0,1675335606.897
2150486.0,1675335606.937
2152282.0,1675335606.979
2154258.0,1675335607.018
2156455.0,1675335607.058
2158449.0,1675335607.099
2161187.0,1675335607.138
2163900.0,1675335607.179
2166694.0,1675335607.219
2169985.0,1675335607.258
2171468.0,1675335607.298
2169422.0,1675335607.34
2165552.0,1675335607.379
2161524.0,1675335607.419
2157435.0,1675335607.46
2153712.0,1675335607.499
2151338.0,1675335607.539
2149426.0,1675335607.581
2147539.0,1675335607.62
2146316.0,1675335607.66
2144925.0,1675335607.701
2144121.0,1675335607.74
2143465.0,1675335607.781
2143622.0,1675335607.821
2143619.0,1675335607.86
2143831.0,1675335607.9
2144192.0,1675335607.942
2144375.0,1675335607.981
2144971.0,1675335608.021
2145768.0,1675335608.062
2145817.0,1675335608.101
2143354.0,1675335608.141
2140281.0,1675335608.183
2137230.0,1675335608.222
2133907.0,1675335608.262
2130952.0,1675335608.303
2128826.0,1675335608.342
2127388.0,1675335608.383
2126055.0,1675335608.423
2124405.0,1675335608.462
2123656.0,1675335608.502
2123477.0,1675335608.544
2124393.0,1675335608.583
2126184.0,1675335608.623
2127230.0,1675335608.664
2128292.0,1675335608.703
2129983.0,1675335608.743
2131411.0,1675335608.785
2133696.0,1675335608.823
2135653.0,1675335608.863
2136761.0,1675335608.904
2135213.0,1675335608.944
2133248.0,1675335608.984
2131166.0,1675335609.025
2128984.0,1675335609.064
2127296.0,1675335609.104
2126070.0,1675335609.145
2126387.0,1675335609.185
2126596.0,1675335609.224
2127042.0,1675335609.265
2128362.0,1675335609.304
2129576.0,1675335609.345
2131530.0,1675335609.386
2133187.0,1675335609.425
2134912.0,1675335609.465
2135806.0,1675335609.506
2137329.0,1675335609.545
2138054.0,1675335609.586
2139274.0,1675335609.627
2141091.0,1675335609.665
2142953.0,1675335609.706
2144895.0,1675335609.747
2145775.0,1675335609.786
2144251.0,1675335609.826
2142388.0,1675335609.867
2139743.0,1675335609.906
2136792.0,1675335609.946
2133713.0,1675335609.988
2131801.0,1675335610.027
2130801.0,1675335610.066
2129453.0,1675335610.147
2129923.0,1675335610.108
2129213.0,1675335610.187
2129298.0,1675335610.228
2129804.0,1675335610.267
2130624.0,1675335610.307
2131468.0,1675335610.348
2132669.0,1675335610.388
2134092.0,1675335610.428
2135595.0,1675335610.469
2137593.0,1675335610.508
2143712.0,1675335610.628
2141387.0,1675335610.59
2139495.0,1675335610.548
2146466.0,1675335610.709
2145120.0,1675335610.748
2143174.0,1675335610.789
2141353.0,1675335610.83
2137734.0,1675335610.95
2139609.0,1675335610.869
2138078.0,1675335610.909
2137412.0,1675335610.99
2145982.0,1675335610.668
2137175.0,1675335611.029
2137288.0,1675335611.07
2137783.0,1675335611.109
2138522.0,1675335611.15
2140768.0,1675335611.23
2142056.0,1675335611.27
2139757.0,1675335611.191
2143577.0,1675335611.311
2145156.0,1675335611.35
2146968.0,1675335611.391
2149092.0,1675335611.432
2151239.0,1675335611.47
2153917.0,1675335611.511
2156389.0,1675335611.552
2156570.0,1675335611.591
2155232.0,1675335611.631
2153654.0,1675335611.672
2149518.0,1675335611.751
2151579.0,1675335611.711
2148321.0,1675335611.793
2147659.0,1675335611.832
2147027.0,1675335611.872
2146305.0,1675335611.913
2145762.0,1675335611.952
2145550.0,1675335611.993
2145477.0,1675335612.033
2146095.0,1675335612.072
2147599.0,1675335612.112
2149545.0,1675335612.154
2152278.0,1675335612.193
2155512.0,1675335612.233
2161017.0,1675335612.313
2164068.0,1675335612.353
2166805.0,1675335612.395
2168907.0,1675335612.434
2170067.0,1675335612.474
2158456.0,1675335612.274
2169178.0,1675335612.515
2166909.0,1675335612.554
2164222.0,1675335612.595
2161453.0,1675335612.635
2158825.0,1675335612.674
2156608.0,1675335612.715
2155189.0,1675335612.756
2154942.0,1675335612.796
2154859.0,1675335612.835
2155651.0,1675335612.876
2156278.0,1675335612.915
2157401.0,1675335612.955
2158945.0,1675335612.997
2160405.0,1675335613.036
2162228.0,1675335613.076
2166314.0,1675335613.156
2168713.0,1675335613.197
2170705.0,1675335613.238
2172781.0,1675335613.277
2175067.0,1675335613.317
2177575.0,1675335613.358
2164273.0,1675335613.117
2179835.0,1675335613.398
2181510.0,1675335613.478
2181395.0,1675335613.437
2180061.0,1675335613.558
2180850.0,1675335613.518
2179131.0,1675335613.599
2177648.0,1675335613.678
2179323.0,1675335613.799
2178133.0,1675335613.719
2178093.0,1675335613.638
2180250.0,1675335613.84
2181143.0,1675335613.879
2182266.0,1675335613.919
2178648.0,1675335613.758
2183700.0,1675335613.96
2184867.0,1675335614.0
2188140.0,1675335614.081
2186474.0,1675335614.039
2189978.0,1675335614.12
2191316.0,1675335614.16
2192590.0,1675335614.202
2192916.0,1675335614.24
2193091.0,1675335614.28
2192573.0,1675335614.361
2193524.0,1675335614.322
2187352.0,1675335614.442
2190043.0,1675335614.402
2184089.0,1675335614.481
2181360.0,1675335614.521
2179500.0,1675335614.563
2178481.0,1675335614.602
2177856.0,1675335614.642
2177550.0,1675335614.683
2177244.0,1675335614.722
2176969.0,1675335614.762
2176895.0,1675335614.804
2177331.0,1675335614.843
2178219.0,1675335614.883
2178887.0,1675335614.924
2179957.0,1675335614.963
2180982.0,1675335615.004
2182473.0,1675335615.045
2183872.0,1675335615.083
2185520.0,1675335615.124
2186211.0,1675335615.165
2184977.0,1675335615.204
2183579.0,1675335615.244
2182051.0,1675335615.285
2180477.0,1675335615.324
2179189.0,1675335615.364
2179031.0,1675335615.406
2179962.0,1675335615.444
2180708.0,1675335615.485
2182417.0,1675335615.526
2183380.0,1675335615.565
2184811.0,1675335615.606
2186407.0,1675335615.646
2187794.0,1675335615.685
2189473.0,1675335615.725
2191466.0,1675335615.766
2193458.0,1675335615.806
2195264.0,1675335615.846
2197115.0,1675335615.887
2198912.0,1675335615.926
2200361.0,1675335615.966
2199856.0,1675335616.008
2198241.0,1675335616.046
2196116.0,1675335616.086
2194072.0,1675335616.127
2192164.0,1675335616.166
2190308.0,1675335616.207
2189569.0,1675335616.248
2189219.0,1675335616.287
2188430.0,1675335616.327
2188018.0,1675335616.368
2187952.0,1675335616.408
2188044.0,1675335616.448
2187383.0,1675335616.488
2186386.0,1675335616.528
2184501.0,1675335616.568
2182674.0,1675335616.609
2181299.0,1675335616.648
2180221.0,1675335616.688
2179491.0,1675335616.729
2179231.0,1675335616.768
2179627.0,1675335616.809
2179075.0,1675335616.85
2176091.0,1675335616.889
2172563.0,1675335616.929
2168614.0,1675335616.97
2164432.0,1675335617.01
2161022.0,1675335617.049
2158425.0,1675335617.09
2156890.0,1675335617.129
2155587.0,1675335617.169
2154302.0,1675335617.211
2153568.0,1675335617.25
2153237.0,1675335617.29
2153292.0,1675335617.331
2153382.0,1675335617.37
2153878.0,1675335617.411
2154487.0,1675335617.452
2154998.0,1675335617.49
2155581.0,1675335617.531
2156260.0,1675335617.572
2157232.0,1675335617.611
2158361.0,1675335617.651
2159784.0,1675335617.692
2161488.0,1675335617.731
2162189.0,1675335617.771
2160252.0,1675335617.813
2158233.0,1675335617.852
2155812.0,1675335617.892
2153281.0,1675335617.933
2151143.0,1675335617.972
2149552.0,1675335618.013
2147948.0,1675335618.053
2146926.0,1675335618.092
2146093.0,1675335618.132
2145550.0,1675335618.173
2145607.0,1675335618.213
2145132.0,1675335618.253
2145339.0,1675335618.294
2146247.0,1675335618.333
2147132.0,1675335618.373
2148063.0,1675335618.415
2148700.0,1675335618.454
2149486.0,1675335618.493
2150497.0,1675335618.535
2151799.0,1675335618.574
2151130.0,1675335618.615
2149292.0,1675335618.655
2147782.0,1675335618.694
2146308.0,1675335618.734
2144828.0,1675335618.775
2143956.0,1675335618.815
2143824.0,1675335618.855
2143402.0,1675335618.896
2143330.0,1675335618.935
2143564.0,1675335618.975
2143830.0,1675335619.017
2144794.0,1675335619.055
2145343.0,1675335619.095
2146348.0,1675335619.137
2147535.0,1675335619.176
2148902.0,1675335619.216
2150253.0,1675335619.257
2151863.0,1675335619.296
2153269.0,1675335619.336
2154263.0,1675335619.377
2153216.0,1675335619.417
2151378.0,1675335619.457
2149310.0,1675335619.498
2147240.0,1675335619.537
2145334.0,1675335619.577
2143845.0,1675335619.619
2143067.0,1675335619.657
2142386.0,1675335619.697
2142261.0,1675335619.738
2142270.0,1675335619.777
2142085.0,1675335619.818
2142254.0,1675335619.859
2142574.0,1675335619.898
2143237.0,1675335619.938
2143810.0,1675335619.979
2144428.0,1675335620.019
2145181.0,1675335620.059
2145979.0,1675335620.1
2146987.0,1675335620.139
2148022.0,1675335620.179
2147677.0,1675335620.221
2145616.0,1675335620.259
2142916.0,1675335620.299
2140223.0,1675335620.34
2137155.0,1675335620.38
2134315.0,1675335620.42
2132458.0,1675335620.461
2131273.0,1675335620.5
2130034.0,1675335620.54
2129449.0,1675335620.581
2129016.0,1675335620.621
2128970.0,1675335620.661
2129149.0,1675335620.702
2129426.0,1675335620.741
2129943.0,1675335620.781
2130851.0,1675335620.823
2131386.0,1675335620.862
2132730.0,1675335620.902
2133758.0,1675335620.943
2134825.0,1675335620.982
2136248.0,1675335621.023
2136528.0,1675335621.063
2134926.0,1675335621.102
2132377.0,1675335621.143
2129321.0,1675335621.184
2126273.0,1675335621.223
2122964.0,1675335621.263
2121175.0,1675335621.304
2120015.0,1675335621.343
2118618.0,1675335621.383
2117631.0,1675335621.425
2117244.0,1675335621.464
2116837.0,1675335621.504
2117013.0,1675335621.545
2117624.0,1675335621.584
2118240.0,1675335621.625
2118943.0,1675335621.666
2119658.0,1675335621.703
2120861.0,1675335621.743
2123553.0,1675335621.824
2122091.0,1675335621.785
2125043.0,1675335621.864
2125790.0,1675335621.905
2124177.0,1675335621.944
2121969.0,1675335621.984
2119313.0,1675335622.026
2116612.0,1675335622.065
2114184.0,1675335622.104
2112614.0,1675335622.146
2111379.0,1675335622.185
2110551.0,1675335622.225
2110204.0,1675335622.266
2110026.0,1675335622.305
2110170.0,1675335622.345
2110589.0,1675335622.386
2111374.0,1675335622.426
2112130.0,1675335622.466
2112959.0,1675335622.507
2114241.0,1675335622.546
2115597.0,1675335622.586
2117062.0,1675335622.628
2118750.0,1675335622.666
2120466.0,1675335622.706
2120688.0,1675335622.747
2118973.0,1675335622.786
2116879.0,1675335622.827
2114576.0,1675335622.868
2112287.0,1675335622.907
2110150.0,1675335622.947
2109308.0,1675335622.988
2108962.0,1675335623.028
2108437.0,1675335623.067
2108562.0,1675335623.108
2109016.0,1675335623.147
2109701.0,1675335623.187
2110451.0,1675335623.229
2111816.0,1675335623.268
2113155.0,1675335623.308
2114767.0,1675335623.349
2116506.0,1675335623.388
2118602.0,1675335623.429
2120663.0,1675335623.469
2122919.0,1675335623.508
2125289.0,1675335623.548
2126164.0,1675335623.59
2124946.0,1675335623.629
2123188.0,1675335623.669
2121439.0,1675335623.71
2119599.0,1675335623.749
2118025.0,1675335623.789
2117519.0,1675335623.831
2117484.0,1675335623.87
2118102.0,1675335623.951
2118589.0,1675335623.99
2119912.0,1675335624.03
2121104.0,1675335624.071
2123957.0,1675335624.15
2122511.0,1675335624.11
2125742.0,1675335624.191
2127724.0,1675335624.231
2129526.0,1675335624.271
2117633.0,1675335623.909
2134192.0,1675335624.351
2131699.0,1675335624.312
2138446.0,1675335624.433
2136560.0,1675335624.391
2138835.0,1675335624.471
2137921.0,1675335624.511
2136459.0,1675335624.552
2133580.0,1675335624.632
2135167.0,1675335624.591
2132753.0,1675335624.673
2132835.0,1675335624.712
2132891.0,1675335624.752
2133118.0,1675335624.793
2133444.0,1675335624.833
2134383.0,1675335624.872
2135128.0,1675335624.913
2136355.0,1675335624.952
2137588.0,1675335624.993
2139218.0,1675335625.034
2140748.0,1675335625.073
2142418.0,1675335625.113
2144381.0,1675335625.154
2146109.0,1675335625.193
2148368.0,1675335625.234
2149948.0,1675335625.275
2149903.0,1675335625.314
2149224.0,1675335625.354
2148802.0,1675335625.395
2148322.0,1675335625.435
2147821.0,1675335625.474
2148719.0,1675335625.515
2149307.0,1675335625.554
2150218.0,1675335625.594
2151202.0,1675335625.636
2152560.0,1675335625.675
2153745.0,1675335625.715
2154930.0,1675335625.756
2156370.0,1675335625.795
2157735.0,1675335625.836
2159241.0,1675335625.877
2160864.0,1675335625.916
2163160.0,1675335625.956
2165154.0,1675335625.997
2167097.0,1675335626.037
2167427.0,1675335626.076
2167086.0,1675335626.117
2165967.0,1675335626.156
2164954.0,1675335626.197
2163663.0,1675335626.238
2163166.0,1675335626.277
2163546.0,1675335626.317
2163766.0,1675335626.358
2164972.0,1675335626.397
2165634.0,1675335626.438
2166387.0,1675335626.479
2167877.0,1675335626.518
2169007.0,1675335626.558
2170245.0,1675335626.599
2171572.0,1675335626.639
2172993.0,1675335626.678
2174614.0,1675335626.719
2175520.0,1675335626.758
2176604.0,1675335626.799
2176824.0,1675335626.84
2174629.0,1675335626.919
2176160.0,1675335626.879
2170381.0,1675335626.999
2168141.0,1675335627.04
2166000.0,1675335627.081
2172444.0,1675335626.96
2164746.0,1675335627.12
2164062.0,1675335627.16
2163073.0,1675335627.201
2162971.0,1675335627.241
2163096.0,1675335627.28
2163109.0,1675335627.321
2164507.0,1675335627.401
2163936.0,1675335627.361
2165020.0,1675335627.442
2166003.0,1675335627.481
2167324.0,1675335627.521
2168275.0,1675335627.562
2170150.0,1675335627.601
2171407.0,1675335627.642
2172958.0,1675335627.683
2174050.0,1675335627.722
2173403.0,1675335627.762
2172431.0,1675335627.803
2171040.0,1675335627.843
2170017.0,1675335627.883
2168528.0,1675335627.924
2168131.0,1675335627.963
2167784.0,1675335628.003
2167993.0,1675335628.045
2167650.0,1675335628.083
2168234.0,1675335628.123
2168996.0,1675335628.164
2169555.0,1675335628.203
2170690.0,1675335628.244
2171828.0,1675335628.285
2173087.0,1675335628.324
2174523.0,1675335628.364
2175776.0,1675335628.405
2177493.0,1675335628.445
2179396.0,1675335628.484
2180828.0,1675335628.525
2180721.0,1675335628.564
2179979.0,1675335628.604
2178682.0,1675335628.646
2177408.0,1675335628.684
2176322.0,1675335628.725
2175798.0,1675335628.766
2175651.0,1675335628.805
2175838.0,1675335628.845
2176644.0,1675335628.886
2177633.0,1675335628.925
2179073.0,1675335628.965
2181241.0,1675335629.006
2183425.0,1675335629.046
2185813.0,1675335629.085
2188073.0,1675335629.126
2190004.0,1675335629.166
2191828.0,1675335629.206
2193498.0,1675335629.248
2195276.0,1675335629.286
2196763.0,1675335629.326
2196739.0,1675335629.367
2195759.0,1675335629.406
2194362.0,1675335629.447
2192785.0,1675335629.487
2191336.0,1675335629.527
2190676.0,1675335629.567
2190932.0,1675335629.608
2190572.0,1675335629.647
2190196.0,1675335629.687
2190301.0,1675335629.728
2190254.0,1675335629.767
2190134.0,1675335629.807
2190348.0,1675335629.849
2190681.0,1675335629.887
2191233.0,1675335629.928
2191636.0,1675335629.969
2192186.0,1675335630.008
2193102.0,1675335630.049
2193903.0,1675335630.089
2194558.0,1675335630.128
2193476.0,1675335630.168
2191787.0,1675335630.209
2189132.0,1675335630.249
2186785.0,1675335630.289
2184556.0,1675335630.33
2182693.0,1675335630.369
2181435.0,1675335630.409
2180507.0,1675335630.451
2179511.0,1675335630.489
2178799.0,1675335630.529
2178307.0,1675335630.57
2178194.0,1675335630.609
2178220.0,1675335630.65
2178474.0,1675335630.691
2178902.0,1675335630.73
2179118.0,1675335630.77
2179778.0,1675335630.811
2180581.0,1675335630.851
2181552.0,1675335630.89
2181141.0,1675335630.931
2179215.0,1675335630.97
2177158.0,1675335631.01
2174796.0,1675335631.052
2172527.0,1675335631.091
2170912.0,1675335631.131
2169950.0,1675335631.172
2169033.0,1675335631.211
2168342.0,1675335631.252
2167995.0,1675335631.292
2167815.0,1675335631.331
2167809.0,1675335631.371
2167649.0,1675335631.413
2168301.0,1675335631.452
2168621.0,1675335631.492
2169231.0,1675335631.533
2169750.0,1675335631.572
2170771.0,1675335631.612
2171838.0,1675335631.654
2171670.0,1675335631.692
2169974.0,1675335631.732
2167937.0,1675335631.774
2165094.0,1675335631.813
2162425.0,1675335631.853
2160073.0,1675335631.894
2158300.0,1675335631.933
2157142.0,1675335631.973
2156171.0,1675335632.014
2155558.0,1675335632.054
2155197.0,1675335632.093
2154776.0,1675335632.135
2155011.0,1675335632.174
2155232.0,1675335632.214
2155778.0,1675335632.256
2156390.0,1675335632.294
2157143.0,1675335632.334
2158181.0,1675335632.375
2159181.0,1675335632.414
2160164.0,1675335632.455
2161518.0,1675335632.496
2162656.0,1675335632.535
2162470.0,1675335632.575
2160901.0,1675335632.616
2158786.0,1675335632.656
2156605.0,1675335632.695
2154046.0,1675335632.736
2152267.0,1675335632.776
2151209.0,1675335632.816
2150383.0,1675335632.858
2149944.0,1675335632.896
2149913.0,1675335632.936
2149912.0,1675335632.977
2150477.0,1675335633.016
2150951.0,1675335633.057
2151963.0,1675335633.098
2152812.0,1675335633.137
2153958.0,1675335633.177
2155198.0,1675335633.218
2156564.0,1675335633.258
2158125.0,1675335633.297
2159583.0,1675335633.338
2161279.0,1675335633.378
2163084.0,1675335633.418
2164910.0,1675335633.459
2166108.0,1675335633.498
2165892.0,1675335633.538
2164855.0,1675335633.579
2163677.0,1675335633.618
2162333.0,1675335633.659
2160640.0,1675335633.7
2159851.0,1675335633.74
2159859.0,1675335633.78
2159805.0,1675335633.821
2160648.0,1675335633.9
2160156.0,1675335633.861
2161555.0,1675335633.941
2163177.0,1675335633.981
2165006.0,1675335634.021
2167314.0,1675335634.063
2169621.0,1675335634.101
2171877.0,1675335634.141
2173767.0,1675335634.182
2175090.0,1675335634.221
2175967.0,1675335634.262
2177241.0,1675335634.303
2177037.0,1675335634.665
2180012.0,1675335634.382
2181868.0,1675335634.463
2180143.0,1675335634.544
2181330.0,1675335634.423
2178897.0,1675335634.583
2176964.0,1675335634.703
2176989.0,1675335634.743
2177212.0,1675335634.785
2177485.0,1675335634.824
2177739.0,1675335634.623
2181006.0,1675335634.502
2178475.0,1675335634.342
2179452.0,1675335634.944
2180264.0,1675335634.984
2177784.0,1675335634.865
2178577.0,1675335634.905
2181158.0,1675335635.026
2182396.0,1675335635.105
2181838.0,1675335635.065
2182888.0,1675335635.146
2183258.0,1675335635.185
2184018.0,1675335635.225
2183896.0,1675335635.267
2181995.0,1675335635.306
2180575.0,1675335635.346
2179004.0,1675335635.387
2177799.0,1675335635.426
2176559.0,1675335635.467
2176692.0,1675335635.507
2176434.0,1675335635.546
2176243.0,1675335635.586
2176406.0,1675335635.627
2176977.0,1675335635.667
2177589.0,1675335635.707
2179951.0,1675335635.787
2181451.0,1675335635.827
2178487.0,1675335635.748
2182652.0,1675335635.869
2183878.0,1675335635.907
2185240.0,1675335635.947
2186418.0,1675335635.988
2186379.0,1675335636.148
2187884.0,1675335636.109
2182541.0,1675335636.229
2180783.0,1675335636.269
2188355.0,1675335636.068
2179032.0,1675335636.308
2184448.0,1675335636.188
2187582.0,1675335636.027
2178216.0,1675335636.349
2177245.0,1675335636.388
2176566.0,1675335636.428
2175837.0,1675335636.47
2175530.0,1675335636.509
2175410.0,1675335636.549
2175586.0,1675335636.59
2175703.0,1675335636.629
2176017.0,1675335636.67
2176617.0,1675335636.71
2177026.0,1675335636.749
2177538.0,1675335636.789
2178135.0,1675335636.831
2177985.0,1675335636.91
2173052.0,1675335636.99
2175993.0,1675335636.951
2178293.0,1675335636.87
2166521.0,1675335637.072
2160641.0,1675335637.11
2154525.0,1675335637.15
2149696.0,1675335637.192
2169710.0,1675335637.03
2145794.0,1675335637.231
2142066.0,1675335637.271
2139548.0,1675335637.312
2138886.0,1675335637.351
2138252.0,1675335637.391
2136122.0,1675335637.432
2133004.0,1675335637.472
2130818.0,1675335637.512
2129867.0,1675335637.553
2129794.0,1675335637.592
2130028.0,1675335637.632
2130069.0,1675335637.674
2129809.0,1675335637.712
2128644.0,1675335637.752
2126445.0,1675335637.793
2123737.0,1675335637.832
2120779.0,1675335637.873
2117642.0,1675335637.914
2114997.0,1675335637.953
2113247.0,1675335637.993
2111325.0,1675335638.034
2109829.0,1675335638.074
2108451.0,1675335638.113
2107213.0,1675335638.154
2106423.0,1675335638.193
2105593.0,1675335638.234
2104721.0,1675335638.275
2104278.0,1675335638.314
2103734.0,1675335638.354
2103669.0,1675335638.395
2103642.0,1675335638.434
2103060.0,1675335638.475
2100671.0,1675335638.515
2097341.0,1675335638.555
2093636.0,1675335638.595
2089847.0,1675335638.636
2086157.0,1675335638.676
2083337.0,1675335638.715
2080964.0,1675335638.756
2078989.0,1675335638.795
2077196.0,1675335638.835
2075891.0,1675335638.877
2074594.0,1675335638.916
2073932.0,1675335638.956
2073411.0,1675335638.997
2072960.0,1675335639.036
2072716.0,1675335639.077
2072482.0,1675335639.117
2072180.0,1675335639.156
2072464.0,1675335639.196
2073086.0,1675335639.238
2073586.0,1675335639.277
2072238.0,1675335639.317
2069145.0,1675335639.358
2065362.0,1675335639.397
2061911.0,1675335639.437
2057765.0,1675335639.479
2054188.0,1675335639.517
2051851.0,1675335639.558
2049920.0,1675335639.599
2047910.0,1675335639.638
2046593.0,1675335639.679
2045516.0,1675335639.719
2044855.0,1675335639.758
2044357.0,1675335639.798
2044137.0,1675335639.839
2044387.0,1675335639.879
2044403.0,1675335639.919
2044801.0,1675335639.96
2045294.0,1675335639.999
2046036.0,1675335640.039
2046685.0,1675335640.081
2047525.0,1675335640.119
2048465.0,1675335640.159
2049001.0,1675335640.201
2047109.0,1675335640.24
2044448.0,1675335640.28
2040926.0,1675335640.321
2037218.0,1675335640.36
2033711.0,1675335640.4
2031105.0,1675335640.441
2028767.0,1675335640.481
2027162.0,1675335640.521
2025963.0,1675335640.562
2025781.0,1675335640.601
2025594.0,1675335640.641
2025688.0,1675335640.683
2025864.0,1675335640.721
2026048.0,1675335640.762
2026418.0,1675335640.803
2026952.0,1675335640.842
2028006.0,1675335640.883
2029711.0,1675335640.923
2031796.0,1675335640.962
2033805.0,1675335641.002
2035876.0,1675335641.044
2037987.0,1675335641.083
2040358.0,1675335641.123
2047263.0,1675335641.164
2048610.0,1675335641.203
2045165.0,1675335641.243
2042262.0,1675335641.285
2036260.0,1675335641.324
2043204.0,1675335641.364
2056018.0,1675335641.405
2072126.0,1675335641.444
2085229.0,1675335641.485
2090842.0,1675335641.525
2091802.0,1675335641.565
2091780.0,1675335641.605
2088954.0,1675335641.646
2077341.0,1675335641.686
2062690.0,1675335641.725
2058199.0,1675335641.766
2058131.0,1675335641.805
2058073.0,1675335641.846
2058252.0,1675335641.887
2058357.0,1675335641.926
2059429.0,1675335641.966
2060576.0,1675335642.007
2062027.0,1675335642.046
2062632.0,1675335642.087
2061294.0,1675335642.128
2060073.0,1675335642.166
2058793.0,1675335642.207
2057498.0,1675335642.248
2056541.0,1675335642.287
2056341.0,1675335642.327
2056241.0,1675335642.368
2056447.0,1675335642.407
2056333.0,1675335642.447
2056576.0,1675335642.489
2056259.0,1675335642.527
2056503.0,1675335642.567
2056616.0,1675335642.608
2056669.0,1675335642.647
2057028.0,1675335642.688
2057561.0,1675335642.729
2058455.0,1675335642.768
2058916.0,1675335642.808
2058827.0,1675335642.849
2057169.0,1675335642.889
2055258.0,1675335642.928
2053350.0,1675335642.969
2051304.0,1675335643.008
2049754.0,1675335643.048
2048611.0,1675335643.09
2047904.0,1675335643.129
2047776.0,1675335643.169
2047465.0,1675335643.21
2047590.0,1675335643.249
2047860.0,1675335643.29
2048537.0,1675335643.33
2049234.0,1675335643.369
2050063.0,1675335643.409
2050604.0,1675335643.45
2051869.0,1675335643.49
2052886.0,1675335643.53
2053829.0,1675335643.571
2053378.0,1675335643.61
2051804.0,1675335643.65
2049974.0,1675335643.692
2047877.0,1675335643.73
2045743.0,1675335643.77
2044301.0,1675335643.811
2043511.0,1675335643.85
2042664.0,1675335643.891
2042336.0,1675335643.932
2041933.0,1675335643.971
2041926.0,1675335644.011
2042240.0,1675335644.052
2042864.0,1675335644.092
2043424.0,1675335644.131
2043999.0,1675335644.172
2044772.0,1675335644.211
2045549.0,1675335644.252
2046649.0,1675335644.293
2047608.0,1675335644.332
2048812.0,1675335644.372
2048588.0,1675335644.413
2046874.0,1675335644.452
2044501.0,1675335644.493
2042476.0,1675335644.533
2039742.0,1675335644.572
2037463.0,1675335644.613
2036151.0,1675335644.654
2035162.0,1675335644.693
2034423.0,1675335644.733
2033751.0,1675335644.774
2033571.0,1675335644.813
2033609.0,1675335644.853
2033971.0,1675335644.895
2034489.0,1675335644.933
2035121.0,1675335644.974
2035815.0,1675335645.015
2036607.0,1675335645.054
2037352.0,1675335645.095
2038749.0,1675335645.135
2039681.0,1675335645.174
2040858.0,1675335645.214
2042252.0,1675335645.255
2043544.0,1675335645.295
2043806.0,1675335645.335
2042164.0,1675335645.376
2040294.0,1675335645.415
2038287.0,1675335645.455
2035761.0,1675335645.497
2033542.0,1675335645.535
2032152.0,1675335645.575
2031655.0,1675335645.617
2030764.0,1675335645.656
2030708.0,1675335645.697
2030505.0,1675335645.737
2030843.0,1675335645.772
2031257.0,1675335645.812
2031934.0,1675335645.853
2032601.0,1675335645.893
2034668.0,1675335645.974
2035832.0,1675335646.013
2037007.0,1675335646.053
2038356.0,1675335646.095
2039892.0,1675335646.133
2041312.0,1675335646.174
2042786.0,1675335646.215
2043332.0,1675335646.254
2042133.0,1675335646.295
2041026.0,1675335646.335
2039564.0,1675335646.374
2038187.0,1675335646.414
2033500.0,1675335645.933
2037024.0,1675335646.455
2036607.0,1675335646.495
2036301.0,1675335646.535
2036346.0,1675335646.576
2036659.0,1675335646.615
2037091.0,1675335646.655
2037727.0,1675335646.697
2038435.0,1675335646.735
2039702.0,1675335646.776
2040803.0,1675335646.817
2042346.0,1675335646.856
2043766.0,1675335646.897
2045247.0,1675335646.937
2047029.0,1675335646.976
2048617.0,1675335647.016
2050367.0,1675335647.057
2050826.0,1675335647.097
2050308.0,1675335647.137
2049456.0,1675335647.178
2048398.0,1675335647.217
2047537.0,1675335647.257
2047005.0,1675335647.299
2047123.0,1675335647.337
2047322.0,1675335647.377
2048313.0,1675335647.458
2049396.0,1675335647.499
2050257.0,1675335647.539
2047917.0,1675335647.419
2051377.0,1675335647.578
2052506.0,1675335647.618
2053789.0,1675335647.659
2055242.0,1675335647.699
2056838.0,1675335647.739
2058490.0,1675335647.78
2060118.0,1675335647.819
2061808.0,1675335647.859
2063767.0,1675335647.901
2065385.0,1675335647.939
2064880.0,1675335648.021
2065660.0,1675335647.98
2062529.0,1675335648.101
2063951.0,1675335648.06
2061100.0,1675335648.141
2059963.0,1675335648.18
2059574.0,1675335648.22
2059196.0,1675335648.301
2059339.0,1675335648.262
2059226.0,1675335648.341
2059328.0,1675335648.382
2059945.0,1675335648.421
2060744.0,1675335648.461
2061468.0,1675335648.503
2063633.0,1675335648.582
2064763.0,1675335648.623
2065778.0,1675335648.662
2062564.0,1675335648.542
2067211.0,1675335648.703
2069979.0,1675335648.783
2068533.0,1675335648.743
2072666.0,1675335648.864
2071281.0,1675335648.823
2070345.0,1675335648.943
2071785.0,1675335648.904
2068391.0,1675335648.984
2066067.0,1675335649.023
2064499.0,1675335649.063
2063268.0,1675335649.105
2062147.0,1675335649.183
2062875.0,1675335649.143
2062238.0,1675335649.225
2061839.0,1675335649.304
2061938.0,1675335649.264
2062288.0,1675335649.345
2062532.0,1675335649.384
2063361.0,1675335649.424
2064020.0,1675335649.465
2064713.0,1675335649.505
2065586.0,1675335649.544
2066495.0,1675335649.586
2067598.0,1675335649.625
2068647.0,1675335649.665
2069692.0,1675335649.707
2070925.0,1675335649.745
2072087.0,1675335649.785
2072427.0,1675335649.826
2071220.0,1675335649.865
2069176.0,1675335649.906
2066990.0,1675335649.946
2064495.0,1675335649.985
2062177.0,1675335650.026
2060501.0,1675335650.067
2059552.0,1675335650.106
2058707.0,1675335650.146
2057741.0,1675335650.187
2057121.0,1675335650.226
2056945.0,1675335650.266
2056590.0,1675335650.308
2056751.0,1675335650.346
2057077.0,1675335650.386
2057448.0,1675335650.428
2058060.0,1675335650.467
2058531.0,1675335650.507
2059349.0,1675335650.548
2059845.0,1675335650.587
2060984.0,1675335650.627
2061614.0,1675335650.668
2062443.0,1675335650.708
2063521.0,1675335650.747
2064335.0,1675335650.789
2063307.0,1675335650.828
2060993.0,1675335650.868
2058806.0,1675335650.91
2056160.0,1675335650.948
2053625.0,1675335650.988
2051630.0,1675335651.029
2050177.0,1675335651.068
2048737.0,1675335651.109
2047481.0,1675335651.15
2046542.0,1675335651.189
2045533.0,1675335651.229
2044955.0,1675335651.27
2044531.0,1675335651.31
2044253.0,1675335651.349
2044438.0,1675335651.39
2044418.0,1675335651.429
2044789.0,1675335651.469
2045044.0,1675335651.511
2045346.0,1675335651.55
2045980.0,1675335651.59
2046166.0,1675335651.631
2044209.0,1675335651.67
2041587.0,1675335651.711
2038539.0,1675335651.751
2035728.0,1675335651.79
2032806.0,1675335651.83
2030796.0,1675335651.871
2029144.0,1675335651.911
2027699.0,1675335651.951
2026375.0,1675335651.992
2025493.0,1675335652.031
2024848.0,1675335652.071
2024442.0,1675335652.113
2024307.0,1675335652.151
2024159.0,1675335652.191
2024531.0,1675335652.232
2024344.0,1675335652.271
2024826.0,1675335652.312
2025420.0,1675335652.353
2025987.0,1675335652.392
2026674.0,1675335652.432
2026432.0,1675335652.473
2023360.0,1675335652.513
2019116.0,1675335652.552
2013769.0,1675335652.593
2009915.0,1675335652.632
2012366.0,1675335652.673
2016629.0,1675335652.714
2018505.0,1675335652.753
2019559.0,1675335652.793
2022935.0,1675335652.834
2029855.0,1675335652.873
2041583.0,1675335652.954
2037396.0,1675335652.914
2042209.0,1675335652.993
2040224.0,1675335653.034
2038095.0,1675335653.075
2037766.0,1675335653.114
2036401.0,1675335653.154
2033093.0,1675335653.195
2033054.0,1675335653.234
2038205.0,1675335653.274
2043827.0,1675335653.316
2045145.0,1675335653.354
2044758.0,1675335653.395
2036888.0,1675335653.436
2043919.0,1675335653.475
2035494.0,1675335653.516
2024965.0,1675335653.556
2014524.0,1675335653.595
2005734.0,1675335653.635
1998338.0,1675335653.677
1992588.0,1675335653.716
1987340.0,1675335653.756
1983551.0,1675335653.797
1981108.0,1675335653.836
1979098.0,1675335653.876
1977916.0,1675335653.918
1977179.0,1675335653.956
1976563.0,1675335653.996
1975801.0,1675335654.038
1975556.0,1675335654.077
1975422.0,1675335654.118
1975429.0,1675335654.159
1973436.0,1675335654.197
1968254.0,1675335654.237
1962538.0,1675335654.279
1956278.0,1675335654.318
1950054.0,1675335654.358
1944767.0,1675335654.399
1941239.0,1675335654.438
1938530.0,1675335654.478
1935839.0,1675335654.52
1934354.0,1675335654.559
1932758.0,1675335654.599
1932139.0,1675335654.64
1931728.0,1675335654.679
1931676.0,1675335654.72
1931945.0,1675335654.76
1932242.0,1675335654.799
1932917.0,1675335654.84
1933575.0,1675335654.881
1934622.0,1675335654.921
1936157.0,1675335654.96
1939088.0,1675335655.001
1942518.0,1675335655.04
1944618.0,1675335655.122
1945104.0,1675335655.08
1942417.0,1675335655.161
1940158.0,1675335655.201
1937699.0,1675335655.242
1935329.0,1675335655.281
1934240.0,1675335655.322
1934474.0,1675335655.362
1934668.0,1675335655.402
1935631.0,1675335655.442
1936399.0,1675335655.483
1937434.0,1675335655.523
1938976.0,1675335655.562
1940576.0,1675335655.603
1942494.0,1675335655.642
1944450.0,1675335655.683
