bvp,time
4.0,1623756683.125
6.28,1623756683.140625
9.79,1623756683.15625
13.95,1623756683.171875
18.19,1623756683.1875
22.11,1623756683.203125
25.47,1623756683.21875
28.06,1623756683.234375
29.76,1623756683.25
30.43,1623756683.265625
30.0,1623756683.28125
28.41,1623756683.296875
25.67,1623756683.3125
21.88,1623756683.328125
17.19,1623756683.34375
11.85,1623756683.359375
6.2,1623756683.375
0.57,1623756683.390625
-4.74,1623756683.40625
-9.57,1623756683.421875
-13.88,1623756683.4375
-17.81,1623756683.453125
-21.52,1623756683.46875
-25.13,1623756683.484375
-28.64,1623756683.5
-31.96,1623756683.515625
-34.91,1623756683.53125
-37.38,1623756683.546875
-39.21,1623756683.5625
-40.47,1623756683.578125
-41.46,1623756683.59375
-42.69,1623756683.609375
-44.33,1623756683.625
-46.39,1623756683.640625
-48.77,1623756683.65625
-51.3,1623756683.671875
-53.75,1623756683.6875
-55.68,1623756683.703125
-56.72,1623756683.71875
-56.68,1623756683.734375
-55.68,1623756683.75
-53.79,1623756683.765625
-51.24,1623756683.78125
-48.47,1623756683.796875
-46.1,1623756683.8125
-44.77,1623756683.828125
-44.49,1623756683.84375
-45.32,1623756683.859375
-47.53,1623756683.875
-51.61,1623756683.890625
-57.43,1623756683.90625
-64.65,1623756683.921875
-72.89,1623756683.9375
-81.76,1623756683.953125
-90.84,1623756683.96875
-98.49,1623756683.984375
-103.99,1623756684.0
-107.89,1623756684.015625
-112.02,1623756684.03125
-116.55,1623756684.046875
-120.78,1623756684.0625
-123.64,1623756684.078125
-124.17,1623756684.09375
-121.66,1623756684.109375
-113.29,1623756684.125
-98.28,1623756684.140625
-78.26,1623756684.15625
-57.08,1623756684.171875
-34.84,1623756684.1875
-9.95,1623756684.203125
19.35,1623756684.21875
53.84,1623756684.234375
93.31,1623756684.25
140.65,1623756684.265625
195.73,1623756684.28125
254.98,1623756684.296875
311.51,1623756684.3125
364.16,1623756684.328125
414.02,1623756684.34375
461.99,1623756684.359375
507.5,1623756684.375
548.83,1623756684.390625
588.5,1623756684.40625
625.06,1623756684.421875
652.29,1623756684.4375
659.18,1623756684.453125
642.29,1623756684.46875
602.09,1623756684.484375
540.93,1623756684.5
462.14,1623756684.515625
338.5,1623756684.53125
171.81,1623756684.546875
-9.3,1623756684.5625
-150.53,1623756684.578125
-248.16,1623756684.59375
-311.23,1623756684.609375
-350.47,1623756684.625
-371.76,1623756684.640625
-379.83,1623756684.65625
-378.44,1623756684.671875
-365.34,1623756684.6875
-341.35,1623756684.703125
-311.8,1623756684.71875
-286.65,1623756684.734375
-268.19,1623756684.75
-254.78,1623756684.765625
-243.46,1623756684.78125
-232.03,1623756684.796875
-219.33,1623756684.8125
-201.54,1623756684.828125
-178.5,1623756684.84375
-153.94,1623756684.859375
-134.94,1623756684.875
-122.44,1623756684.890625
-114.62,1623756684.90625
-109.33,1623756684.921875
-105.32,1623756684.9375
-101.97,1623756684.953125
-96.46,1623756684.96875
-87.67,1623756684.984375
-76.73,1623756685.0
-67.1,1623756685.015625
-59.05,1623756685.03125
-51.7,1623756685.046875
-44.22,1623756685.0625
-36.5,1623756685.078125
-28.76,1623756685.09375
-20.18,1623756685.109375
-10.78,1623756685.125
-1.61,1623756685.140625
5.25,1623756685.15625
9.56,1623756685.171875
11.87,1623756685.1875
12.89,1623756685.203125
13.12,1623756685.21875
12.92,1623756685.234375
12.9,1623756685.25
13.33,1623756685.265625
14.0,1623756685.28125
14.29,1623756685.296875
14.1,1623756685.3125
13.54,1623756685.328125
12.77,1623756685.34375
11.88,1623756685.359375
10.94,1623756685.375
10.07,1623756685.390625
9.39,1623756685.40625
8.91,1623756685.421875
8.61,1623756685.4375
8.31,1623756685.453125
7.87,1623756685.46875
7.13,1623756685.484375
6.07,1623756685.5
4.78,1623756685.515625
3.45,1623756685.53125
2.25,1623756685.546875
1.26,1623756685.5625
0.46,1623756685.578125
-0.31,1623756685.59375
-1.21,1623756685.609375
-2.32,1623756685.625
-3.54,1623756685.640625
-4.58,1623756685.65625
-5.05,1623756685.671875
-4.49,1623756685.6875
-2.53,1623756685.703125
1.06,1623756685.71875
6.3,1623756685.734375
12.98,1623756685.75
20.64,1623756685.765625
28.64,1623756685.78125
36.32,1623756685.796875
43.12,1623756685.8125
48.74,1623756685.828125
53.13,1623756685.84375
56.41,1623756685.859375
58.68,1623756685.875
59.94,1623756685.890625
60.11,1623756685.90625
59.12,1623756685.921875
57.11,1623756685.9375
54.54,1623756685.953125
52.15,1623756685.96875
50.75,1623756685.984375
50.9,1623756686.0
52.8,1623756686.015625
56.15,1623756686.03125
60.37,1623756686.046875
64.82,1623756686.0625
69.06,1623756686.078125
73.0,1623756686.09375
76.79,1623756686.109375
80.81,1623756686.125
85.42,1623756686.140625
90.75,1623756686.15625
96.54,1623756686.171875
101.96,1623756686.1875
105.72,1623756686.203125
106.22,1623756686.21875
101.97,1623756686.234375
92.2,1623756686.25
77.16,1623756686.265625
58.37,1623756686.28125
38.3,1623756686.296875
19.86,1623756686.3125
5.7,1623756686.328125
-2.53,1623756686.34375
-4.46,1623756686.359375
-1.05,1623756686.375
5.74,1623756686.390625
13.59,1623756686.40625
20.5,1623756686.421875
25.27,1623756686.4375
27.79,1623756686.453125
28.89,1623756686.46875
29.95,1623756686.484375
32.2,1623756686.5
36.16,1623756686.515625
41.33,1623756686.53125
46.34,1623756686.546875
49.44,1623756686.5625
49.18,1623756686.578125
44.97,1623756686.59375
37.26,1623756686.609375
27.42,1623756686.625
17.36,1623756686.640625
9.07,1623756686.65625
4.05,1623756686.671875
2.95,1623756686.6875
5.19,1623756686.703125
8.99,1623756686.71875
11.59,1623756686.734375
9.91,1623756686.75
1.43,1623756686.765625
-15.18,1623756686.78125
-39.77,1623756686.796875
-71.0,1623756686.8125
-107.11,1623756686.828125
-146.6,1623756686.84375
-188.77,1623756686.859375
-233.45,1623756686.875
-280.35,1623756686.890625
-328.16,1623756686.90625
-374.02,1623756686.921875
-413.64,1623756686.9375
-442.15,1623756686.953125
-455.36,1623756686.96875
-450.97,1623756686.984375
-429.06,1623756687.0
-391.94,1623756687.015625
-343.31,1623756687.03125
-287.31,1623756687.046875
-227.75,1623756687.0625
-167.78,1623756687.078125
-109.76,1623756687.09375
-55.28,1623756687.109375
-5.33,1623756687.125
39.55,1623756687.140625
79.03,1623756687.15625
112.68,1623756687.171875
139.81,1623756687.1875
159.62,1623756687.203125
171.56,1623756687.21875
175.73,1623756687.234375
173.06,1623756687.25
165.17,1623756687.265625
154.03,1623756687.28125
141.51,1623756687.296875
129.2,1623756687.3125
118.29,1623756687.328125
109.66,1623756687.34375
103.81,1623756687.359375
100.81,1623756687.375
100.14,1623756687.390625
100.74,1623756687.40625
101.25,1623756687.421875
100.32,1623756687.4375
97.13,1623756687.453125
91.58,1623756687.46875
84.21,1623756687.484375
75.91,1623756687.5
67.36,1623756687.515625
58.7,1623756687.53125
49.58,1623756687.546875
39.41,1623756687.5625
27.85,1623756687.578125
15.18,1623756687.59375
2.24,1623756687.609375
-9.73,1623756687.625
-19.42,1623756687.640625
-25.8,1623756687.65625
-28.18,1623756687.671875
-26.31,1623756687.6875
-20.41,1623756687.703125
-11.27,1623756687.71875
-0.26,1623756687.734375
10.75,1623756687.75
19.76,1623756687.765625
25.12,1623756687.78125
26.06,1623756687.796875
22.94,1623756687.8125
17.12,1623756687.828125
10.57,1623756687.84375
5.25,1623756687.859375
2.52,1623756687.875
2.81,1623756687.890625
5.66,1623756687.90625
10.03,1623756687.921875
14.76,1623756687.9375
18.99,1623756687.953125
22.35,1623756687.96875
24.86,1623756687.984375
26.74,1623756688.0
28.12,1623756688.015625
28.88,1623756688.03125
28.7,1623756688.046875
27.08,1623756688.0625
23.56,1623756688.078125
17.84,1623756688.09375
9.78,1623756688.109375
-0.35,1623756688.125
-11.88,1623756688.140625
-23.91,1623756688.15625
-35.66,1623756688.171875
-46.8,1623756688.1875
-57.49,1623756688.203125
-68.25,1623756688.21875
-79.48,1623756688.234375
-91.39,1623756688.25
-103.51,1623756688.265625
-114.77,1623756688.28125
-123.78,1623756688.296875
-129.41,1623756688.3125
-131.16,1623756688.328125
-129.36,1623756688.34375
-124.89,1623756688.359375
-118.87,1623756688.375
-112.76,1623756688.390625
-107.64,1623756688.40625
-103.82,1623756688.421875
-100.68,1623756688.4375
-96.87,1623756688.453125
-90.61,1623756688.46875
-80.2,1623756688.484375
-64.73,1623756688.5
-44.81,1623756688.515625
-23.87,1623756688.53125
-6.37,1623756688.546875
3.89,1623756688.5625
5.2,1623756688.578125
-1.83,1623756688.59375
-14.65,1623756688.609375
-29.83,1623756688.625
-44.07,1623756688.640625
-55.22,1623756688.65625
-64.64,1623756688.671875
-74.21,1623756688.6875
-84.52,1623756688.703125
-94.2,1623756688.71875
-101.1,1623756688.734375
-103.55,1623756688.75
-101.11,1623756688.765625
-94.31,1623756688.78125
-84.48,1623756688.796875
-76.52,1623756688.8125
-74.1,1623756688.828125
-77.57,1623756688.84375
-83.78,1623756688.859375
-88.67,1623756688.875
-89.62,1623756688.890625
-86.22,1623756688.90625
-79.74,1623756688.921875
-72.75,1623756688.9375
-72.64,1623756688.953125
-85.23,1623756688.96875
-111.9,1623756688.984375
-149.29,1623756689.0
-192.06,1623756689.015625
-235.47,1623756689.03125
-276.15,1623756689.046875
-311.31,1623756689.0625
-313.88,1623756689.078125
-269.4,1623756689.09375
-183.94,1623756689.109375
-81.64,1623756689.125
13.23,1623756689.140625
88.21,1623756689.15625
141.85,1623756689.171875
178.3,1623756689.1875
203.0,1623756689.203125
223.26,1623756689.21875
238.59,1623756689.234375
246.9,1623756689.25
247.61,1623756689.265625
242.67,1623756689.28125
234.85,1623756689.296875
226.49,1623756689.3125
216.14,1623756689.328125
204.08,1623756689.34375
191.78,1623756689.359375
177.7,1623756689.375
161.06,1623756689.390625
142.94,1623756689.40625
126.2,1623756689.421875
113.72,1623756689.4375
106.98,1623756689.453125
105.97,1623756689.46875
110.2,1623756689.484375
118.39,1623756689.5
126.34,1623756689.515625
130.43,1623756689.53125
129.21,1623756689.546875
123.83,1623756689.5625
116.83,1623756689.578125
110.58,1623756689.59375
106.57,1623756689.609375
105.43,1623756689.625
106.59,1623756689.640625
107.53,1623756689.65625
105.93,1623756689.671875
100.83,1623756689.6875
92.99,1623756689.703125
84.02,1623756689.71875
75.46,1623756689.734375
68.11,1623756689.75
62.24,1623756689.765625
57.44,1623756689.78125
52.55,1623756689.796875
46.67,1623756689.8125
39.61,1623756689.828125
31.88,1623756689.84375
24.24,1623756689.859375
17.26,1623756689.875
11.07,1623756689.890625
5.54,1623756689.90625
0.41,1623756689.921875
-4.54,1623756689.9375
-9.2,1623756689.953125
-13.19,1623756689.96875
-16.07,1623756689.984375
-17.51,1623756690.0
-17.55,1623756690.015625
-16.56,1623756690.03125
-14.98,1623756690.046875
-13.17,1623756690.0625
-11.32,1623756690.078125
-9.4,1623756690.09375
-7.36,1623756690.109375
-5.29,1623756690.125
-3.41,1623756690.140625
-2.07,1623756690.15625
-1.54,1623756690.171875
-1.87,1623756690.1875
-2.83,1623756690.203125
-4.04,1623756690.21875
-5.11,1623756690.234375
-5.82,1623756690.25
-6.21,1623756690.265625
-6.46,1623756690.28125
-6.77,1623756690.296875
-7.17,1623756690.3125
-7.53,1623756690.328125
-7.68,1623756690.34375
-7.52,1623756690.359375
-7.21,1623756690.375
-7.1,1623756690.390625
-7.55,1623756690.40625
-8.72,1623756690.421875
-10.48,1623756690.4375
-12.47,1623756690.453125
-14.36,1623756690.46875
-16.04,1623756690.484375
-17.58,1623756690.5
-19.12,1623756690.515625
-20.65,1623756690.53125
-21.86,1623756690.546875
-22.29,1623756690.5625
-21.47,1623756690.578125
-19.24,1623756690.59375
-15.72,1623756690.609375
-11.33,1623756690.625
-6.51,1623756690.640625
-1.7,1623756690.65625
2.84,1623756690.671875
6.86,1623756690.6875
10.13,1623756690.703125
12.46,1623756690.71875
13.78,1623756690.734375
14.15,1623756690.75
13.79,1623756690.765625
12.97,1623756690.78125
11.92,1623756690.796875
10.83,1623756690.8125
9.82,1623756690.828125
9.01,1623756690.84375
8.49,1623756690.859375
8.28,1623756690.875
8.31,1623756690.890625
8.33,1623756690.90625
8.06,1623756690.921875
7.27,1623756690.9375
5.89,1623756690.953125
4.06,1623756690.96875
2.02,1623756690.984375
-0.02,1623756691.0
-1.95,1623756691.015625
-3.78,1623756691.03125
-5.63,1623756691.046875
-7.56,1623756691.0625
-9.6,1623756691.078125
-11.74,1623756691.09375
-13.92,1623756691.109375
-16.08,1623756691.125
-18.09,1623756691.140625
-19.8,1623756691.15625
-20.93,1623756691.171875
-21.14,1623756691.1875
-20.16,1623756691.203125
-17.88,1623756691.21875
-14.44,1623756691.234375
-10.23,1623756691.25
-5.76,1623756691.265625
-1.55,1623756691.28125
2.04,1623756691.296875
4.79,1623756691.3125
6.65,1623756691.328125
7.63,1623756691.34375
7.83,1623756691.359375
7.4,1623756691.375
6.54,1623756691.390625
5.49,1623756691.40625
4.49,1623756691.421875
3.72,1623756691.4375
3.22,1623756691.453125
3.0,1623756691.46875
3.0,1623756691.484375
3.13,1623756691.5
3.27,1623756691.515625
3.25,1623756691.53125
2.89,1623756691.546875
2.11,1623756691.5625
0.95,1623756691.578125
-0.42,1623756691.59375
-1.74,1623756691.609375
-2.8,1623756691.625
-3.56,1623756691.640625
-4.19,1623756691.65625
-4.99,1623756691.671875
-6.24,1623756691.6875
-8.09,1623756691.703125
-10.46,1623756691.71875
-13.1,1623756691.734375
-15.68,1623756691.75
-17.84,1623756691.765625
-19.23,1623756691.78125
-19.52,1623756691.796875
-18.46,1623756691.8125
-15.91,1623756691.828125
-12.03,1623756691.84375
-7.26,1623756691.859375
-2.28,1623756691.875
2.22,1623756691.890625
5.72,1623756691.90625
8.01,1623756691.921875
9.18,1623756691.9375
9.46,1623756691.953125
9.11,1623756691.96875
8.32,1623756691.984375
7.21,1623756692.0
5.88,1623756692.015625
4.46,1623756692.03125
3.11,1623756692.046875
1.92,1623756692.0625
0.92,1623756692.078125
0.06,1623756692.09375
-0.76,1623756692.109375
-1.62,1623756692.125
-2.53,1623756692.140625
-3.45,1623756692.15625
-4.34,1623756692.171875
-5.19,1623756692.1875
-6.03,1623756692.203125
-6.83,1623756692.21875
-7.55,1623756692.234375
-8.11,1623756692.25
-8.5,1623756692.265625
-8.82,1623756692.28125
-9.33,1623756692.296875
-10.28,1623756692.3125
-11.84,1623756692.328125
-13.86,1623756692.34375
-15.94,1623756692.359375
-17.49,1623756692.375
-18.01,1623756692.390625
-17.19,1623756692.40625
-15.07,1623756692.421875
-11.93,1623756692.4375
-8.14,1623756692.453125
-4.07,1623756692.46875
-0.01,1623756692.484375
3.74,1623756692.5
6.91,1623756692.515625
9.26,1623756692.53125
10.61,1623756692.546875
10.94,1623756692.5625
10.35,1623756692.578125
9.11,1623756692.59375
7.46,1623756692.609375
5.66,1623756692.625
3.86,1623756692.640625
2.26,1623756692.65625
1.01,1623756692.671875
0.27,1623756692.6875
0.16,1623756692.703125
0.6,1623756692.71875
1.36,1623756692.734375
2.11,1623756692.75
2.56,1623756692.765625
2.53,1623756692.78125
2.05,1623756692.796875
1.24,1623756692.8125
0.21,1623756692.828125
-1.0,1623756692.84375
-2.45,1623756692.859375
-4.19,1623756692.875
-6.22,1623756692.890625
-8.5,1623756692.90625
-10.89,1623756692.921875
-13.26,1623756692.9375
-15.45,1623756692.953125
-17.29,1623756692.96875
-18.49,1623756692.984375
-18.77,1623756693.0
-17.86,1623756693.015625
-15.59,1623756693.03125
-12.04,1623756693.046875
-7.52,1623756693.0625
-2.53,1623756693.078125
2.39,1623756693.09375
6.74,1623756693.109375
10.24,1623756693.125
12.74,1623756693.140625
14.24,1623756693.15625
14.82,1623756693.171875
14.6,1623756693.1875
13.78,1623756693.203125
12.63,1623756693.21875
11.43,1623756693.234375
10.44,1623756693.25
9.73,1623756693.265625
9.24,1623756693.28125
8.82,1623756693.296875
8.36,1623756693.3125
7.9,1623756693.328125
7.57,1623756693.34375
7.46,1623756693.359375
7.54,1623756693.375
7.58,1623756693.390625
7.3,1623756693.40625
6.53,1623756693.421875
5.27,1623756693.4375
3.72,1623756693.453125
2.04,1623756693.46875
0.25,1623756693.484375
-1.75,1623756693.5
-4.16,1623756693.515625
-7.01,1623756693.53125
-10.12,1623756693.546875
-13.08,1623756693.5625
-15.44,1623756693.578125
-16.81,1623756693.59375
-16.96,1623756693.609375
-15.85,1623756693.625
-13.6,1623756693.640625
-10.4,1623756693.65625
-6.56,1623756693.671875
-2.44,1623756693.6875
1.5,1623756693.703125
4.9,1623756693.71875
7.48,1623756693.734375
9.16,1623756693.75
10.0,1623756693.765625
10.09,1623756693.78125
9.54,1623756693.796875
8.42,1623756693.8125
6.88,1623756693.828125
5.11,1623756693.84375
3.42,1623756693.859375
2.11,1623756693.875
1.35,1623756693.890625
1.16,1623756693.90625
1.32,1623756693.921875
1.55,1623756693.9375
1.61,1623756693.953125
1.39,1623756693.96875
0.92,1623756693.984375
0.34,1623756694.0
-0.23,1623756694.015625
-0.72,1623756694.03125
-1.22,1623756694.046875
-1.87,1623756694.0625
-2.83,1623756694.078125
-4.2,1623756694.09375
-5.95,1623756694.109375
-7.93,1623756694.125
-9.91,1623756694.140625
-11.65,1623756694.15625
-12.95,1623756694.171875
-13.67,1623756694.1875
-13.65,1623756694.203125
-12.75,1623756694.21875
-10.85,1623756694.234375
-7.96,1623756694.25
-4.27,1623756694.265625
-0.16,1623756694.28125
3.85,1623756694.296875
7.27,1623756694.3125
9.75,1623756694.328125
11.12,1623756694.34375
11.4,1623756694.359375
10.74,1623756694.375
9.34,1623756694.390625
7.49,1623756694.40625
5.49,1623756694.421875
3.66,1623756694.4375
2.26,1623756694.453125
1.41,1623756694.46875
1.06,1623756694.484375
1.02,1623756694.5
1.05,1623756694.515625
0.94,1623756694.53125
0.5,1623756694.546875
-0.28,1623756694.5625
-1.34,1623756694.578125
-2.5,1623756694.59375
-3.55,1623756694.609375
-4.36,1623756694.625
-4.92,1623756694.640625
-5.41,1623756694.65625
-6.12,1623756694.671875
-7.34,1623756694.6875
-9.16,1623756694.703125
-11.47,1623756694.71875
-13.96,1623756694.734375
-16.3,1623756694.75
-18.16,1623756694.765625
-19.27,1623756694.78125
-19.44,1623756694.796875
-18.5,1623756694.8125
-16.37,1623756694.828125
-13.11,1623756694.84375
-9.0,1623756694.859375
-4.52,1623756694.875
-0.21,1623756694.890625
3.44,1623756694.90625
6.19,1623756694.921875
8.01,1623756694.9375
9.04,1623756694.953125
9.43,1623756694.96875
9.28,1623756694.984375
8.62,1623756695.0
7.45,1623756695.015625
5.93,1623756695.03125
4.29,1623756695.046875
2.84,1623756695.0625
1.82,1623756695.078125
1.29,1623756695.09375
1.15,1623756695.109375
1.19,1623756695.125
1.19,1623756695.140625
1.04,1623756695.15625
0.69,1623756695.171875
0.15,1623756695.1875
-0.54,1623756695.203125
-1.36,1623756695.21875
-2.27,1623756695.234375
-3.21,1623756695.25
-4.15,1623756695.265625
-5.12,1623756695.28125
-6.27,1623756695.296875
-7.81,1623756695.3125
-9.88,1623756695.328125
-12.49,1623756695.34375
-15.37,1623756695.359375
-18.07,1623756695.375
-20.05,1623756695.390625
-20.82,1623756695.40625
-20.06,1623756695.421875
-17.69,1623756695.4375
-13.9,1623756695.453125
-9.07,1623756695.46875
-3.78,1623756695.484375
1.34,1623756695.5
5.7,1623756695.515625
8.87,1623756695.53125
10.72,1623756695.546875
11.38,1623756695.5625
11.14,1623756695.578125
10.35,1623756695.59375
9.27,1623756695.609375
8.05,1623756695.625
6.75,1623756695.640625
5.48,1623756695.65625
4.4,1623756695.671875
3.66,1623756695.6875
3.3,1623756695.703125
3.26,1623756695.71875
3.28,1623756695.734375
3.08,1623756695.75
2.49,1623756695.765625
1.53,1623756695.78125
0.4,1623756695.796875
-0.7,1623756695.8125
-1.64,1623756695.828125
-2.46,1623756695.84375
-3.3,1623756695.859375
-4.31,1623756695.875
-5.53,1623756695.890625
-6.96,1623756695.90625
-8.56,1623756695.921875
-10.37,1623756695.9375
-12.48,1623756695.953125
-14.88,1623756695.96875
-17.39,1623756695.984375
-19.57,1623756696.0
-20.87,1623756696.015625
-20.84,1623756696.03125
-19.27,1623756696.046875
-16.29,1623756696.0625
-12.25,1623756696.078125
-7.6,1623756696.09375
-2.74,1623756696.109375
2.02,1623756696.125
6.36,1623756696.140625
9.97,1623756696.15625
12.53,1623756696.171875
13.83,1623756696.1875
13.87,1623756696.203125
12.92,1623756696.21875
11.39,1623756696.234375
9.7,1623756696.25
8.15,1623756696.265625
6.92,1623756696.28125
6.05,1623756696.296875
5.54,1623756696.3125
5.43,1623756696.328125
5.73,1623756696.34375
6.42,1623756696.359375
7.4,1623756696.375
8.46,1623756696.390625
9.34,1623756696.40625
9.8,1623756696.421875
9.73,1623756696.4375
9.14,1623756696.453125
8.2,1623756696.46875
7.07,1623756696.484375
5.86,1623756696.5
4.57,1623756696.515625
3.12,1623756696.53125
1.42,1623756696.546875
-0.57,1623756696.5625
-2.83,1623756696.578125
-5.32,1623756696.59375
-7.98,1623756696.609375
-10.76,1623756696.625
-13.47,1623756696.640625
-15.72,1623756696.65625
-17.02,1623756696.671875
-16.87,1623756696.6875
-14.97,1623756696.703125
-11.42,1623756696.71875
-6.63,1623756696.734375
-1.27,1623756696.75
4.01,1623756696.765625
8.67,1623756696.78125
12.37,1623756696.796875
14.85,1623756696.8125
16.05,1623756696.828125
16.02,1623756696.84375
15.03,1623756696.859375
13.56,1623756696.875
12.14,1623756696.890625
11.18,1623756696.90625
10.79,1623756696.921875
10.82,1623756696.9375
10.96,1623756696.953125
10.98,1623756696.96875
10.83,1623756696.984375
10.59,1623756697.0
10.42,1623756697.015625
10.36,1623756697.03125
10.36,1623756697.046875
10.25,1623756697.0625
9.9,1623756697.078125
9.24,1623756697.09375
8.25,1623756697.109375
6.95,1623756697.125
5.36,1623756697.140625
3.45,1623756697.15625
1.26,1623756697.171875
-1.13,1623756697.1875
-3.58,1623756697.203125
-5.97,1623756697.21875
-8.25,1623756697.234375
-10.48,1623756697.25
-12.74,1623756697.265625
-15.04,1623756697.28125
-17.25,1623756697.296875
-19.13,1623756697.3125
-20.35,1623756697.328125
-20.61,1623756697.34375
-19.75,1623756697.359375
-17.69,1623756697.375
-14.53,1623756697.390625
-10.46,1623756697.40625
-5.79,1623756697.421875
-0.94,1623756697.4375
3.63,1623756697.453125
7.45,1623756697.46875
10.19,1623756697.484375
11.75,1623756697.5
12.21,1623756697.515625
11.84,1623756697.53125
10.94,1623756697.546875
9.75,1623756697.5625
8.44,1623756697.578125
7.1,1623756697.59375
5.84,1623756697.609375
4.8,1623756697.625
4.17,1623756697.640625
4.05,1623756697.65625
4.4,1623756697.671875
4.97,1623756697.6875
5.42,1623756697.703125
5.45,1623756697.71875
4.95,1623756697.734375
4.07,1623756697.75
3.07,1623756697.765625
2.19,1623756697.78125
1.49,1623756697.796875
0.86,1623756697.8125
0.12,1623756697.828125
-0.87,1623756697.84375
-2.09,1623756697.859375
-3.43,1623756697.875
-4.8,1623756697.890625
-6.24,1623756697.90625
-7.87,1623756697.921875
-9.89,1623756697.9375
-12.29,1623756697.953125
-14.87,1623756697.96875
-17.19,1623756697.984375
-18.72,1623756698.0
-19.0,1623756698.015625
-17.8,1623756698.03125
-15.13,1623756698.046875
-11.28,1623756698.0625
-6.69,1623756698.078125
-1.88,1623756698.09375
2.66,1623756698.109375
6.56,1623756698.125
9.59,1623756698.140625
11.67,1623756698.15625
12.78,1623756698.171875
13.06,1623756698.1875
12.65,1623756698.203125
11.76,1623756698.21875
10.61,1623756698.234375
9.41,1623756698.25
8.33,1623756698.265625
7.49,1623756698.28125
6.97,1623756698.296875
6.77,1623756698.3125
6.87,1623756698.328125
7.19,1623756698.34375
7.57,1623756698.359375
7.84,1623756698.375
7.76,1623756698.390625
7.22,1623756698.40625
6.22,1623756698.421875
4.86,1623756698.4375
3.31,1623756698.453125
1.71,1623756698.46875
0.09,1623756698.484375
-1.56,1623756698.5
-3.27,1623756698.515625
-5.08,1623756698.53125
-6.96,1623756698.546875
-8.94,1623756698.5625
-11.05,1623756698.578125
-13.36,1623756698.59375
-15.87,1623756698.609375
-18.48,1623756698.625
-20.93,1623756698.640625
-22.81,1623756698.65625
-23.73,1623756698.671875
-23.35,1623756698.6875
-21.55,1623756698.703125
-18.46,1623756698.71875
-14.4,1623756698.734375
-9.87,1623756698.75
-5.33,1623756698.765625
-1.16,1623756698.78125
2.44,1623756698.796875
5.4,1623756698.8125
7.75,1623756698.828125
9.47,1623756698.84375
10.51,1623756698.859375
10.85,1623756698.875
10.53,1623756698.890625
9.71,1623756698.90625
8.72,1623756698.921875
7.85,1623756698.9375
7.34,1623756698.953125
7.24,1623756698.96875
7.47,1623756698.984375
7.84,1623756699.0
8.24,1623756699.015625
8.57,1623756699.03125
8.84,1623756699.046875
9.0,1623756699.0625
8.96,1623756699.078125
8.59,1623756699.09375
7.78,1623756699.109375
6.57,1623756699.125
5.11,1623756699.140625
3.65,1623756699.15625
2.39,1623756699.171875
1.37,1623756699.1875
0.48,1623756699.203125
-0.55,1623756699.21875
-1.97,1623756699.234375
-3.92,1623756699.25
-6.43,1623756699.265625
-9.32,1623756699.28125
-12.33,1623756699.296875
-15.07,1623756699.3125
-17.17,1623756699.328125
-18.24,1623756699.34375
-18.03,1623756699.359375
-16.47,1623756699.375
-13.68,1623756699.390625
-10.0,1623756699.40625
-5.84,1623756699.421875
-1.54,1623756699.4375
2.6,1623756699.453125
6.43,1623756699.46875
9.8,1623756699.484375
12.59,1623756699.5
14.64,1623756699.515625
15.87,1623756699.53125
16.32,1623756699.546875
16.13,1623756699.5625
15.56,1623756699.578125
14.92,1623756699.59375
14.42,1623756699.609375
14.17,1623756699.625
14.17,1623756699.640625
14.38,1623756699.65625
14.71,1623756699.671875
15.08,1623756699.6875
15.44,1623756699.703125
15.76,1623756699.71875
15.93,1623756699.734375
15.88,1623756699.75
15.51,1623756699.765625
14.73,1623756699.78125
13.52,1623756699.796875
11.91,1623756699.8125
10.0,1623756699.828125
7.93,1623756699.84375
5.88,1623756699.859375
3.94,1623756699.875
2.19,1623756699.890625
0.6,1623756699.90625
-0.96,1623756699.921875
-2.62,1623756699.9375
-4.61,1623756699.953125
-7.01,1623756699.96875
-9.79,1623756699.984375
-12.69,1623756700.0
-15.33,1623756700.015625
-17.28,1623756700.03125
-18.16,1623756700.046875
-17.78,1623756700.0625
-16.16,1623756700.078125
-13.5,1623756700.09375
-10.08,1623756700.109375
-6.18,1623756700.125
-2.08,1623756700.140625
1.96,1623756700.15625
5.62,1623756700.171875
8.61,1623756700.1875
10.71,1623756700.203125
11.86,1623756700.21875
12.15,1623756700.234375
11.82,1623756700.25
11.13,1623756700.265625
10.27,1623756700.28125
9.36,1623756700.296875
8.5,1623756700.3125
7.74,1623756700.328125
7.15,1623756700.34375
6.75,1623756700.359375
6.49,1623756700.375
6.28,1623756700.390625
6.03,1623756700.40625
5.69,1623756700.421875
5.3,1623756700.4375
4.87,1623756700.453125
4.38,1623756700.46875
3.78,1623756700.484375
2.96,1623756700.5
1.89,1623756700.515625
0.62,1623756700.53125
-0.75,1623756700.546875
-2.1,1623756700.5625
-3.41,1623756700.578125
-4.72,1623756700.59375
-6.1,1623756700.609375
-7.6,1623756700.625
-9.2,1623756700.640625
-10.87,1623756700.65625
-12.57,1623756700.671875
-14.28,1623756700.6875
-15.92,1623756700.703125
-17.34,1623756700.71875
-18.28,1623756700.734375
-18.43,1623756700.75
-17.54,1623756700.765625
-15.56,1623756700.78125
-12.6,1623756700.796875
-9.02,1623756700.8125
-5.18,1623756700.828125
-1.4,1623756700.84375
2.07,1623756700.859375
5.08,1623756700.875
7.52,1623756700.890625
9.22,1623756700.90625
10.03,1623756700.921875
9.89,1623756700.9375
8.94,1623756700.953125
7.52,1623756700.96875
6.13,1623756700.984375
5.17,1623756701.0
4.83,1623756701.015625
5.04,1623756701.03125
5.52,1623756701.046875
6.02,1623756701.0625
6.39,1623756701.078125
6.65,1623756701.09375
6.85,1623756701.109375
7.0,1623756701.125
6.98,1623756701.140625
6.59,1623756701.15625
5.67,1623756701.171875
4.19,1623756701.1875
2.29,1623756701.203125
0.23,1623756701.21875
-1.79,1623756701.234375
-3.68,1623756701.25
-5.51,1623756701.265625
-7.47,1623756701.28125
-9.79,1623756701.296875
-12.56,1623756701.3125
-15.72,1623756701.328125
-18.99,1623756701.34375
-21.92,1623756701.359375
-24.08,1623756701.375
-25.1,1623756701.390625
-24.8,1623756701.40625
-23.18,1623756701.421875
-20.44,1623756701.4375
-16.85,1623756701.453125
-12.73,1623756701.46875
-8.4,1623756701.484375
-4.16,1623756701.5
-0.27,1623756701.515625
3.05,1623756701.53125
5.64,1623756701.546875
7.39,1623756701.5625
8.28,1623756701.578125
8.43,1623756701.59375
8.07,1623756701.609375
7.47,1623756701.625
6.89,1623756701.640625
6.41,1623756701.65625
6.03,1623756701.671875
5.66,1623756701.6875
5.28,1623756701.703125
4.95,1623756701.71875
4.79,1623756701.734375
4.89,1623756701.75
5.18,1623756701.765625
5.49,1623756701.78125
5.55,1623756701.796875
5.19,1623756701.8125
4.39,1623756701.828125
3.26,1623756701.84375
1.97,1623756701.859375
0.65,1623756701.875
-0.67,1623756701.890625
-2.0,1623756701.90625
-3.32,1623756701.921875
-4.62,1623756701.9375
-5.88,1623756701.953125
-7.16,1623756701.96875
-8.6,1623756701.984375
-10.33,1623756702.0
-12.38,1623756702.015625
-14.52,1623756702.03125
-16.36,1623756702.046875
-17.39,1623756702.0625
-17.16,1623756702.078125
-15.46,1623756702.09375
-12.36,1623756702.109375
-8.17,1623756702.125
-3.35,1623756702.140625
1.6,1623756702.15625
6.23,1623756702.171875
10.18,1623756702.1875
13.23,1623756702.203125
15.29,1623756702.21875
16.38,1623756702.234375
16.65,1623756702.25
16.34,1623756702.265625
15.71,1623756702.28125
14.98,1623756702.296875
14.33,1623756702.3125
13.83,1623756702.328125
13.51,1623756702.34375
13.35,1623756702.359375
13.32,1623756702.375
13.39,1623756702.390625
13.5,1623756702.40625
13.57,1623756702.421875
13.47,1623756702.4375
13.11,1623756702.453125
12.43,1623756702.46875
11.45,1623756702.484375
10.25,1623756702.5
8.87,1623756702.515625
7.32,1623756702.53125
5.57,1623756702.546875
3.59,1623756702.5625
1.44,1623756702.578125
-0.73,1623756702.59375
-2.79,1623756702.609375
-4.63,1623756702.625
-6.27,1623756702.640625
-7.85,1623756702.65625
-9.56,1623756702.671875
-11.49,1623756702.6875
-13.57,1623756702.703125
-15.54,1623756702.71875
-17.0,1623756702.734375
-17.56,1623756702.75
-16.93,1623756702.765625
-15.09,1623756702.78125
-12.21,1623756702.796875
-8.64,1623756702.8125
-4.81,1623756702.828125
-1.06,1623756702.84375
2.35,1623756702.859375
5.26,1623756702.875
7.58,1623756702.890625
9.21,1623756702.90625
10.05,1623756702.921875
10.05,1623756702.9375
9.28,1623756702.953125
7.98,1623756702.96875
6.55,1623756702.984375
5.36,1623756703.0
4.69,1623756703.015625
4.56,1623756703.03125
4.82,1623756703.046875
5.18,1623756703.0625
5.4,1623756703.078125
5.37,1623756703.09375
5.15,1623756703.109375
4.85,1623756703.125
4.57,1623756703.140625
4.26,1623756703.15625
3.77,1623756703.171875
2.93,1623756703.1875
1.65,1623756703.203125
0.02,1623756703.21875
-1.77,1623756703.234375
-3.48,1623756703.25
-4.95,1623756703.265625
-6.19,1623756703.28125
-7.34,1623756703.296875
-8.66,1623756703.3125
-10.34,1623756703.328125
-12.42,1623756703.34375
-14.76,1623756703.359375
-16.98,1623756703.375
-18.66,1623756703.390625
-19.37,1623756703.40625
-18.89,1623756703.421875
-17.22,1623756703.4375
-14.57,1623756703.453125
-11.33,1623756703.46875
-7.88,1623756703.484375
-4.51,1623756703.5
-1.39,1623756703.515625
1.37,1623756703.53125
3.68,1623756703.546875
5.43,1623756703.5625
6.48,1623756703.578125
6.76,1623756703.59375
6.33,1623756703.609375
5.41,1623756703.625
4.36,1623756703.640625
3.56,1623756703.65625
3.23,1623756703.671875
3.42,1623756703.6875
4.0,1623756703.703125
4.74,1623756703.71875
5.44,1623756703.734375
6.02,1623756703.75
6.45,1623756703.765625
6.72,1623756703.78125
6.81,1623756703.796875
6.6,1623756703.8125
6.03,1623756703.828125
5.09,1623756703.84375
3.89,1623756703.859375
2.51,1623756703.875
1.0,1623756703.890625
-0.72,1623756703.90625
-2.77,1623756703.921875
-5.28,1623756703.9375
-8.2,1623756703.953125
-11.35,1623756703.96875
-14.44,1623756703.984375
-17.15,1623756704.0
-19.22,1623756704.015625
-20.42,1623756704.03125
-20.62,1623756704.046875
-19.67,1623756704.0625
-17.57,1623756704.078125
-14.46,1623756704.09375
-10.66,1623756704.109375
-6.62,1623756704.125
-2.79,1623756704.140625
0.56,1623756704.15625
3.29,1623756704.171875
5.43,1623756704.1875
7.0,1623756704.203125
8.0,1623756704.21875
8.37,1623756704.234375
8.09,1623756704.25
7.3,1623756704.265625
6.25,1623756704.28125
5.27,1623756704.296875
4.56,1623756704.3125
4.17,1623756704.328125
3.97,1623756704.34375
3.83,1623756704.359375
3.7,1623756704.375
3.64,1623756704.390625
3.74,1623756704.40625
3.99,1623756704.421875
4.21,1623756704.4375
4.09,1623756704.453125
3.42,1623756704.46875
2.13,1623756704.484375
0.43,1623756704.5
-1.37,1623756704.515625
-2.98,1623756704.53125
-4.34,1623756704.546875
-5.61,1623756704.5625
-7.07,1623756704.578125
-8.95,1623756704.59375
-11.26,1623756704.609375
-13.75,1623756704.625
-16.01,1623756704.640625
-17.58,1623756704.65625
-18.14,1623756704.671875
-17.5,1623756704.6875
-15.69,1623756704.703125
-12.86,1623756704.71875
-9.27,1623756704.734375
-5.25,1623756704.75
-1.21,1623756704.765625
2.44,1623756704.78125
5.33,1623756704.796875
7.21,1623756704.8125
8.03,1623756704.828125
7.86,1623756704.84375
6.93,1623756704.859375
5.51,1623756704.875
3.92,1623756704.890625
2.46,1623756704.90625
1.39,1623756704.921875
0.88,1623756704.9375
0.97,1623756704.953125
1.55,1623756704.96875
2.39,1623756704.984375
3.23,1623756705.0
3.87,1623756705.015625
4.18,1623756705.03125
4.17,1623756705.046875
3.89,1623756705.0625
3.37,1623756705.078125
2.62,1623756705.09375
1.6,1623756705.109375
0.29,1623756705.125
-1.31,1623756705.140625
-3.15,1623756705.15625
-5.18,1623756705.171875
-7.38,1623756705.1875
-9.74,1623756705.203125
-12.18,1623756705.21875
-14.56,1623756705.234375
-16.59,1623756705.25
-17.91,1623756705.265625
-18.2,1623756705.28125
-17.28,1623756705.296875
-15.1,1623756705.3125
-11.83,1623756705.328125
-7.74,1623756705.34375
-3.18,1623756705.359375
1.41,1623756705.375
5.59,1623756705.390625
8.94,1623756705.40625
11.15,1623756705.421875
12.14,1623756705.4375
12.0,1623756705.453125
11.05,1623756705.46875
9.67,1623756705.484375
8.22,1623756705.5
6.94,1623756705.515625
5.92,1623756705.53125
5.15,1623756705.546875
4.57,1623756705.5625
4.11,1623756705.578125
3.71,1623756705.59375
3.31,1623756705.609375
2.86,1623756705.625
2.32,1623756705.640625
1.65,1623756705.65625
0.82,1623756705.671875
-0.16,1623756705.6875
-1.33,1623756705.703125
-2.68,1623756705.71875
-4.22,1623756705.734375
-5.86,1623756705.75
-7.46,1623756705.765625
-8.89,1623756705.78125
-10.1,1623756705.796875
-11.3,1623756705.8125
-12.78,1623756705.828125
-14.82,1623756705.84375
-17.42,1623756705.859375
-20.21,1623756705.875
-22.5,1623756705.890625
-23.59,1623756705.90625
-23.04,1623756705.921875
-20.85,1623756705.9375
-17.39,1623756705.953125
-13.19,1623756705.96875
-8.75,1623756705.984375
-4.37,1623756706.0
-0.19,1623756706.015625
3.63,1623756706.03125
6.97,1623756706.046875
9.67,1623756706.0625
11.67,1623756706.078125
13.06,1623756706.09375
14.04,1623756706.109375
14.84,1623756706.125
15.63,1623756706.140625
16.39,1623756706.15625
17.03,1623756706.171875
17.43,1623756706.1875
17.51,1623756706.203125
17.32,1623756706.21875
17.02,1623756706.234375
16.73,1623756706.25
16.5,1623756706.265625
16.21,1623756706.28125
15.66,1623756706.296875
14.63,1623756706.3125
13.06,1623756706.328125
11.04,1623756706.34375
8.76,1623756706.359375
6.38,1623756706.375
3.96,1623756706.390625
1.41,1623756706.40625
-1.39,1623756706.421875
-4.53,1623756706.4375
-7.96,1623756706.453125
-11.52,1623756706.46875
-14.98,1623756706.484375
-18.06,1623756706.5
-20.44,1623756706.515625
-21.79,1623756706.53125
-21.8,1623756706.546875
-20.25,1623756706.5625
-17.16,1623756706.578125
-12.8,1623756706.59375
-7.59,1623756706.609375
-2.04,1623756706.625
3.44,1623756706.640625
8.5,1623756706.65625
12.89,1623756706.671875
16.37,1623756706.6875
18.77,1623756706.703125
19.98,1623756706.71875
20.1,1623756706.734375
19.46,1623756706.75
18.46,1623756706.765625
17.54,1623756706.78125
16.93,1623756706.796875
16.63,1623756706.8125
16.47,1623756706.828125
16.23,1623756706.84375
15.79,1623756706.859375
15.18,1623756706.875
14.54,1623756706.890625
13.94,1623756706.90625
13.37,1623756706.921875
12.59,1623756706.9375
11.36,1623756706.953125
9.57,1623756706.96875
7.28,1623756706.984375
4.79,1623756707.0
2.48,1623756707.015625
0.6,1623756707.03125
-0.8,1623756707.046875
-1.89,1623756707.0625
-2.91,1623756707.078125
-4.05,1623756707.09375
-5.34,1623756707.109375
-6.7,1623756707.125
-8.03,1623756707.140625
-9.36,1623756707.15625
-10.74,1623756707.171875
-12.26,1623756707.1875
-13.86,1623756707.203125
-15.29,1623756707.21875
-16.19,1623756707.234375
-16.19,1623756707.25
-15.05,1623756707.265625
-12.74,1623756707.28125
-9.41,1623756707.296875
-5.28,1623756707.3125
-0.64,1623756707.328125
4.19,1623756707.34375
8.89,1623756707.359375
13.06,1623756707.375
16.31,1623756707.390625
18.27,1623756707.40625
18.77,1623756707.421875
17.9,1623756707.4375
15.97,1623756707.453125
13.49,1623756707.46875
10.96,1623756707.484375
8.78,1623756707.5
7.19,1623756707.515625
6.24,1623756707.53125
5.88,1623756707.546875
5.97,1623756707.5625
6.36,1623756707.578125
6.85,1623756707.59375
7.28,1623756707.609375
7.49,1623756707.625
7.37,1623756707.640625
6.92,1623756707.65625
6.15,1623756707.671875
5.16,1623756707.6875
4.06,1623756707.703125
2.93,1623756707.71875
1.85,1623756707.734375
0.84,1623756707.75
-0.07,1623756707.765625
-0.91,1623756707.78125
-1.71,1623756707.796875
-2.56,1623756707.8125
-3.56,1623756707.828125
-4.81,1623756707.84375
-6.4,1623756707.859375
-8.3,1623756707.875
-10.42,1623756707.890625
-12.59,1623756707.90625
-14.6,1623756707.921875
-16.27,1623756707.9375
-17.43,1623756707.953125
-17.94,1623756707.96875
-17.67,1623756707.984375
-16.44,1623756708.0
-14.17,1623756708.015625
-10.81,1623756708.03125
-6.53,1623756708.046875
-1.72,1623756708.0625
3.11,1623756708.078125
7.43,1623756708.09375
10.87,1623756708.109375
13.25,1623756708.125
14.63,1623756708.140625
15.18,1623756708.15625
15.08,1623756708.171875
14.53,1623756708.1875
13.68,1623756708.203125
12.77,1623756708.21875
12.01,1623756708.234375
11.6,1623756708.25
11.61,1623756708.265625
12.0,1623756708.28125
12.58,1623756708.296875
13.13,1623756708.3125
13.56,1623756708.328125
13.83,1623756708.34375
14.01,1623756708.359375
14.15,1623756708.375
14.25,1623756708.390625
14.2,1623756708.40625
13.85,1623756708.421875
13.07,1623756708.4375
11.78,1623756708.453125
10.02,1623756708.46875
7.94,1623756708.484375
5.81,1623756708.5
3.86,1623756708.515625
2.25,1623756708.53125
0.93,1623756708.546875
-0.28,1623756708.5625
-1.67,1623756708.578125
-3.47,1623756708.59375
-5.81,1623756708.609375
-8.64,1623756708.625
-11.74,1623756708.640625
-14.85,1623756708.65625
-17.61,1623756708.671875
-19.73,1623756708.6875
-20.92,1623756708.703125
-20.99,1623756708.71875
-19.78,1623756708.734375
-17.21,1623756708.75
-13.31,1623756708.765625
-8.34,1623756708.78125
-2.79,1623756708.796875
2.64,1623756708.8125
7.21,1623756708.828125
10.29,1623756708.84375
11.59,1623756708.859375
11.2,1623756708.875
9.48,1623756708.890625
6.85,1623756708.90625
3.59,1623756708.921875
-0.18,1623756708.9375
-4.35,1623756708.953125
-8.62,1623756708.96875
-12.43,1623756708.984375
-15.12,1623756709.0
-16.19,1623756709.015625
-15.49,1623756709.03125
-13.3,1623756709.046875
-10.23,1623756709.0625
-6.98,1623756709.078125
-4.09,1623756709.09375
-1.78,1623756709.109375
0.0,1623756709.125
1.55,1623756709.140625
3.29,1623756709.15625
5.82,1623756709.171875
9.58,1623756709.1875
14.64,1623756709.203125
20.42,1623756709.21875
25.9,1623756709.234375
29.95,1623756709.25
31.63,1623756709.265625
30.48,1623756709.28125
26.7,1623756709.296875
21.23,1623756709.3125
15.3,1623756709.328125
9.87,1623756709.34375
5.0,1623756709.359375
0.5,1623756709.375
-4.03,1623756709.390625
-9.04,1623756709.40625
-14.97,1623756709.421875
-21.95,1623756709.4375
-29.26,1623756709.453125
-35.62,1623756709.46875
-39.6,1623756709.484375
-40.71,1623756709.5
-38.86,1623756709.515625
-34.66,1623756709.53125
-29.31,1623756709.546875
-24.31,1623756709.5625
-20.62,1623756709.578125
-17.84,1623756709.59375
-14.57,1623756709.609375
-9.36,1623756709.625
-2.12,1623756709.640625
6.9,1623756709.65625
17.06,1623756709.671875
27.54,1623756709.6875
37.25,1623756709.703125
42.69,1623756709.71875
40.72,1623756709.734375
30.69,1623756709.75
18.65,1623756709.765625
7.74,1623756709.78125
-0.3,1623756709.796875
-5.27,1623756709.8125
-6.67,1623756709.828125
-4.77,1623756709.84375
-0.71,1623756709.859375
4.37,1623756709.875
9.54,1623756709.890625
14.19,1623756709.90625
17.42,1623756709.921875
19.22,1623756709.9375
20.03,1623756709.953125
20.35,1623756709.96875
20.19,1623756709.984375
19.27,1623756710.0
17.52,1623756710.015625
15.05,1623756710.03125
12.06,1623756710.046875
8.27,1623756710.0625
3.77,1623756710.078125
-1.15,1623756710.09375
-6.17,1623756710.109375
-11.15,1623756710.125
-16.0,1623756710.140625
-20.17,1623756710.15625
-22.96,1623756710.171875
-23.81,1623756710.1875
-22.88,1623756710.203125
-20.51,1623756710.21875
-17.11,1623756710.234375
-13.04,1623756710.25
-8.51,1623756710.265625
-3.42,1623756710.28125
2.64,1623756710.296875
10.02,1623756710.3125
18.79,1623756710.328125
28.48,1623756710.34375
38.49,1623756710.359375
48.27,1623756710.375
57.4,1623756710.390625
65.55,1623756710.40625
72.42,1623756710.421875
77.8,1623756710.4375
81.51,1623756710.453125
83.55,1623756710.46875
84.05,1623756710.484375
83.41,1623756710.5
82.04,1623756710.515625
80.29,1623756710.53125
78.12,1623756710.546875
75.16,1623756710.5625
70.78,1623756710.578125
64.45,1623756710.59375
55.93,1623756710.609375
45.48,1623756710.625
33.8,1623756710.640625
21.82,1623756710.65625
10.39,1623756710.671875
0.0,1623756710.6875
-9.24,1623756710.703125
-17.45,1623756710.71875
-24.78,1623756710.734375
-31.16,1623756710.75
-36.45,1623756710.765625
-40.67,1623756710.78125
-44.19,1623756710.796875
-47.74,1623756710.8125
-52.09,1623756710.828125
-57.48,1623756710.84375
-63.44,1623756710.859375
-68.87,1623756710.875
-72.52,1623756710.890625
-73.69,1623756710.90625
-72.51,1623756710.921875
-69.84,1623756710.9375
-66.7,1623756710.953125
-63.86,1623756710.96875
-61.51,1623756710.984375
-59.38,1623756711.0
-57.13,1623756711.015625
-54.67,1623756711.03125
-52.14,1623756711.046875
-49.8,1623756711.0625
-47.78,1623756711.078125
-45.82,1623756711.09375
-43.46,1623756711.109375
-40.28,1623756711.125
-36.1,1623756711.140625
-31.21,1623756711.15625
-26.32,1623756711.171875
-22.26,1623756711.1875
-19.72,1623756711.203125
-18.94,1623756711.21875
-19.61,1623756711.234375
-21.03,1623756711.25
-22.33,1623756711.265625
-22.85,1623756711.28125
-22.31,1623756711.296875
-20.85,1623756711.3125
-18.83,1623756711.328125
-16.62,1623756711.34375
-14.41,1623756711.359375
-12.19,1623756711.375
-9.81,1623756711.390625
-7.16,1623756711.40625
-4.24,1623756711.421875
-1.17,1623756711.4375
1.94,1623756711.453125
4.98,1623756711.46875
7.92,1623756711.484375
10.68,1623756711.5
13.09,1623756711.515625
14.79,1623756711.53125
15.4,1623756711.546875
14.66,1623756711.5625
12.66,1623756711.578125
9.88,1623756711.59375
7.05,1623756711.609375
4.88,1623756711.625
3.79,1623756711.640625
3.77,1623756711.65625
4.45,1623756711.671875
5.29,1623756711.6875
5.79,1623756711.703125
5.57,1623756711.71875
4.44,1623756711.734375
2.25,1623756711.75
-0.94,1623756711.765625
-4.92,1623756711.78125
-9.22,1623756711.796875
-13.17,1623756711.8125
-16.11,1623756711.828125
-17.6,1623756711.84375
-17.55,1623756711.859375
-16.22,1623756711.875
-13.99,1623756711.890625
-11.11,1623756711.90625
-7.64,1623756711.921875
-3.58,1623756711.9375
0.93,1623756711.953125
5.44,1623756711.96875
9.26,1623756711.984375
11.7,1623756712.0
12.45,1623756712.015625
11.72,1623756712.03125
10.21,1623756712.046875
8.85,1623756712.0625
8.37,1623756712.078125
9.07,1623756712.09375
10.64,1623756712.109375
12.33,1623756712.125
13.24,1623756712.140625
12.65,1623756712.15625
10.28,1623756712.171875
6.44,1623756712.1875
1.92,1623756712.203125
-2.31,1623756712.21875
-5.42,1623756712.234375
-6.97,1623756712.25
-7.01,1623756712.265625
-5.95,1623756712.28125
-4.38,1623756712.296875
-2.88,1623756712.3125
-1.93,1623756712.328125
-1.92,1623756712.34375
-3.07,1623756712.359375
-5.48,1623756712.375
-8.91,1623756712.390625
-12.85,1623756712.40625
-16.5,1623756712.421875
-19.0,1623756712.4375
-19.69,1623756712.453125
-18.27,1623756712.46875
-14.95,1623756712.484375
-10.28,1623756712.5
-5.03,1623756712.515625
0.05,1623756712.53125
4.38,1623756712.546875
7.63,1623756712.5625
9.67,1623756712.578125
10.62,1623756712.59375
10.67,1623756712.609375
10.11,1623756712.625
9.2,1623756712.640625
8.16,1623756712.65625
7.16,1623756712.671875
6.32,1623756712.6875
5.69,1623756712.703125
5.34,1623756712.71875
5.25,1623756712.734375
5.4,1623756712.75
5.69,1623756712.765625
5.95,1623756712.78125
6.01,1623756712.796875
5.73,1623756712.8125
5.07,1623756712.828125
4.07,1623756712.84375
2.87,1623756712.859375
1.6,1623756712.875
0.33,1623756712.890625
-1.0,1623756712.90625
-2.62,1623756712.921875
-4.77,1623756712.9375
-7.63,1623756712.953125
-11.1,1623756712.96875
-14.76,1623756712.984375
-17.94,1623756713.0
-19.91,1623756713.015625
-20.17,1623756713.03125
-18.59,1623756713.046875
-15.51,1623756713.0625
-11.52,1623756713.078125
-7.24,1623756713.09375
-3.15,1623756713.109375
0.53,1623756713.125
3.76,1623756713.140625
6.54,1623756713.15625
8.82,1623756713.171875
10.49,1623756713.1875
11.46,1623756713.203125
11.72,1623756713.21875
11.35,1623756713.234375
10.49,1623756713.25
9.3,1623756713.265625
7.91,1623756713.28125
6.44,1623756713.296875
5.03,1623756713.3125
3.85,1623756713.328125
3.04,1623756713.34375
2.7,1623756713.359375
2.85,1623756713.375
3.42,1623756713.390625
4.25,1623756713.40625
5.09,1623756713.421875
5.7,1623756713.4375
5.83,1623756713.453125
5.36,1623756713.46875
4.32,1623756713.484375
2.82,1623756713.5
1.01,1623756713.515625
-1.01,1623756713.53125
-3.19,1623756713.546875
-5.51,1623756713.5625
-7.87,1623756713.578125
-10.09,1623756713.59375
-11.93,1623756713.609375
-13.15,1623756713.625
-13.55,1623756713.640625
-13.04,1623756713.65625
-11.55,1623756713.671875
-9.03,1623756713.6875
-5.56,1623756713.703125
-1.32,1623756713.71875
3.34,1623756713.734375
7.95,1623756713.75
12.03,1623756713.765625
15.24,1623756713.78125
17.44,1623756713.796875
18.64,1623756713.8125
19.0,1623756713.828125
18.7,1623756713.84375
17.94,1623756713.859375
17.0,1623756713.875
16.12,1623756713.890625
15.54,1623756713.90625
15.35,1623756713.921875
15.45,1623756713.9375
15.59,1623756713.953125
15.47,1623756713.96875
14.88,1623756713.984375
13.76,1623756714.0
12.21,1623756714.015625
10.44,1623756714.03125
8.59,1623756714.046875
6.71,1623756714.0625
4.81,1623756714.078125
2.86,1623756714.09375
0.91,1623756714.109375
-0.99,1623756714.125
-2.81,1623756714.140625
-4.69,1623756714.15625
-6.8,1623756714.171875
-9.32,1623756714.1875
-12.18,1623756714.203125
-15.07,1623756714.21875
-17.49,1623756714.234375
-18.87,1623756714.25
-18.9,1623756714.265625
-17.52,1623756714.28125
-14.96,1623756714.296875
-11.61,1623756714.3125
-7.81,1623756714.328125
-3.86,1623756714.34375
0.02,1623756714.359375
3.59,1623756714.375
6.61,1623756714.390625
8.93,1623756714.40625
10.5,1623756714.421875
11.41,1623756714.4375
11.82,1623756714.453125
11.9,1623756714.46875
11.71,1623756714.484375
11.26,1623756714.5
10.55,1623756714.515625
9.6,1623756714.53125
8.48,1623756714.546875
7.27,1623756714.5625
6.09,1623756714.578125
5.04,1623756714.59375
4.3,1623756714.609375
3.96,1623756714.625
4.12,1623756714.640625
4.66,1623756714.65625
5.3,1623756714.671875
5.58,1623756714.6875
5.08,1623756714.703125
3.56,1623756714.71875
1.09,1623756714.734375
-1.9,1623756714.75
-4.86,1623756714.765625
-7.3,1623756714.78125
-8.96,1623756714.796875
-9.92,1623756714.8125
-10.54,1623756714.828125
-11.22,1623756714.84375
-12.23,1623756714.859375
-13.59,1623756714.875
-15.05,1623756714.890625
-16.23,1623756714.90625
-16.73,1623756714.921875
-16.32,1623756714.9375
-14.98,1623756714.953125
-12.84,1623756714.96875
-10.1,1623756714.984375
-6.98,1623756715.0
-3.64,1623756715.015625
-0.25,1623756715.03125
3.02,1623756715.046875
5.91,1623756715.0625
8.18,1623756715.078125
9.62,1623756715.09375
10.2,1623756715.109375
10.06,1623756715.125
9.5,1623756715.140625
8.85,1623756715.15625
8.42,1623756715.171875
8.35,1623756715.1875
8.63,1623756715.203125
9.14,1623756715.21875
9.78,1623756715.234375
10.48,1623756715.25
11.23,1623756715.265625
12.03,1623756715.28125
12.81,1623756715.296875
13.52,1623756715.3125
14.03,1623756715.328125
14.3,1623756715.34375
14.27,1623756715.359375
13.91,1623756715.375
13.14,1623756715.390625
11.9,1623756715.40625
10.18,1623756715.421875
8.11,1623756715.4375
5.94,1623756715.453125
3.99,1623756715.46875
2.47,1623756715.484375
1.4,1623756715.5
0.53,1623756715.515625
-0.52,1623756715.53125
-2.1,1623756715.546875
-4.33,1623756715.5625
-7.0,1623756715.578125
-9.69,1623756715.59375
-11.86,1623756715.609375
-13.09,1623756715.625
-13.12,1623756715.640625
-11.94,1623756715.65625
-9.74,1623756715.671875
-6.87,1623756715.6875
-3.72,1623756715.703125
-0.71,1623756715.71875
1.84,1623756715.734375
3.75,1623756715.75
4.94,1623756715.765625
5.44,1623756715.78125
5.32,1623756715.796875
4.65,1623756715.8125
3.53,1623756715.828125
2.11,1623756715.84375
0.63,1623756715.859375
-0.68,1623756715.875
-1.66,1623756715.890625
-2.32,1623756715.90625
-2.8,1623756715.921875
-3.33,1623756715.9375
-3.99,1623756715.953125
-4.7,1623756715.96875
-5.25,1623756715.984375
-5.42,1623756716.0
-5.2,1623756716.015625
-4.76,1623756716.03125
-4.43,1623756716.046875
-4.53,1623756716.0625
-5.21,1623756716.078125
-6.46,1623756716.09375
-8.18,1623756716.109375
-10.28,1623756716.125
-12.67,1623756716.140625
-15.26,1623756716.15625
-17.81,1623756716.171875
-20.02,1623756716.1875
-21.58,1623756716.203125
-22.37,1623756716.21875
-22.56,1623756716.234375
-22.51,1623756716.25
-22.61,1623756716.265625
-23.03,1623756716.28125
-23.62,1623756716.296875
-24.04,1623756716.3125
-23.92,1623756716.328125
-23.02,1623756716.34375
-21.32,1623756716.359375
-18.88,1623756716.375
-15.72,1623756716.390625
-11.83,1623756716.40625
-7.2,1623756716.421875
-2.03,1623756716.4375
3.26,1623756716.453125
8.08,1623756716.46875
11.9,1623756716.484375
14.44,1623756716.5
15.8,1623756716.515625
16.35,1623756716.53125
16.51,1623756716.546875
16.58,1623756716.5625
16.64,1623756716.578125
16.58,1623756716.59375
16.23,1623756716.609375
15.51,1623756716.625
14.5,1623756716.640625
13.36,1623756716.65625
12.32,1623756716.671875
11.56,1623756716.6875
11.15,1623756716.703125
11.09,1623756716.71875
11.24,1623756716.734375
11.47,1623756716.75
11.61,1623756716.765625
11.54,1623756716.78125
11.2,1623756716.796875
10.59,1623756716.8125
9.69,1623756716.828125
8.45,1623756716.84375
6.77,1623756716.859375
4.53,1623756716.875
1.72,1623756716.890625
-1.47,1623756716.90625
-4.66,1623756716.921875
-7.37,1623756716.9375
-9.21,1623756716.953125
-10.02,1623756716.96875
-9.94,1623756716.984375
-9.28,1623756717.0
-8.41,1623756717.015625
-7.56,1623756717.03125
-6.79,1623756717.046875
-6.03,1623756717.0625
-5.21,1623756717.078125
-4.3,1623756717.09375
-3.38,1623756717.109375
-2.57,1623756717.125
-2.0,1623756717.140625
-1.75,1623756717.15625
-1.83,1623756717.171875
-2.2,1623756717.1875
-2.72,1623756717.203125
-3.2,1623756717.21875
-3.4,1623756717.234375
-3.13,1623756717.25
-2.32,1623756717.265625
-1.01,1623756717.28125
0.6,1623756717.296875
2.34,1623756717.3125
4.03,1623756717.328125
5.56,1623756717.34375
6.93,1623756717.359375
8.12,1623756717.375
9.21,1623756717.390625
10.14,1623756717.40625
10.83,1623756717.421875
11.11,1623756717.4375
10.77,1623756717.453125
9.66,1623756717.46875
7.76,1623756717.484375
5.32,1623756717.5
2.77,1623756717.515625
0.75,1623756717.53125
-0.17,1623756717.546875
0.35,1623756717.5625
2.25,1623756717.578125
5.07,1623756717.59375
8.05,1623756717.609375
10.3,1623756717.625
11.12,1623756717.640625
10.16,1623756717.65625
7.62,1623756717.671875
4.18,1623756717.6875
0.77,1623756717.703125
-1.68,1623756717.71875
-2.56,1623756717.734375
-1.68,1623756717.75
0.76,1623756717.765625
4.37,1623756717.78125
8.68,1623756717.796875
13.29,1623756717.8125
17.76,1623756717.828125
21.62,1623756717.84375
24.46,1623756717.859375
25.94,1623756717.875
26.02,1623756717.890625
24.95,1623756717.90625
23.18,1623756717.921875
21.22,1623756717.9375
19.42,1623756717.953125
17.89,1623756717.96875
16.47,1623756717.984375
14.88,1623756718.0
12.9,1623756718.015625
10.52,1623756718.03125
7.94,1623756718.046875
5.48,1623756718.0625
3.4,1623756718.078125
1.83,1623756718.09375
0.66,1623756718.109375
-0.32,1623756718.125
-1.33,1623756718.140625
-2.49,1623756718.15625
-3.78,1623756718.171875
-5.14,1623756718.1875
-6.54,1623756718.203125
-7.98,1623756718.21875
-9.44,1623756718.234375
-10.85,1623756718.25
-12.04,1623756718.265625
-12.88,1623756718.28125
-13.44,1623756718.296875
-13.97,1623756718.3125
-14.8,1623756718.328125
-16.11,1623756718.34375
-17.8,1623756718.359375
-19.43,1623756718.375
-20.43,1623756718.390625
-20.41,1623756718.40625
-19.25,1623756718.421875
-17.2,1623756718.4375
-14.64,1623756718.453125
-11.96,1623756718.46875
-9.43,1623756718.484375
-7.25,1623756718.5
-5.64,1623756718.515625
-4.85,1623756718.53125
-4.99,1623756718.546875
-5.91,1623756718.5625
-7.14,1623756718.578125
-8.04,1623756718.59375
-8.14,1623756718.609375
-7.36,1623756718.625
-6.09,1623756718.640625
-4.92,1623756718.65625
-4.32,1623756718.671875
-4.34,1623756718.6875
-4.66,1623756718.703125
-4.8,1623756718.71875
-4.42,1623756718.734375
-3.53,1623756718.75
-2.43,1623756718.765625
-1.51,1623756718.78125
-1.11,1623756718.796875
-1.38,1623756718.8125
-2.29,1623756718.828125
-3.72,1623756718.84375
-5.47,1623756718.859375
-7.32,1623756718.875
-9.01,1623756718.890625
-10.36,1623756718.90625
-11.26,1623756718.921875
-11.85,1623756718.9375
-12.34,1623756718.953125
-13.02,1623756718.96875
-14.11,1623756718.984375
-15.64,1623756719.0
-17.45,1623756719.015625
-19.23,1623756719.03125
-20.63,1623756719.046875
-21.32,1623756719.0625
-21.06,1623756719.078125
-19.73,1623756719.09375
-17.36,1623756719.109375
-14.11,1623756719.125
-10.24,1623756719.140625
-6.11,1623756719.15625
-2.05,1623756719.171875
1.63,1623756719.1875
4.69,1623756719.203125
7.02,1623756719.21875
8.59,1623756719.234375
9.49,1623756719.25
9.89,1623756719.265625
9.97,1623756719.28125
9.89,1623756719.296875
9.71,1623756719.3125
9.4,1623756719.328125
8.91,1623756719.34375
8.22,1623756719.359375
7.38,1623756719.375
6.55,1623756719.390625
5.89,1623756719.40625
5.57,1623756719.421875
5.64,1623756719.4375
6.08,1623756719.453125
6.74,1623756719.46875
7.39,1623756719.484375
7.73,1623756719.5
7.49,1623756719.515625
6.52,1623756719.53125
4.85,1623756719.546875
2.69,1623756719.5625
0.36,1623756719.578125
-1.83,1623756719.59375
-3.72,1623756719.609375
-5.31,1623756719.625
-6.78,1623756719.640625
-8.34,1623756719.65625
-10.14,1623756719.671875
-12.18,1623756719.6875
-14.35,1623756719.703125
-16.45,1623756719.71875
-18.25,1623756719.734375
-19.49,1623756719.75
-19.88,1623756719.765625
-19.15,1623756719.78125
-17.1,1623756719.796875
-13.72,1623756719.8125
-9.23,1623756719.828125
-4.07,1623756719.84375
1.2,1623756719.859375
6.06,1623756719.875
10.12,1623756719.890625
13.2,1623756719.90625
15.3,1623756719.921875
16.53,1623756719.9375
17.02,1623756719.953125
16.91,1623756719.96875
16.38,1623756719.984375
15.6,1623756720.0
14.79,1623756720.015625
14.14,1623756720.03125
13.77,1623756720.046875
13.69,1623756720.0625
13.82,1623756720.078125
14.02,1623756720.09375
14.17,1623756720.109375
14.21,1623756720.125
14.12,1623756720.140625
13.92,1623756720.15625
13.55,1623756720.171875
12.93,1623756720.1875
11.95,1623756720.203125
10.56,1623756720.21875
8.83,1623756720.234375
6.92,1623756720.25
4.99,1623756720.265625
3.15,1623756720.28125
1.45,1623756720.296875
-0.13,1623756720.3125
-1.66,1623756720.328125
-3.19,1623756720.34375
-4.8,1623756720.359375
-6.62,1623756720.375
-8.76,1623756720.390625
-11.24,1623756720.40625
-13.85,1623756720.421875
-16.14,1623756720.4375
-17.53,1623756720.453125
-17.53,1623756720.46875
-15.92,1623756720.484375
-12.89,1623756720.5
-8.96,1623756720.515625
-4.74,1623756720.53125
-0.72,1623756720.546875
2.82,1623756720.5625
5.81,1623756720.578125
8.24,1623756720.59375
10.04,1623756720.609375
11.09,1623756720.625
11.27,1623756720.640625
10.61,1623756720.65625
9.35,1623756720.671875
7.89,1623756720.6875
6.65,1623756720.703125
5.94,1623756720.71875
5.83,1623756720.734375
6.22,1623756720.75
6.83,1623756720.765625
7.42,1623756720.78125
7.8,1623756720.796875
7.91,1623756720.8125
7.75,1623756720.828125
7.33,1623756720.84375
6.62,1623756720.859375
5.59,1623756720.875
4.25,1623756720.890625
2.67,1623756720.90625
1.01,1623756720.921875
-0.62,1623756720.9375
-2.14,1623756720.953125
-3.62,1623756720.96875
-5.2,1623756720.984375
-7.03,1623756721.0
-9.18,1623756721.015625
-11.6,1623756721.03125
-14.14,1623756721.046875
-16.68,1623756721.0625
-19.06,1623756721.078125
-21.14,1623756721.09375
-22.65,1623756721.109375
-23.29,1623756721.125
-22.74,1623756721.140625
-20.86,1623756721.15625
-17.78,1623756721.171875
-13.9,1623756721.1875
-9.76,1623756721.203125
-5.85,1623756721.21875
-2.54,1623756721.234375
0.1,1623756721.25
2.14,1623756721.265625
3.74,1623756721.28125
5.02,1623756721.296875
6.03,1623756721.3125
6.74,1623756721.328125
7.1,1623756721.34375
7.11,1623756721.359375
6.89,1623756721.375
6.59,1623756721.390625
6.41,1623756721.40625
6.49,1623756721.421875
6.84,1623756721.4375
7.41,1623756721.453125
8.06,1623756721.46875
8.66,1623756721.484375
9.13,1623756721.5
9.38,1623756721.515625
9.39,1623756721.53125
9.07,1623756721.546875
8.38,1623756721.5625
7.23,1623756721.578125
5.65,1623756721.59375
3.75,1623756721.609375
1.69,1623756721.625
-0.34,1623756721.640625
-2.22,1623756721.65625
-3.98,1623756721.671875
-5.79,1623756721.6875
-7.84,1623756721.703125
-10.29,1623756721.71875
-13.15,1623756721.734375
-16.19,1623756721.75
-18.99,1623756721.765625
-21.04,1623756721.78125
-21.86,1623756721.796875
-21.19,1623756721.8125
-19.05,1623756721.828125
-15.71,1623756721.84375
-11.58,1623756721.859375
-7.12,1623756721.875
-2.64,1623756721.890625
1.61,1623756721.90625
5.48,1623756721.921875
8.84,1623756721.9375
11.58,1623756721.953125
13.59,1623756721.96875
14.76,1623756721.984375
15.08,1623756722.0
14.62,1623756722.015625
13.56,1623756722.03125
12.18,1623756722.046875
10.78,1623756722.0625
9.66,1623756722.078125
9.01,1623756722.09375
8.81,1623756722.109375
8.91,1623756722.125
9.04,1623756722.140625
8.99,1623756722.15625
8.67,1623756722.171875
8.15,1623756722.1875
7.53,1623756722.203125
6.84,1623756722.21875
5.96,1623756722.234375
4.71,1623756722.25
2.98,1623756722.265625
0.83,1623756722.28125
-1.42,1623756722.296875
-3.46,1623756722.3125
-5.12,1623756722.328125
-6.48,1623756722.34375
-7.91,1623756722.359375
-9.85,1623756722.375
-12.56,1623756722.390625
-15.97,1623756722.40625
-19.68,1623756722.421875
-23.08,1623756722.4375
-25.6,1623756722.453125
-26.84,1623756722.46875
-26.57,1623756722.484375
-24.77,1623756722.5
-21.51,1623756722.515625
-16.99,1623756722.53125
-11.57,1623756722.546875
-5.74,1623756722.5625
-0.08,1623756722.578125
4.94,1623756722.59375
9.01,1623756722.609375
12.1,1623756722.625
14.27,1623756722.640625
15.63,1623756722.65625
16.21,1623756722.671875
16.05,1623756722.6875
15.26,1623756722.703125
14.13,1623756722.71875
13.01,1623756722.734375
12.2,1623756722.75
11.78,1623756722.765625
11.59,1623756722.78125
11.38,1623756722.796875
10.96,1623756722.8125
10.36,1623756722.828125
9.82,1623756722.84375
9.58,1623756722.859375
9.68,1623756722.875
9.92,1623756722.890625
9.9,1623756722.90625
9.23,1623756722.921875
7.71,1623756722.9375
5.44,1623756722.953125
2.74,1623756722.96875
-0.05,1623756722.984375
-2.68,1623756723.0
-5.11,1623756723.015625
-7.45,1623756723.03125
-9.88,1623756723.046875
-12.51,1623756723.0625
-15.41,1623756723.078125
-18.5,1623756723.09375
-21.62,1623756723.109375
-24.52,1623756723.125
-26.81,1623756723.140625
-28.02,1623756723.15625
-27.72,1623756723.171875
-25.72,1623756723.1875
-22.11,1623756723.203125
-17.35,1623756723.21875
-12.01,1623756723.234375
-6.57,1623756723.25
-1.31,1623756723.265625
3.72,1623756723.28125
8.48,1623756723.296875
12.77,1623756723.3125
16.19,1623756723.328125
18.33,1623756723.34375
19.0,1623756723.359375
18.42,1623756723.375
17.18,1623756723.390625
15.96,1623756723.40625
15.27,1623756723.421875
15.25,1623756723.4375
15.66,1623756723.453125
16.13,1623756723.46875
16.31,1623756723.484375
16.12,1623756723.5
15.65,1623756723.515625
15.12,1623756723.53125
14.72,1623756723.546875
14.52,1623756723.5625
14.47,1623756723.578125
14.36,1623756723.59375
13.99,1623756723.609375
13.15,1623756723.625
11.75,1623756723.640625
9.82,1623756723.65625
7.45,1623756723.671875
4.84,1623756723.6875
2.16,1623756723.703125
-0.46,1623756723.71875
-2.99,1623756723.734375
-5.48,1623756723.75
-8.06,1623756723.765625
-10.82,1623756723.78125
-13.86,1623756723.796875
-17.13,1623756723.8125
-20.47,1623756723.828125
-23.52,1623756723.84375
-25.84,1623756723.859375
-26.97,1623756723.875
-26.59,1623756723.890625
-24.6,1623756723.90625
-21.13,1623756723.921875
-16.47,1623756723.9375
-11.03,1623756723.953125
-5.21,1623756723.96875
0.64,1623756723.984375
6.18,1623756724.0
11.09,1623756724.015625
15.11,1623756724.03125
18.05,1623756724.046875
19.79,1623756724.0625
20.39,1623756724.078125
20.03,1623756724.09375
19.04,1623756724.109375
17.82,1623756724.125
16.72,1623756724.140625
16.0,1623756724.15625
15.7,1623756724.171875
15.68,1623756724.1875
15.72,1623756724.203125
15.59,1623756724.21875
15.19,1623756724.234375
14.57,1623756724.25
13.89,1623756724.265625
13.28,1623756724.28125
12.8,1623756724.296875
12.35,1623756724.3125
11.72,1623756724.328125
10.68,1623756724.34375
9.09,1623756724.359375
6.98,1623756724.375
4.51,1623756724.390625
1.87,1623756724.40625
-0.72,1623756724.421875
-3.17,1623756724.4375
-5.52,1623756724.453125
-7.9,1623756724.46875
-10.45,1623756724.484375
-13.21,1623756724.5
-16.15,1623756724.515625
-19.14,1623756724.53125
-22.08,1623756724.546875
-24.87,1623756724.5625
-27.38,1623756724.578125
-29.41,1623756724.59375
-30.55,1623756724.609375
-30.34,1623756724.625
-28.31,1623756724.640625
-24.3,1623756724.65625
-18.51,1623756724.671875
-11.56,1623756724.6875
-4.25,1623756724.703125
2.69,1623756724.71875
8.75,1623756724.734375
13.75,1623756724.75
17.67,1623756724.765625
20.55,1623756724.78125
22.36,1623756724.796875
23.08,1623756724.8125
22.83,1623756724.828125
21.91,1623756724.84375
20.77,1623756724.859375
19.8,1623756724.875
19.2,1623756724.890625
18.9,1623756724.90625
18.72,1623756724.921875
18.44,1623756724.9375
17.99,1623756724.953125
17.44,1623756724.96875
16.9,1623756724.984375
16.4,1623756725.0
15.86,1623756725.015625
15.14,1623756725.03125
14.13,1623756725.046875
12.77,1623756725.0625
11.12,1623756725.078125
9.22,1623756725.09375
7.09,1623756725.109375
4.77,1623756725.125
2.29,1623756725.140625
-0.25,1623756725.15625
-2.7,1623756725.171875
-4.98,1623756725.1875
-7.12,1623756725.203125
-9.26,1623756725.21875
-11.58,1623756725.234375
-14.25,1623756725.25
-17.29,1623756725.265625
-20.55,1623756725.28125
-23.72,1623756725.296875
-26.37,1623756725.3125
-27.99,1623756725.328125
-28.16,1623756725.34375
-26.62,1623756725.359375
-23.44,1623756725.375
-18.95,1623756725.390625
-13.72,1623756725.40625
-8.29,1623756725.421875
-3.08,1623756725.4375
1.76,1623756725.453125
6.18,1623756725.46875
10.17,1623756725.484375
13.59,1623756725.5
16.17,1623756725.515625
17.69,1623756725.53125
18.07,1623756725.546875
17.49,1623756725.5625
16.35,1623756725.578125
15.15,1623756725.59375
14.28,1623756725.609375
13.92,1623756725.625
14.06,1623756725.640625
14.51,1623756725.65625
15.01,1623756725.671875
15.37,1623756725.6875
15.44,1623756725.703125
15.18,1623756725.71875
14.61,1623756725.734375
13.73,1623756725.75
12.6,1623756725.765625
11.32,1623756725.78125
10.01,1623756725.796875
8.81,1623756725.8125
7.76,1623756725.828125
6.81,1623756725.84375
5.76,1623756725.859375
4.4,1623756725.875
2.56,1623756725.890625
0.24,1623756725.90625
-2.45,1623756725.921875
-5.31,1623756725.9375
-8.19,1623756725.953125
-11.03,1623756725.96875
-13.86,1623756725.984375
-16.79,1623756726.0
-19.86,1623756726.015625
-23.03,1623756726.03125
-26.09,1623756726.046875
-28.64,1623756726.0625
-30.13,1623756726.078125
-30.01,1623756726.09375
-27.87,1623756726.109375
-23.68,1623756726.125
-17.84,1623756726.140625
-11.01,1623756726.15625
-3.93,1623756726.171875
2.8,1623756726.1875
8.78,1623756726.203125
13.77,1623756726.21875
17.61,1623756726.234375
20.13,1623756726.25
21.26,1623756726.265625
21.13,1623756726.28125
20.09,1623756726.296875
18.69,1623756726.3125
17.44,1623756726.328125
16.68,1623756726.34375
16.43,1623756726.359375
16.5,1623756726.375
16.6,1623756726.390625
16.46,1623756726.40625
15.96,1623756726.421875
15.08,1623756726.4375
13.92,1623756726.453125
12.63,1623756726.46875
11.42,1623756726.484375
10.44,1623756726.5
9.75,1623756726.515625
9.28,1623756726.53125
8.79,1623756726.546875
8.03,1623756726.5625
6.81,1623756726.578125
5.09,1623756726.59375
3.0,1623756726.609375
0.76,1623756726.625
-1.46,1623756726.640625
-3.62,1623756726.65625
-5.78,1623756726.671875
-8.11,1623756726.6875
-10.68,1623756726.703125
-13.49,1623756726.71875
-16.35,1623756726.734375
-19.13,1623756726.75
-21.69,1623756726.765625
-23.95,1623756726.78125
-25.82,1623756726.796875
-27.01,1623756726.8125
-27.04,1623756726.828125
-25.44,1623756726.84375
-21.94,1623756726.859375
-16.72,1623756726.875
-10.49,1623756726.890625
-4.2,1623756726.90625
1.31,1623756726.921875
5.56,1623756726.9375
8.53,1623756726.953125
10.5,1623756726.96875
11.73,1623756726.984375
12.31,1623756727.0
12.15,1623756727.015625
11.18,1623756727.03125
9.49,1623756727.046875
7.42,1623756727.0625
5.46,1623756727.078125
4.0,1623756727.09375
3.26,1623756727.109375
3.18,1623756727.125
3.55,1623756727.140625
4.17,1623756727.15625
4.9,1623756727.171875
5.72,1623756727.1875
6.6,1623756727.203125
7.48,1623756727.21875
8.17,1623756727.234375
8.42,1623756727.25
8.02,1623756727.265625
6.92,1623756727.28125
5.23,1623756727.296875
3.21,1623756727.3125
1.11,1623756727.328125
-0.84,1623756727.34375
-2.57,1623756727.359375
-4.08,1623756727.375
-5.46,1623756727.390625
-6.85,1623756727.40625
-8.42,1623756727.421875
-10.3,1623756727.4375
-12.54,1623756727.453125
-14.95,1623756727.46875
-17.12,1623756727.484375
-18.52,1623756727.5
-18.64,1623756727.515625
-17.22,1623756727.53125
-14.32,1623756727.546875
-10.28,1623756727.5625
-5.58,1623756727.578125
-0.69,1623756727.59375
3.95,1623756727.609375
7.94,1623756727.625
10.87,1623756727.640625
12.52,1623756727.65625
12.88,1623756727.671875
12.29,1623756727.6875
11.28,1623756727.703125
10.33,1623756727.71875
9.69,1623756727.734375
9.28,1623756727.75
8.87,1623756727.765625
8.25,1623756727.78125
7.44,1623756727.796875
6.67,1623756727.8125
6.2,1623756727.828125
6.19,1623756727.84375
6.49,1623756727.859375
6.8,1623756727.875
6.78,1623756727.890625
6.23,1623756727.90625
5.19,1623756727.921875
3.76,1623756727.9375
2.09,1623756727.953125
0.22,1623756727.96875
-1.87,1623756727.984375
-4.16,1623756728.0
-6.56,1623756728.015625
-8.86,1623756728.03125
-10.92,1623756728.046875
-12.65,1623756728.0625
-14.15,1623756728.078125
-15.59,1623756728.09375
-17.16,1623756728.109375
-18.9,1623756728.125
-20.66,1623756728.140625
-22.1,1623756728.15625
-22.76,1623756728.171875
-22.24,1623756728.1875
-20.21,1623756728.203125
-16.59,1623756728.21875
-11.55,1623756728.234375
-5.56,1623756728.25
0.73,1623756728.265625
6.58,1623756728.28125
11.37,1623756728.296875
14.72,1623756728.3125
16.53,1623756728.328125
16.98,1623756728.34375
16.37,1623756728.359375
15.04,1623756728.375
13.31,1623756728.390625
11.46,1623756728.40625
9.75,1623756728.421875
8.38,1623756728.4375
7.45,1623756728.453125
6.95,1623756728.46875
6.72,1623756728.484375
6.57,1623756728.5
6.27,1623756728.515625
5.7,1623756728.53125
4.85,1623756728.546875
3.81,1623756728.5625
2.68,1623756728.578125
1.57,1623756728.59375
0.49,1623756728.609375
-0.58,1623756728.625
-1.66,1623756728.640625
-2.84,1623756728.65625
-4.11,1623756728.671875
-5.52,1623756728.6875
-7.16,1623756728.703125
-9.12,1623756728.71875
-11.5,1623756728.734375
-14.31,1623756728.75
-17.4,1623756728.765625
-20.35,1623756728.78125
-22.59,1623756728.796875
-23.55,1623756728.8125
-22.84,1623756728.828125
-20.42,1623756728.84375
-16.6,1623756728.859375
-11.95,1623756728.875
-7.06,1623756728.890625
-2.36,1623756728.90625
1.92,1623756728.921875
5.63,1623756728.9375
8.68,1623756728.953125
10.82,1623756728.96875
11.83,1623756728.984375
11.54,1623756729.0
10.07,1623756729.015625
7.88,1623756729.03125
5.56,1623756729.046875
3.73,1623756729.0625
2.7,1623756729.078125
2.47,1623756729.09375
2.68,1623756729.109375
2.91,1623756729.125
2.84,1623756729.140625
2.4,1623756729.15625
1.7,1623756729.171875
0.89,1623756729.1875
0.11,1623756729.203125
-0.63,1623756729.21875
-1.35,1623756729.234375
-2.09,1623756729.25
-2.84,1623756729.265625
-3.64,1623756729.28125
-4.57,1623756729.296875
-5.82,1623756729.3125
-7.56,1623756729.328125
-9.84,1623756729.34375
-12.52,1623756729.359375
-15.28,1623756729.375
-17.66,1623756729.390625
-19.23,1623756729.40625
-19.7,1623756729.421875
-18.87,1623756729.4375
-16.74,1623756729.453125
-13.44,1623756729.46875
-9.25,1623756729.484375
-4.68,1623756729.5
-0.25,1623756729.515625
3.55,1623756729.53125
6.49,1623756729.546875
8.62,1623756729.5625
10.15,1623756729.578125
11.28,1623756729.59375
12.06,1623756729.609375
12.35,1623756729.625
11.96,1623756729.640625
10.85,1623756729.65625
9.26,1623756729.671875
7.55,1623756729.6875
6.16,1623756729.703125
5.35,1623756729.71875
5.19,1623756729.734375
5.58,1623756729.75
6.38,1623756729.765625
7.44,1623756729.78125
8.51,1623756729.796875
9.25,1623756729.8125
9.31,1623756729.828125
8.47,1623756729.84375
6.75,1623756729.859375
4.41,1623756729.875
1.81,1623756729.890625
-0.8,1623756729.90625
-3.37,1623756729.921875
-6.09,1623756729.9375
-9.13,1623756729.953125
-12.5,1623756729.96875
-15.91,1623756729.984375
-18.85,1623756730.0
-20.79,1623756730.015625
-21.36,1623756730.03125
-20.45,1623756730.046875
-18.17,1623756730.0625
-14.77,1623756730.078125
-10.51,1623756730.09375
-5.7,1623756730.109375
-0.69,1623756730.125
4.12,1623756730.140625
8.27,1623756730.15625
11.37,1623756730.171875
13.23,1623756730.1875
13.88,1623756730.203125
13.56,1623756730.21875
12.56,1623756730.234375
11.1,1623756730.25
9.34,1623756730.265625
7.37,1623756730.28125
5.34,1623756730.296875
3.49,1623756730.3125
2.04,1623756730.328125
1.08,1623756730.34375
0.57,1623756730.359375
0.29,1623756730.375
0.04,1623756730.390625
-0.33,1623756730.40625
-0.84,1623756730.421875
-1.47,1623756730.4375
-2.25,1623756730.453125
-3.27,1623756730.46875
-4.64,1623756730.484375
-6.4,1623756730.5
-8.53,1623756730.515625
-10.89,1623756730.53125
-13.37,1623756730.546875
-15.82,1623756730.5625
-18.07,1623756730.578125
-19.82,1623756730.59375
-20.67,1623756730.609375
-20.25,1623756730.625
-18.33,1623756730.640625
-14.98,1623756730.65625
-10.53,1623756730.671875
-5.5,1623756730.6875
-0.41,1623756730.703125
4.33,1623756730.71875
8.45,1623756730.734375
11.77,1623756730.75
14.12,1623756730.765625
15.36,1623756730.78125
15.4,1623756730.796875
14.33,1623756730.8125
12.48,1623756730.828125
10.36,1623756730.84375
8.54,1623756730.859375
7.42,1623756730.875
7.17,1623756730.890625
7.66,1623756730.90625
8.54,1623756730.921875
9.44,1623756730.9375
10.07,1623756730.953125
10.26,1623756730.96875
10.07,1623756730.984375
9.57,1623756731.0
8.85,1623756731.015625
7.99,1623756731.03125
7.01,1623756731.046875
5.94,1623756731.0625
4.78,1623756731.078125
3.56,1623756731.09375
2.23,1623756731.109375
0.67,1623756731.125
-1.25,1623756731.140625
-3.58,1623756731.15625
-6.14,1623756731.171875
-8.54,1623756731.1875
-10.14,1623756731.203125
-10.31,1623756731.21875
-8.63,1623756731.234375
-5.13,1623756731.25
-0.31,1623756731.265625
5.05,1623756731.28125
10.1,1623756731.296875
14.27,1623756731.3125
17.32,1623756731.328125
19.32,1623756731.34375
20.4,1623756731.359375
20.64,1623756731.375
20.01,1623756731.390625
18.5,1623756731.40625
16.29,1623756731.421875
13.77,1623756731.4375
11.45,1623756731.453125
9.78,1623756731.46875
8.89,1623756731.484375
8.58,1623756731.5
8.42,1623756731.515625
8.01,1623756731.53125
7.12,1623756731.546875
5.79,1623756731.5625
4.21,1623756731.578125
2.63,1623756731.59375
1.19,1623756731.609375
-0.09,1623756731.625
-1.23,1623756731.640625
-2.34,1623756731.65625
-3.52,1623756731.671875
-4.9,1623756731.6875
-6.61,1623756731.703125
-8.77,1623756731.71875
-11.41,1623756731.734375
-14.43,1623756731.75
-17.54,1623756731.765625
-20.33,1623756731.78125
-22.3,1623756731.796875
-22.96,1623756731.8125
-22.02,1623756731.828125
-19.37,1623756731.84375
-15.18,1623756731.859375
-9.88,1623756731.875
-4.1,1623756731.890625
1.42,1623756731.90625
6.07,1623756731.921875
9.44,1623756731.9375
11.44,1623756731.953125
12.27,1623756731.96875
12.24,1623756731.984375
11.64,1623756732.0
10.65,1623756732.015625
9.39,1623756732.03125
7.97,1623756732.046875
6.61,1623756732.0625
5.53,1623756732.078125
4.88,1623756732.09375
4.58,1623756732.109375
4.31,1623756732.125
3.68,1623756732.140625
2.39,1623756732.15625
0.44,1623756732.171875
-1.88,1623756732.1875
-4.2,1623756732.203125
-6.24,1623756732.21875
-7.95,1623756732.234375
-9.56,1623756732.25
-11.33,1623756732.265625
-13.44,1623756732.28125
-15.88,1623756732.296875
-18.51,1623756732.3125
-21.1,1623756732.328125
-23.43,1623756732.34375
-25.26,1623756732.359375
-26.3,1623756732.375
-26.23,1623756732.390625
-24.75,1623756732.40625
-21.72,1623756732.421875
-17.29,1623756732.4375
-11.84,1623756732.453125
-5.96,1623756732.46875
-0.15,1623756732.484375
5.17,1623756732.5
9.84,1623756732.515625
13.77,1623756732.53125
16.95,1623756732.546875
19.33,1623756732.5625
20.8,1623756732.578125
21.26,1623756732.59375
20.68,1623756732.609375
19.24,1623756732.625
17.29,1623756732.640625
15.36,1623756732.65625
14.03,1623756732.671875
13.76,1623756732.6875
14.72,1623756732.703125
16.76,1623756732.71875
19.44,1623756732.734375
22.16,1623756732.75
24.33,1623756732.765625
25.53,1623756732.78125
25.66,1623756732.796875
24.95,1623756732.8125
23.79,1623756732.828125
22.57,1623756732.84375
21.47,1623756732.859375
20.4,1623756732.875
19.0,1623756732.890625
16.93,1623756732.90625
14.03,1623756732.921875
10.39,1623756732.9375
6.32,1623756732.953125
2.17,1623756732.96875
-1.84,1623756732.984375
-5.53,1623756733.0
-8.66,1623756733.015625
-10.87,1623756733.03125
-11.68,1623756733.046875
-10.79,1623756733.0625
-8.24,1623756733.078125
-4.54,1623756733.09375
-0.47,1623756733.109375
3.28,1623756733.125
6.37,1623756733.140625
8.95,1623756733.15625
11.51,1623756733.171875
14.58,1623756733.1875
18.4,1623756733.203125
22.8,1623756733.21875
27.16,1623756733.234375
30.67,1623756733.25
32.64,1623756733.265625
32.8,1623756733.28125
31.38,1623756733.296875
28.97,1623756733.3125
26.21,1623756733.328125
23.47,1623756733.34375
20.68,1623756733.359375
17.55,1623756733.375
13.79,1623756733.390625
9.44,1623756733.40625
4.87,1623756733.421875
0.57,1623756733.4375
-3.11,1623756733.453125
-6.17,1623756733.46875
-8.87,1623756733.484375
-11.55,1623756733.5
-14.4,1623756733.515625
-17.41,1623756733.53125
-20.34,1623756733.546875
-22.93,1623756733.5625
-24.93,1623756733.578125
-26.19,1623756733.59375
-26.77,1623756733.609375
-26.82,1623756733.625
-26.51,1623756733.640625
-25.89,1623756733.65625
-24.78,1623756733.671875
-22.84,1623756733.6875
-19.76,1623756733.703125
-15.48,1623756733.71875
-10.41,1623756733.734375
-5.24,1623756733.75
-0.75,1623756733.765625
2.57,1623756733.78125
4.73,1623756733.796875
6.06,1623756733.8125
7.09,1623756733.828125
8.14,1623756733.84375
9.26,1623756733.859375
10.3,1623756733.875
11.02,1623756733.890625
11.31,1623756733.90625
11.12,1623756733.921875
10.47,1623756733.9375
9.34,1623756733.953125
7.71,1623756733.96875
5.61,1623756733.984375
3.15,1623756734.0
0.55,1623756734.015625
-1.92,1623756734.03125
-4.04,1623756734.046875
-5.69,1623756734.0625
-6.9,1623756734.078125
-7.81,1623756734.09375
-8.64,1623756734.109375
-9.66,1623756734.125
-11.05,1623756734.140625
-12.9,1623756734.15625
-15.1,1623756734.171875
-17.41,1623756734.1875
-19.47,1623756734.203125
-21.01,1623756734.21875
-21.98,1623756734.234375
-22.63,1623756734.25
-23.38,1623756734.265625
-24.66,1623756734.28125
-26.65,1623756734.296875
-29.26,1623756734.3125
-32.08,1623756734.328125
-34.49,1623756734.34375
-35.96,1623756734.359375
-36.08,1623756734.375
-34.73,1623756734.390625
-32.01,1623756734.40625
-28.2,1623756734.421875
-23.68,1623756734.4375
-18.85,1623756734.453125
-14.1,1623756734.46875
-9.82,1623756734.484375
-6.41,1623756734.5
-4.12,1623756734.515625
-3.06,1623756734.53125
-3.11,1623756734.546875
-3.99,1623756734.5625
-5.34,1623756734.578125
-6.89,1623756734.59375
-8.42,1623756734.609375
-9.8,1623756734.625
-10.93,1623756734.640625
-11.67,1623756734.65625
-11.84,1623756734.671875
-11.32,1623756734.6875
-10.13,1623756734.703125
-8.48,1623756734.71875
-6.7,1623756734.734375
-5.15,1623756734.75
-4.06,1623756734.765625
-3.51,1623756734.78125
-3.42,1623756734.796875
-3.66,1623756734.8125
-4.09,1623756734.828125
-4.61,1623756734.84375
-5.2,1623756734.859375
-5.86,1623756734.875
-6.58,1623756734.890625
-7.4,1623756734.90625
-8.37,1623756734.921875
-9.54,1623756734.9375
-10.95,1623756734.953125
-12.54,1623756734.96875
-14.13,1623756734.984375
-15.43,1623756735.0
-16.11,1623756735.015625
-15.81,1623756735.03125
-14.33,1623756735.046875
-11.59,1623756735.0625
-7.7,1623756735.078125
-3.0,1623756735.09375
2.09,1623756735.109375
7.03,1623756735.125
11.35,1623756735.140625
14.69,1623756735.15625
16.92,1623756735.171875
18.06,1623756735.1875
18.27,1623756735.203125
17.75,1623756735.21875
16.71,1623756735.234375
15.4,1623756735.25
14.01,1623756735.265625
12.74,1623756735.28125
11.69,1623756735.296875
10.9,1623756735.3125
10.28,1623756735.328125
9.74,1623756735.34375
9.2,1623756735.359375
8.61,1623756735.375
8.04,1623756735.390625
7.52,1623756735.40625
7.06,1623756735.421875
6.6,1623756735.4375
6.03,1623756735.453125
5.23,1623756735.46875
4.14,1623756735.484375
2.74,1623756735.5
1.06,1623756735.515625
-0.87,1623756735.53125
-3.03,1623756735.546875
-5.44,1623756735.5625
-8.11,1623756735.578125
-10.98,1623756735.59375
-13.82,1623756735.609375
-16.24,1623756735.625
-17.73,1623756735.640625
-17.85,1623756735.65625
-16.36,1623756735.671875
-13.31,1623756735.6875
-9.1,1623756735.703125
-4.3,1623756735.71875
0.49,1623756735.734375
4.79,1623756735.75
8.31,1623756735.765625
10.96,1623756735.78125
12.71,1623756735.796875
13.65,1623756735.8125
13.84,1623756735.828125
13.43,1623756735.84375
12.57,1623756735.859375
11.48,1623756735.875
10.27,1623756735.890625
9.04,1623756735.90625
7.82,1623756735.921875
6.62,1623756735.9375
5.53,1623756735.953125
4.71,1623756735.96875
4.27,1623756735.984375
4.24,1623756736.0
4.51,1623756736.015625
4.78,1623756736.03125
4.73,1623756736.046875
4.12,1623756736.0625
2.92,1623756736.078125
1.25,1623756736.09375
-0.66,1623756736.109375
-2.61,1623756736.125
-4.47,1623756736.140625
-6.21,1623756736.15625
-7.85,1623756736.171875
-9.43,1623756736.1875
-10.98,1623756736.203125
-12.54,1623756736.21875
-14.18,1623756736.234375
-15.91,1623756736.25
-17.67,1623756736.265625
-19.23,1623756736.28125
-20.27,1623756736.296875
-20.34,1623756736.3125
-19.1,1623756736.328125
-16.4,1623756736.34375
-12.46,1623756736.359375
-7.72,1623756736.375
-2.75,1623756736.390625
1.91,1623756736.40625
5.9,1623756736.421875
8.99,1623756736.4375
11.11,1623756736.453125
12.27,1623756736.46875
12.53,1623756736.484375
12.06,1623756736.5
11.1,1623756736.515625
9.94,1623756736.53125
8.89,1623756736.546875
8.11,1623756736.5625
7.65,1623756736.578125
7.42,1623756736.59375
7.3,1623756736.609375
7.16,1623756736.625
6.94,1623756736.640625
6.61,1623756736.65625
6.18,1623756736.671875
5.64,1623756736.6875
5.01,1623756736.703125
4.28,1623756736.71875
3.4,1623756736.734375
2.3,1623756736.75
0.84,1623756736.765625
-1.07,1623756736.78125
-3.44,1623756736.796875
-6.14,1623756736.8125
-8.9,1623756736.828125
-11.44,1623756736.84375
-13.57,1623756736.859375
-15.31,1623756736.875
-16.8,1623756736.890625
-18.22,1623756736.90625
-19.64,1623756736.921875
-20.95,1623756736.9375
-21.82,1623756736.953125
-21.88,1623756736.96875
-20.84,1623756736.984375
-18.64,1623756737.0
-15.44,1623756737.015625
-11.56,1623756737.03125
-7.37,1623756737.046875
-3.22,1623756737.0625
0.67,1623756737.078125
4.1,1623756737.09375
7.02,1623756737.109375
9.37,1623756737.125
11.16,1623756737.140625
12.43,1623756737.15625
13.24,1623756737.171875
13.66,1623756737.1875
13.82,1623756737.203125
13.88,1623756737.21875
13.98,1623756737.234375
14.22,1623756737.25
14.68,1623756737.265625
15.35,1623756737.28125
16.17,1623756737.296875
17.02,1623756737.3125
17.78,1623756737.328125
18.27,1623756737.34375
18.39,1623756737.359375
18.08,1623756737.375
17.37,1623756737.390625
16.38,1623756737.40625
15.24,1623756737.421875
14.08,1623756737.4375
12.91,1623756737.453125
11.65,1623756737.46875
10.19,1623756737.484375
8.52,1623756737.5
6.68,1623756737.515625
4.83,1623756737.53125
3.11,1623756737.546875
1.55,1623756737.5625
0.08,1623756737.578125
-1.45,1623756737.59375
-3.13,1623756737.609375
-4.99,1623756737.625
-7.03,1623756737.640625
-9.22,1623756737.65625
-11.52,1623756737.671875
-13.83,1623756737.6875
-15.8,1623756737.703125
-16.86,1623756737.71875
-16.42,1623756737.734375
-14.08,1623756737.75
-9.98,1623756737.765625
-4.83,1623756737.78125
0.38,1623756737.796875
4.71,1623756737.8125
7.73,1623756737.828125
9.59,1623756737.84375
10.73,1623756737.859375
11.61,1623756737.875
12.38,1623756737.890625
12.83,1623756737.90625
12.7,1623756737.921875
11.84,1623756737.9375
10.47,1623756737.953125
9.07,1623756737.96875
8.16,1623756737.984375
8.05,1623756738.0
8.65,1623756738.015625
9.61,1623756738.03125
10.39,1623756738.046875
10.61,1623756738.0625
10.13,1623756738.078125
9.14,1623756738.09375
8.04,1623756738.109375
7.13,1623756738.125
6.5,1623756738.140625
5.97,1623756738.15625
5.25,1623756738.171875
4.13,1623756738.1875
2.67,1623756738.203125
1.18,1623756738.21875
0.02,1623756738.234375
-0.67,1623756738.25
-1.1,1623756738.265625
-1.77,1623756738.28125
-3.23,1623756738.296875
-5.74,1623756738.3125
-9.17,1623756738.328125
-13.02,1623756738.34375
-16.66,1623756738.359375
-19.58,1623756738.375
-21.54,1623756738.390625
-22.56,1623756738.40625
-22.75,1623756738.421875
-22.25,1623756738.4375
-21.09,1623756738.453125
-19.27,1623756738.46875
-16.82,1623756738.484375
-13.92,1623756738.5
-10.82,1623756738.515625
-7.79,1623756738.53125
-5.02,1623756738.546875
-2.54,1623756738.5625
-0.39,1623756738.578125
1.36,1623756738.59375
2.54,1623756738.609375
2.94,1623756738.625
2.45,1623756738.640625
1.25,1623756738.65625
-0.25,1623756738.671875
-1.46,1623756738.6875
-1.87,1623756738.703125
-1.23,1623756738.71875
0.37,1623756738.734375
2.55,1623756738.75
4.87,1623756738.765625
6.99,1623756738.78125
8.76,1623756738.796875
10.23,1623756738.8125
11.44,1623756738.828125
12.44,1623756738.84375
13.08,1623756738.859375
13.16,1623756738.875
12.43,1623756738.890625
10.79,1623756738.90625
8.27,1623756738.921875
5.08,1623756738.9375
1.55,1623756738.953125
-1.96,1623756738.96875
-5.08,1623756738.984375
-7.57,1623756739.0
-9.23,1623756739.015625
-10.02,1623756739.03125
-10.06,1623756739.046875
-9.65,1623756739.0625
-9.23,1623756739.078125
-9.21,1623756739.09375
-9.83,1623756739.109375
-11.06,1623756739.125
-12.56,1623756739.140625
-13.75,1623756739.15625
-14.06,1623756739.171875
-13.08,1623756739.1875
-10.72,1623756739.203125
-7.23,1623756739.21875
-3.08,1623756739.234375
1.12,1623756739.25
4.83,1623756739.265625
7.65,1623756739.28125
9.46,1623756739.296875
10.34,1623756739.3125
10.58,1623756739.328125
10.47,1623756739.34375
10.23,1623756739.359375
9.92,1623756739.375
9.53,1623756739.390625
9.02,1623756739.40625
8.43,1623756739.421875
7.93,1623756739.4375
7.71,1623756739.453125
7.9,1623756739.46875
8.45,1623756739.484375
9.14,1623756739.5
9.65,1623756739.515625
9.69,1623756739.53125
9.15,1623756739.546875
8.1,1623756739.5625
6.71,1623756739.578125
5.2,1623756739.59375
3.71,1623756739.609375
2.26,1623756739.625
0.75,1623756739.640625
-0.94,1623756739.65625
-2.9,1623756739.671875
-5.02,1623756739.6875
-7.11,1623756739.703125
-8.94,1623756739.71875
-10.34,1623756739.734375
-11.37,1623756739.75
-12.25,1623756739.765625
-13.31,1623756739.78125
-14.83,1623756739.796875
-16.87,1623756739.8125
-19.24,1623756739.828125
-21.58,1623756739.84375
-23.46,1623756739.859375
-24.54,1623756739.875
-24.6,1623756739.890625
-23.59,1623756739.90625
-21.53,1623756739.921875
-18.55,1623756739.9375
-14.83,1623756739.953125
-10.62,1623756739.96875
-6.25,1623756739.984375
-2.03,1623756740.0
1.77,1623756740.015625
4.95,1623756740.03125
7.41,1623756740.046875
9.12,1623756740.0625
10.14,1623756740.078125
10.61,1623756740.09375
10.72,1623756740.109375
10.62,1623756740.125
10.49,1623756740.140625
10.42,1623756740.15625
10.43,1623756740.171875
10.49,1623756740.1875
10.54,1623756740.203125
10.52,1623756740.21875
10.37,1623756740.234375
10.09,1623756740.25
9.69,1623756740.265625
9.23,1623756740.28125
8.72,1623756740.296875
8.16,1623756740.3125
7.44,1623756740.328125
6.42,1623756740.34375
4.96,1623756740.359375
3.05,1623756740.375
0.82,1623756740.390625
-1.48,1623756740.40625
-3.55,1623756740.421875
-5.16,1623756740.4375
-6.27,1623756740.453125
-6.99,1623756740.46875
-7.6,1623756740.484375
-8.42,1623756740.5
-9.63,1623756740.515625
-11.28,1623756740.53125
-13.19,1623756740.546875
-15.11,1623756740.5625
-16.74,1623756740.578125
-17.8,1623756740.59375
-18.11,1623756740.609375
-17.54,1623756740.625
-16.08,1623756740.640625
-13.83,1623756740.65625
-11.0,1623756740.671875
-7.9,1623756740.6875
-4.8,1623756740.703125
-1.9,1623756740.71875
0.74,1623756740.734375
3.13,1623756740.75
5.26,1623756740.765625
6.99,1623756740.78125
8.1,1623756740.796875
8.35,1623756740.8125
7.62,1623756740.828125
6.06,1623756740.84375
4.04,1623756740.859375
2.1,1623756740.875
0.77,1623756740.890625
0.41,1623756740.90625
1.11,1623756740.921875
2.68,1623756740.9375
4.8,1623756740.953125
7.07,1623756740.96875
9.1,1623756740.984375
10.61,1623756741.0
11.42,1623756741.015625
11.47,1623756741.03125
10.78,1623756741.046875
9.48,1623756741.0625
7.75,1623756741.078125
5.8,1623756741.09375
3.8,1623756741.109375
1.82,1623756741.125
-0.18,1623756741.140625
-2.32,1623756741.15625
-4.71,1623756741.171875
-7.4,1623756741.1875
-10.34,1623756741.203125
-13.37,1623756741.21875
-16.29,1623756741.234375
-18.87,1623756741.25
-20.88,1623756741.265625
-22.11,1623756741.28125
-22.35,1623756741.296875
-21.45,1623756741.3125
-19.36,1623756741.328125
-16.15,1623756741.34375
-12.06,1623756741.359375
-7.46,1623756741.375
-2.76,1623756741.390625
1.65,1623756741.40625
5.46,1623756741.421875
8.5,1623756741.4375
10.67,1623756741.453125
11.97,1623756741.46875
12.4,1623756741.484375
12.01,1623756741.5
10.88,1623756741.515625
9.19,1623756741.53125
7.14,1623756741.546875
5.03,1623756741.5625
3.17,1623756741.578125
1.87,1623756741.59375
1.34,1623756741.609375
1.64,1623756741.625
2.67,1623756741.640625
4.13,1623756741.65625
5.66,1623756741.671875
6.93,1623756741.6875
7.73,1623756741.703125
8.05,1623756741.71875
8.05,1623756741.734375
7.92,1623756741.75
7.78,1623756741.765625
7.6,1623756741.78125
7.28,1623756741.796875
6.66,1623756741.8125
5.65,1623756741.828125
4.24,1623756741.84375
2.44,1623756741.859375
0.26,1623756741.875
-2.36,1623756741.890625
-5.52,1623756741.90625
-9.15,1623756741.921875
-12.97,1623756741.9375
-16.42,1623756741.953125
-18.8,1623756741.96875
-19.52,1623756741.984375
-18.35,1623756742.0
-15.52,1623756742.015625
-11.61,1623756742.03125
-7.29,1623756742.046875
-3.08,1623756742.0625
0.83,1623756742.078125
4.51,1623756742.09375
8.06,1623756742.109375
11.43,1623756742.125
14.36,1623756742.140625
16.52,1623756742.15625
17.74,1623756742.171875
18.07,1623756742.1875
17.85,1623756742.203125
17.46,1623756742.21875
17.17,1623756742.234375
17.04,1623756742.25
17.05,1623756742.265625
17.09,1623756742.28125
17.18,1623756742.296875
17.36,1623756742.3125
17.66,1623756742.328125
18.03,1623756742.34375
18.27,1623756742.359375
18.17,1623756742.375
17.65,1623756742.390625
16.82,1623756742.40625
16.02,1623756742.421875
15.63,1623756742.4375
15.94,1623756742.453125
16.96,1623756742.46875
18.43,1623756742.484375
19.8,1623756742.5
20.44,1623756742.515625
19.75,1623756742.53125
17.44,1623756742.546875
13.55,1623756742.5625
8.51,1623756742.578125
3.02,1623756742.59375
-2.11,1623756742.609375
-6.12,1623756742.625
-8.5,1623756742.640625
-9.05,1623756742.65625
-7.87,1623756742.671875
-5.29,1623756742.6875
-1.79,1623756742.703125
2.06,1623756742.71875
5.68,1623756742.734375
8.51,1623756742.75
10.14,1623756742.765625
10.45,1623756742.78125
9.64,1623756742.796875
8.17,1623756742.8125
6.57,1623756742.828125
5.23,1623756742.84375
4.25,1623756742.859375
3.48,1623756742.875
2.73,1623756742.890625
1.86,1623756742.90625
0.97,1623756742.921875
0.23,1623756742.9375
-0.16,1623756742.953125
-0.15,1623756742.96875
0.22,1623756742.984375
0.85,1623756743.0
1.62,1623756743.015625
2.42,1623756743.03125
3.15,1623756743.046875
3.68,1623756743.0625
3.88,1623756743.078125
3.72,1623756743.09375
3.3,1623756743.109375
2.78,1623756743.125
2.34,1623756743.140625
2.03,1623756743.15625
1.74,1623756743.171875
1.25,1623756743.1875
0.31,1623756743.203125
-1.34,1623756743.21875
-3.85,1623756743.234375
-7.19,1623756743.25
-11.04,1623756743.265625
-14.75,1623756743.28125
-17.42,1623756743.296875
-18.18,1623756743.3125
-16.52,1623756743.328125
-12.59,1623756743.34375
-7.1,1623756743.359375
-1.15,1623756743.375
4.31,1623756743.390625
8.66,1623756743.40625
11.82,1623756743.421875
13.97,1623756743.4375
15.31,1623756743.453125
15.83,1623756743.46875
15.37,1623756743.484375
13.7,1623756743.5
10.85,1623756743.515625
7.19,1623756743.53125
3.36,1623756743.546875
0.13,1623756743.5625
-1.87,1623756743.578125
-2.34,1623756743.59375
-1.41,1623756743.609375
0.44,1623756743.625
2.46,1623756743.640625
3.82,1623756743.65625
3.8,1623756743.671875
1.88,1623756743.6875
-2.05,1623756743.703125
-7.73,1623756743.71875
-14.54,1623756743.734375
-21.66,1623756743.75
-28.26,1623756743.765625
-33.75,1623756743.78125
-37.76,1623756743.796875
-40.26,1623756743.8125
-41.34,1623756743.828125
-41.25,1623756743.84375
-40.27,1623756743.859375
-38.71,1623756743.875
-36.96,1623756743.890625
-35.31,1623756743.90625
-33.88,1623756743.921875
-32.51,1623756743.9375
-30.81,1623756743.953125
-28.38,1623756743.96875
-25.02,1623756743.984375
-20.82,1623756744.0
-16.14,1623756744.015625
-11.39,1623756744.03125
-6.79,1623756744.046875
-2.34,1623756744.0625
2.07,1623756744.078125
6.52,1623756744.09375
10.79,1623756744.109375
14.4,1623756744.125
16.72,1623756744.140625
17.22,1623756744.15625
15.62,1623756744.171875
12.01,1623756744.1875
6.92,1623756744.203125
1.23,1623756744.21875
-3.91,1623756744.234375
-7.31,1623756744.25
-8.11,1623756744.265625
-6.05,1623756744.28125
-1.7,1623756744.296875
3.76,1623756744.3125
8.88,1623756744.328125
12.46,1623756744.34375
13.86,1623756744.359375
13.12,1623756744.375
10.66,1623756744.390625
7.01,1623756744.40625
2.56,1623756744.421875
-2.51,1623756744.4375
-8.01,1623756744.453125
-13.71,1623756744.46875
-19.23,1623756744.484375
-24.16,1623756744.5
-28.21,1623756744.515625
-31.3,1623756744.53125
-33.55,1623756744.546875
-35.07,1623756744.5625
-35.87,1623756744.578125
-35.71,1623756744.59375
-34.22,1623756744.609375
-31.05,1623756744.625
-26.16,1623756744.640625
-19.91,1623756744.65625
-13.01,1623756744.671875
-6.35,1623756744.6875
-0.64,1623756744.703125
3.76,1623756744.71875
6.86,1623756744.734375
8.95,1623756744.75
10.34,1623756744.765625
11.21,1623756744.78125
11.63,1623756744.796875
11.66,1623756744.8125
11.38,1623756744.828125
11.03,1623756744.84375
10.86,1623756744.859375
11.02,1623756744.875
11.5,1623756744.890625
12.1,1623756744.90625
12.54,1623756744.921875
12.65,1623756744.9375
12.39,1623756744.953125
11.79,1623756744.96875
10.91,1623756744.984375
9.73,1623756745.0
8.17,1623756745.015625
6.22,1623756745.03125
3.97,1623756745.046875
1.63,1623756745.0625
-0.57,1623756745.078125
-2.53,1623756745.09375
-4.3,1623756745.109375
-6.07,1623756745.125
-8.01,1623756745.140625
-10.22,1623756745.15625
-12.63,1623756745.171875
-15.12,1623756745.1875
-17.43,1623756745.203125
-19.31,1623756745.21875
-20.42,1623756745.234375
-20.38,1623756745.25
-18.91,1623756745.265625
-15.95,1623756745.28125
-11.78,1623756745.296875
-6.9,1623756745.3125
-1.89,1623756745.328125
2.82,1623756745.34375
7.04,1623756745.359375
10.77,1623756745.375
14.07,1623756745.390625
16.87,1623756745.40625
19.01,1623756745.421875
20.3,1623756745.4375
20.67,1623756745.453125
20.23,1623756745.46875
19.29,1623756745.484375
18.24,1623756745.5
17.39,1623756745.515625
16.89,1623756745.53125
16.75,1623756745.546875
16.86,1623756745.5625
17.08,1623756745.578125
17.33,1623756745.59375
17.54,1623756745.609375
17.72,1623756745.625
17.81,1623756745.640625
17.69,1623756745.65625
17.24,1623756745.671875
16.33,1623756745.6875
15.01,1623756745.703125
13.39,1623756745.71875
11.68,1623756745.734375
9.98,1623756745.75
8.26,1623756745.765625
6.36,1623756745.78125
4.11,1623756745.796875
1.45,1623756745.8125
-1.48,1623756745.828125
-4.4,1623756745.84375
-7.08,1623756745.859375
-9.38,1623756745.875
-11.31,1623756745.890625
-12.95,1623756745.90625
-14.26,1623756745.921875
-15.05,1623756745.9375
-14.97,1623756745.953125
-13.7,1623756745.96875
-11.06,1623756745.984375
-7.12,1623756746.0
-2.19,1623756746.015625
3.27,1623756746.03125
8.74,1623756746.046875
13.76,1623756746.0625
17.92,1623756746.078125
20.94,1623756746.09375
22.67,1623756746.109375
23.14,1623756746.125
22.58,1623756746.140625
21.36,1623756746.15625
19.94,1623756746.171875
18.65,1623756746.1875
17.71,1623756746.203125
17.14,1623756746.21875
16.84,1623756746.234375
16.66,1623756746.25
16.43,1623756746.265625
16.03,1623756746.28125
15.39,1623756746.296875
14.53,1623756746.3125
13.51,1623756746.328125
12.45,1623756746.34375
11.45,1623756746.359375
10.52,1623756746.375
9.62,1623756746.390625
8.64,1623756746.40625
7.51,1623756746.421875
6.26,1623756746.4375
5.02,1623756746.453125
3.89,1623756746.46875
2.89,1623756746.484375
1.9,1623756746.5
0.72,1623756746.515625
-0.8,1623756746.53125
-2.71,1623756746.546875
-4.96,1623756746.5625
-7.46,1623756746.578125
-10.16,1623756746.59375
-12.96,1623756746.609375
-15.71,1623756746.625
-18.11,1623756746.640625
-19.72,1623756746.65625
-20.14,1623756746.671875
-19.12,1623756746.6875
-16.69,1623756746.703125
-13.1,1623756746.71875
-8.74,1623756746.734375
-3.99,1623756746.75
0.85,1623756746.765625
5.49,1623756746.78125
9.61,1623756746.796875
12.81,1623756746.8125
14.75,1623756746.828125
15.33,1623756746.84375
14.72,1623756746.859375
13.39,1623756746.875
11.91,1623756746.890625
10.75,1623756746.90625
10.09,1623756746.921875
9.85,1623756746.9375
9.82,1623756746.953125
9.82,1623756746.96875
9.83,1623756746.984375
9.92,1623756747.0
10.22,1623756747.015625
10.69,1623756747.03125
11.13,1623756747.046875
11.22,1623756747.0625
10.68,1623756747.078125
9.41,1623756747.09375
7.56,1623756747.109375
5.45,1623756747.125
3.42,1623756747.140625
1.64,1623756747.15625
0.09,1623756747.171875
-1.44,1623756747.1875
-3.18,1623756747.203125
-5.26,1623756747.21875
-7.66,1623756747.234375
-10.28,1623756747.25
-13.03,1623756747.265625
-15.8,1623756747.28125
-18.52,1623756747.296875
-21.02,1623756747.3125
-22.99,1623756747.328125
-24.05,1623756747.34375
-23.86,1623756747.359375
-22.24,1623756747.375
-19.28,1623756747.390625
-15.27,1623756747.40625
-10.65,1623756747.421875
-5.85,1623756747.4375
-1.2,1623756747.453125
3.03,1623756747.46875
6.68,1623756747.484375
9.6,1623756747.5
11.66,1623756747.515625
12.81,1623756747.53125
13.03,1623756747.546875
12.45,1623756747.5625
11.32,1623756747.578125
9.96,1623756747.59375
8.72,1623756747.609375
7.88,1623756747.625
7.52,1623756747.640625
7.55,1623756747.65625
7.73,1623756747.671875
7.79,1623756747.6875
7.58,1623756747.703125
7.08,1623756747.71875
6.4,1623756747.734375
5.63,1623756747.75
4.83,1623756747.765625
3.9,1623756747.78125
2.72,1623756747.796875
1.22,1623756747.8125
-0.52,1623756747.828125
-2.34,1623756747.84375
-4.02,1623756747.859375
-5.48,1623756747.875
-6.81,1623756747.890625
-8.21,1623756747.90625
-9.87,1623756747.921875
-11.84,1623756747.9375
-14.04,1623756747.953125
-16.25,1623756747.96875
-18.25,1623756747.984375
-19.93,1623756748.0
-21.21,1623756748.015625
-22.0,1623756748.03125
-22.14,1623756748.046875
-21.35,1623756748.0625
-19.35,1623756748.078125
-16.02,1623756748.09375
-11.49,1623756748.109375
-6.15,1623756748.125
-0.61,1623756748.140625
4.53,1623756748.15625
8.82,1623756748.171875
12.0,1623756748.1875
14.08,1623756748.203125
15.21,1623756748.21875
15.62,1623756748.234375
15.55,1623756748.25
15.22,1623756748.265625
14.76,1623756748.28125
14.27,1623756748.296875
13.82,1623756748.3125
13.45,1623756748.328125
13.17,1623756748.34375
12.94,1623756748.359375
12.74,1623756748.375
12.48,1623756748.390625
12.16,1623756748.40625
11.74,1623756748.421875
11.24,1623756748.4375
10.71,1623756748.453125
10.14,1623756748.46875
9.49,1623756748.484375
8.66,1623756748.5
7.54,1623756748.515625
6.05,1623756748.53125
4.19,1623756748.546875
2.08,1623756748.5625
-0.12,1623756748.578125
-2.17,1623756748.59375
-3.97,1623756748.609375
-5.47,1623756748.625
-6.84,1623756748.640625
-8.3,1623756748.65625
-10.09,1623756748.671875
-12.32,1623756748.6875
-14.84,1623756748.703125
-17.34,1623756748.71875
-19.35,1623756748.734375
-20.44,1623756748.75
-20.32,1623756748.765625
-18.87,1623756748.78125
-16.18,1623756748.796875
-12.39,1623756748.8125
-7.77,1623756748.828125
-2.65,1623756748.84375
2.56,1623756748.859375
7.36,1623756748.875
11.27,1623756748.890625
13.97,1623756748.90625
15.38,1623756748.921875
15.67,1623756748.9375
15.18,1623756748.953125
14.25,1623756748.96875
13.12,1623756748.984375
11.96,1623756749.0
10.82,1623756749.015625
9.76,1623756749.03125
8.83,1623756749.046875
8.08,1623756749.0625
7.5,1623756749.078125
7.01,1623756749.09375
6.5,1623756749.109375
5.9,1623756749.125
5.17,1623756749.140625
4.34,1623756749.15625
3.46,1623756749.171875
2.53,1623756749.1875
1.52,1623756749.203125
0.4,1623756749.21875
-0.82,1623756749.234375
-2.1,1623756749.25
-3.4,1623756749.265625
-4.66,1623756749.28125
-5.9,1623756749.296875
-7.19,1623756749.3125
-8.63,1623756749.328125
-10.27,1623756749.34375
-12.14,1623756749.359375
-14.16,1623756749.375
-16.24,1623756749.390625
-18.19,1623756749.40625
-19.89,1623756749.421875
-21.13,1623756749.4375
-21.73,1623756749.453125
-21.45,1623756749.46875
-20.13,1623756749.484375
-17.75,1623756749.5
-14.49,1623756749.515625
-10.71,1623756749.53125
-6.8,1623756749.546875
-3.08,1623756749.5625
0.32,1623756749.578125
3.4,1623756749.59375
6.18,1623756749.609375
8.62,1623756749.625
10.56,1623756749.640625
11.81,1623756749.65625
12.29,1623756749.671875
12.16,1623756749.6875
11.72,1623756749.703125
11.36,1623756749.71875
11.4,1623756749.734375
11.93,1623756749.75
12.88,1623756749.765625
14.01,1623756749.78125
15.09,1623756749.796875
15.98,1623756749.8125
16.62,1623756749.828125
17.13,1623756749.84375
17.64,1623756749.859375
18.27,1623756749.875
18.99,1623756749.890625
19.59,1623756749.90625
19.64,1623756749.921875
18.68,1623756749.9375
16.44,1623756749.953125
13.02,1623756749.96875
8.98,1623756749.984375
5.11,1623756750.0
2.09,1623756750.015625
0.17,1623756750.03125
-1.06,1623756750.046875
-2.44,1623756750.0625
-4.8,1623756750.078125
-8.47,1623756750.09375
-13.03,1623756750.109375
-17.39,1623756750.125
-20.33,1623756750.140625
-21.03,1623756750.15625
-19.52,1623756750.171875
-16.6,1623756750.1875
-13.37,1623756750.203125
-10.71,1623756750.21875
-8.77,1623756750.234375
-7.1,1623756750.25
-4.94,1623756750.265625
-1.87,1623756750.28125
1.93,1623756750.296875
5.63,1623756750.3125
8.17,1623756750.328125
8.69,1623756750.34375
6.8,1623756750.359375
2.71,1623756750.375
-2.86,1623756750.390625
-8.67,1623756750.40625
-13.15,1623756750.421875
-14.65,1623756750.4375
-12.01,1623756750.453125
-5.19,1623756750.46875
4.22,1623756750.484375
13.16,1623756750.5
17.86,1623756750.515625
15.36,1623756750.53125
5.03,1623756750.546875
-10.43,1623756750.5625
-25.38,1623756750.578125
-32.97,1623756750.59375
-27.91,1623756750.609375
-8.91,1623756750.625
20.45,1623756750.640625
52.6,1623756750.65625
78.8,1623756750.671875
92.14,1623756750.6875
89.91,1623756750.703125
73.85,1623756750.71875
48.74,1623756750.734375
20.08,1623756750.75
-7.83,1623756750.765625
-32.64,1623756750.78125
-53.46,1623756750.796875
-69.79,1623756750.8125
-80.92,1623756750.828125
-86.0,1623756750.84375
-84.71,1623756750.859375
-77.94,1623756750.875
-67.92,1623756750.890625
-57.65,1623756750.90625
-49.94,1623756750.921875
-46.21,1623756750.9375
-46.11,1623756750.953125
-47.72,1623756750.96875
-48.43,1623756750.984375
-46.1,1623756751.0
-39.86,1623756751.015625
-30.43,1623756751.03125
-19.74,1623756751.046875
-10.25,1623756751.0625
-4.08,1623756751.078125
-2.32,1623756751.09375
-4.75,1623756751.109375
-9.96,1623756751.125
-15.81,1623756751.140625
-20.14,1623756751.15625
-21.4,1623756751.171875
-19.1,1623756751.1875
-13.77,1623756751.203125
-6.65,1623756751.21875
0.83,1623756751.234375
7.49,1623756751.25
12.57,1623756751.265625
15.68,1623756751.28125
16.71,1623756751.296875
15.81,1623756751.3125
13.46,1623756751.328125
10.58,1623756751.34375
8.4,1623756751.359375
8.17,1623756751.375
10.71,1623756751.390625
16.08,1623756751.40625
23.5,1623756751.421875
31.59,1623756751.4375
38.84,1623756751.453125
44.0,1623756751.46875
46.32,1623756751.484375
45.59,1623756751.5
42.14,1623756751.515625
36.76,1623756751.53125
30.64,1623756751.546875
25.18,1623756751.5625
21.61,1623756751.578125
20.57,1623756751.59375
21.96,1623756751.609375
25.01,1623756751.625
28.65,1623756751.640625
32.08,1623756751.65625
34.91,1623756751.671875
37.21,1623756751.6875
39.3,1623756751.703125
41.35,1623756751.71875
43.24,1623756751.734375
44.59,1623756751.75
44.87,1623756751.765625
43.65,1623756751.78125
40.79,1623756751.796875
36.64,1623756751.8125
32.03,1623756751.828125
28.18,1623756751.84375
26.35,1623756751.859375
27.37,1623756751.875
31.32,1623756751.890625
37.35,1623756751.90625
43.91,1623756751.921875
49.12,1623756751.9375
51.29,1623756751.953125
49.32,1623756751.96875
42.91,1623756751.984375
32.79,1623756752.0
20.49,1623756752.015625
7.97,1623756752.03125
-2.92,1623756752.046875
-11.08,1623756752.0625
-16.39,1623756752.078125
-19.7,1623756752.09375
-22.38,1623756752.109375
-25.8,1623756752.125
-30.94,1623756752.140625
-38.22,1623756752.15625
-47.55,1623756752.171875
-58.36,1623756752.1875
-69.8,1623756752.203125
-80.77,1623756752.21875
-90.16,1623756752.234375
-97.0,1623756752.25
-100.51,1623756752.265625
-100.11,1623756752.28125
-95.33,1623756752.296875
-85.97,1623756752.3125
-72.36,1623756752.328125
-55.73,1623756752.34375
-38.24,1623756752.359375
-22.59,1623756752.375
-11.23,1623756752.390625
-5.55,1623756752.40625
-5.4,1623756752.421875
-9.35,1623756752.4375
-15.25,1623756752.453125
-21.1,1623756752.46875
-25.52,1623756752.484375
-27.88,1623756752.5
-28.05,1623756752.515625
-26.1,1623756752.53125
-22.18,1623756752.546875
-16.62,1623756752.5625
-10.19,1623756752.578125
-4.09,1623756752.59375
0.19,1623756752.609375
1.42,1623756752.625
-0.83,1623756752.640625
-5.82,1623756752.65625
-11.82,1623756752.671875
-16.65,1623756752.6875
-18.63,1623756752.703125
-17.25,1623756752.71875
-13.47,1623756752.734375
-9.38,1623756752.75
-7.34,1623756752.765625
-9.03,1623756752.78125
-14.74,1623756752.796875
-23.22,1623756752.8125
-32.16,1623756752.828125
-39.0,1623756752.84375
-41.87,1623756752.859375
-40.13,1623756752.875
-34.36,1623756752.890625
-25.89,1623756752.90625
-16.11,1623756752.921875
-5.94,1623756752.9375
4.23,1623756752.953125
14.39,1623756752.96875
24.4,1623756752.984375
33.79,1623756753.0
41.74,1623756753.015625
47.35,1623756753.03125
50.02,1623756753.046875
49.66,1623756753.0625
46.7,1623756753.078125
41.93,1623756753.09375
36.31,1623756753.109375
30.75,1623756753.125
25.96,1623756753.140625
22.33,1623756753.15625
19.91,1623756753.171875
18.45,1623756753.1875
17.55,1623756753.203125
16.93,1623756753.21875
16.55,1623756753.234375
16.54,1623756753.25
16.97,1623756753.265625
17.62,1623756753.28125
17.84,1623756753.296875
16.77,1623756753.3125
13.72,1623756753.328125
8.58,1623756753.34375
1.93,1623756753.359375
-5.18,1623756753.375
-11.67,1623756753.390625
-16.81,1623756753.40625
-20.39,1623756753.421875
-22.57,1623756753.4375
-23.51,1623756753.453125
-23.11,1623756753.46875
-21.14,1623756753.484375
-17.6,1623756753.5
-13.09,1623756753.515625
-8.91,1623756753.53125
-6.64,1623756753.546875
-7.26,1623756753.5625
-10.52,1623756753.578125
-14.79,1623756753.59375
-17.67,1623756753.609375
-17.1,1623756753.625
-12.32,1623756753.640625
-4.2,1623756753.65625
5.24,1623756753.671875
13.91,1623756753.6875
20.5,1623756753.703125
24.79,1623756753.71875
27.28,1623756753.734375
28.32,1623756753.75
27.63,1623756753.765625
24.36,1623756753.78125
17.86,1623756753.796875
8.69,1623756753.8125
-1.13,1623756753.828125
-8.67,1623756753.84375
-11.4,1623756753.859375
-8.5,1623756753.875
-1.32,1623756753.890625
7.38,1623756753.90625
14.75,1623756753.921875
19.11,1623756753.9375
20.44,1623756753.953125
19.73,1623756753.96875
17.92,1623756753.984375
15.14,1623756754.0
10.67,1623756754.015625
3.8,1623756754.03125
-5.33,1623756754.046875
-15.35,1623756754.0625
-24.05,1623756754.078125
-29.46,1623756754.09375
-30.77,1623756754.109375
-28.85,1623756754.125
-25.8,1623756754.140625
-24.06,1623756754.15625
-25.26,1623756754.171875
-29.48,1623756754.1875
-35.1,1623756754.203125
-39.46,1623756754.21875
-39.93,1623756754.234375
-35.11,1623756754.25
-25.4,1623756754.265625
-12.97,1623756754.28125
-0.93,1623756754.296875
7.75,1623756754.3125
11.34,1623756754.328125
9.74,1623756754.34375
4.34,1623756754.359375
-2.66,1623756754.375
-9.02,1623756754.390625
-13.01,1623756754.40625
-13.73,1623756754.421875
-11.04,1623756754.4375
-5.47,1623756754.453125
1.96,1623756754.46875
9.88,1623756754.484375
16.68,1623756754.5
20.82,1623756754.515625
21.2,1623756754.53125
17.52,1623756754.546875
10.36,1623756754.5625
1.15,1623756754.578125
-8.28,1623756754.59375
-16.22,1623756754.609375
-21.54,1623756754.625
-23.89,1623756754.640625
-23.59,1623756754.65625
-21.36,1623756754.671875
-17.95,1623756754.6875
-13.87,1623756754.703125
-9.35,1623756754.71875
-4.53,1623756754.734375
0.29,1623756754.75
4.51,1623756754.765625
7.31,1623756754.78125
8.0,1623756754.796875
6.46,1623756754.8125
3.42,1623756754.828125
0.32,1623756754.84375
-1.16,1623756754.859375
0.26,1623756754.875
5.01,1623756754.890625
12.51,1623756754.90625
21.36,1623756754.921875
29.86,1623756754.9375
36.37,1623756754.953125
39.62,1623756754.96875
38.92,1623756754.984375
34.29,1623756755.0
26.61,1623756755.015625
17.56,1623756755.03125
9.35,1623756755.046875
4.11,1623756755.0625
3.23,1623756755.078125
6.93,1623756755.09375
14.22,1623756755.109375
23.34,1623756755.125
32.37,1623756755.140625
39.82,1623756755.15625
44.86,1623756755.171875
47.33,1623756755.1875
47.56,1623756755.203125
45.99,1623756755.21875
42.95,1623756755.234375
38.52,1623756755.25
32.63,1623756755.265625
25.37,1623756755.28125
17.37,1623756755.296875
9.94,1623756755.3125
4.89,1623756755.328125
3.8,1623756755.34375
7.3,1623756755.359375
14.69,1623756755.375
24.23,1623756755.390625
33.81,1623756755.40625
41.96,1623756755.421875
48.38,1623756755.4375
54.02,1623756755.453125
60.37,1623756755.46875
68.68,1623756755.484375
79.36,1623756755.5
91.9,1623756755.515625
105.03,1623756755.53125
117.06,1623756755.546875
126.24,1623756755.5625
131.21,1623756755.578125
131.38,1623756755.59375
127.02,1623756755.609375
119.1,1623756755.625
108.92,1623756755.640625
97.66,1623756755.65625
86.22,1623756755.671875
74.99,1623756755.6875
64.21,1623756755.703125
54.25,1623756755.71875
45.76,1623756755.734375
39.45,1623756755.75
35.49,1623756755.765625
33.58,1623756755.78125
33.13,1623756755.796875
33.96,1623756755.8125
35.86,1623756755.828125
38.78,1623756755.84375
42.68,1623756755.859375
47.7,1623756755.875
53.88,1623756755.890625
60.78,1623756755.90625
67.68,1623756755.921875
73.91,1623756755.9375
79.45,1623756755.953125
83.46,1623756755.96875
84.64,1623756755.984375
81.64,1623756756.0
74.13,1623756756.015625
63.03,1623756756.03125
49.85,1623756756.046875
36.77,1623756756.0625
26.33,1623756756.078125
21.57,1623756756.09375
22.81,1623756756.109375
27.9,1623756756.125
32.9,1623756756.140625
34.58,1623756756.15625
31.6,1623756756.171875
23.85,1623756756.1875
12.31,1623756756.203125
-1.45,1623756756.21875
-14.63,1623756756.234375
-26.52,1623756756.25
-37.47,1623756756.265625
-48.32,1623756756.28125
-58.67,1623756756.296875
-61.65,1623756756.3125
-50.83,1623756756.328125
-25.39,1623756756.34375
0.64,1623756756.359375
20.96,1623756756.375
32.71,1623756756.390625
38.76,1623756756.40625
40.15,1623756756.421875
38.2,1623756756.4375
34.04,1623756756.453125
27.28,1623756756.46875
16.59,1623756756.484375
0.91,1623756756.5
-18.16,1623756756.515625
-39.17,1623756756.53125
-60.45,1623756756.546875
-81.87,1623756756.5625
-102.63,1623756756.578125
-121.51,1623756756.59375
-138.23,1623756756.609375
-153.64,1623756756.625
-169.15,1623756756.640625
-184.99,1623756756.65625
-202.05,1623756756.671875
-220.8,1623756756.6875
-242.97,1623756756.703125
-267.06,1623756756.71875
-288.11,1623756756.734375
-300.6,1623756756.75
-301.57,1623756756.765625
-291.85,1623756756.78125
-274.52,1623756756.796875
-254.29,1623756756.8125
-235.0,1623756756.828125
-221.89,1623756756.84375
-215.93,1623756756.859375
-213.92,1623756756.875
-212.1,1623756756.890625
-209.5,1623756756.90625
-208.08,1623756756.921875
-210.06,1623756756.9375
-216.46,1623756756.953125
-226.42,1623756756.96875
-242.64,1623756756.984375
-265.46,1623756757.0
-291.48,1623756757.015625
-315.73,1623756757.03125
-334.41,1623756757.046875
-345.57,1623756757.0625
-348.2,1623756757.078125
-342.13,1623756757.09375
-299.66,1623756757.109375
-215.32,1623756757.125
-108.06,1623756757.140625
-6.39,1623756757.15625
71.87,1623756757.171875
124.12,1623756757.1875
155.67,1623756757.203125
173.21,1623756757.21875
182.44,1623756757.234375
187.81,1623756757.25
188.45,1623756757.265625
185.49,1623756757.28125
183.46,1623756757.296875
187.33,1623756757.3125
199.41,1623756757.328125
218.85,1623756757.34375
243.34,1623756757.359375
270.81,1623756757.375
300.33,1623756757.390625
329.45,1623756757.40625
352.67,1623756757.421875
371.0,1623756757.4375
388.73,1623756757.453125
409.39,1623756757.46875
432.95,1623756757.484375
455.2,1623756757.5
468.98,1623756757.515625
466.83,1623756757.53125
441.84,1623756757.546875
393.39,1623756757.5625
329.03,1623756757.578125
260.28,1623756757.59375
197.36,1623756757.609375
145.61,1623756757.625
104.94,1623756757.640625
71.76,1623756757.65625
41.77,1623756757.671875
11.14,1623756757.6875
-20.98,1623756757.703125
-51.82,1623756757.71875
-77.4,1623756757.734375
-94.8,1623756757.75
-103.07,1623756757.765625
-103.14,1623756757.78125
-97.02,1623756757.796875
-86.96,1623756757.8125
-75.46,1623756757.828125
-64.7,1623756757.84375
-56.03,1623756757.859375
-50.74,1623756757.875
-50.08,1623756757.890625
-54.6,1623756757.90625
-63.31,1623756757.921875
-73.4,1623756757.9375
-80.82,1623756757.953125
-81.87,1623756757.96875
-75.04,1623756757.984375
-61.8,1623756758.0
-46.4,1623756758.015625
-34.1,1623756758.03125
-28.9,1623756758.046875
-31.9,1623756758.0625
-41.19,1623756758.078125
-53.0,1623756758.09375
-63.65,1623756758.109375
-70.95,1623756758.125
-74.5,1623756758.140625
-75.16,1623756758.15625
-74.02,1623756758.171875
-71.7,1623756758.1875
-68.19,1623756758.203125
-63.17,1623756758.21875
-56.51,1623756758.234375
-48.56,1623756758.25
-40.14,1623756758.265625
-32.32,1623756758.28125
-26.16,1623756758.296875
-22.38,1623756758.3125
-21.16,1623756758.328125
-22.09,1623756758.34375
-24.34,1623756758.359375
-26.86,1623756758.375
-28.8,1623756758.390625
-29.78,1623756758.40625
-30.01,1623756758.421875
-30.25,1623756758.4375
-31.6,1623756758.453125
-35.02,1623756758.46875
-40.89,1623756758.484375
-48.72,1623756758.5
-57.21,1623756758.515625
-64.71,1623756758.53125
-69.98,1623756758.546875
-72.81,1623756758.5625
-74.09,1623756758.578125
-75.21,1623756758.59375
-77.21,1623756758.609375
-79.88,1623756758.625
-81.46,1623756758.640625
-78.89,1623756758.65625
-68.76,1623756758.671875
-48.44,1623756758.6875
-17.3,1623756758.703125
22.55,1623756758.71875
66.22,1623756758.734375
106.86,1623756758.75
137.48,1623756758.765625
152.96,1623756758.78125
151.76,1623756758.796875
136.32,1623756758.8125
112.12,1623756758.828125
85.49,1623756758.84375
61.52,1623756758.859375
42.77,1623756758.875
29.38,1623756758.890625
20.02,1623756758.90625
13.12,1623756758.921875
7.3,1623756758.9375
1.35,1623756758.953125
-6.07,1623756758.96875
-16.4,1623756758.984375
-30.55,1623756759.0
-48.18,1623756759.015625
-67.28,1623756759.03125
-84.68,1623756759.046875
-97.12,1623756759.0625
-102.46,1623756759.078125
-100.49,1623756759.09375
-92.79,1623756759.109375
-82.04,1623756759.125
-70.94,1623756759.140625
-61.48,1623756759.15625
-54.65,1623756759.171875
-50.56,1623756759.1875
-48.83,1623756759.203125
-48.88,1623756759.21875
-50.18,1623756759.234375
-52.2,1623756759.25
-54.42,1623756759.265625
-56.26,1623756759.28125
-57.1,1623756759.296875
-56.33,1623756759.3125
-53.65,1623756759.328125
-49.33,1623756759.34375
-44.14,1623756759.359375
-39.15,1623756759.375
-35.33,1623756759.390625
-33.22,1623756759.40625
-32.84,1623756759.421875
-33.7,1623756759.4375
-35.03,1623756759.453125
-36.14,1623756759.46875
-36.63,1623756759.484375
-36.41,1623756759.5
-35.57,1623756759.515625
-34.27,1623756759.53125
-32.72,1623756759.546875
-31.19,1623756759.5625
-29.92,1623756759.578125
-28.92,1623756759.59375
-28.23,1623756759.609375
-28.06,1623756759.625
-28.73,1623756759.640625
-30.54,1623756759.65625
-33.71,1623756759.671875
-38.24,1623756759.6875
-43.85,1623756759.703125
-50.02,1623756759.71875
-55.66,1623756759.734375
-60.16,1623756759.75
-63.78,1623756759.765625
-67.31,1623756759.78125
-71.52,1623756759.796875
-76.61,1623756759.8125
-82.14,1623756759.828125
-87.15,1623756759.84375
-90.35,1623756759.859375
-89.4,1623756759.875
-83.05,1623756759.890625
-71.62,1623756759.90625
-56.77,1623756759.921875
-40.6,1623756759.9375
-25.07,1623756759.953125
-11.96,1623756759.96875
-2.74,1623756759.984375
2.4,1623756760.0
6.98,1623756760.015625
15.68,1623756760.03125
33.3,1623756760.046875
63.6,1623756760.0625
108.01,1623756760.078125
164.53,1623756760.09375
227.19,1623756760.109375
287.53,1623756760.125
337.35,1623756760.140625
373.17,1623756760.15625
393.46,1623756760.171875
397.85,1623756760.1875
387.36,1623756760.203125
365.13,1623756760.21875
336.61,1623756760.234375
308.18,1623756760.25
285.69,1623756760.265625
256.29,1623756760.28125
214.28,1623756760.296875
161.46,1623756760.3125
105.19,1623756760.328125
53.19,1623756760.34375
11.04,1623756760.359375
-17.82,1623756760.375
-30.3,1623756760.390625
-30.7,1623756760.40625
-24.78,1623756760.421875
-15.6,1623756760.4375
-5.83,1623756760.453125
2.3,1623756760.46875
8.52,1623756760.484375
11.93,1623756760.5
13.35,1623756760.515625
9.46,1623756760.53125
-1.83,1623756760.546875
-20.53,1623756760.5625
-42.36,1623756760.578125
-63.76,1623756760.59375
-84.59,1623756760.609375
-107.81,1623756760.625
-134.77,1623756760.640625
-164.17,1623756760.65625
-193.63,1623756760.671875
-216.34,1623756760.6875
-226.84,1623756760.703125
-221.32,1623756760.71875
-193.71,1623756760.734375
-147.3,1623756760.75
-93.43,1623756760.765625
-45.1,1623756760.78125
-9.81,1623756760.796875
12.03,1623756760.8125
26.31,1623756760.828125
37.31,1623756760.84375
48.2,1623756760.859375
60.4,1623756760.875
73.59,1623756760.890625
87.4,1623756760.90625
100.68,1623756760.921875
111.21,1623756760.9375
112.54,1623756760.953125
100.96,1623756760.96875
77.33,1623756760.984375
48.2,1623756761.0
13.49,1623756761.015625
-28.87,1623756761.03125
-77.03,1623756761.046875
-124.42,1623756761.0625
-161.69,1623756761.078125
-180.18,1623756761.09375
-175.0,1623756761.109375
-148.31,1623756761.125
-108.92,1623756761.140625
-69.4,1623756761.15625
-40.62,1623756761.171875
-27.38,1623756761.1875
-27.39,1623756761.203125
