PPG GREEN,time
2029828.0,1669796618.752
2029149.0,1669796618.792
2028945.0,1669796618.832
2028609.0,1669796618.872
2028609.0,1669796618.912
2028559.0,1669796618.952
2027768.0,1669796618.992
2027247.0,1669796619.032
2027050.0,1669796619.072
2027120.0,1669796619.112
2027637.0,1669796619.152
2028134.0,1669796619.192
2028453.0,1669796619.232
2029258.0,1669796619.272
2029946.0,1669796619.312
2030516.0,1669796619.352
2031241.0,1669796619.392
2031961.0,1669796619.432
2032730.0,1669796619.472
2033642.0,1669796619.512
2034788.0,1669796619.552
2035677.0,1669796619.592
2037047.0,1669796619.632
2037887.0,1669796619.672
2039192.0,1669796619.712
2040010.0,1669796619.752
2035226.0,1669796619.832
2038227.0,1669796619.792
2032970.0,1669796619.872
2031484.0,1669796619.912
2030230.0,1669796619.952
2028958.0,1669796619.992
2028302.0,1669796620.032
2027744.0,1669796620.072
2027114.0,1669796620.112
2026555.0,1669796620.152
2025639.0,1669796620.272
2025717.0,1669796620.312
2025760.0,1669796620.232
2026650.0,1669796620.392
2026754.0,1669796620.432
2027358.0,1669796620.472
2027545.0,1669796620.512
2026283.0,1669796620.352
2025758.0,1669796620.192
2028279.0,1669796620.552
2029082.0,1669796620.592
2029757.0,1669796620.632
2030932.0,1669796620.672
2031401.0,1669796620.712
2032111.0,1669796620.752
2033335.0,1669796620.792
2034109.0,1669796620.832
2035412.0,1669796620.872
2035956.0,1669796620.912
2034391.0,1669796620.952
2031052.0,1669796620.992
2028126.0,1669796621.032
2026544.0,1669796621.072
2025257.0,1669796621.112
2023762.0,1669796621.152
2022541.0,1669796621.232
2023067.0,1669796621.192
2021536.0,1669796621.272
2020795.0,1669796621.312
2020051.0,1669796621.352
2019458.0,1669796621.434
2019938.0,1669796621.554
2019624.0,1669796621.474
2020336.0,1669796621.594
2020319.0,1669796621.636
2020707.0,1669796621.674
2020949.0,1669796621.714
2021688.0,1669796621.755
2021907.0,1669796621.794
2022854.0,1669796621.835
2023481.0,1669796621.875
2025092.0,1669796621.954
2024036.0,1669796621.914
2019786.0,1669796621.515
2025800.0,1669796621.995
2026584.0,1669796622.035
2027535.0,1669796622.074
2027970.0,1669796622.115
2025813.0,1669796622.154
2023057.0,1669796622.194
2020476.0,1669796622.236
2018755.0,1669796622.275
2017973.0,1669796622.315
2017069.0,1669796622.356
2016656.0,1669796622.395
2016017.0,1669796622.435
2015226.0,1669796622.476
2014372.0,1669796622.515
2013920.0,1669796622.555
2013478.0,1669796622.596
2013722.0,1669796622.636
2014064.0,1669796622.675
2014103.0,1669796622.716
2014408.0,1669796622.755
2014837.0,1669796622.795
2015167.0,1669796622.837
2015912.0,1669796622.876
2016531.0,1669796622.916
2016838.0,1669796622.957
2017848.0,1669796622.996
2018585.0,1669796623.037
2019251.0,1669796623.077
2020286.0,1669796623.116
2021161.0,1669796623.156
2021945.0,1669796623.197
2020068.0,1669796623.237
2016432.0,1669796623.276
2013318.0,1669796623.317
2011167.0,1669796623.356
2009930.0,1669796623.397
2008286.0,1669796623.438
2007665.0,1669796623.477
2006674.0,1669796623.517
2005661.0,1669796623.558
2004783.0,1669796623.597
2003559.0,1669796623.638
2003431.0,1669796623.678
2003006.0,1669796623.717
2003146.0,1669796623.757
2003063.0,1669796623.798
2003340.0,1669796623.838
2003807.0,1669796623.877
2003825.0,1669796623.918
2004498.0,1669796623.957
2004530.0,1669796623.997
2005105.0,1669796624.039
2005570.0,1669796624.078
2006313.0,1669796624.118
2007184.0,1669796624.159
2008150.0,1669796624.198
2008962.0,1669796624.239
2010137.0,1669796624.279
2010913.0,1669796624.318
2009580.0,1669796624.358
2005628.0,1669796624.399
2001899.0,1669796624.439
1999030.0,1669796624.478
1996902.0,1669796624.517
1995324.0,1669796624.556
1993893.0,1669796624.597
1992966.0,1669796624.639
1992107.0,1669796624.677
1990881.0,1669796624.717
1989586.0,1669796624.759
1989054.0,1669796624.798
1988612.0,1669796624.839
1988210.0,1669796624.877
1988423.0,1669796624.917
1988634.0,1669796624.957
1988713.0,1669796624.998
1989189.0,1669796625.038
1989414.0,1669796625.076
1989600.0,1669796625.117
1990434.0,1669796625.156
1990891.0,1669796625.196
1991649.0,1669796625.238
1992454.0,1669796625.277
1993023.0,1669796625.317
1994202.0,1669796625.358
1995184.0,1669796625.397
1996125.0,1669796625.438
1996914.0,1669796625.478
1995638.0,1669796625.517
1992255.0,1669796625.557
1988468.0,1669796625.598
1986010.0,1669796625.638
1984447.0,1669796625.677
1983369.0,1669796625.719
1982585.0,1669796625.758
1982202.0,1669796625.798
1981106.0,1669796625.84
1980132.0,1669796625.878
1979382.0,1669796625.919
1978580.0,1669796625.958
1978715.0,1669796625.997
1978446.0,1669796626.038
1978832.0,1669796626.079
1979224.0,1669796626.118
1979564.0,1669796626.158
1979972.0,1669796626.199
1980403.0,1669796626.239
1980939.0,1669796626.279
1981718.0,1669796626.32
1982278.0,1669796626.359
1983266.0,1669796626.399
1984294.0,1669796626.441
1985429.0,1669796626.479
1986446.0,1669796626.519
1987619.0,1669796626.56
1988966.0,1669796626.599
1988878.0,1669796626.64
1985711.0,1669796626.68
1982136.0,1669796626.719
1980242.0,1669796626.76
1978404.0,1669796626.801
1977690.0,1669796626.84
1977081.0,1669796626.88
1976891.0,1669796626.921
1976381.0,1669796626.96
1976033.0,1669796626.997
1975287.0,1669796627.039
1974891.0,1669796627.078
1975244.0,1669796627.118
1975615.0,1669796627.159
1976160.0,1669796627.198
1976963.0,1669796627.239
1977567.0,1669796627.28
1978254.0,1669796627.319
1979347.0,1669796627.357
1980287.0,1669796627.399
1980942.0,1669796627.439
1982102.0,1669796627.478
1983421.0,1669796627.521
1984541.0,1669796627.56
1985853.0,1669796627.601
1987106.0,1669796627.642
1988202.0,1669796627.681
1989501.0,1669796627.721
1990885.0,1669796627.762
1991537.0,1669796627.801
1989058.0,1669796627.842
1985424.0,1669796627.882
1982205.0,1669796627.921
1980524.0,1669796627.961
1979146.0,1669796628.002
1978240.0,1669796628.042
1977621.0,1669796628.081
1977273.0,1669796628.122
1976501.0,1669796628.161
1975581.0,1669796628.202
1975479.0,1669796628.245
1974997.0,1669796628.28
1975222.0,1669796628.318
1975639.0,1669796628.359
1976302.0,1669796628.399
1976819.0,1669796628.44
1977455.0,1669796628.48
1977989.0,1669796628.519
1978938.0,1669796628.56
1979989.0,1669796628.601
1980542.0,1669796628.641
1981779.0,1669796628.678
1982963.0,1669796628.719
1984005.0,1669796628.749
1985149.0,1669796628.789
1986658.0,1669796628.831
1987874.0,1669796628.87
1988916.0,1669796628.91
1990215.0,1669796628.951
1991025.0,1669796628.99
1988500.0,1669796629.031
1985079.0,1669796629.071
1982015.0,1669796629.11
1980586.0,1669796629.15
1979884.0,1669796629.191
1979107.0,1669796629.231
1978562.0,1669796629.27
1978197.0,1669796629.311
1977341.0,1669796629.35
1976022.0,1669796629.391
1975826.0,1669796629.432
1975653.0,1669796629.467
1975377.0,1669796629.501
1975579.0,1669796629.541
1976143.0,1669796629.58
1976456.0,1669796629.621
1976878.0,1669796629.661
1977532.0,1669796629.7
1978036.0,1669796629.741
1978829.0,1669796629.782
1979631.0,1669796629.822
1980467.0,1669796629.861
1981367.0,1669796629.901
1982458.0,1669796629.94
1983645.0,1669796629.979
1984655.0,1669796630.057
1983645.0,1669796630.019
1986349.0,1669796630.097
1987152.0,1669796630.138
1986592.0,1669796630.177
1982989.0,1669796630.218
1979445.0,1669796630.259
1977000.0,1669796630.298
1975682.0,1669796630.338
1974623.0,1669796630.379
1974156.0,1669796630.419
1973900.0,1669796630.458
1973226.0,1669796630.499
1972421.0,1669796630.538
1971690.0,1669796630.578
1971133.0,1669796630.62
1971461.0,1669796630.658
1971574.0,1669796630.698
1972200.0,1669796630.739
1972969.0,1669796630.778
1973603.0,1669796630.819
1974006.0,1669796630.86
1974856.0,1669796630.899
1975433.0,1669796630.939
1976362.0,1669796630.98
1977403.0,1669796631.019
1978129.0,1669796631.059
1979200.0,1669796631.1
1980497.0,1669796631.139
1981678.0,1669796631.179
1983015.0,1669796631.221
1983742.0,1669796631.259
1985150.0,1669796631.299
1985470.0,1669796631.34
1981897.0,1669796631.379
1976844.0,1669796631.42
1973600.0,1669796631.46
1971404.0,1669796631.5
1969770.0,1669796631.54
1968388.0,1669796631.581
1967614.0,1669796631.62
1966604.0,1669796631.66
1965662.0,1669796631.701
1964187.0,1669796631.74
1963187.0,1669796631.78
1962874.0,1669796631.822
1962559.0,1669796631.86
1962884.0,1669796631.9
1963075.0,1669796631.942
1963300.0,1669796631.981
1963898.0,1669796632.022
1964332.0,1669796632.063
1964760.0,1669796632.102
1965116.0,1669796632.142
1965835.0,1669796632.182
1966750.0,1669796632.222
1967616.0,1669796632.261
1968815.0,1669796632.303
1969678.0,1669796632.342
1970632.0,1669796632.382
1971490.0,1669796632.423
1972900.0,1669796632.456
1973584.0,1669796632.495
1971323.0,1669796632.536
1966394.0,1669796632.575
1962128.0,1669796632.616
1959529.0,1669796632.657
1958020.0,1669796632.696
1956886.0,1669796632.736
1956024.0,1669796632.777
1955278.0,1669796632.817
1953870.0,1669796632.856
1951958.0,1669796632.897
1950843.0,1669796632.936
1950165.0,1669796632.976
1950055.0,1669796633.018
1949781.0,1669796633.056
1950183.0,1669796633.097
1950506.0,1669796633.132
1950882.0,1669796633.171
1951069.0,1669796633.205
1951618.0,1669796633.244
1951978.0,1669796633.28
1952714.0,1669796633.32
1953335.0,1669796633.362
1954283.0,1669796633.401
1955463.0,1669796633.44
1956372.0,1669796633.479
1957361.0,1669796633.518
1958759.0,1669796633.557
1959085.0,1669796633.596
1955474.0,1669796633.635
1949800.0,1669796633.674
1945118.0,1669796633.713
1942182.0,1669796633.752
1940128.0,1669796633.791
1938820.0,1669796633.83
1937773.0,1669796633.869
1931992.0,1669796634.025
1931111.0,1669796634.064
1935000.0,1669796633.947
1931063.0,1669796634.103
1931538.0,1669796634.181
1931449.0,1669796634.22
1932039.0,1669796634.259
1932366.0,1669796634.298
1933366.0,1669796633.986
1936412.0,1669796633.908
1932613.0,1669796634.337
1931136.0,1669796634.142
1933016.0,1669796634.376
1933756.0,1669796634.415
1934126.0,1669796634.454
1935090.0,1669796634.493
1936163.0,1669796634.532
1937121.0,1669796634.571
1938218.0,1669796634.61
1939278.0,1669796634.649
1940440.0,1669796634.688
1939269.0,1669796634.727
1933503.0,1669796634.766
1926903.0,1669796634.805
1922531.0,1669796634.844
1919697.0,1669796634.883
1917410.0,1669796634.922
1915162.0,1669796634.961
1913866.0,1669796635.0
1912208.0,1669796635.039
1910161.0,1669796635.078
1908369.0,1669796635.117
1907198.0,1669796635.156
1906305.0,1669796635.195
1906457.0,1669796635.234
1906554.0,1669796635.273
1906710.0,1669796635.351
1907308.0,1669796635.39
1911238.0,1669796635.624
1907636.0,1669796635.429
1908550.0,1669796635.507
1909287.0,1669796635.546
1906758.0,1669796635.312
1916975.0,1669796635.858
1911435.0,1669796635.897
1917225.0,1669796635.819
1905212.0,1669796635.936
1901133.0,1669796635.975
1914801.0,1669796635.741
1898469.0,1669796636.014
1913280.0,1669796635.702
1907752.0,1669796635.468
1915918.0,1669796635.78
1912139.0,1669796635.663
1910034.0,1669796635.585
1896883.0,1669796636.053
1895691.0,1669796636.092
1893952.0,1669796636.17
1895427.0,1669796636.131
1892609.0,1669796636.209
1891136.0,1669796636.248
1890158.0,1669796636.287
1890328.0,1669796636.365
1890941.0,1669796636.404
1891732.0,1669796636.443
1892571.0,1669796636.482
1893177.0,1669796636.521
1894338.0,1669796636.56
1894996.0,1669796636.599
1890094.0,1669796636.326
1896163.0,1669796636.638
1897725.0,1669796636.677
1898692.0,1669796636.716
1900401.0,1669796636.755
1902017.0,1669796636.794
1903656.0,1669796636.833
1905092.0,1669796636.872
1907071.0,1669796636.911
1900895.0,1669796636.989
1906763.0,1669796636.95
1894738.0,1669796637.028
1890809.0,1669796637.067
1888597.0,1669796637.106
1887309.0,1669796637.145
1886529.0,1669796637.184
1885994.0,1669796637.223
1885424.0,1669796637.262
1884473.0,1669796637.301
1883629.0,1669796637.34
1883904.0,1669796637.418
1883317.0,1669796637.379
1884642.0,1669796637.457
1886002.0,1669796637.496
1886984.0,1669796637.535
1888083.0,1669796637.574
1889374.0,1669796637.613
1890514.0,1669796637.653
1892073.0,1669796637.693
1893454.0,1669796637.733
1895033.0,1669796637.773
1896722.0,1669796637.813
1898515.0,1669796637.853
1900400.0,1669796637.893
1902164.0,1669796637.933
1904158.0,1669796637.973
1906435.0,1669796638.013
1907960.0,1669796638.053
1904752.0,1669796638.093
1898705.0,1669796638.133
1893963.0,1669796638.173
1890727.0,1669796638.213
1889148.0,1669796638.253
1888210.0,1669796638.293
1887764.0,1669796638.333
1887607.0,1669796638.373
1886894.0,1669796638.413
1886015.0,1669796638.453
1885767.0,1669796638.493
1887122.0,1669796638.573
1887873.0,1669796638.613
1885973.0,1669796638.533
1889207.0,1669796638.653
1890901.0,1669796638.693
1893529.0,1669796638.773
1892141.0,1669796638.733
1895236.0,1669796638.813
1896684.0,1669796638.853
1898483.0,1669796638.893
1900395.0,1669796638.933
1902063.0,1669796638.973
1904398.0,1669796639.013
1906541.0,1669796639.053
1910756.0,1669796639.133
1908382.0,1669796639.093
1914670.0,1669796639.213
1912930.0,1669796639.173
1911684.0,1669796639.253
1906362.0,1669796639.293
1902336.0,1669796639.333
1900364.0,1669796639.373
1899310.0,1669796639.413
1898596.0,1669796639.453
1898828.0,1669796639.493
1899110.0,1669796639.533
1898473.0,1669796639.573
1897895.0,1669796639.613
1897521.0,1669796639.653
1897845.0,1669796639.693
1898781.0,1669796639.733
1900135.0,1669796639.773
1901288.0,1669796639.813
1901288.0,1669796639.853
1903011.0,1669796639.893
1904533.0,1669796639.933
1905827.0,1669796639.973
1907362.0,1669796640.013
1909117.0,1669796640.053
1910627.0,1669796640.093
1912544.0,1669796640.133
1914746.0,1669796640.173
1916774.0,1669796640.213
1918627.0,1669796640.253
1921019.0,1669796640.293
1925049.0,1669796640.373
1923320.0,1669796640.333
1921970.0,1669796640.413
1916869.0,1669796640.453
1913097.0,1669796640.493
1911200.0,1669796640.533
1910705.0,1669796640.573
1910070.0,1669796640.613
1911115.0,1669796640.693
1910829.0,1669796640.653
1910609.0,1669796640.733
1910388.0,1669796640.773
1910896.0,1669796640.813
1911498.0,1669796640.853
1912681.0,1669796640.893
1914244.0,1669796640.933
1915870.0,1669796640.973
1917378.0,1669796641.013
1919017.0,1669796641.053
1920673.0,1669796641.093
1922303.0,1669796641.133
1923983.0,1669796641.173
1925679.0,1669796641.213
1927775.0,1669796641.253
1929962.0,1669796641.293
1932013.0,1669796641.333
1933932.0,1669796641.373
1936137.0,1669796641.413
1938256.0,1669796641.453
1940341.0,1669796641.493
1939538.0,1669796641.533
1934494.0,1669796641.573
1929807.0,1669796641.613
1927212.0,1669796641.653
1926252.0,1669796641.693
1925060.0,1669796641.733
1924578.0,1669796641.773
1925174.0,1669796641.813
1924699.0,1669796641.853
1924405.0,1669796641.893
1924199.0,1669796641.933
1924352.0,1669796641.973
1925497.0,1669796642.013
1926678.0,1669796642.053
1927749.0,1669796642.093
1929402.0,1669796642.133
1930902.0,1669796642.173
1932147.0,1669796642.213
1933893.0,1669796642.253
1935356.0,1669796642.293
1936825.0,1669796642.333
1938499.0,1669796642.373
1940477.0,1669796642.413
1942540.0,1669796642.453
1944389.0,1669796642.493
1946442.0,1669796642.533
1948082.0,1669796642.573
1950160.0,1669796642.613
1951864.0,1669796642.653
1948779.0,1669796642.693
1943949.0,1669796642.733
1940512.0,1669796642.773
1938909.0,1669796642.813
1938424.0,1669796642.853
1938366.0,1669796642.893
1938583.0,1669796642.933
1938683.0,1669796642.973
1938478.0,1669796643.013
1937585.0,1669796643.053
1937498.0,1669796643.093
1938102.0,1669796643.133
1939033.0,1669796643.173
1940048.0,1669796643.213
1941604.0,1669796643.253
1942954.0,1669796643.293
1944166.0,1669796643.333
1945402.0,1669796643.373
1946548.0,1669796643.413
1948139.0,1669796643.453
1949408.0,1669796643.493
1951211.0,1669796643.533
1952636.0,1669796643.573
1954659.0,1669796643.613
1956378.0,1669796643.653
1958336.0,1669796643.693
1960390.0,1669796643.733
1956362.0,1669796643.813
1960976.0,1669796643.773
1947474.0,1669796643.893
1944683.0,1669796643.973
1951220.0,1669796643.853
1943750.0,1669796644.013
1945615.0,1669796643.933
1943747.0,1669796644.053
1943506.0,1669796644.093
1941827.0,1669796644.173
1942815.0,1669796644.133
1941669.0,1669796644.213
1942781.0,1669796644.293
1944810.0,1669796644.373
1946821.0,1669796644.453
1943658.0,1669796644.333
1941869.0,1669796644.253
1945972.0,1669796644.413
1948146.0,1669796644.493
1949160.0,1669796644.533
1950474.0,1669796644.573
1951884.0,1669796644.613
1953517.0,1669796644.653
1955295.0,1669796644.693
1957085.0,1669796644.733
1958713.0,1669796644.773
1960495.0,1669796644.813
1962203.0,1669796644.853
1964154.0,1669796644.893
1962236.0,1669796644.933
1956336.0,1669796644.973
1951126.0,1669796645.013
1947838.0,1669796645.053
1946159.0,1669796645.093
1944874.0,1669796645.133
1944170.0,1669796645.173
1944064.0,1669796645.213
1943281.0,1669796645.253
1942108.0,1669796645.291
1941192.0,1669796645.331
1941108.0,1669796645.372
1941109.0,1669796645.411
1941663.0,1669796645.451
1942649.0,1669796645.493
1944798.0,1669796645.571
1946635.0,1669796645.651
1947781.0,1669796645.692
1945749.0,1669796645.612
1949290.0,1669796645.733
1943697.0,1669796645.531
1950461.0,1669796645.772
1952235.0,1669796645.812
1953669.0,1669796645.854
1955356.0,1669796645.892
1956690.0,1669796645.931
1958519.0,1669796645.973
1960070.0,1669796646.012
1961635.0,1669796646.052
1959313.0,1669796646.093
1959313.0,1669796646.126
1953662.0,1669796646.166
1949502.0,1669796646.208
1947749.0,1669796646.247
1946638.0,1669796646.287
1946159.0,1669796646.328
1946015.0,1669796646.367
1945873.0,1669796646.407
1944978.0,1669796646.448
1943775.0,1669796646.488
1943189.0,1669796646.527
1942939.0,1669796646.568
1943645.0,1669796646.607
1944116.0,1669796646.647
1945417.0,1669796646.689
1946346.0,1669796646.728
1947040.0,1669796646.768
1948037.0,1669796646.81
1948801.0,1669796646.849
1950037.0,1669796646.89
1951342.0,1669796646.931
1952616.0,1669796646.97
1953850.0,1669796647.011
1955644.0,1669796647.052
1957138.0,1669796647.092
1958490.0,1669796647.131
1960521.0,1669796647.173
1961751.0,1669796647.212
1958613.0,1669796647.252
1953064.0,1669796647.295
1948565.0,1669796647.326
1946066.0,1669796647.366
1945174.0,1669796647.407
1944212.0,1669796647.446
1944183.0,1669796647.487
1944303.0,1669796647.527
1943550.0,1669796647.566
1942591.0,1669796647.607
1941956.0,1669796647.648
1942159.0,1669796647.687
1943051.0,1669796647.727
1943901.0,1669796647.768
1944749.0,1669796647.807
1946010.0,1669796647.847
1949352.0,1669796647.967
1951753.0,1669796648.045
1947226.0,1669796647.889
1950414.0,1669796648.009
1948287.0,1669796647.927
1954538.0,1669796648.124
1958115.0,1669796648.194
1953046.0,1669796648.083
1956535.0,1669796648.155
1959751.0,1669796648.232
1961495.0,1669796648.272
1963186.0,1669796648.312
1960171.0,1669796648.353
1954413.0,1669796648.392
1949730.0,1669796648.432
1946385.0,1669796648.474
1944700.0,1669796648.513
1943419.0,1669796648.553
1942737.0,1669796648.594
1942274.0,1669796648.633
1941301.0,1669796648.674
1940036.0,1669796648.714
1939082.0,1669796648.754
1938934.0,1669796648.794
1938840.0,1669796648.835
1939426.0,1669796648.874
1940369.0,1669796648.914
1941192.0,1669796648.955
1941944.0,1669796648.994
1943050.0,1669796649.034
1943975.0,1669796649.076
1944888.0,1669796649.114
1946241.0,1669796649.154
1947310.0,1669796649.195
1948638.0,1669796649.234
1950172.0,1669796649.275
1951669.0,1669796649.315
1953161.0,1669796649.354
1954738.0,1669796649.394
1956168.0,1669796649.436
1956340.0,1669796649.475
1951490.0,1669796649.515
1945990.0,1669796649.556
1942496.0,1669796649.595
1940505.0,1669796649.635
1939173.0,1669796649.677
1938922.0,1669796649.715
1938595.0,1669796649.755
1937551.0,1669796649.796
1936372.0,1669796649.835
1934837.0,1669796649.876
1934372.0,1669796649.916
1934549.0,1669796649.956
1934754.0,1669796649.996
1935153.0,1669796650.037
1936397.0,1669796650.077
1936705.0,1669796650.116
1937580.0,1669796650.157
1938296.0,1669796650.196
1938984.0,1669796650.236
1940238.0,1669796650.278
1941393.0,1669796650.316
1942423.0,1669796650.355
1943878.0,1669796650.393
1945339.0,1669796650.432
1946386.0,1669796650.473
1948114.0,1669796650.514
1949483.0,1669796650.553
1948673.0,1669796650.591
1943274.0,1669796650.632
1937758.0,1669796650.672
1933443.0,1669796650.712
1931011.0,1669796650.754
1929519.0,1669796650.792
1928754.0,1669796650.833
1928425.0,1669796650.875
1927493.0,1669796650.913
1925990.0,1669796650.953
1924998.0,1669796650.995
1924224.0,1669796651.034
1924433.0,1669796651.074
1925192.0,1669796651.115
1925995.0,1669796651.154
1927077.0,1669796651.194
1927899.0,1669796651.235
1928624.0,1669796651.275
1929628.0,1669796651.314
1930691.0,1669796651.355
1931792.0,1669796651.394
1932958.0,1669796651.434
1934465.0,1669796651.476
1935855.0,1669796651.514
1937282.0,1669796651.554
1938957.0,1669796651.596
1940354.0,1669796651.635
1942261.0,1669796651.675
1942387.0,1669796651.716
1937457.0,1669796651.755
1931247.0,1669796651.795
1926639.0,1669796651.836
1924081.0,1669796651.876
1922270.0,1669796651.915
1920833.0,1669796651.956
1920359.0,1669796651.995
1919833.0,1669796652.035
1918711.0,1669796652.075
1917656.0,1669796652.113
1917156.0,1669796652.153
1917145.0,1669796652.195
1918008.0,1669796652.234
1919019.0,1669796652.275
1919825.0,1669796652.315
1921048.0,1669796652.354
1922220.0,1669796652.394
1923087.0,1669796652.435
1924413.0,1669796652.475
1925780.0,1669796652.515
1927160.0,1669796652.556
1928702.0,1669796652.595
1930786.0,1669796652.635
1932165.0,1669796652.677
1934179.0,1669796652.715
1936013.0,1669796652.755
1937849.0,1669796652.796
1939540.0,1669796652.835
1938312.0,1669796652.876
1933115.0,1669796652.916
1928726.0,1669796652.955
1926396.0,1669796652.993
1925120.0,1669796653.035
1924906.0,1669796653.075
1925159.0,1669796653.114
1925131.0,1669796653.155
1924778.0,1669796653.194
1923969.0,1669796653.234
1923300.0,1669796653.276
1923611.0,1669796653.315
1924835.0,1669796653.355
1925783.0,1669796653.396
1926863.0,1669796653.435
1928363.0,1669796653.476
1929755.0,1669796653.516
1930821.0,1669796653.555
1932242.0,1669796653.596
1933449.0,1669796653.637
1935098.0,1669796653.676
1937078.0,1669796653.716
1938718.0,1669796653.757
1940751.0,1669796653.796
1942688.0,1669796653.836
1944463.0,1669796653.878
1946515.0,1669796653.916
1946933.0,1669796653.956
1942593.0,1669796653.997
1937585.0,1669796654.036
1934076.0,1669796654.077
1932534.0,1669796654.117
1931685.0,1669796654.156
1931093.0,1669796654.194
1931118.0,1669796654.235
1931075.0,1669796654.275
1930710.0,1669796654.315
1929946.0,1669796654.356
1930165.0,1669796654.395
1930857.0,1669796654.436
1931900.0,1669796654.478
1933062.0,1669796654.516
1934205.0,1669796654.554
1935680.0,1669796654.595
1937030.0,1669796654.635
1938383.0,1669796654.676
1939811.0,1669796654.712
1941289.0,1669796654.751
1942995.0,1669796654.791
1945070.0,1669796654.832
1946466.0,1669796654.872
1948570.0,1669796654.911
1950371.0,1669796654.952
1952502.0,1669796654.992
1954225.0,1669796655.032
1953958.0,1669796655.073
1949427.0,1669796655.112
1944400.0,1669796655.152
1941175.0,1669796655.193
1939648.0,1669796655.232
1938765.0,1669796655.273
1938056.0,1669796655.313
1937909.0,1669796655.352
1937778.0,1669796655.392
1937243.0,1669796655.432
1936517.0,1669796655.471
1936622.0,1669796655.509
1937192.0,1669796655.551
1938119.0,1669796655.588
1939145.0,1669796655.628
1940502.0,1669796655.666
1941697.0,1669796655.695
1942937.0,1669796655.735
1944257.0,1669796655.778
1945626.0,1669796655.817
1947162.0,1669796655.858
1948526.0,1669796655.898
1950288.0,1669796655.929
1950288.0,1669796655.969
1951981.0,1669796656.01
1953955.0,1669796656.05
1955608.0,1669796656.089
1957379.0,1669796656.13
1959339.0,1669796656.169
1959196.0,1669796656.209
1955353.0,1669796656.251
1951421.0,1669796656.29
1948860.0,1669796656.33
1947968.0,1669796656.371
1947629.0,1669796656.41
1947601.0,1669796656.451
1948144.0,1669796656.491
1947643.0,1669796656.53
1947375.0,1669796656.57
1947088.0,1669796656.611
1947183.0,1669796656.648
1948017.0,1669796656.688
1949240.0,1669796656.722
1950774.0,1669796656.758
1951932.0,1669796656.795
1953125.0,1669796656.837
1954552.0,1669796656.876
1956036.0,1669796656.916
1957220.0,1669796656.957
1958642.0,1669796656.996
1960250.0,1669796657.037
1962006.0,1669796657.078
1963858.0,1669796657.117
1965617.0,1669796657.157
1967326.0,1669796657.198
1969244.0,1669796657.29
1970155.0,1669796657.329
1966719.0,1669796657.371
1962043.0,1669796657.41
1958797.0,1669796657.45
1957041.0,1669796657.491
1955691.0,1669796657.53
1955013.0,1669796657.57
1954964.0,1669796657.611
1954914.0,1669796657.65
1954363.0,1669796657.691
1953990.0,1669796657.731
1953951.0,1669796657.77
1954415.0,1669796657.81
1955369.0,1669796657.851
1956441.0,1669796657.891
1957660.0,1669796657.93
1958974.0,1669796657.972
1960188.0,1669796658.01
1961575.0,1669796658.048
1962940.0,1669796658.09
1964283.0,1669796658.128
1965944.0,1669796658.168
1967505.0,1669796658.21
1969225.0,1669796658.249
1971166.0,1669796658.29
1973059.0,1669796658.328
1974580.0,1669796658.368
1976578.0,1669796658.408
1977497.0,1669796658.44
1973803.0,1669796658.48
1969376.0,1669796658.519
1966142.0,1669796658.56
1964232.0,1669796658.599
1963455.0,1669796658.639
1962894.0,1669796658.681
1962694.0,1669796658.72
1962910.0,1669796658.76
1962369.0,1669796658.801
1962019.0,1669796658.84
1962139.0,1669796658.881
1962667.0,1669796658.921
1963536.0,1669796658.96
1964492.0,1669796659.0
1965903.0,1669796659.041
1966944.0,1669796659.081
1968213.0,1669796659.12
1969910.0,1669796659.162
1971403.0,1669796659.197
1972716.0,1669796659.237
1974122.0,1669796659.273
1975847.0,1669796659.309
1977742.0,1669796659.349
1979569.0,1669796659.391
1980487.0,1669796659.43
1981057.0,1669796659.471
1981865.0,1669796659.512
1982264.0,1669796659.551
1980670.0,1669796659.591
1976712.0,1669796659.631
1971962.0,1669796659.667
1971962.0,1669796659.706
1969318.0,1669796659.747
1965610.0,1669796659.786
1964944.0,1669796659.826
1966239.0,1669796659.907
1970551.0,1669796659.988
1965775.0,1669796659.868
1979148.0,1669796660.027
1993609.0,1669796660.068
2012044.0,1669796660.108
2026300.0,1669796660.147
2035529.0,1669796660.187
2038244.0,1669796660.228
2042519.0,1669796660.268
2051093.0,1669796660.307
1966190.0,1669796659.947
2060428.0,1669796660.348
2069629.0,1669796660.388
2072484.0,1669796660.429
2073688.0,1669796660.51
2074384.0,1669796660.471
2073390.0,1669796660.55
2074641.0,1669796660.591
2078073.0,1669796660.63
2081776.0,1669796660.671
2084412.0,1669796660.712
2087360.0,1669796660.751
2091167.0,1669796660.791
2094137.0,1669796660.833
2096264.0,1669796660.875
2099110.0,1669796660.911
2103179.0,1669796660.953
2105764.0,1669796660.992
2108033.0,1669796661.032
2111281.0,1669796661.073
2114518.0,1669796661.112
2116181.0,1669796661.152
2117563.0,1669796661.193
2118585.0,1669796661.232
2118839.0,1669796661.273
2120386.0,1669796661.313
2120636.0,1669796661.352
2120121.0,1669796661.392
2120499.0,1669796661.433
2119326.0,1669796661.473
2115616.0,1669796661.512
2112199.0,1669796661.554
2112473.0,1669796661.593
2112583.0,1669796661.633
2114043.0,1669796661.674
2114734.0,1669796661.713
2115828.0,1669796661.754
2116887.0,1669796661.794
2119385.0,1669796661.831
2121088.0,1669796661.872
2121145.0,1669796661.912
2121593.0,1669796661.951
2120388.0,1669796661.991
2120093.0,1669796662.033
2120816.0,1669796662.073
2120840.0,1669796662.111
2120863.0,1669796662.145
2120857.0,1669796662.184
2120788.0,1669796662.224
2119152.0,1669796662.266
2118037.0,1669796662.304
2118655.0,1669796662.344
2119884.0,1669796662.386
2121669.0,1669796662.425
2122715.0,1669796662.465
2123846.0,1669796662.506
2126579.0,1669796662.545
2127955.0,1669796662.585
2128515.0,1669796662.626
2130109.0,1669796662.666
2130554.0,1669796662.705
2131200.0,1669796662.746
2131682.0,1669796662.785
2132770.0,1669796662.816
2133374.0,1669796662.855
2134027.0,1669796662.89
2134329.0,1669796662.93
2133702.0,1669796662.972
2132904.0,1669796663.011
2132176.0,1669796663.052
2130660.0,1669796663.092
2129857.0,1669796663.132
2129038.0,1669796663.172
2130106.0,1669796663.211
2131671.0,1669796663.251
2131632.0,1669796663.291
2131726.0,1669796663.332
2132807.0,1669796663.371
2133943.0,1669796663.411
2133725.0,1669796663.453
2132572.0,1669796663.491
2129553.0,1669796663.531
2128103.0,1669796663.572
2129294.0,1669796663.611
2136417.0,1669796663.652
2143257.0,1669796663.692
2150504.0,1669796663.731
2154349.0,1669796663.772
2153747.0,1669796663.813
2154879.0,1669796663.852
2158226.0,1669796663.892
2159815.0,1669796663.933
2155763.0,1669796663.972
2158568.0,1669796664.012
2163028.0,1669796664.091
2162017.0,1669796664.051
2165711.0,1669796664.131
2168582.0,1669796664.172
2167817.0,1669796664.211
2169460.0,1669796664.293
2169084.0,1669796664.252
2166716.0,1669796664.332
2159788.0,1669796664.413
2164719.0,1669796664.372
2151992.0,1669796664.453
2146875.0,1669796664.493
2137835.0,1669796664.571
2129085.0,1669796664.644
2142528.0,1669796664.532
2125033.0,1669796664.683
2121342.0,1669796664.723
2133594.0,1669796664.603
2118440.0,1669796664.764
2115984.0,1669796664.803
2113826.0,1669796664.844
2111361.0,1669796664.884
2109435.0,1669796664.923
2107601.0,1669796664.963
2105835.0,1669796665.004
2104411.0,1669796665.044
2103112.0,1669796665.084
2102275.0,1669796665.125
2101341.0,1669796665.164
2100009.0,1669796665.204
2096953.0,1669796665.246
2090164.0,1669796665.284
2082835.0,1669796665.318
2076286.0,1669796665.355
2070716.0,1669796665.392
2065676.0,1669796665.433
2061545.0,1669796665.474
2057580.0,1669796665.513
2053992.0,1669796665.553
2050276.0,1669796665.595
2046736.0,1669796665.634
2043515.0,1669796665.674
2040857.0,1669796665.715
2038989.0,1669796665.752
2038087.0,1669796665.793
2036810.0,1669796665.832
2036810.0,1669796665.87
2036558.0,1669796665.91
2036509.0,1669796665.951
2036748.0,1669796665.99
2036761.0,1669796666.031
2037399.0,1669796666.071
2037567.0,1669796666.11
2038566.0,1669796666.15
2039313.0,1669796666.191
2039819.0,1669796666.231
2040897.0,1669796666.272
2041849.0,1669796666.312
2040060.0,1669796666.351
2035240.0,1669796666.391
2030737.0,1669796666.433
2027515.0,1669796666.471
2024669.0,1669796666.512
2022303.0,1669796666.553
2021041.0,1669796666.593
2020580.0,1669796666.633
2019888.0,1669796666.674
2019208.0,1669796666.713
2019020.0,1669796666.753
2018885.0,1669796666.795
2019102.0,1669796666.835
2019346.0,1669796666.874
2020010.0,1669796666.916
2020634.0,1669796666.955
2021527.0,1669796666.993
2022318.0,1669796667.034
2023142.0,1669796667.068
2024306.0,1669796667.108
2025239.0,1669796667.149
2026862.0,1669796667.189
2027914.0,1669796667.229
2028908.0,1669796667.27
2030871.0,1669796667.309
2031157.0,1669796667.349
2028352.0,1669796667.39
2024980.0,1669796667.43
2022812.0,1669796667.469
2021651.0,1669796667.51
2021001.0,1669796667.549
2020699.0,1669796667.589
2020834.0,1669796667.631
2020538.0,1669796667.669
2020075.0,1669796667.709
2019847.0,1669796667.748
2020082.0,1669796667.782
2020596.0,1669796667.823
2021634.0,1669796667.854
2022658.0,1669796667.893
2023771.0,1669796667.933
2025030.0,1669796667.974
2026493.0,1669796668.014
2027641.0,1669796668.054
2029289.0,1669796668.095
2030559.0,1669796668.134
2031978.0,1669796668.173
2033575.0,1669796668.215
2034916.0,1669796668.253
2036926.0,1669796668.289
2035663.0,1669796668.331
2032203.0,1669796668.37
2029639.0,1669796668.41
2027691.0,1669796668.451
2026518.0,1669796668.49
2025863.0,1669796668.53
2025784.0,1669796668.571
2025974.0,1669796668.611
2025934.0,1669796668.65
2025294.0,1669796668.691
2025460.0,1669796668.73
2025686.0,1669796668.77
2026509.0,1669796668.812
2027311.0,1669796668.85
2028519.0,1669796668.891
2029611.0,1669796668.932
2031039.0,1669796668.971
2032387.0,1669796669.012
2033583.0,1669796669.054
2034931.0,1669796669.093
2036896.0,1669796669.133
2038271.0,1669796669.174
2039568.0,1669796669.213
2039249.0,1669796669.252
2036519.0,1669796669.291
2034063.0,1669796669.33
2032568.0,1669796669.369
2031071.0,1669796669.408
2030618.0,1669796669.447
2030292.0,1669796669.486
2030653.0,1669796669.525
2030911.0,1669796669.564
2030427.0,1669796669.603
2030497.0,1669796669.642
2031141.0,1669796669.681
2031927.0,1669796669.72
2032533.0,1669796669.759
2033758.0,1669796669.798
2035289.0,1669796669.837
2036252.0,1669796669.876
2037690.0,1669796669.915
2038908.0,1669796669.954
2040488.0,1669796669.993
2043437.0,1669796670.071
2039384.0,1669796670.656
2046395.0,1669796670.149
2045204.0,1669796670.188
2038501.0,1669796670.305
2042234.0,1669796670.227
2037362.0,1669796670.383
2037865.0,1669796670.344
2038077.0,1669796670.539
2039958.0,1669796670.266
2045243.0,1669796670.11
2041834.0,1669796670.032
2038185.0,1669796670.578
2038201.0,1669796670.461
2040504.0,1669796670.695
2042801.0,1669796670.773
2041422.0,1669796670.734
2043914.0,1669796670.812
2045163.0,1669796670.851
2046815.0,1669796670.89
2048067.0,1669796670.929
2038063.0,1669796670.5
2037826.0,1669796670.422
2038655.0,1669796670.617
2049148.0,1669796670.968
2050387.0,1669796671.007
2051978.0,1669796671.046
2053567.0,1669796671.085
2055272.0,1669796671.124
2055598.0,1669796671.163
2052822.0,1669796671.202
2050295.0,1669796671.241
2048610.0,1669796671.28
2047322.0,1669796671.358
2047518.0,1669796671.319
2047500.0,1669796671.397
2047799.0,1669796671.436
2047825.0,1669796671.475
2047569.0,1669796671.514
2047496.0,1669796671.553
2048021.0,1669796671.631
2047508.0,1669796671.592
2049766.0,1669796671.709
2050563.0,1669796671.748
2048771.0,1669796671.67
2051754.0,1669796671.787
2052239.0,1669796671.826
2054706.0,1669796671.904
2055570.0,1669796671.943
2053567.0,1669796671.865
2056753.0,1669796671.982
2059127.0,1669796672.06
2060938.0,1669796672.138
2057549.0,1669796672.177
2054164.0,1669796672.216
2060689.0,1669796672.099
2058081.0,1669796672.021
2051557.0,1669796672.255
2049596.0,1669796672.294
2047721.0,1669796672.372
2048430.0,1669796672.333
2047054.0,1669796672.411
2046690.0,1669796672.45
2046222.0,1669796672.489
2045398.0,1669796672.528
2045258.0,1669796672.567
2045436.0,1669796672.606
2045567.0,1669796672.645
2046225.0,1669796672.684
2046950.0,1669796672.723
2047533.0,1669796672.762
2048454.0,1669796672.801
2049136.0,1669796672.84
2049818.0,1669796672.879
2050724.0,1669796672.918
2052144.0,1669796672.957
2053086.0,1669796672.996
2053906.0,1669796673.035
2055219.0,1669796673.074
2056338.0,1669796673.113
2056942.0,1669796673.153
2054918.0,1669796673.193
2050280.0,1669796673.233
2046348.0,1669796673.273
2043588.0,1669796673.313
2041537.0,1669796673.353
2039865.0,1669796673.393
2039414.0,1669796673.433
2038215.0,1669796673.473
2037590.0,1669796673.513
2036480.0,1669796673.553
2035509.0,1669796673.593
2035472.0,1669796673.633
2035174.0,1669796673.673
2035520.0,1669796673.713
2035857.0,1669796673.753
2036449.0,1669796673.793
2037419.0,1669796673.833
2038291.0,1669796673.873
2039064.0,1669796673.913
2039726.0,1669796673.953
2040708.0,1669796673.993
2041648.0,1669796674.033
2042354.0,1669796674.073
2043148.0,1669796674.113
2043148.0,1669796674.153
2044028.0,1669796674.193
2045029.0,1669796674.233
2046043.0,1669796674.273
2044436.0,1669796674.313
2040642.0,1669796674.353
2037775.0,1669796674.393
2035805.0,1669796674.433
2035040.0,1669796674.473
2034691.0,1669796674.513
2034848.0,1669796674.553
2034795.0,1669796674.593
2034616.0,1669796674.633
2033977.0,1669796674.673
2033758.0,1669796674.713
2032708.0,1669796674.753
2030362.0,1669796674.793
2029025.0,1669796674.833
2028951.0,1669796674.873
2030072.0,1669796674.913
2031525.0,1669796674.953
2033360.0,1669796674.993
2035479.0,1669796675.033
2037073.0,1669796675.073
2038996.0,1669796675.113
2040830.0,1669796675.153
2042271.0,1669796675.193
2044280.0,1669796675.233
2045955.0,1669796675.273
2046239.0,1669796675.313
2043781.0,1669796675.353
2040058.0,1669796675.393
2037515.0,1669796675.433
2036515.0,1669796675.473
2035517.0,1669796675.513
2034864.0,1669796675.553
2034809.0,1669796675.593
2034758.0,1669796675.633
2034353.0,1669796675.673
2033790.0,1669796675.713
2033459.0,1669796675.753
2033436.0,1669796675.793
2034066.0,1669796675.833
2034493.0,1669796675.873
2035241.0,1669796675.913
2035919.0,1669796675.953
2036860.0,1669796675.993
2038043.0,1669796676.033
2039727.0,1669796676.073
2041335.0,1669796676.113
2042780.0,1669796676.153
2044758.0,1669796676.193
2046822.0,1669796676.233
2048453.0,1669796676.273
2050543.0,1669796676.313
2051963.0,1669796676.353
2051106.0,1669796676.393
2048058.0,1669796676.433
2045196.0,1669796676.473
2043631.0,1669796676.513
2043122.0,1669796676.553
2042544.0,1669796676.593
2042500.0,1669796676.633
2042851.0,1669796676.673
2042196.0,1669796676.713
2041823.0,1669796676.753
2041638.0,1669796676.793
2041845.0,1669796676.833
2042101.0,1669796676.873
2042900.0,1669796676.913
2043639.0,1669796676.953
2044380.0,1669796676.993
2044997.0,1669796677.033
2045940.0,1669796677.073
2046805.0,1669796677.113
2047895.0,1669796677.153
2048880.0,1669796677.193
2050074.0,1669796677.233
2051355.0,1669796677.273
2053001.0,1669796677.313
2054314.0,1669796677.353
2056133.0,1669796677.393
2057587.0,1669796677.433
2056999.0,1669796677.473
2054376.0,1669796677.513
2051778.0,1669796677.553
2050928.0,1669796677.593
2050520.0,1669796677.633
2050518.0,1669796677.673
2050771.0,1669796677.713
2051207.0,1669796677.753
2051006.0,1669796677.793
2051000.0,1669796677.833
2051000.0,1669796677.873
2050852.0,1669796677.913
2051270.0,1669796677.953
2051911.0,1669796677.993
2052648.0,1669796678.033
2053641.0,1669796678.073
2054350.0,1669796678.113
2055244.0,1669796678.153
2056385.0,1669796678.193
2057193.0,1669796678.233
2058298.0,1669796678.273
2059432.0,1669796678.313
2060312.0,1669796678.353
2061793.0,1669796678.393
2062847.0,1669796678.433
2063821.0,1669796678.473
2065136.0,1669796678.513
2063326.0,1669796678.553
2060314.0,1669796678.593
2057214.0,1669796678.633
2055643.0,1669796678.673
2054826.0,1669796678.713
2054344.0,1669796678.753
2054045.0,1669796678.793
2054220.0,1669796678.833
2053978.0,1669796678.873
2053338.0,1669796678.913
2052916.0,1669796678.953
2053010.0,1669796678.993
2053202.0,1669796679.033
2053668.0,1669796679.073
2054119.0,1669796679.113
2054640.0,1669796679.153
2055429.0,1669796679.193
2055826.0,1669796679.233
2056866.0,1669796679.273
2057026.0,1669796679.313
2058039.0,1669796679.353
2058853.0,1669796679.393
2059594.0,1669796679.433
2060544.0,1669796679.473
2061438.0,1669796679.513
2062817.0,1669796679.553
2063084.0,1669796679.593
2060544.0,1669796679.633
2056592.0,1669796679.673
2053767.0,1669796679.713
2051702.0,1669796679.753
2050291.0,1669796679.793
2049546.0,1669796679.833
2048978.0,1669796679.873
2048142.0,1669796679.913
2047218.0,1669796679.953
2046351.0,1669796679.993
2045619.0,1669796680.033
2045055.0,1669796680.073
2045306.0,1669796680.113
2045013.0,1669796680.153
2044996.0,1669796680.193
2045632.0,1669796680.233
2045833.0,1669796680.273
2046005.0,1669796680.313
2046103.0,1669796680.353
2046444.0,1669796680.393
2047089.0,1669796680.433
2047274.0,1669796680.473
2047953.0,1669796680.513
2048477.0,1669796680.553
2048993.0,1669796680.593
2049624.0,1669796680.633
2050256.0,1669796680.673
2047486.0,1669796680.713
2043630.0,1669796680.753
2040155.0,1669796680.793
2038035.0,1669796680.833
2036811.0,1669796680.873
2035784.0,1669796680.913
2035208.0,1669796680.953
2034084.0,1669796680.993
2032971.0,1669796681.033
2031565.0,1669796681.073
2030570.0,1669796681.147
2030112.0,1669796681.186
2029571.0,1669796681.227
2029648.0,1669796681.266
2029840.0,1669796681.306
2029599.0,1669796681.348
2029839.0,1669796681.387
2029938.0,1669796681.427
2029925.0,1669796681.468
2030564.0,1669796681.507
2030745.0,1669796681.547
2031265.0,1669796681.588
2032113.0,1669796681.627
2032333.0,1669796681.667
2033095.0,1669796681.708
2033801.0,1669796681.748
2031991.0,1669796681.787
2027521.0,1669796681.828
2023471.0,1669796681.867
2020170.0,1669796681.907
2017832.0,1669796681.949
2015940.0,1669796681.987
2014630.0,1669796682.027
2013720.0,1669796682.068
2012291.0,1669796682.107
2010526.0,1669796682.148
2009407.0,1669796682.189
2008851.0,1669796682.228
2007983.0,1669796682.268
2007803.0,1669796682.309
2007722.0,1669796682.349
2007808.0,1669796682.388
2008068.0,1669796682.429
2007971.0,1669796682.468
2008192.0,1669796682.508
2008589.0,1669796682.55
2008988.0,1669796682.588
2009421.0,1669796682.628
2010012.0,1669796682.669
2010588.0,1669796682.708
2011640.0,1669796682.749
2012318.0,1669796682.79
2012766.0,1669796682.829
2012448.0,1669796682.869
2008472.0,1669796682.91
2003757.0,1669796682.949
2000139.0,1669796682.989
1997279.0,1669796683.03
1995137.0,1669796683.069
1993614.0,1669796683.109
1992788.0,1669796683.151
1991431.0,1669796683.189
1989954.0,1669796683.229
1988491.0,1669796683.27
1987450.0,1669796683.309
1986672.0,1669796683.35
1986294.0,1669796683.391
1986397.0,1669796683.43
1986634.0,1669796683.47
1986777.0,1669796683.511
1986548.0,1669796683.551
1987121.0,1669796683.59
1987056.0,1669796683.631
1987644.0,1669796683.67
1988340.0,1669796683.71
1988795.0,1669796683.752
1989234.0,1669796683.791
1990026.0,1669796683.83
1990551.0,1669796683.872
1991581.0,1669796683.911
1992380.0,1669796683.951
1992535.0,1669796683.992
1989329.0,1669796684.031
1985407.0,1669796684.071
1982363.0,1669796684.112
1980684.0,1669796684.152
1979507.0,1669796684.191
1979018.0,1669796684.232
1979112.0,1669796684.271
1978203.0,1669796684.311
1976980.0,1669796684.353
1976454.0,1669796684.392
1975945.0,1669796684.432
1975732.0,1669796684.473
1975972.0,1669796684.512
1976470.0,1669796684.552
1976960.0,1669796684.593
1977665.0,1669796684.632
1977956.0,1669796684.672
1978743.0,1669796684.713
1979567.0,1669796684.753
1980491.0,1669796684.792
1981090.0,1669796684.833
1982308.0,1669796684.872
1983434.0,1669796684.912
1984186.0,1669796684.954
1985644.0,1669796684.993
1986707.0,1669796685.033
1985484.0,1669796685.074
1981556.0,1669796685.113
1977817.0,1669796685.154
1975121.0,1669796685.194
1973317.0,1669796685.233
1971918.0,1669796685.273
1971044.0,1669796685.314
1970431.0,1669796685.354
1969890.0,1669796685.393
1969109.0,1669796685.434
1968753.0,1669796685.474
1968792.0,1669796685.514
1969112.0,1669796685.555
1969371.0,1669796685.595
1969934.0,1669796685.63
1970199.0,1669796685.669
1970485.0,1669796685.708
1971098.0,1669796685.749
1971748.0,1669796685.79
1972413.0,1669796685.829
1973701.0,1669796685.869
1974749.0,1669796685.91
1975514.0,1669796685.95
1976721.0,1669796685.99
1977868.0,1669796686.029
1979054.0,1669796686.068
1980122.0,1669796686.109
1981174.0,1669796686.151
1979181.0,1669796686.176
1975009.0,1669796686.216
1968939.0,1669796686.296
1971654.0,1669796686.257
1966163.0,1669796686.378
1967434.0,1669796686.337
1965263.0,1669796686.417
1964814.0,1669796686.457
1963985.0,1669796686.498
1962986.0,1669796686.538
1962325.0,1669796686.577
1962346.0,1669796686.618
1962218.0,1669796686.657
1962490.0,1669796686.697
1963038.0,1669796686.739
1963556.0,1669796686.777
1964121.0,1669796686.817
1964896.0,1669796686.852
1965312.0,1669796686.887
1966043.0,1669796686.928
1966712.0,1669796686.969
1967385.0,1669796687.008
1968347.0,1669796687.048
1969242.0,1669796687.087
1969921.0,1669796687.118
1971227.0,1669796687.158
1972200.0,1669796687.199
1972999.0,1669796687.238
1972255.0,1669796687.278
1969021.0,1669796687.32
1965807.0,1669796687.358
1964280.0,1669796687.398
1962875.0,1669796687.439
1962831.0,1669796687.478
1962737.0,1669796687.519
1962712.0,1669796687.56
1962200.0,1669796687.599
1961865.0,1669796687.639
1961655.0,1669796687.68
1961630.0,1669796687.72
1962172.0,1669796687.759
1962605.0,1669796687.8
1963649.0,1669796687.839
1964522.0,1669796687.879
1965459.0,1669796687.921
1966568.0,1669796687.96
1967609.0,1669796688.0
1968875.0,1669796688.041
1969998.0,1669796688.08
1971442.0,1669796688.121
1972649.0,1669796688.162
1974230.0,1669796688.196
1975711.0,1669796688.231
1977476.0,1669796688.27
1979004.0,1669796688.31
1978543.0,1669796688.35
1975653.0,1669796688.391
1972987.0,1669796688.43
1971121.0,1669796688.47
1970052.0,1669796688.512
1969748.0,1669796688.551
1969534.0,1669796688.591
1969352.0,1669796688.63
1969555.0,1669796688.669
1969188.0,1669796688.71
1969141.0,1669796688.742
1969141.0,1669796688.781
1969427.0,1669796688.821
1969846.0,1669796688.862
1970753.0,1669796688.902
1971396.0,1669796688.941
1972348.0,1669796688.982
1973527.0,1669796689.021
1974702.0,1669796689.062
1975589.0,1669796689.103
1976971.0,1669796689.142
1978099.0,1669796689.182
1979063.0,1669796689.223
1980407.0,1669796689.262
1981626.0,1669796689.303
1983085.0,1669796689.343
1984675.0,1669796689.382
1986031.0,1669796689.413
1987010.0,1669796689.456
1986608.0,1669796689.492
1983252.0,1669796689.529
1980455.0,1669796689.57
1978336.0,1669796689.609
1976941.0,1669796689.649
1976108.0,1669796689.691
1975676.0,1669796689.73
1975339.0,1669796689.77
1974971.0,1669796689.811
1974812.0,1669796689.851
1974400.0,1669796689.889
1973981.0,1669796689.93
1973287.0,1669796689.967
1973451.0,1669796690.007
1973473.0,1669796690.048
1973782.0,1669796690.088
1974348.0,1669796690.127
1974619.0,1669796690.169
1975057.0,1669796690.208
1975582.0,1669796690.248
1975800.0,1669796690.29
1976831.0,1669796690.328
1977674.0,1669796690.368
1978186.0,1669796690.409
1979012.0,1669796690.448
1980343.0,1669796690.489
1980908.0,1669796690.529
1982314.0,1669796690.568
1982072.0,1669796690.608
1979248.0,1669796690.649
1976146.0,1669796690.69
1974446.0,1669796690.73
1973585.0,1669796690.77
1973714.0,1669796690.809
1973848.0,1669796690.849
1973867.0,1669796690.891
1973734.0,1669796690.93
1973109.0,1669796690.97
1973122.0,1669796691.012
1973293.0,1669796691.051
1973712.0,1669796691.092
1974649.0,1669796691.13
1975710.0,1669796691.17
1976843.0,1669796691.21
1977511.0,1669796691.251
1978796.0,1669796691.29
1980087.0,1669796691.33
1980994.0,1669796691.371
1982204.0,1669796691.41
1983427.0,1669796691.45
1984471.0,1669796691.492
1986034.0,1669796691.53
1987283.0,1669796691.57
1988765.0,1669796691.611
1990058.0,1669796691.65
1990240.0,1669796691.691
1987286.0,1669796691.731
1983339.0,1669796691.77
1980711.0,1669796691.811
1979269.0,1669796691.852
1978052.0,1669796691.891
1976911.0,1669796691.931
1976535.0,1669796691.972
1975613.0,1669796692.012
1974811.0,1669796692.05
1973984.0,1669796692.092
1973300.0,1669796692.13
1973318.0,1669796692.171
1973420.0,1669796692.212
1974099.0,1669796692.251
1973981.0,1669796692.292
1974574.0,1669796692.332
1975179.0,1669796692.372
1975805.0,1669796692.412
1976019.0,1669796692.444
1976793.0,1669796692.484
1977399.0,1669796692.523
1978203.0,1669796692.564
1978925.0,1669796692.603
1979812.0,1669796692.643
1980578.0,1669796692.685
1981119.0,1669796692.724
1981708.0,1669796692.764
1981159.0,1669796692.805
1977235.0,1669796692.844
1972076.0,1669796692.885
1968318.0,1669796692.925
1965191.0,1669796692.964
1962184.0,1669796693.004
1959755.0,1669796693.045
1957998.0,1669796693.084
1956269.0,1669796693.123
1955023.0,1669796693.162
1953754.0,1669796693.201
1951925.0,1669796693.318
1952384.0,1669796693.279
1952960.0,1669796693.24
1951843.0,1669796693.357
1951586.0,1669796693.396
1952056.0,1669796693.435
1952319.0,1669796693.474
1952621.0,1669796693.513
1952961.0,1669796693.552
1953407.0,1669796693.591
1953694.0,1669796693.63
1954336.0,1669796693.669
1955158.0,1669796693.708
1955828.0,1669796693.747
1955828.0,1669796693.786
1956271.0,1669796693.825
1956875.0,1669796693.864
1957003.0,1669796693.903
1954759.0,1669796693.942
1951528.0,1669796693.981
1949171.0,1669796694.02
1947717.0,1669796694.059
1946819.0,1669796694.098
1945529.0,1669796694.137
1944954.0,1669796694.176
1944435.0,1669796694.215
1944468.0,1669796694.254
1944084.0,1669796694.293
1943779.0,1669796694.332
1944366.0,1669796694.371
1945120.0,1669796694.41
1945659.0,1669796694.449
1946280.0,1669796694.488
1947235.0,1669796694.527
1947862.0,1669796694.566
1948764.0,1669796694.605
1949585.0,1669796694.644
1950142.0,1669796694.683
1951335.0,1669796694.722
1954001.0,1669796694.8
1955529.0,1669796694.839
1956920.0,1669796694.878
1952826.0,1669796694.761
1958334.0,1669796694.917
1959148.0,1669796694.956
1957139.0,1669796694.995
1953579.0,1669796695.034
1950363.0,1669796695.073
1948482.0,1669796695.112
1946958.0,1669796695.151
1945482.0,1669796695.19
1945466.0,1669796695.229
1945097.0,1669796695.268
1944818.0,1669796695.307
1944824.0,1669796695.346
1944707.0,1669796695.385
1944495.0,1669796695.424
1944757.0,1669796695.463
1945879.0,1669796695.541
1946652.0,1669796695.58
1947622.0,1669796695.619
1948513.0,1669796695.658
1949383.0,1669796695.697
1945108.0,1669796695.502
1951674.0,1669796695.775
1950437.0,1669796695.736
1952804.0,1669796695.814
1953838.0,1669796695.853
1955521.0,1669796695.892
1956864.0,1669796695.931
1958010.0,1669796695.97
1959991.0,1669796696.048
1959338.0,1669796696.009
1956832.0,1669796696.087
1953599.0,1669796696.126
1951596.0,1669796696.165
1950420.0,1669796696.204
1949689.0,1669796696.243
1948815.0,1669796696.282
1948722.0,1669796696.36
1948779.0,1669796696.321
1948541.0,1669796696.399
1948341.0,1669796696.438
1948098.0,1669796696.477
1948443.0,1669796696.516
1948926.0,1669796696.555
1949892.0,1669796696.594
1950718.0,1669796696.633
1951766.0,1669796696.672
1952689.0,1669796696.711
1953304.0,1669796696.75
1954345.0,1669796696.789
1955582.0,1669796696.828
1956765.0,1669796696.867
1958297.0,1669796696.906
1959679.0,1669796696.945
1961138.0,1669796696.984
1962971.0,1669796697.024
1964585.0,1669796697.064
1965557.0,1669796697.104
1963328.0,1669796697.144
1961200.0,1669796697.184
1959405.0,1669796697.224
1959248.0,1669796697.264
1959158.0,1669796697.304
1959572.0,1669796697.344
1960832.0,1669796697.384
1962485.0,1669796697.424
1963583.0,1669796697.464
1964689.0,1669796697.504
1964892.0,1669796697.544
1965450.0,1669796697.584
1965990.0,1669796697.624
1966861.0,1669796697.664
1967644.0,1669796697.704
1968891.0,1669796697.744
1970660.0,1669796697.784
1972207.0,1669796697.824
1974328.0,1669796697.864
1975624.0,1669796697.904
1977509.0,1669796697.944
1979183.0,1669796697.984
1980805.0,1669796698.024
1982076.0,1669796698.064
1983812.0,1669796698.104
1985116.0,1669796698.144
1986696.0,1669796698.184
1987221.0,1669796698.224
1984163.0,1669796698.264
1981036.0,1669796698.304
1978651.0,1669796698.344
1977045.0,1669796698.384
1976169.0,1669796698.424
1975316.0,1669796698.464
1974973.0,1669796698.504
1974688.0,1669796698.544
1974241.0,1669796698.584
1973281.0,1669796698.624
1973520.0,1669796698.664
1973564.0,1669796698.704
1973818.0,1669796698.744
1974164.0,1669796698.784
1974806.0,1669796698.824
1975462.0,1669796698.864
1975806.0,1669796698.904
1976945.0,1669796698.944
1977824.0,1669796698.984
1978676.0,1669796699.024
1979591.0,1669796699.064
1980664.0,1669796699.104
1981850.0,1669796699.144
1983225.0,1669796699.184
1984063.0,1669796699.224
1985211.0,1669796699.264
1986628.0,1669796699.304
1987782.0,1669796699.344
1988296.0,1669796699.384
1985528.0,1669796699.424
1982189.0,1669796699.464
1980009.0,1669796699.504
1978782.0,1669796699.544
1977579.0,1669796699.584
1976797.0,1669796699.624
1976440.0,1669796699.664
1975781.0,1669796699.704
1975179.0,1669796699.744
1974492.0,1669796699.784
1974176.0,1669796699.824
1973932.0,1669796699.864
1974249.0,1669796699.904
1974586.0,1669796699.944
1974743.0,1669796699.984
1975327.0,1669796700.024
1975970.0,1669796700.064
1976380.0,1669796700.104
1976872.0,1669796700.144
1977754.0,1669796700.184
1977972.0,1669796700.224
1979044.0,1669796700.264
1979815.0,1669796700.304
1981021.0,1669796700.344
1981771.0,1669796700.384
1982845.0,1669796700.424
1983938.0,1669796700.464
1985007.0,1669796700.504
1982856.0,1669796700.544
1979930.0,1669796700.584
1978429.0,1669796700.624
1977337.0,1669796700.664
1977041.0,1669796700.704
1977071.0,1669796700.744
1977460.0,1669796700.784
1977652.0,1669796700.824
1977870.0,1669796700.864
1978607.0,1669796700.904
1979482.0,1669796700.944
1980076.0,1669796700.984
1980076.0,1669796701.024
1980848.0,1669796701.064
1981928.0,1669796701.104
1982504.0,1669796701.144
1983598.0,1669796701.184
1984374.0,1669796701.224
1985236.0,1669796701.264
1986659.0,1669796701.304
1987656.0,1669796701.344
1988591.0,1669796701.384
1989891.0,1669796701.424
1991509.0,1669796701.464
1992546.0,1669796701.504
1993754.0,1669796701.544
1995062.0,1669796701.584
1996322.0,1669796701.624
1996499.0,1669796701.664
1993906.0,1669796701.704
1991154.0,1669796701.744
1988659.0,1669796701.784
1987774.0,1669796701.824
1986860.0,1669796701.864
1985764.0,1669796701.904
1985317.0,1669796701.944
1985089.0,1669796701.984
1984015.0,1669796702.024
1983458.0,1669796702.064
1982817.0,1669796702.104
1982460.0,1669796702.144
1982653.0,1669796702.184
1983045.0,1669796702.224
1983233.0,1669796702.264
1983763.0,1669796702.304
1984479.0,1669796702.344
1984819.0,1669796702.384
1985271.0,1669796702.424
1985849.0,1669796702.464
1986349.0,1669796702.504
1987082.0,1669796702.544
1987926.0,1669796702.584
1988874.0,1669796702.624
1989322.0,1669796702.664
1989959.0,1669796702.704
1990971.0,1669796702.744
1991501.0,1669796702.784
1989350.0,1669796702.824
1985717.0,1669796702.864
1983036.0,1669796702.904
1981406.0,1669796702.944
1980333.0,1669796702.984
1979652.0,1669796703.024
1978959.0,1669796703.064
1978668.0,1669796703.104
1977941.0,1669796703.144
1977088.0,1669796703.184
1976343.0,1669796703.224
1975909.0,1669796703.264
1976026.0,1669796703.304
1975878.0,1669796703.344
1976210.0,1669796703.384
1976623.0,1669796703.424
1976826.0,1669796703.464
1977373.0,1669796703.504
1978016.0,1669796703.544
1978669.0,1669796703.584
1978966.0,1669796703.624
1979780.0,1669796703.664
1980746.0,1669796703.704
1981602.0,1669796703.744
1982630.0,1669796703.784
1983987.0,1669796703.824
1984889.0,1669796703.864
1985678.0,1669796703.904
1984105.0,1669796703.944
1980889.0,1669796703.984
1978719.0,1669796704.024
1977514.0,1669796704.064
1976964.0,1669796704.104
1977364.0,1669796704.144
1977458.0,1669796704.184
1977563.0,1669796704.224
1977253.0,1669796704.264
1977150.0,1669796704.304
1977180.0,1669796704.344
1977619.0,1669796704.384
1978084.0,1669796704.424
1979042.0,1669796704.464
1979971.0,1669796704.504
1981012.0,1669796704.544
1981688.0,1669796704.584
1982497.0,1669796704.624
1983424.0,1669796704.664
1984553.0,1669796704.704
1985459.0,1669796704.744
1986560.0,1669796704.784
1987768.0,1669796704.824
1988948.0,1669796704.864
1990101.0,1669796704.904
1991476.0,1669796704.944
1992824.0,1669796704.976
1992631.0,1669796705.015
1989285.0,1669796705.056
1985710.0,1669796705.095
1982717.0,1669796705.136
1981192.0,1669796705.177
1979719.0,1669796705.216
1978293.0,1669796705.256
1977762.0,1669796705.297
1976415.0,1669796705.336
1974186.0,1669796705.418
1973449.0,1669796705.455
1975125.0,1669796705.377
1973371.0,1669796705.491
1973397.0,1669796705.525
1973308.0,1669796705.563
1973710.0,1669796705.602
1974001.0,1669796705.637
1974001.0,1669796705.676
1974383.0,1669796705.716
1974849.0,1669796705.758
1975109.0,1669796705.796
1975674.0,1669796705.836
1976261.0,1669796705.877
1976852.0,1669796705.916
1977615.0,1669796705.957
1978331.0,1669796705.998
1978850.0,1669796706.037
1979916.0,1669796706.077
1980424.0,1669796706.118
1980777.0,1669796706.158
1978272.0,1669796706.197
1974004.0,1669796706.238
1970617.0,1669796706.277
1967901.0,1669796706.317
1964613.0,1669796706.397
1963772.0,1669796706.437
1963106.0,1669796706.479
1966097.0,1669796706.359
1961658.0,1669796706.518
1960475.0,1669796706.558
1959387.0,1669796706.597
1958898.0,1669796706.63
1958811.0,1669796706.67
1959029.0,1669796706.706
1959326.0,1669796706.742
1959571.0,1669796706.782
1960119.0,1669796706.823
1960303.0,1669796706.863
1961118.0,1669796706.901
1961734.0,1669796706.94
1962544.0,1669796706.978
1963488.0,1669796707.018
1964569.0,1669796707.059
1965804.0,1669796707.098
1967031.0,1669796707.139
1968407.0,1669796707.179
1969550.0,1669796707.219
1968024.0,1669796707.3
1970380.0,1669796707.259
1964179.0,1669796707.34
1961451.0,1669796707.379
1960362.0,1669796707.42
1959337.0,1669796707.459
1958640.0,1669796707.499
1958746.0,1669796707.541
1958476.0,1669796707.579
1958131.0,1669796707.62
1957435.0,1669796707.661
1957009.0,1669796707.701
1957511.0,1669796707.741
1957727.0,1669796707.783
1958556.0,1669796707.822
1959477.0,1669796707.863
1961079.0,1669796707.943
1962247.0,1669796707.983
1962718.0,1669796708.024
1960078.0,1669796707.903
1963851.0,1669796708.055
1965037.0,1669796708.095
1966008.0,1669796708.137
1967563.0,1669796708.175
1968271.0,1669796708.215
1969715.0,1669796708.257
1971075.0,1669796708.296
1972199.0,1669796708.336
1973650.0,1669796708.377
1971907.0,1669796708.416
1967842.0,1669796708.456
1964878.0,1669796708.497
1962645.0,1669796708.537
1961193.0,1669796708.576
1960019.0,1669796708.617
1959513.0,1669796708.657
1959291.0,1669796708.697
1958780.0,1669796708.738
1958164.0,1669796708.775
1957691.0,1669796708.808
1957679.0,1669796708.85
1957866.0,1669796708.886
1958114.0,1669796708.924
1958480.0,1669796708.965
1959464.0,1669796709.004
1960072.0,1669796709.044
1960692.0,1669796709.086
1961604.0,1669796709.126
1962300.0,1669796709.165
1963180.0,1669796709.207
1964045.0,1669796709.246
1964956.0,1669796709.283
1966093.0,1669796709.324
1967305.0,1669796709.363
1968021.0,1669796709.403
1969270.0,1669796709.444
1970295.0,1669796709.483
1970980.0,1669796709.524
1968898.0,1669796709.564
1965307.0,1669796709.603
1962778.0,1669796709.643
1961095.0,1669796709.684
1959991.0,1669796709.724
1959076.0,1669796709.763
1958641.0,1669796709.804
1958278.0,1669796709.843
1957521.0,1669796709.884
1956730.0,1669796709.925
1956214.0,1669796709.964
1956074.0,1669796710.004
1956404.0,1669796710.046
1956507.0,1669796710.085
1957114.0,1669796710.126
1957732.0,1669796710.167
1958509.0,1669796710.206
1959276.0,1669796710.246
1960101.0,1669796710.288
1960899.0,1669796710.324
1960899.0,1669796710.356
1961907.0,1669796710.397
1962831.0,1669796710.436
1964269.0,1669796710.476
1965544.0,1669796710.518
1966945.0,1669796710.556
1968184.0,1669796710.596
1969570.0,1669796710.637
1970761.0,1669796710.676
1970337.0,1669796710.717
1967465.0,1669796710.758
1964420.0,1669796710.797
1962968.0,1669796710.837
1962302.0,1669796710.878
1961546.0,1669796710.918
1961333.0,1669796710.957
1961396.0,1669796710.998
1960932.0,1669796711.03
1960459.0,1669796711.071
1959860.0,1669796711.108
1959860.0,1669796711.144
1960417.0,1669796711.184
1961039.0,1669796711.225
1961662.0,1669796711.265
1962281.0,1669796711.306
1963018.0,1669796711.346
1963636.0,1669796711.385
1964511.0,1669796711.426
1965519.0,1669796711.467
1966113.0,1669796711.505
1967216.0,1669796711.538
1968319.0,1669796711.579
1969146.0,1669796711.618
1970469.0,1669796711.658
1971733.0,1669796711.7
1972437.0,1669796711.739
1973835.0,1669796711.779
1974985.0,1669796711.82
1973554.0,1669796711.859
1969951.0,1669796711.9
1966450.0,1669796711.94
1963472.0,1669796711.979
1961860.0,1669796712.019
1960511.0,1669796712.06
1958954.0,1669796712.1
1958455.0,1669796712.14
1957555.0,1669796712.181
1956597.0,1669796712.22
1955596.0,1669796712.254
1955196.0,1669796712.288
1954633.0,1669796712.326
1954877.0,1669796712.366
1955122.0,1669796712.407
1955405.0,1669796712.447
1955766.0,1669796712.487
1956133.0,1669796712.528
1956463.0,1669796712.567
1956922.0,1669796712.605
1957376.0,1669796712.647
1957896.0,1669796712.687
1958691.0,1669796712.726
1959404.0,1669796712.767
1960186.0,1669796712.806
1960904.0,1669796712.846
1961682.0,1669796712.888
1962413.0,1669796712.927
1963258.0,1669796712.967
1964066.0,1669796713.008
1961903.0,1669796713.047
1957743.0,1669796713.088
1954199.0,1669796713.128
1951484.0,1669796713.167
1950098.0,1669796713.207
1948649.0,1669796713.248
1948273.0,1669796713.288
1947448.0,1669796713.327
1946387.0,1669796713.368
1945054.0,1669796713.407
1944275.0,1669796713.447
1944025.0,1669796713.489
1944295.0,1669796713.527
1944513.0,1669796713.568
1945148.0,1669796713.607
1945569.0,1669796713.646
1946492.0,1669796713.687
1947222.0,1669796713.728
1948247.0,1669796713.767
1948931.0,1669796713.807
1949945.0,1669796713.849
1951221.0,1669796713.889
1952198.0,1669796713.926
1953573.0,1669796713.968
1955236.0,1669796713.998
1955236.0,1669796714.038
1956285.0,1669796714.08
1958013.0,1669796714.118
1959091.0,1669796714.158
1960065.0,1669796714.199
1957569.0,1669796714.239
1953590.0,1669796714.279
1950407.0,1669796714.32
1948709.0,1669796714.359
1947304.0,1669796714.399
1946525.0,1669796714.44
1945992.0,1669796714.48
1945466.0,1669796714.519
1945057.0,1669796714.56
1944182.0,1669796714.599
1943779.0,1669796714.639
1943973.0,1669796714.681
1944431.0,1669796714.719
1944851.0,1669796714.759
1945500.0,1669796714.798
1946405.0,1669796714.827
1947176.0,1669796714.868
1948064.0,1669796714.907
1948775.0,1669796714.946
1949588.0,1669796714.986
1950584.0,1669796715.027
1951593.0,1669796715.067
1952533.0,1669796715.107
1953740.0,1669796715.148
1955022.0,1669796715.187
1956333.0,1669796715.222
1957273.0,1669796715.264
1958726.0,1669796715.303
1959940.0,1669796715.343
1958944.0,1669796715.384
1954384.0,1669796715.423
1950413.0,1669796715.464
1947872.0,1669796715.504
1945929.0,1669796715.543
1944918.0,1669796715.583
1943832.0,1669796715.625
1943135.0,1669796715.664
1942236.0,1669796715.704
1941334.0,1669796715.745
1940386.0,1669796715.784
1940037.0,1669796715.824
1939924.0,1669796715.866
1940281.0,1669796715.904
1940757.0,1669796715.945
1941332.0,1669796715.987
1941723.0,1669796716.026
1942419.0,1669796716.067
1943025.0,1669796716.107
1943448.0,1669796716.146
1944256.0,1669796716.186
1945221.0,1669796716.228
1945848.0,1669796716.268
1947069.0,1669796716.307
1948040.0,1669796716.349
1948972.0,1669796716.388
1949940.0,1669796716.428
1950943.0,1669796716.467
1952005.0,1669796716.505
1952809.0,1669796716.545
1950288.0,1669796716.586
1946077.0,1669796716.625
1942577.0,1669796716.666
1941129.0,1669796716.706
1939641.0,1669796716.745
1939042.0,1669796716.785
1939082.0,1669796716.827
1938779.0,1669796716.894
1938173.0,1669796716.934
1937491.0,1669796716.975
1937114.0,1669796717.014
1937311.0,1669796717.054
1937832.0,1669796717.096
1938306.0,1669796717.134
1939053.0,1669796717.174
1940235.0,1669796717.215
1940956.0,1669796717.254
1942285.0,1669796717.295
1943467.0,1669796717.336
1944163.0,1669796717.375
1945518.0,1669796717.415
1946772.0,1669796717.456
1948310.0,1669796717.496
1949757.0,1669796717.535
1951425.0,1669796717.576
1952826.0,1669796717.615
1954310.0,1669796717.655
1955774.0,1669796717.697
1955097.0,1669796717.728
1951452.0,1669796717.768
1947965.0,1669796717.809
1945349.0,1669796717.848
1944090.0,1669796717.889
1943032.0,1669796717.93
1942381.0,1669796717.969
1942140.0,1669796718.009
1941884.0,1669796718.05
1941295.0,1669796718.09
1940980.0,1669796718.129
1940617.0,1669796718.17
1940821.0,1669796718.209
1941432.0,1669796718.249
1942192.0,1669796718.291
1942789.0,1669796718.329
1943765.0,1669796718.37
1944452.0,1669796718.411
1945268.0,1669796718.447
1946085.0,1669796718.488
1947240.0,1669796718.522
1948092.0,1669796718.558
1949398.0,1669796718.596
1950539.0,1669796718.638
1951654.0,1669796718.678
1953046.0,1669796718.717
1954098.0,1669796718.758
1955433.0,1669796718.798
1956763.0,1669796718.838
1955395.0,1669796718.88
1951114.0,1669796718.916
1946831.0,1669796718.956
1944538.0,1669796718.997
1942533.0,1669796719.036
1941468.0,1669796719.077
1940536.0,1669796719.117
1940010.0,1669796719.156
1939272.0,1669796719.196
1938208.0,1669796719.237
1937119.0,1669796719.277
1936776.0,1669796719.316
1936722.0,1669796719.357
1936759.0,1669796719.397
1937278.0,1669796719.437
1937726.0,1669796719.478
1938363.0,1669796719.517
1938629.0,1669796719.557
1939078.0,1669796719.598
1939891.0,1669796719.638
1940392.0,1669796719.679
1941014.0,1669796719.719
1941621.0,1669796719.755
1942430.0,1669796719.795
1943565.0,1669796719.836
1944336.0,1669796719.876
1944336.0,1669796719.914
1945207.0,1669796719.956
1946262.0,1669796719.995
1947267.0,1669796720.036
1946042.0,1669796720.078
1941924.0,1669796720.117
1937486.0,1669796720.156
1934695.0,1669796720.187
1933173.0,1669796720.226
1931838.0,1669796720.267
1931411.0,1669796720.307
1930970.0,1669796720.346
1929916.0,1669796720.387
1928990.0,1669796720.428
1928165.0,1669796720.467
1927280.0,1669796720.507
1927422.0,1669796720.548
1927867.0,1669796720.587
1928046.0,1669796720.627
1928972.0,1669796720.669
1929338.0,1669796720.707
1930176.0,1669796720.747
1931011.0,1669796720.788
1931738.0,1669796720.827
1932486.0,1669796720.862
1933485.0,1669796720.9
1934492.0,1669796720.936
1935362.0,1669796720.977
1936602.0,1669796721.018
1937764.0,1669796721.058
1938998.0,1669796721.097
1940585.0,1669796721.139
1940450.0,1669796721.178
1936228.0,1669796721.218
1931590.0,1669796721.26
1928165.0,1669796721.299
1926222.0,1669796721.337
1924560.0,1669796721.379
1923651.0,1669796721.415
1923001.0,1669796721.456
1922563.0,1669796721.496
1921478.0,1669796721.535
1920543.0,1669796721.575
1919974.0,1669796721.617
1919479.0,1669796721.656
1919688.0,1669796721.695
1920362.0,1669796721.737
1920785.0,1669796721.776
1921300.0,1669796721.816
1921949.0,1669796721.858
1922546.0,1669796721.896
1923558.0,1669796721.936
1924025.0,1669796721.977
1924738.0,1669796722.016
1925801.0,1669796722.057
1927031.0,1669796722.097
1927791.0,1669796722.137
1928911.0,1669796722.177
1930082.0,1669796722.218
1931256.0,1669796722.258
1932329.0,1669796722.297
1929808.0,1669796722.339
1924581.0,1669796722.378
1919567.0,1669796722.418
1916263.0,1669796722.459
1914236.0,1669796722.498
1912082.0,1669796722.538
1910325.0,1669796722.579
1908880.0,1669796722.618
1907630.0,1669796722.654
1906259.0,1669796722.695
1905082.0,1669796722.734
1904451.0,1669796722.774
1904406.0,1669796722.815
1904681.0,1669796722.855
1905220.0,1669796722.894
1905865.0,1669796722.935
1906306.0,1669796722.974
1906397.0,1669796723.014
1906714.0,1669796723.056
1907062.0,1669796723.094
1907375.0,1669796723.135
1907821.0,1669796723.176
1908770.0,1669796723.215
1909397.0,1669796723.255
1909943.0,1669796723.296
1910986.0,1669796723.33
1911892.0,1669796723.363
1912835.0,1669796723.405
1913968.0,1669796723.441
1912753.0,1669796723.479
1907737.0,1669796723.52
1903049.0,1669796723.559
1899784.0,1669796723.599
1898111.0,1669796723.641
1896862.0,1669796723.68
1896121.0,1669796723.72
1895810.0,1669796723.762
1895272.0,1669796723.799
1894526.0,1669796723.839
1894526.0,1669796723.874
1893714.0,1669796723.913
1893492.0,1669796723.953
1893811.0,1669796723.994
1894158.0,1669796724.034
1894984.0,1669796724.074
1895410.0,1669796724.115
1896181.0,1669796724.154
1897503.0,1669796724.194
1898510.0,1669796724.236
1899873.0,1669796724.274
1901495.0,1669796724.314
1902864.0,1669796724.355
1904451.0,1669796724.394
1906477.0,1669796724.435
1908072.0,1669796724.476
1909683.0,1669796724.515
1911403.0,1669796724.548
1912910.0,1669796724.589
1909648.0,1669796724.622
1905198.0,1669796724.658
1901138.0,1669796724.699
1898980.0,1669796724.739
1897825.0,1669796724.773
1896910.0,1669796724.815
1896739.0,1669796724.853
1896746.0,1669796724.894
1896478.0,1669796724.935
1896272.0,1669796724.974
1895894.0,1669796725.014
1896468.0,1669796725.056
1897427.0,1669796725.094
1898335.0,1669796725.134
1898876.0,1669796725.175
1900534.0,1669796725.215
1901616.0,1669796725.254
1902914.0,1669796725.296
1903531.0,1669796725.335
1904892.0,1669796725.375
1905975.0,1669796725.417
1907497.0,1669796725.455
1909570.0,1669796725.495
1910945.0,1669796725.536
1912953.0,1669796725.575
1914559.0,1669796725.616
1915814.0,1669796725.656
1917625.0,1669796725.695
1916616.0,1669796725.736
1911971.0,1669796725.777
1907707.0,1669796725.817
1904737.0,1669796725.857
1902719.0,1669796725.898
1901905.0,1669796725.938
1901171.0,1669796725.979
1900903.0,1669796726.021
1900739.0,1669796726.059
1899291.0,1669796726.14
1899800.0,1669796726.099
1899903.0,1669796726.22
1900573.0,1669796726.261
1899592.0,1669796726.179
1901563.0,1669796726.298
1903699.0,1669796726.371
1902623.0,1669796726.329
1904778.0,1669796726.41
1905862.0,1669796726.45
1906895.0,1669796726.491
1908025.0,1669796726.53
1909333.0,1669796726.57
1910409.0,1669796726.612
1911884.0,1669796726.65
1913205.0,1669796726.69
1914566.0,1669796726.731
1915920.0,1669796726.77
1917105.0,1669796726.811
1918542.0,1669796726.852
1917440.0,1669796726.891
1913604.0,1669796726.931
1909923.0,1669796726.972
1908000.0,1669796727.012
1907252.0,1669796727.052
1907145.0,1669796727.088
1907092.0,1669796727.122
1907615.0,1669796727.16
1907443.0,1669796727.202
1906642.0,1669796727.241
1906540.0,1669796727.281
1907370.0,1669796727.322
1908322.0,1669796727.362
1909777.0,1669796727.402
1911711.0,1669796727.44
1913556.0,1669796727.479
1915069.0,1669796727.521
1916718.0,1669796727.56
1918140.0,1669796727.6
1919440.0,1669796727.639
1921362.0,1669796727.68
1922982.0,1669796727.72
1924838.0,1669796727.76
1926531.0,1669796727.801
1928299.0,1669796727.84
1930237.0,1669796727.88
1931988.0,1669796727.921
1933221.0,1669796727.96
1930821.0,1669796728.001
1927390.0,1669796728.041
1924272.0,1669796728.08
1922871.0,1669796728.12
1922124.0,1669796728.161
1921475.0,1669796728.201
1921737.0,1669796728.241
1921793.0,1669796728.283
1921735.0,1669796728.322
1921620.0,1669796728.362
1921687.0,1669796728.404
1922046.0,1669796728.442
1922703.0,1669796728.483
1923872.0,1669796728.524
1925162.0,1669796728.561
1926620.0,1669796728.602
1928086.0,1669796728.643
1929681.0,1669796728.682
1931309.0,1669796728.722
1932925.0,1669796728.762
1932925.0,1669796728.812
1934521.0,1669796728.852
1936095.0,1669796728.893
1937795.0,1669796728.932
1939290.0,1669796728.972
1941087.0,1669796729.014
1942696.0,1669796729.052
1944114.0,1669796729.092
1945660.0,1669796729.133
1946211.0,1669796729.172
1943033.0,1669796729.213
1939388.0,1669796729.253
1937255.0,1669796729.293
1936011.0,1669796729.333
1935247.0,1669796729.374
1934693.0,1669796729.414
1934639.0,1669796729.453
1934479.0,1669796729.494
1934374.0,1669796729.534
1934224.0,1669796729.574
1934163.0,1669796729.617
1934565.0,1669796729.655
1935156.0,1669796729.696
1935947.0,1669796729.737
1936742.0,1669796729.776
1937737.0,1669796729.817
1938175.0,1669796729.858
1939126.0,1669796729.897
1940017.0,1669796729.937
1940487.0,1669796729.978
1941598.0,1669796730.007
1942343.0,1669796730.046
1943561.0,1669796730.087
1944353.0,1669796730.126
1945739.0,1669796730.166
1946885.0,1669796730.208
1948073.0,1669796730.246
1949180.0,1669796730.286
1948532.0,1669796730.327
1941609.0,1669796730.407
1945147.0,1669796730.367
1939945.0,1669796730.448
1939114.0,1669796730.487
1938734.0,1669796730.527
1938766.0,1669796730.568
1939235.0,1669796730.608
1938877.0,1669796730.647
1938434.0,1669796730.688
1938092.0,1669796730.725
1938539.0,1669796730.759
1939328.0,1669796730.798
1940024.0,1669796730.836
1940901.0,1669796730.877
1942386.0,1669796730.918
1943374.0,1669796730.957
1945100.0,1669796730.998
1946120.0,1669796731.039
1947450.0,1669796731.078
1948842.0,1669796731.118
1950482.0,1669796731.157
1952032.0,1669796731.197
1953715.0,1669796731.237
1955563.0,1669796731.276
1957239.0,1669796731.315
1958464.0,1669796731.355
1956308.0,1669796731.435
1959327.0,1669796731.397
1952442.0,1669796731.475
1948001.0,1669796731.555
1949493.0,1669796731.516
1946779.0,1669796731.596
1946194.0,1669796731.675
1946282.0,1669796731.636
1945680.0,1669796731.757
1946230.0,1669796731.715
1945462.0,1669796731.796
1945174.0,1669796731.836
1945323.0,1669796731.877
1945723.0,1669796731.916
1946184.0,1669796731.957
1947049.0,1669796731.999
1947896.0,1669796732.037
1948842.0,1669796732.077
1949720.0,1669796732.118
1950861.0,1669796732.157
1951743.0,1669796732.198
1952717.0,1669796732.239
1953975.0,1669796732.278
1955324.0,1669796732.318
1956353.0,1669796732.36
1957729.0,1669796732.399
1958722.0,1669796732.437
1960138.0,1669796732.469
1956849.0,1669796732.549
1952176.0,1669796732.59
1949097.0,1669796732.629
1946921.0,1669796732.669
1945257.0,1669796732.71
1943971.0,1669796732.749
1960180.0,1669796732.509
1944530.0,1669796732.79
1946697.0,1669796732.83
1947114.0,1669796732.869
1946671.0,1669796732.909
1946013.0,1669796732.951
1946454.0,1669796733.03
1946231.0,1669796732.99
1947400.0,1669796733.071
1949872.0,1669796733.15
1950907.0,1669796733.192
1951376.0,1669796733.23
1951905.0,1669796733.27
1952350.0,1669796733.311
1952949.0,1669796733.35
1953513.0,1669796733.391
1953871.0,1669796733.432
1953937.0,1669796733.471
1954317.0,1669796733.511
1954859.0,1669796733.552
1954888.0,1669796733.592
1952173.0,1669796733.631
1948789.0,1669796733.11
1946976.0,1669796733.672
1942557.0,1669796733.711
1940158.0,1669796733.751
1938386.0,1669796733.793
1937379.0,1669796733.831
1936837.0,1669796733.872
1936250.0,1669796733.913
1935068.0,1669796733.952
1933932.0,1669796733.993
1932862.0,1669796734.033
1932596.0,1669796734.072
1932598.0,1669796734.112
1933050.0,1669796734.153
1933493.0,1669796734.193
1934164.0,1669796734.233
1934664.0,1669796734.274
1935263.0,1669796734.313
1936162.0,1669796734.353
1937283.0,1669796734.396
1938155.0,1669796734.434
1939367.0,1669796734.471
1940764.0,1669796734.513
1941975.0,1669796734.548
1943723.0,1669796734.58
1944743.0,1669796734.621
1942881.0,1669796734.66
1938610.0,1669796734.7
1934917.0,1669796734.742
1932281.0,1669796734.782
1930656.0,1669796734.819
1928752.0,1669796734.86
1928155.0,1669796734.899
1927562.0,1669796734.933
1927562.0,1669796734.975
1926734.0,1669796735.013
1925959.0,1669796735.053
1925208.0,1669796735.094
1925092.0,1669796735.133
1925228.0,1669796735.174
1925583.0,1669796735.214
1926110.0,1669796735.253
1926814.0,1669796735.294
1927470.0,1669796735.335
1928266.0,1669796735.375
1929042.0,1669796735.414
1929673.0,1669796735.455
1930885.0,1669796735.494
1931884.0,1669796735.534
1933054.0,1669796735.576
1934260.0,1669796735.612
1935503.0,1669796735.65
1936772.0,1669796735.688
1937911.0,1669796735.721
1935163.0,1669796735.759
1930982.0,1669796735.8
1927079.0,1669796735.839
1924552.0,1669796735.879
1922843.0,1669796735.92
1921459.0,1669796735.96
1920800.0,1669796736.0
1920183.0,1669796736.041
1919268.0,1669796736.08
1918700.0,1669796736.121
1917813.0,1669796736.156
1917384.0,1669796736.195
1917804.0,1669796736.235
1918348.0,1669796736.276
1918547.0,1669796736.315
1919423.0,1669796736.356
1919927.0,1669796736.396
1920583.0,1669796736.435
1921034.0,1669796736.475
1921701.0,1669796736.517
1922588.0,1669796736.556
1923767.0,1669796736.596
1924723.0,1669796736.637
1925679.0,1669796736.676
1926801.0,1669796736.716
1927934.0,1669796736.758
1929150.0,1669796736.796
1928822.0,1669796736.836
1925517.0,1669796736.877
1922470.0,1669796736.916
1920864.0,1669796736.957
1919661.0,1669796736.998
1919491.0,1669796737.037
1919811.0,1669796737.077
1919947.0,1669796737.118
1919884.0,1669796737.158
1919457.0,1669796737.198
1919714.0,1669796737.24
1920363.0,1669796737.279
1921446.0,1669796737.319
1922501.0,1669796737.361
1924036.0,1669796737.392
1925322.0,1669796737.432
1926801.0,1669796737.473
1928192.0,1669796737.512
1929760.0,1669796737.553
1931309.0,1669796737.594
1933064.0,1669796737.633
1934997.0,1669796737.673
1937043.0,1669796737.714
1938809.0,1669796737.754
1940681.0,1669796737.793
1942422.0,1669796737.834
1944386.0,1669796737.873
1944787.0,1669796737.913
1941990.0,1669796737.955
1939222.0,1669796737.994
1936889.0,1669796738.034
1935427.0,1669796738.075
1934744.0,1669796738.109
1933899.0,1669796738.143
1933894.0,1669796738.182
1933842.0,1669796738.221
1933354.0,1669796738.261
1933269.0,1669796738.303
1933440.0,1669796738.342
1933767.0,1669796738.382
1934923.0,1669796738.423
1935786.0,1669796738.462
1936990.0,1669796738.502
1936990.0,1669796738.534
1938198.0,1669796738.572
1939610.0,1669796738.612
1940625.0,1669796738.654
1941802.0,1669796738.693
1943345.0,1669796738.733
1944448.0,1669796738.774
1946067.0,1669796738.813
1946914.0,1669796738.853
1948537.0,1669796738.894
1950011.0,1669796738.934
1951258.0,1669796738.973
1952809.0,1669796739.015
1954480.0,1669796739.054
1953775.0,1669796739.094
1950995.0,1669796739.135
1947603.0,1669796739.174
1945267.0,1669796739.207
1944141.0,1669796739.244
1942811.0,1669796739.28
1942132.0,1669796739.321
1942245.0,1669796739.362
1941662.0,1669796739.401
1941379.0,1669796739.441
1940654.0,1669796739.482
1940681.0,1669796739.522
1941065.0,1669796739.561
1941675.0,1669796739.602
1942178.0,1669796739.641
1943216.0,1669796739.681
1944000.0,1669796739.723
1944795.0,1669796739.762
1945507.0,1669796739.802
1947681.0,1669796739.882
1946615.0,1669796739.843
1948926.0,1669796739.922
1950169.0,1669796739.963
1951622.0,1669796740.002
1953087.0,1669796740.042
1954293.0,1669796740.083
1955833.0,1669796740.123
1957432.0,1669796740.162
1958793.0,1669796740.203
1957593.0,1669796740.242
1954900.0,1669796740.282
1953102.0,1669796740.324
1951926.0,1669796740.363
1951562.0,1669796740.401
1951552.0,1669796740.442
1952135.0,1669796740.481
1952213.0,1669796740.522
1952446.0,1669796740.563
1952720.0,1669796740.602
1952763.0,1669796740.642
1953805.0,1669796740.684
1954419.0,1669796740.73
1955594.0,1669796740.77
1956614.0,1669796740.811
1957910.0,1669796740.85
1959175.0,1669796740.89
1960269.0,1669796740.932
1961431.0,1669796740.97
1962496.0,1669796741.01
1963939.0,1669796741.051
1965232.0,1669796741.09
1966521.0,1669796741.131
1967908.0,1669796741.171
1969123.0,1669796741.21
1970610.0,1669796741.25
1971993.0,1669796741.292
1973135.0,1669796741.331
1972631.0,1669796741.371
1969472.0,1669796741.412
1966584.0,1669796741.451
1964083.0,1669796741.491
1962693.0,1669796741.533
1961703.0,1669796741.571
1960812.0,1669796741.611
1960726.0,1669796741.652
1959971.0,1669796741.692
1959376.0,1669796741.733
1958688.0,1669796741.773
1958529.0,1669796741.81
1958678.0,1669796741.851
1958972.0,1669796741.892
1959460.0,1669796741.932
1960194.0,1669796741.971
1961149.0,1669796742.013
1961575.0,1669796742.052
1962225.0,1669796742.092
1962945.0,1669796742.134
1963539.0,1669796742.173
1964297.0,1669796742.206
1965339.0,1669796742.247
1965952.0,1669796742.286
1966763.0,1669796742.327
1968081.0,1669796742.368
1968749.0,1669796742.407
1969635.0,1669796742.447
1970302.0,1669796742.488
1968878.0,1669796742.528
1965000.0,1669796742.567
1961449.0,1669796742.608
1958897.0,1669796742.647
1957244.0,1669796742.687
1955865.0,1669796742.729
1955139.0,1669796742.767
1954523.0,1669796742.808
1953934.0,1669796742.849
1952660.0,1669796742.888
1951645.0,1669796742.928
1951128.0,1669796742.969
1950524.0,1669796743.009
1950822.0,1669796743.049
1950877.0,1669796743.09
1951420.0,1669796743.13
1951815.0,1669796743.171
1952264.0,1669796743.212
1952934.0,1669796743.251
1953635.0,1669796743.291
1954036.0,1669796743.333
1955059.0,1669796743.371
1955858.0,1669796743.412
1957052.0,1669796743.45
1958193.0,1669796743.489
1959361.0,1669796743.53
1960483.0,1669796743.57
1961123.0,1669796743.609
1958663.0,1669796743.649
1955154.0,1669796743.69
1952475.0,1669796743.73
1950947.0,1669796743.77
1949966.0,1669796743.811
1949320.0,1669796743.85
1949342.0,1669796743.89
1949495.0,1669796743.932
1948923.0,1669796743.97
1948562.0,1669796744.01
1948543.0,1669796744.051
1948623.0,1669796744.09
1949238.0,1669796744.131
1950308.0,1669796744.171
1951086.0,1669796744.21
1952131.0,1669796744.25
1952863.0,1669796744.292
1953736.0,1669796744.331
1954975.0,1669796744.371
1955819.0,1669796744.412
1956847.0,1669796744.452
1958081.0,1669796744.492
1959326.0,1669796744.533
1960765.0,1669796744.572
1962001.0,1669796744.612
1963179.0,1669796744.653
1964410.0,1669796744.684
1964152.0,1669796744.725
1960777.0,1669796744.765
1956342.0,1669796744.804
1953489.0,1669796744.844
1951749.0,1669796744.885
1950356.0,1669796744.925
1949408.0,1669796744.965
1949024.0,1669796745.006
1948697.0,1669796745.045
1947629.0,1669796745.085
1947107.0,1669796745.127
1946467.0,1669796745.165
1946254.0,1669796745.205
1946439.0,1669796745.246
1946847.0,1669796745.285
1947434.0,1669796745.326
1947901.0,1669796745.366
1948535.0,1669796745.401
1949023.0,1669796745.432
1949601.0,1669796745.473
1950378.0,1669796745.513
1950985.0,1669796745.552
1951528.0,1669796745.595
1952163.0,1669796745.634
1952935.0,1669796745.674
1953495.0,1669796745.716
1954313.0,1669796745.755
1955443.0,1669796745.795
1954939.0,1669796745.836
1951062.0,1669796745.875
1947080.0,1669796745.914
1943916.0,1669796745.954
1941886.0,1669796745.993
1940692.0,1669796746.033
1939989.0,1669796746.074
1939195.0,1669796746.114
1938561.0,1669796746.153
1937511.0,1669796746.195
1936375.0,1669796746.234
1935965.0,1669796746.274
1935357.0,1669796746.315
1935614.0,1669796746.354
1935890.0,1669796746.394
1936057.0,1669796746.435
1936400.0,1669796746.474
1936950.0,1669796746.515
1937494.0,1669796746.555
1938435.0,1669796746.595
1939241.0,1669796746.636
1940077.0,1669796746.675
1940951.0,1669796746.715
1942326.0,1669796746.754
1943384.0,1669796746.796
1944782.0,1669796746.835
1944850.0,1669796746.917
1946214.0,1669796746.875
1941703.0,1669796746.956
1938980.0,1669796746.996
1937142.0,1669796747.035
1936380.0,1669796747.074
1935972.0,1669796747.114
1935972.0,1669796747.146
1935897.0,1669796747.185
1936127.0,1669796747.226
1936288.0,1669796747.267
1936259.0,1669796747.306
1935971.0,1669796747.346
1936184.0,1669796747.387
1936905.0,1669796747.426
1937899.0,1669796747.466
1938806.0,1669796747.508
1939839.0,1669796747.546
1940711.0,1669796747.586
1941597.0,1669796747.627
1942798.0,1669796747.666
1943943.0,1669796747.707
1944968.0,1669796747.748
1946128.0,1669796747.787
1947426.0,1669796747.823
1948728.0,1669796747.865
1950064.0,1669796747.896
1951326.0,1669796747.935
1952491.0,1669796747.976
1952126.0,1669796748.015
1948773.0,1669796748.055
1945491.0,1669796748.097
1943011.0,1669796748.133
1941543.0,1669796748.174
1940768.0,1669796748.215
1940292.0,1669796748.254
1939908.0,1669796748.295
1939386.0,1669796748.334
1938822.0,1669796748.37
1938190.0,1669796748.41
1938136.0,1669796748.451
1938379.0,1669796748.491
1938636.0,1669796748.53
1939109.0,1669796748.571
1939741.0,1669796748.61
1939954.0,1669796748.65
1940239.0,1669796748.692
1940507.0,1669796748.73
1941403.0,1669796748.77
1941928.0,1669796748.811
1943087.0,1669796748.851
1943500.0,1669796748.891
1944892.0,1669796748.932
1945934.0,1669796748.971
1946677.0,1669796749.011
1947337.0,1669796749.052
1948253.0,1669796749.092
1946903.0,1669796749.132
1943533.0,1669796749.173
1940517.0,1669796749.213
1938385.0,1669796749.254
1937315.0,1669796749.296
1936746.0,1669796749.334
1936460.0,1669796749.374
1935845.0,1669796749.415
1935170.0,1669796749.454
1934565.0,1669796749.495
1934187.0,1669796749.536
1934230.0,1669796749.575
1934957.0,1669796749.612
1935733.0,1669796749.653
1936516.0,1669796749.693
1937756.0,1669796749.732
1938690.0,1669796749.774
1939556.0,1669796749.813
1940546.0,1669796749.853
1941959.0,1669796749.895
1942904.0,1669796749.933
1944241.0,1669796749.973
1945513.0,1669796750.014
1946968.0,1669796750.053
1948384.0,1669796750.094
1949969.0,1669796750.134
1951159.0,1669796750.173
1950193.0,1669796750.213
1947304.0,1669796750.254
1945345.0,1669796750.295
1944053.0,1669796750.335
1943431.0,1669796750.375
1943180.0,1669796750.414
1943262.0,1669796750.455
1944216.0,1669796750.499
1945048.0,1669796750.538
1944106.0,1669796750.578
1943790.0,1669796750.619
1944422.0,1669796750.658
1944780.0,1669796750.698
1946323.0,1669796750.736
1947490.0,1669796750.775
1949042.0,1669796750.807
1950407.0,1669796750.848
1951685.0,1669796750.888
1953282.0,1669796750.928
1954391.0,1669796750.969
1955747.0,1669796751.008
1956976.0,1669796751.048
1958529.0,1669796751.09
1959860.0,1669796751.128
1961192.0,1669796751.168
1962746.0,1669796751.209
1964041.0,1669796751.248
1964783.0,1669796751.289
1962601.0,1669796751.33
1959957.0,1669796751.368
1957856.0,1669796751.409
1956457.0,1669796751.45
1955584.0,1669796751.489
1954764.0,1669796751.524
1954644.0,1669796751.559
1954452.0,1669796751.596
1954174.0,1669796751.637
1953566.0,1669796751.679
1953328.0,1669796751.717
1953748.0,1669796751.757
1953926.0,1669796751.799
1954697.0,1669796751.838
1954911.0,1669796751.879
1955727.0,1669796751.918
1956390.0,1669796751.957
1957195.0,1669796751.997
1957411.0,1669796752.038
1958279.0,1669796752.078
1958802.0,1669796752.117
1959771.0,1669796752.158
1960812.0,1669796752.197
1961800.0,1669796752.237
1962879.0,1669796752.279
1963644.0,1669796752.317
1965083.0,1669796752.357
1966097.0,1669796752.398
1965314.0,1669796752.438
1962907.0,1669796752.478
1960881.0,1669796752.519
1959918.0,1669796752.558
1959569.0,1669796752.598
1959342.0,1669796752.639
1959925.0,1669796752.678
1960233.0,1669796752.717
1960399.0,1669796752.756
1960270.0,1669796752.795
1960355.0,1669796752.834
1960627.0,1669796752.873
1961747.0,1669796752.912
1962622.0,1669796752.951
1963818.0,1669796752.99
1964921.0,1669796753.029
1966221.0,1669796753.068
1967423.0,1669796753.107
1968755.0,1669796753.146
1969938.0,1669796753.185
1971613.0,1669796753.224
1972771.0,1669796753.263
1974443.0,1669796753.302
1976006.0,1669796753.341
1979084.0,1669796753.419
1980785.0,1669796753.458
1981374.0,1669796753.497
1979550.0,1669796753.536
1976396.0,1669796753.614
1977851.0,1669796753.38
1975461.0,1669796753.692
1975469.0,1669796753.731
1975962.0,1669796753.653
1977898.0,1669796753.575
1975935.0,1669796753.77
1976338.0,1669796753.809
1976230.0,1669796753.848
1976346.0,1669796753.887
1976673.0,1669796753.926
1977425.0,1669796753.965
1978280.0,1669796754.004
1980067.0,1669796754.082
1980989.0,1669796754.121
1982167.0,1669796754.16
1983227.0,1669796754.199
1984513.0,1669796754.238
1985306.0,1669796754.277
1986655.0,1669796754.316
1987963.0,1669796754.355
1989112.0,1669796754.394
1990496.0,1669796754.433
1991840.0,1669796754.472
1993520.0,1669796754.511
1994793.0,1669796754.55
1996277.0,1669796754.589
1995727.0,1669796754.628
1992084.0,1669796754.706
1991263.0,1669796754.745
1993710.0,1669796754.667
1979030.0,1669796754.043
1990880.0,1669796754.784
1990080.0,1669796754.823
1990289.0,1669796754.862
1990254.0,1669796754.901
1990244.0,1669796754.94
1989801.0,1669796754.979
1989484.0,1669796755.018
1989369.0,1669796755.057
1989583.0,1669796755.096
1990058.0,1669796755.135
1990612.0,1669796755.174
1991318.0,1669796755.213
1991905.0,1669796755.252
1992653.0,1669796755.291
1993494.0,1669796755.33
1994161.0,1669796755.369
1996148.0,1669796755.486
1994864.0,1669796755.408
1995602.0,1669796755.447
1997125.0,1669796755.525
1998140.0,1669796755.564
1998894.0,1669796755.603
1999730.0,1669796755.642
1999730.0,1669796755.681
2000726.0,1669796755.72
2001254.0,1669796755.759
1999847.0,1669796755.799
1997691.0,1669796755.839
1995998.0,1669796755.879
1995181.0,1669796755.919
1995115.0,1669796755.959
1995044.0,1669796755.999
1995510.0,1669796756.039
1995560.0,1669796756.079
1995607.0,1669796756.119
1995396.0,1669796756.159
1995645.0,1669796756.199
1995915.0,1669796756.239
1996262.0,1669796756.279
1997200.0,1669796756.319
1997923.0,1669796756.359
1998941.0,1669796756.399
1999808.0,1669796756.439
2000897.0,1669796756.479
2002088.0,1669796756.519
2003151.0,1669796756.559
2004549.0,1669796756.599
2005498.0,1669796756.639
2007034.0,1669796756.679
2008370.0,1669796756.719
2009417.0,1669796756.759
2010744.0,1669796756.799
2012307.0,1669796756.839
2012269.0,1669796756.879
2010489.0,1669796756.919
2008463.0,1669796756.959
2006968.0,1669796756.999
2005910.0,1669796757.039
2005202.0,1669796757.079
2004540.0,1669796757.119
2004563.0,1669796757.159
2004180.0,1669796757.199
2003340.0,1669796757.239
2002670.0,1669796757.279
2002388.0,1669796757.319
2002056.0,1669796757.359
2002104.0,1669796757.399
2002259.0,1669796757.439
2002627.0,1669796757.479
2003306.0,1669796757.519
2003725.0,1669796757.559
2004070.0,1669796757.599
2004594.0,1669796757.639
2005476.0,1669796757.679
2005764.0,1669796757.719
2006497.0,1669796757.759
2007324.0,1669796757.799
2007866.0,1669796757.839
2008642.0,1669796757.879
2009596.0,1669796757.919
2010162.0,1669796757.959
2009880.0,1669796757.999
2007508.0,1669796758.039
2003442.0,1669796758.079
2000328.0,1669796758.119
1998191.0,1669796758.159
1995928.0,1669796758.199
1994201.0,1669796758.239
1992818.0,1669796758.279
1991370.0,1669796758.319
1989474.0,1669796758.359
1987665.0,1669796758.399
1986131.0,1669796758.439
1984647.0,1669796758.479
1983639.0,1669796758.519
1982794.0,1669796758.559
1982203.0,1669796758.599
1981670.0,1669796758.639
1981076.0,1669796758.679
1980581.0,1669796758.719
1980111.0,1669796758.759
1980225.0,1669796758.799
1979383.0,1669796758.839
1979458.0,1669796758.879
1979090.0,1669796758.919
1979039.0,1669796758.959
1979150.0,1669796758.999
1979619.0,1669796759.039
1979832.0,1669796759.079
1979773.0,1669796759.119
1976433.0,1669796759.159
1971717.0,1669796759.199
1968390.0,1669796759.239
1966071.0,1669796759.279
1964409.0,1669796759.319
1963551.0,1669796759.359
1962825.0,1669796759.399
1961781.0,1669796759.439
1960689.0,1669796759.479
1959619.0,1669796759.519
1958734.0,1669796759.559
1958432.0,1669796759.599
1958253.0,1669796759.639
1958238.0,1669796759.679
1958737.0,1669796759.719
1959345.0,1669796759.759
1959673.0,1669796759.799
1960281.0,1669796759.839
1960510.0,1669796759.879
1961104.0,1669796759.919
1961545.0,1669796759.959
1962305.0,1669796759.999
1963091.0,1669796760.039
1963877.0,1669796760.079
1965044.0,1669796760.119
1965891.0,1669796760.159
1964874.0,1669796760.199
1960515.0,1669796760.239
1955480.0,1669796760.279
1951708.0,1669796760.319
1949035.0,1669796760.359
1946806.0,1669796760.399
1944850.0,1669796760.439
1943486.0,1669796760.479
1942033.0,1669796760.519
1940296.0,1669796760.559
1938541.0,1669796760.599
1937493.0,1669796760.639
1936740.0,1669796760.679
1936527.0,1669796760.719
1936559.0,1669796760.759
1936525.0,1669796760.799
1936765.0,1669796760.839
1936853.0,1669796760.879
1937049.0,1669796760.919
1937322.0,1669796760.959
1937763.0,1669796760.999
1938059.0,1669796761.039
1938203.0,1669796761.079
1938755.0,1669796761.119
1939107.0,1669796761.159
1939500.0,1669796761.199
1940587.0,1669796761.239
1940777.0,1669796761.279
1936933.0,1669796761.319
1932038.0,1669796761.359
1928092.0,1669796761.399
1925360.0,1669796761.439
1923345.0,1669796761.479
1922067.0,1669796761.519
1921185.0,1669796761.559
1920406.0,1669796761.599
1919144.0,1669796761.639
1917676.0,1669796761.679
1916835.0,1669796761.719
1916556.0,1669796761.759
1916394.0,1669796761.799
1916920.0,1669796761.839
1916920.0,1669796761.879
1917249.0,1669796761.919
1917946.0,1669796761.959
1918564.0,1669796761.999
1919233.0,1669796762.039
1919782.0,1669796762.079
1921018.0,1669796762.119
1922185.0,1669796762.159
1923209.0,1669796762.199
1924530.0,1669796762.239
1925993.0,1669796762.279
1927581.0,1669796762.319
1929144.0,1669796762.359
1929407.0,1669796762.399
1926559.0,1669796762.439
1923478.0,1669796762.479
1921466.0,1669796762.519
1920291.0,1669796762.559
1920157.0,1669796762.599
1920210.0,1669796762.639
1920820.0,1669796762.679
1921243.0,1669796762.719
1921110.0,1669796762.759
1921234.0,1669796762.799
1921819.0,1669796762.839
1922945.0,1669796762.879
1924058.0,1669796762.919
1925382.0,1669796762.959
1926886.0,1669796762.999
1928183.0,1669796763.039
1929591.0,1669796763.079
1931146.0,1669796763.119
1932574.0,1669796763.159
1934157.0,1669796763.199
1935916.0,1669796763.239
1937427.0,1669796763.279
1938961.0,1669796763.319
1940769.0,1669796763.359
1942557.0,1669796763.399
1944215.0,1669796763.439
1944127.0,1669796763.479
1941285.0,1669796763.519
1938544.0,1669796763.559
1936762.0,1669796763.599
1935843.0,1669796763.639
1935133.0,1669796763.679
1934935.0,1669796763.719
1935094.0,1669796763.759
1935099.0,1669796763.799
1935261.0,1669796763.839
1934976.0,1669796763.879
1935465.0,1669796763.919
1935936.0,1669796763.959
1936778.0,1669796763.999
1937812.0,1669796764.039
1938960.0,1669796764.079
1939788.0,1669796764.119
1940835.0,1669796764.159
1941873.0,1669796764.199
1942925.0,1669796764.239
1943690.0,1669796764.279
1945402.0,1669796764.319
1946139.0,1669796764.359
1947438.0,1669796764.399
1948720.0,1669796764.439
1949939.0,1669796764.479
1951479.0,1669796764.519
1952617.0,1669796764.559
1951897.0,1669796764.592
1949820.0,1669796764.632
1947560.0,1669796764.673
1946676.0,1669796764.712
1946380.0,1669796764.752
1946318.0,1669796764.794
1946404.0,1669796764.832
1946953.0,1669796764.913
1946851.0,1669796764.872
1948108.0,1669796765.033
1947299.0,1669796764.993
1946888.0,1669796764.952
1948964.0,1669796765.072
1950530.0,1669796765.113
1951655.0,1669796765.154
1953025.0,1669796765.193
1954063.0,1669796765.233
1955550.0,1669796765.275
1957130.0,1669796765.314
1958786.0,1669796765.354
1960436.0,1669796765.396
1962004.0,1669796765.435
1963761.0,1669796765.473
1965776.0,1669796765.51
1967811.0,1669796765.549
1969698.0,1669796765.59
1971427.0,1669796765.631
1972003.0,1669796765.67
1970332.0,1669796765.71
1969371.0,1669796765.751
1969108.0,1669796765.83
1969082.0,1669796765.791
1969946.0,1669796765.91
1970877.0,1669796765.951
1971302.0,1669796765.992
1969317.0,1669796765.871
1971809.0,1669796766.031
1972191.0,1669796766.071
1972906.0,1669796766.112
1974262.0,1669796766.151
1975354.0,1669796766.192
1976599.0,1669796766.233
1977996.0,1669796766.272
1979042.0,1669796766.313
1980325.0,1669796766.354
1983315.0,1669796766.433
1981681.0,1669796766.394
1984706.0,1669796766.475
1985822.0,1669796766.514
1987280.0,1669796766.554
1989118.0,1669796766.596
1990266.0,1669796766.635
1991875.0,1669796766.675
1993333.0,1669796766.716
1994646.0,1669796766.753
1994463.0,1669796766.794
1993129.0,1669796766.834
1991731.0,1669796766.873
1991396.0,1669796766.913
1991331.0,1669796766.954
1990884.0,1669796766.994
1991382.0,1669796767.034
1991337.0,1669796767.075
1991691.0,1669796767.114
1991716.0,1669796767.154
1991390.0,1669796767.196
1993596.0,1669796767.354
1992898.0,1669796767.315
1994190.0,1669796767.395
1992592.0,1669796767.274
1992032.0,1669796767.234
1994704.0,1669796767.436
1995615.0,1669796767.475
1996401.0,1669796767.514
1997597.0,1669796767.595
1996871.0,1669796767.555
1999388.0,1669796767.676
2000186.0,1669796767.715
1998752.0,1669796767.635
2001127.0,1669796767.755
2002135.0,1669796767.797
2003053.0,1669796767.834
2003935.0,1669796767.874
2004343.0,1669796767.915
2003063.0,1669796767.954
2001757.0,1669796767.986
2001146.0,1669796768.027
2000496.0,1669796768.106
2000547.0,1669796768.066
2000779.0,1669796768.147
2001338.0,1669796768.187
2001662.0,1669796768.226
2001500.0,1669796768.267
2001670.0,1669796768.306
2002084.0,1669796768.346
2002666.0,1669796768.388
2003205.0,1669796768.427
2004106.0,1669796768.467
2005202.0,1669796768.508
2006121.0,1669796768.547
2007022.0,1669796768.588
2008338.0,1669796768.628
2009360.0,1669796768.665
2010626.0,1669796768.7
2011907.0,1669796768.741
2013113.0,1669796768.777
2014303.0,1669796768.813
2015852.0,1669796768.855
2017119.0,1669796768.894
2018600.0,1669796768.934
2019972.0,1669796768.976
2019437.0,1669796769.015
2017818.0,1669796769.055
2016655.0,1669796769.096
2016140.0,1669796769.135
2015498.0,1669796769.174
2015166.0,1669796769.211
2015233.0,1669796769.25
2015143.0,1669796769.29
2014797.0,1669796769.331
2014428.0,1669796769.371
2014192.0,1669796769.41
2014072.0,1669796769.451
2014223.0,1669796769.491
2014308.0,1669796769.531
2014800.0,1669796769.573
2015096.0,1669796769.611
2015393.0,1669796769.651
2015885.0,1669796769.692
2016497.0,1669796769.731
2017001.0,1669796769.772
2017523.0,1669796769.812
2018131.0,1669796769.851
2019105.0,1669796769.892
2019866.0,1669796769.933
2020254.0,1669796769.973
2021115.0,1669796770.014
2022017.0,1669796770.055
2022863.0,1669796770.094
2023033.0,1669796770.134
2020749.0,1669796770.176
2018239.0,1669796770.214
2016420.0,1669796770.254
2015098.0,1669796770.296
2013855.0,1669796770.335
2013105.0,1669796770.376
2012591.0,1669796770.416
2011920.0,1669796770.453
2010402.0,1669796770.494
2009696.0,1669796770.535
2008667.0,1669796770.574
2007781.0,1669796770.614
2007717.0,1669796770.655
2007153.0,1669796770.694
2006771.0,1669796770.734
2006524.0,1669796770.814
2006684.0,1669796770.776
2006120.0,1669796770.854
2006146.0,1669796770.895
2006131.0,1669796770.934
2006061.0,1669796770.975
2006008.0,1669796771.016
2006401.0,1669796771.055
2006621.0,1669796771.095
2007102.0,1669796771.136
2007294.0,1669796771.175
2007536.0,1669796771.215
2007739.0,1669796771.256
2006731.0,1669796771.295
2003639.0,1669796771.336
2001193.0,1669796771.378
1998915.0,1669796771.416
1997332.0,1669796771.456
1996327.0,1669796771.496
1995707.0,1669796771.535
1995260.0,1669796771.576
1994365.0,1669796771.616
1993141.0,1669796771.648
1992220.0,1669796771.688
1991850.0,1669796771.729
1991345.0,1669796771.769
1991645.0,1669796771.808
1991712.0,1669796771.849
1991849.0,1669796771.889
1992244.0,1669796771.929
1992410.0,1669796771.97
1992836.0,1669796772.009
1993437.0,1669796772.049
1994029.0,1669796772.09
1994618.0,1669796772.129
1995273.0,1669796772.17
1996042.0,1669796772.21
1997037.0,1669796772.249
1997854.0,1669796772.289
1998665.0,1669796772.33
1999652.0,1669796772.371
1998128.0,1669796772.407
1994919.0,1669796772.441
1991734.0,1669796772.478
1989559.0,1669796772.516
1988031.0,1669796772.558
1986618.0,1669796772.596
1985882.0,1669796772.637
1984887.0,1669796772.678
1983736.0,1669796772.717
1982606.0,1669796772.758
1981508.0,1669796772.799
1980904.0,1669796772.838
1980273.0,1669796772.875
1980401.0,1669796772.916
1980458.0,1669796772.956
1980386.0,1669796772.995
1980745.0,1669796773.036
1980809.0,1669796773.075
1980933.0,1669796773.116
1981214.0,1669796773.157
1981724.0,1669796773.196
1981887.0,1669796773.236
1982355.0,1669796773.277
1982829.0,1669796773.316
1983595.0,1669796773.357
1984180.0,1669796773.397
1984841.0,1669796773.436
1985516.0,1669796773.476
1984972.0,1669796773.517
1981570.0,1669796773.557
1977222.0,1669796773.596
1974391.0,1669796773.637
1971970.0,1669796773.677
1969895.0,1669796773.717
1968460.0,1669796773.758
1967710.0,1669796773.797
1965918.0,1669796773.837
1964408.0,1669796773.878
1963050.0,1669796773.917
1961667.0,1669796773.958
1961064.0,1669796773.998
1960271.0,1669796774.037
1959812.0,1669796774.077
1959589.0,1669796774.118
1959514.0,1669796774.158
1959341.0,1669796774.197
1959390.0,1669796774.238
1958885.0,1669796774.277
1959316.0,1669796774.317
1959563.0,1669796774.359
1959692.0,1669796774.397
1959609.0,1669796774.437
1960277.0,1669796774.479
1960507.0,1669796774.518
1960946.0,1669796774.558
1961679.0,1669796774.599
1962068.0,1669796774.638
1959981.0,1669796774.678
1955984.0,1669796774.719
1952232.0,1669796774.759
1950007.0,1669796774.798
1948805.0,1669796774.839
1948057.0,1669796774.878
1947713.0,1669796774.918
1947168.0,1669796774.96
1946017.0,1669796774.998
1944866.0,1669796775.038
1944493.0,1669796775.079
1943745.0,1669796775.119
1943921.0,1669796775.159
1944270.0,1669796775.2
1944738.0,1669796775.239
1945308.0,1669796775.279
1945760.0,1669796775.32
1945944.0,1669796775.36
1946721.0,1669796775.399
1947425.0,1669796775.44
1948014.0,1669796775.479
1948941.0,1669796775.519
1950001.0,1669796775.561
1950940.0,1669796775.599
1951951.0,1669796775.64
1953137.0,1669796775.681
1954156.0,1669796775.72
1955063.0,1669796775.76
1952535.0,1669796775.801
1948036.0,1669796775.84
1944181.0,1669796775.88
1941749.0,1669796775.921
1939824.0,1669796775.961
1938293.0,1669796776.001
1937343.0,1669796776.04
1936527.0,1669796776.078
1935252.0,1669796776.119
1934356.0,1669796776.16
1933368.0,1669796776.199
1932957.0,1669796776.238
1932913.0,1669796776.279
1933119.0,1669796776.318
1933606.0,1669796776.358
1933606.0,1669796776.396
1934215.0,1669796776.435
1934810.0,1669796776.475
1935136.0,1669796776.516
1935759.0,1669796776.602
1936487.0,1669796776.641
1937323.0,1669796776.682
1937733.0,1669796776.721
1938811.0,1669796776.761
1939946.0,1669796776.803
1940857.0,1669796776.842
1941925.0,1669796776.882
1943134.0,1669796776.923
1944326.0,1669796776.962
1944750.0,1669796777.003
1941736.0,1669796777.043
1937232.0,1669796777.082
1933000.0,1669796777.123
1930401.0,1669796777.165
1928478.0,1669796777.204
1927223.0,1669796777.244
1926509.0,1669796777.285
1925675.0,1669796777.324
1924405.0,1669796777.365
1923085.0,1669796777.407
1922212.0,1669796777.445
1921767.0,1669796777.485
1921480.0,1669796777.526
1921624.0,1669796777.56
1922065.0,1669796777.601
1922456.0,1669796777.641
1922947.0,1669796777.68
1923193.0,1669796777.72
1923669.0,1669796777.761
1923625.0,1669796777.801
1924413.0,1669796777.841
1924762.0,1669796777.882
1925674.0,1669796777.921
1926445.0,1669796777.961
1927235.0,1669796778.003
1928094.0,1669796778.041
1928934.0,1669796778.081
1930141.0,1669796778.122
1930766.0,1669796778.161
1928491.0,1669796778.202
1920845.0,1669796778.275
1924374.0,1669796778.239
1918729.0,1669796778.308
1917795.0,1669796778.35
1917131.0,1669796778.387
1917183.0,1669796778.424
1917072.0,1669796778.465
1916238.0,1669796778.504
1915540.0,1669796778.545
1915172.0,1669796778.587
1915137.0,1669796778.623
1915796.0,1669796778.663
1916881.0,1669796778.704
1917488.0,1669796778.743
1918513.0,1669796778.781
1919527.0,1669796778.821
1920588.0,1669796778.86
1921851.0,1669796778.9
1922604.0,1669796778.941
1923768.0,1669796778.981
1925125.0,1669796779.021
1926423.0,1669796779.062
1928268.0,1669796779.101
1929490.0,1669796779.141
1931434.0,1669796779.183
1932553.0,1669796779.221
1934087.0,1669796779.261
1933560.0,1669796779.302
1929100.0,1669796779.341
1924643.0,1669796779.382
1921885.0,1669796779.423
1920296.0,1669796779.462
1918999.0,1669796779.503
1918325.0,1669796779.544
1918032.0,1669796779.585
1917516.0,1669796779.624
1916587.0,1669796779.666
1916087.0,1669796779.704
1915715.0,1669796779.744
1916221.0,1669796779.786
1916362.0,1669796779.825
1917208.0,1669796779.865
1918217.0,1669796779.906
1919034.0,1669796779.946
1919930.0,1669796779.986
1920996.0,1669796780.024
1921734.0,1669796780.063
1922565.0,1669796780.103
1923537.0,1669796780.144
1924925.0,1669796780.184
1926158.0,1669796780.223
1927435.0,1669796780.264
1928699.0,1669796780.303
1930055.0,1669796780.343
1931501.0,1669796780.385
1932730.0,1669796780.423
1933364.0,1669796780.463
1930054.0,1669796780.505
1924905.0,1669796780.544
1921243.0,1669796780.584
1918677.0,1669796780.625
1917009.0,1669796780.664
1915855.0,1669796780.705
1915174.0,1669796780.746
1914252.0,1669796780.786
1913587.0,1669796780.825
1912290.0,1669796780.866
1911255.0,1669796780.905
1911078.0,1669796780.946
1911291.0,1669796780.988
1911461.0,1669796781.026
1911988.0,1669796781.066
1912808.0,1669796781.108
1913232.0,1669796781.147
1913591.0,1669796781.186
1914059.0,1669796781.219
1914810.0,1669796781.258
1915429.0,1669796781.298
1916344.0,1669796781.339
1917371.0,1669796781.379
1918038.0,1669796781.419
1919150.0,1669796781.46
1920434.0,1669796781.499
1921624.0,1669796781.539
1922878.0,1669796781.581
1923760.0,1669796781.619
1921032.0,1669796781.659
1916766.0,1669796781.7
1913848.0,1669796781.739
1912429.0,1669796781.78
1912156.0,1669796781.821
1912240.0,1669796781.86
1912568.0,1669796781.9
1912691.0,1669796781.941
1912308.0,1669796781.978
1911979.0,1669796782.011
1912201.0,1669796782.052
1912786.0,1669796782.088
1913643.0,1669796782.126
1914706.0,1669796782.169
1915940.0,1669796782.207
1917267.0,1669796782.247
1918812.0,1669796782.289
1919855.0,1669796782.328
1921234.0,1669796782.369
1922382.0,1669796782.409
1924089.0,1669796782.446
1925569.0,1669796782.486
1926696.0,1669796782.527
1928286.0,1669796782.566
1929877.0,1669796782.606
1931404.0,1669796782.647
1933003.0,1669796782.686
1933790.0,1669796782.726
1930380.0,1669796782.768
1925893.0,1669796782.806
1922489.0,1669796782.846
1920424.0,1669796782.887
1918967.0,1669796782.926
1917853.0,1669796782.967
1917633.0,1669796783.007
1916871.0,1669796783.047
1916256.0,1669796783.087
1915329.0,1669796783.128
1914933.0,1669796783.168
1914905.0,1669796783.208
1915268.0,1669796783.249
1915846.0,1669796783.287
1916664.0,1669796783.328
1917418.0,1669796783.37
1918218.0,1669796783.408
1919052.0,1669796783.448
1919804.0,1669796783.49
1920514.0,1669796783.529
1921722.0,1669796783.568
1922835.0,1669796783.609
1924153.0,1669796783.647
1925219.0,1669796783.681
1925219.0,1669796783.722
1925960.0,1669796783.762
1927371.0,1669796783.801
1928246.0,1669796783.842
1929444.0,1669796783.881
1929335.0,1669796783.921
1925442.0,1669796783.963
1920722.0,1669796784.002
1917554.0,1669796784.042
1915735.0,1669796784.083
1914386.0,1669796784.122
1913672.0,1669796784.163
1913273.0,1669796784.203
1912669.0,1669796784.242
1911738.0,1669796784.282
1910830.0,1669796784.323
1910494.0,1669796784.358
1910728.0,1669796784.391
1910990.0,1669796784.43
1911688.0,1669796784.467
1912394.0,1669796784.507
1913207.0,1669796784.549
1914143.0,1669796784.587
1914798.0,1669796784.628
1915695.0,1669796784.669
1916816.0,1669796784.708
1917974.0,1669796784.749
1919188.0,1669796784.791
1920553.0,1669796784.827
1923754.0,1669796784.905
1921942.0,1669796784.867
1924769.0,1669796784.945
1926689.0,1669796784.984
1926668.0,1669796785.025
1923266.0,1669796785.064
1919932.0,1669796785.105
1917250.0,1669796785.146
1916095.0,1669796785.185
1915490.0,1669796785.225
1915234.0,1669796785.266
1915441.0,1669796785.305
1915306.0,1669796785.346
1915024.0,1669796785.386
1915011.0,1669796785.425
1915005.0,1669796785.465
1915637.0,1669796785.506
1916778.0,1669796785.546
1917796.0,1669796785.585
1918983.0,1669796785.628
1919943.0,1669796785.667
1921339.0,1669796785.708
1922481.0,1669796785.749
1923460.0,1669796785.787
1924703.0,1669796785.827
1926153.0,1669796785.869
1927710.0,1669796785.908
1929051.0,1669796785.949
1930569.0,1669796785.989
1932131.0,1669796786.029
1933739.0,1669796786.069
1935206.0,1669796786.11
1935877.0,1669796786.148
1932861.0,1669796786.187
1928657.0,1669796786.228
1926370.0,1669796786.267
1924587.0,1669796786.307
1923170.0,1669796786.349
1922615.0,1669796786.388
1922622.0,1669796786.428
1922067.0,1669796786.469
1921800.0,1669796786.508
1921705.0,1669796786.549
1921856.0,1669796786.589
1922376.0,1669796786.628
1923151.0,1669796786.668
1924319.0,1669796786.709
1925378.0,1669796786.749
1926590.0,1669796786.788
1927525.0,1669796786.829
1928677.0,1669796786.868
1929659.0,1669796786.909
1930651.0,1669796786.951
1931968.0,1669796786.989
1933432.0,1669796787.03
1934464.0,1669796787.069
1935885.0,1669796787.108
1937352.0,1669796787.149
1938587.0,1669796787.19
1939952.0,1669796787.229
1941344.0,1669796787.269
1942288.0,1669796787.31
1940415.0,1669796787.348
1937313.0,1669796787.381
1934346.0,1669796787.423
1933092.0,1669796787.462
1932227.0,1669796787.502
1931598.0,1669796787.544
1931930.0,1669796787.582
1931923.0,1669796787.622
1931648.0,1669796787.663
1931340.0,1669796787.702
1931294.0,1669796787.743
1931908.0,1669796787.783
1932641.0,1669796787.822
1933427.0,1669796787.862
1934563.0,1669796787.904
1935663.0,1669796787.943
1937062.0,1669796787.983
1938064.0,1669796788.024
1939237.0,1669796788.064
1940725.0,1669796788.104
1942170.0,1669796788.143
1944180.0,1669796788.177
1945351.0,1669796788.217
1946889.0,1669796788.252
1948800.0,1669796788.289
1950579.0,1669796788.33
1952295.0,1669796788.371
1953889.0,1669796788.41
1954477.0,1669796788.45
1951554.0,1669796788.492
1948318.0,1669796788.531
1948318.0,1669796788.57
1946276.0,1669796788.609
1944914.0,1669796788.648
1943918.0,1669796788.687
1943679.0,1669796788.726
1943749.0,1669796788.765
1943477.0,1669796788.804
1943240.0,1669796788.843
1943126.0,1669796788.882
1942984.0,1669796788.921
1943688.0,1669796788.96
1944700.0,1669796788.999
1945607.0,1669796789.038
1946725.0,1669796789.077
1947471.0,1669796789.116
1948557.0,1669796789.155
1949465.0,1669796789.194
1950613.0,1669796789.233
1951995.0,1669796789.272
1953097.0,1669796789.311
1954337.0,1669796789.35
1955959.0,1669796789.389
1957438.0,1669796789.428
1958652.0,1669796789.467
1960023.0,1669796789.506
1961769.0,1669796789.545
1963159.0,1669796789.584
1964186.0,1669796789.623
1962692.0,1669796789.662
1958890.0,1669796789.701
1955760.0,1669796789.74
1953744.0,1669796789.779
1952353.0,1669796789.818
1951219.0,1669796789.857
1950576.0,1669796789.896
1950120.0,1669796789.935
1949691.0,1669796789.974
1948680.0,1669796790.013
1948144.0,1669796790.052
1948231.0,1669796790.091
1948504.0,1669796790.13
1949203.0,1669796790.169
1949644.0,1669796790.208
1950055.0,1669796790.247
1950960.0,1669796790.286
1951453.0,1669796790.325
1951817.0,1669796790.364
1952456.0,1669796790.403
1953019.0,1669796790.442
1953971.0,1669796790.481
1954967.0,1669796790.52
1955734.0,1669796790.559
1958205.0,1669796790.637
1959600.0,1669796790.676
1960852.0,1669796790.715
1956772.0,1669796790.598
1962067.0,1669796790.754
1961346.0,1669796790.793
1957601.0,1669796790.832
1954252.0,1669796790.871
1952407.0,1669796790.91
1951266.0,1669796790.949
1950559.0,1669796790.988
1950491.0,1669796791.027
1950144.0,1669796791.105
1949483.0,1669796791.222
1949321.0,1669796791.183
1950688.0,1669796791.066
1949698.0,1669796791.144
1949908.0,1669796791.261
1950658.0,1669796791.3
1951406.0,1669796791.339
1952136.0,1669796791.378
1953383.0,1669796791.417
1954442.0,1669796791.456
1955639.0,1669796791.495
1956904.0,1669796791.534
1958457.0,1669796791.573
1959595.0,1669796791.612
1960870.0,1669796791.651
1962283.0,1669796791.69
1963784.0,1669796791.729
1965076.0,1669796791.768
1966522.0,1669796791.807
1967741.0,1669796791.846
1968258.0,1669796791.885
1964409.0,1669796791.924
1960228.0,1669796791.963
1957439.0,1669796792.002
1955734.0,1669796792.041
1954274.0,1669796792.08
1953370.0,1669796792.119
1952827.0,1669796792.159
1952371.0,1669796792.199
1951251.0,1669796792.239
1950388.0,1669796792.279
1949912.0,1669796792.319
1949835.0,1669796792.359
1949957.0,1669796792.399
1950551.0,1669796792.439
1951370.0,1669796792.479
1951821.0,1669796792.519
1952550.0,1669796792.559
1953325.0,1669796792.599
1954133.0,1669796792.639
1954711.0,1669796792.679
1955423.0,1669796792.719
1956421.0,1669796792.759
1957624.0,1669796792.799
1958688.0,1669796792.839
1960115.0,1669796792.879
1961040.0,1669796792.919
1961950.0,1669796792.959
1963293.0,1669796792.999
1963256.0,1669796793.039
1959421.0,1669796793.079
1955233.0,1669796793.119
1952357.0,1669796793.159
1950202.0,1669796793.199
1949098.0,1669796793.239
1947804.0,1669796793.279
1947149.0,1669796793.319
1946854.0,1669796793.359
1945369.0,1669796793.399
1944508.0,1669796793.439
1943860.0,1669796793.479
1943506.0,1669796793.519
1943346.0,1669796793.559
1943514.0,1669796793.599
1944094.0,1669796793.639
1944569.0,1669796793.679
1944838.0,1669796793.719
1945352.0,1669796793.759
1945592.0,1669796793.799
1946335.0,1669796793.839
1946705.0,1669796793.879
1947517.0,1669796793.919
1948404.0,1669796793.959
1949390.0,1669796793.999
1950053.0,1669796794.039
1951046.0,1669796794.079
1951733.0,1669796794.119
1952365.0,1669796794.159
1950790.0,1669796794.199
1946822.0,1669796794.239
1943443.0,1669796794.279
1941535.0,1669796794.319
1940697.0,1669796794.359
1940124.0,1669796794.399
1940400.0,1669796794.439
1940215.0,1669796794.479
1939791.0,1669796794.519
1939211.0,1669796794.559
1938797.0,1669796794.599
1938869.0,1669796794.639
1939600.0,1669796794.679
1940337.0,1669796794.719
1941077.0,1669796794.759
1942447.0,1669796794.799
1943836.0,1669796794.839
1944657.0,1669796794.879
1946038.0,1669796794.919
1947085.0,1669796794.959
1948158.0,1669796794.999
1949461.0,1669796795.039
1950901.0,1669796795.079
1952392.0,1669796795.119
1953743.0,1669796795.159
1955364.0,1669796795.199
1956859.0,1669796795.239
1956525.0,1669796795.279
1952883.0,1669796795.319
1948341.0,1669796795.359
1945154.0,1669796795.399
1943500.0,1669796795.439
1942555.0,1669796795.479
1941708.0,1669796795.519
1941541.0,1669796795.559
1941262.0,1669796795.599
1940311.0,1669796795.639
1939610.0,1669796795.679
1939418.0,1669796795.719
1939367.0,1669796795.759
1939864.0,1669796795.799
1940235.0,1669796795.839
1941226.0,1669796795.879
1941870.0,1669796795.919
1942544.0,1669796795.959
1943160.0,1669796795.999
1944023.0,1669796796.039
1945116.0,1669796796.079
1945788.0,1669796796.119
1947096.0,1669796796.159
1948070.0,1669796796.199
1949573.0,1669796796.239
1950598.0,1669796796.279
1951905.0,1669796796.319
1953393.0,1669796796.359
1952596.0,1669796796.399
1948394.0,1669796796.439
1944554.0,1669796796.479
1941616.0,1669796796.519
1939743.0,1669796796.559
1938262.0,1669796796.599
1937520.0,1669796796.639
1937121.0,1669796796.679
1936394.0,1669796796.719
1935390.0,1669796796.759
1934519.0,1669796796.799
1934123.0,1669796796.839
1934087.0,1669796796.879
1933873.0,1669796796.919
1934066.0,1669796796.959
1934741.0,1669796796.999
1934874.0,1669796797.039
1935535.0,1669796797.079
1935838.0,1669796797.119
1936373.0,1669796797.159
1937547.0,1669796797.199
1938800.0,1669796797.239
1940138.0,1669796797.279
1941355.0,1669796797.319
1942867.0,1669796797.359
1944188.0,1669796797.399
1945676.0,1669796797.439
1947117.0,1669796797.479
1945991.0,1669796797.519
1942922.0,1669796797.559
1940796.0,1669796797.599
1939861.0,1669796797.639
1939627.0,1669796797.679
1940071.0,1669796797.719
1941392.0,1669796797.799
1940575.0,1669796797.759
1941590.0,1669796797.839
1941654.0,1669796797.879
1942274.0,1669796797.919
1943007.0,1669796797.959
1944024.0,1669796797.999
1945422.0,1669796798.039
1947145.0,1669796798.079
1948409.0,1669796798.119
1949924.0,1669796798.159
1951542.0,1669796798.199
1953067.0,1669796798.239
1954355.0,1669796798.279
1956294.0,1669796798.319
1959551.0,1669796798.359
1963398.0,1669796798.399
1966374.0,1669796798.439
1968192.0,1669796798.479
1969903.0,1669796798.519
1971449.0,1669796798.559
1971476.0,1669796798.599
1968326.0,1669796798.639
1965488.0,1669796798.679
1963828.0,1669796798.719
1963147.0,1669796798.759
1962431.0,1669796798.799
1962258.0,1669796798.839
1962389.0,1669796798.879
1962631.0,1669796798.919
1962187.0,1669796798.959
1962339.0,1669796798.999
1962294.0,1669796799.039
1962669.0,1669796799.079
1963371.0,1669796799.119
1964024.0,1669796799.159
1964565.0,1669796799.199
1965842.0,1669796799.239
1966324.0,1669796799.279
1967320.0,1669796799.319
1968299.0,1669796799.359
1969339.0,1669796799.399
1969339.0,1669796799.439
1970181.0,1669796799.479
1971577.0,1669796799.519
1973200.0,1669796799.559
1974188.0,1669796799.599
1975510.0,1669796799.639
1977042.0,1669796799.679
1978494.0,1669796799.719
1979810.0,1669796799.759
1979203.0,1669796799.799
1976689.0,1669796799.839
1974423.0,1669796799.879
1972812.0,1669796799.919
1972056.0,1669796799.959
1971729.0,1669796799.999
1973907.0,1669796800.039
1975750.0,1669796800.079
1976185.0,1669796800.119
1975992.0,1669796800.159
1975396.0,1669796800.199
1975217.0,1669796800.239
1975070.0,1669796800.279
1974972.0,1669796800.319
1975094.0,1669796800.359
1975485.0,1669796800.399
1976092.0,1669796800.44
1976732.0,1669796800.48
1977060.0,1669796800.521
1977895.0,1669796800.56
1978392.0,1669796800.6
1979267.0,1669796800.642
1980213.0,1669796800.68
1981041.0,1669796800.72
1982995.0,1669796800.8
1983969.0,1669796800.841
1985219.0,1669796800.881
1981738.0,1669796800.761
1986067.0,1669796800.92
1984430.0,1669796800.961
1982268.0,1669796801.002
1980409.0,1669796801.041
1979891.0,1669796801.081
1979723.0,1669796801.122
1979615.0,1669796801.161
1980526.0,1669796801.201
1980639.0,1669796801.243
1980464.0,1669796801.281
1980641.0,1669796801.319
1980840.0,1669796801.357
1981372.0,1669796801.39
1982335.0,1669796801.428
1983333.0,1669796801.469
1984144.0,1669796801.508
1985359.0,1669796801.548
1986572.0,1669796801.589
1987374.0,1669796801.627
1988143.0,1669796801.666
1989678.0,1669796801.708
1990753.0,1669796801.747
1991654.0,1669796801.788
1992867.0,1669796801.829
1993812.0,1669796801.86
1995316.0,1669796801.901
1996588.0,1669796801.942
1998110.0,1669796801.981
1999591.0,1669796802.021
1998654.0,1669796802.062
1995396.0,1669796802.101
1992292.0,1669796802.141
1990259.0,1669796802.182
1988932.0,1669796802.222
1987796.0,1669796802.261
1986427.0,1669796802.341
1987042.0,1669796802.302
1984869.0,1669796802.423
1984026.0,1669796802.462
1983833.0,1669796802.502
1983814.0,1669796802.58
1983842.0,1669796802.544
1986076.0,1669796802.381
1984316.0,1669796802.614
1984561.0,1669796802.655
1984816.0,1669796802.691
1985382.0,1669796802.729
1985602.0,1669796802.77
1986132.0,1669796802.81
1986897.0,1669796802.85
1987498.0,1669796802.891
1987936.0,1669796802.93
