bvp,time
64.0,1625051963.0
-0.0,1625051963.015625
-0.0,1625051963.03125
-0.0,1625051963.046875
-0.0,1625051963.0625
-0.0,1625051963.078125
-0.0,1625051963.09375
-0.0,1625051963.109375
-0.0,1625051963.125
-0.0,1625051963.140625
-0.0,1625051963.15625
0.0,1625051963.171875
0.01,1625051963.1875
0.01,1625051963.203125
-0.0,1625051963.21875
-0.03,1625051963.234375
-0.05,1625051963.25
-0.05,1625051963.265625
0.0,1625051963.28125
0.13,1625051963.296875
0.36,1625051963.3125
0.66,1625051963.328125
1.01,1625051963.34375
1.37,1625051963.359375
1.72,1625051963.375
2.06,1625051963.390625
2.4,1625051963.40625
2.79,1625051963.421875
3.24,1625051963.4375
3.8,1625051963.453125
4.42,1625051963.46875
5.06,1625051963.484375
5.66,1625051963.5
6.2,1625051963.515625
6.68,1625051963.53125
7.15,1625051963.546875
7.68,1625051963.5625
8.31,1625051963.578125
9.14,1625051963.59375
10.09,1625051963.609375
11.04,1625051963.625
11.88,1625051963.640625
12.56,1625051963.65625
13.14,1625051963.671875
13.76,1625051963.6875
14.65,1625051963.703125
15.96,1625051963.71875
17.91,1625051963.734375
20.32,1625051963.75
22.9,1625051963.765625
25.38,1625051963.78125
27.58,1625051963.796875
29.57,1625051963.8125
31.68,1625051963.828125
34.32,1625051963.84375
37.81,1625051963.859375
42.54,1625051963.875
48.15,1625051963.890625
54.1,1625051963.90625
59.83,1625051963.921875
64.97,1625051963.9375
69.58,1625051963.953125
74.14,1625051963.96875
79.34,1625051963.984375
85.71,1625051964.0
93.76,1625051964.015625
103.0,1625051964.03125
112.62,1625051964.046875
121.73,1625051964.0625
129.77,1625051964.078125
136.75,1625051964.09375
143.3,1625051964.109375
150.75,1625051964.125
157.77,1625051964.140625
166.64,1625051964.15625
177.95,1625051964.171875
191.79,1625051964.1875
206.97,1625051964.203125
220.57,1625051964.21875
228.25,1625051964.234375
225.36,1625051964.25
208.53,1625051964.265625
176.87,1625051964.28125
132.76,1625051964.296875
80.05,1625051964.3125
23.07,1625051964.328125
-34.94,1625051964.34375
-92.43,1625051964.359375
-149.15,1625051964.375
-205.23,1625051964.390625
-260.37,1625051964.40625
-313.75,1625051964.421875
-363.88,1625051964.4375
-409.83,1625051964.453125
-450.89,1625051964.46875
-486.47,1625051964.484375
-515.7,1625051964.5
-537.22,1625051964.515625
-549.28,1625051964.53125
-550.12,1625051964.546875
-538.63,1625051964.5625
-514.57,1625051964.578125
-479.1,1625051964.59375
-434.32,1625051964.609375
-382.88,1625051964.625
-327.44,1625051964.640625
-270.27,1625051964.65625
-213.11,1625051964.671875
-157.23,1625051964.6875
-103.63,1625051964.703125
-53.14,1625051964.71875
-6.71,1625051964.734375
34.78,1625051964.75
70.67,1625051964.765625
100.63,1625051964.78125
124.73,1625051964.796875
143.47,1625051964.8125
157.54,1625051964.828125
167.72,1625051964.84375
174.71,1625051964.859375
178.97,1625051964.875
180.82,1625051964.890625
180.42,1625051964.90625
177.92,1625051964.921875
173.53,1625051964.9375
167.55,1625051964.953125
160.43,1625051964.96875
152.65,1625051964.984375
144.67,1625051965.0
136.82,1625051965.015625
129.21,1625051965.03125
121.75,1625051965.046875
114.21,1625051965.0625
106.35,1625051965.078125
98.04,1625051965.09375
89.41,1625051965.109375
80.78,1625051965.125
72.62,1625051965.140625
65.28,1625051965.15625
58.89,1625051965.171875
53.23,1625051965.1875
47.84,1625051965.203125
42.2,1625051965.21875
35.99,1625051965.234375
29.26,1625051965.25
22.44,1625051965.265625
16.16,1625051965.28125
10.94,1625051965.296875
6.99,1625051965.3125
4.09,1625051965.328125
1.71,1625051965.34375
-0.76,1625051965.359375
-3.89,1625051965.375
-8.07,1625051965.390625
-13.44,1625051965.40625
-19.68,1625051965.421875
-25.79,1625051965.4375
-30.03,1625051965.453125
-30.32,1625051965.46875
-25.07,1625051965.484375
-14.06,1625051965.5
1.08,1625051965.515625
17.31,1625051965.53125
31.25,1625051965.546875
40.51,1625051965.5625
44.57,1625051965.578125
44.55,1625051965.59375
42.42,1625051965.609375
39.74,1625051965.625
37.18,1625051965.640625
34.55,1625051965.65625
31.43,1625051965.671875
27.8,1625051965.6875
24.17,1625051965.703125
21.22,1625051965.71875
19.3,1625051965.734375
18.26,1625051965.75
17.66,1625051965.765625
17.1,1625051965.78125
16.47,1625051965.796875
15.92,1625051965.8125
15.6,1625051965.828125
15.43,1625051965.84375
15.13,1625051965.859375
14.38,1625051965.875
13.17,1625051965.890625
11.72,1625051965.90625
10.37,1625051965.921875
9.3,1625051965.9375
8.42,1625051965.953125
7.47,1625051965.96875
6.34,1625051965.984375
5.12,1625051966.0
4.08,1625051966.015625
3.49,1625051966.03125
3.25,1625051966.046875
3.02,1625051966.0625
2.32,1625051966.078125
0.91,1625051966.09375
-1.06,1625051966.109375
-3.15,1625051966.125
-4.73,1625051966.140625
-5.35,1625051966.15625
-4.9,1625051966.171875
-3.61,1625051966.1875
-1.97,1625051966.203125
-0.56,1625051966.21875
0.2,1625051966.234375
0.12,1625051966.25
-0.68,1625051966.265625
-1.81,1625051966.28125
-2.8,1625051966.296875
-3.28,1625051966.3125
-3.15,1625051966.328125
-2.54,1625051966.34375
-1.78,1625051966.359375
-1.17,1625051966.375
-0.87,1625051966.390625
-0.8,1625051966.40625
-0.71,1625051966.421875
-0.39,1625051966.4375
0.29,1625051966.453125
1.21,1625051966.46875
2.21,1625051966.484375
3.09,1625051966.5
3.81,1625051966.515625
4.47,1625051966.53125
5.28,1625051966.546875
6.41,1625051966.5625
7.93,1625051966.578125
9.8,1625051966.59375
11.82,1625051966.609375
13.82,1625051966.625
15.61,1625051966.640625
16.98,1625051966.65625
17.73,1625051966.671875
17.63,1625051966.6875
16.56,1625051966.703125
14.49,1625051966.71875
11.66,1625051966.734375
8.27,1625051966.75
4.62,1625051966.765625
0.99,1625051966.78125
-2.47,1625051966.796875
-5.7,1625051966.8125
-8.62,1625051966.828125
-11.13,1625051966.84375
-13.1,1625051966.859375
-14.39,1625051966.875
-14.98,1625051966.890625
-14.96,1625051966.90625
-14.52,1625051966.921875
-13.92,1625051966.9375
-13.36,1625051966.953125
-12.88,1625051966.96875
-12.44,1625051966.984375
-11.94,1625051967.0
-11.31,1625051967.015625
-10.61,1625051967.03125
-9.95,1625051967.046875
-9.45,1625051967.0625
-9.14,1625051967.078125
-8.95,1625051967.09375
-8.72,1625051967.109375
-8.31,1625051967.125
-7.68,1625051967.140625
-6.91,1625051967.15625
-6.19,1625051967.171875
-5.7,1625051967.1875
-5.48,1625051967.203125
-5.49,1625051967.21875
-5.59,1625051967.234375
-5.62,1625051967.25
-5.44,1625051967.265625
-4.97,1625051967.28125
-4.16,1625051967.296875
-3.0,1625051967.3125
-1.5,1625051967.328125
0.24,1625051967.34375
2.06,1625051967.359375
3.71,1625051967.375
4.93,1625051967.390625
5.57,1625051967.40625
5.58,1625051967.421875
5.06,1625051967.4375
4.2,1625051967.453125
3.2,1625051967.46875
2.21,1625051967.484375
1.32,1625051967.5
0.55,1625051967.515625
-0.06,1625051967.53125
-0.53,1625051967.546875
-0.84,1625051967.5625
-0.97,1625051967.578125
-0.9,1625051967.59375
-0.65,1625051967.609375
-0.25,1625051967.625
0.22,1625051967.640625
0.66,1625051967.65625
1.02,1625051967.671875
1.21,1625051967.6875
1.22,1625051967.703125
1.04,1625051967.71875
0.68,1625051967.734375
0.16,1625051967.75
-0.49,1625051967.765625
-1.28,1625051967.78125
-2.18,1625051967.796875
-3.16,1625051967.8125
-4.14,1625051967.828125
-5.02,1625051967.84375
-5.73,1625051967.859375
-6.24,1625051967.875
-6.61,1625051967.890625
-6.95,1625051967.90625
-7.42,1625051967.921875
-8.1,1625051967.9375
-8.91,1625051967.953125
-9.65,1625051967.96875
-10.02,1625051967.984375
-9.79,1625051968.0
-8.84,1625051968.015625
-7.22,1625051968.03125
-5.07,1625051968.046875
-2.56,1625051968.0625
0.18,1625051968.078125
3.03,1625051968.09375
5.84,1625051968.109375
8.4,1625051968.125
10.47,1625051968.140625
11.85,1625051968.15625
12.42,1625051968.171875
12.24,1625051968.1875
11.49,1625051968.203125
10.43,1625051968.21875
9.27,1625051968.234375
8.2,1625051968.25
7.31,1625051968.265625
6.59,1625051968.28125
5.98,1625051968.296875
5.42,1625051968.3125
4.84,1625051968.328125
4.28,1625051968.34375
3.84,1625051968.359375
3.6,1625051968.375
3.57,1625051968.390625
3.61,1625051968.40625
3.47,1625051968.421875
2.92,1625051968.4375
1.86,1625051968.453125
0.37,1625051968.46875
-1.29,1625051968.484375
-2.83,1625051968.5
-4.05,1625051968.515625
-4.95,1625051968.53125
-5.66,1625051968.546875
-6.39,1625051968.5625
-7.25,1625051968.578125
-8.25,1625051968.59375
-9.3,1625051968.609375
-10.25,1625051968.625
-10.97,1625051968.640625
-11.36,1625051968.65625
-11.31,1625051968.671875
-10.72,1625051968.6875
-9.49,1625051968.703125
-7.6,1625051968.71875
-5.17,1625051968.734375
-2.42,1625051968.75
0.37,1625051968.765625
2.97,1625051968.78125
5.29,1625051968.796875
7.28,1625051968.8125
8.94,1625051968.828125
10.21,1625051968.84375
10.98,1625051968.859375
11.17,1625051968.875
10.81,1625051968.890625
10.02,1625051968.90625
9.0,1625051968.921875
7.91,1625051968.9375
6.86,1625051968.953125
5.88,1625051968.96875
4.98,1625051968.984375
4.2,1625051969.0
3.64,1625051969.015625
3.36,1625051969.03125
3.34,1625051969.046875
3.42,1625051969.0625
3.43,1625051969.078125
3.18,1625051969.09375
2.58,1625051969.109375
1.7,1625051969.125
0.66,1625051969.140625
-0.4,1625051969.15625
-1.37,1625051969.171875
-2.24,1625051969.1875
-3.07,1625051969.203125
-3.91,1625051969.21875
-4.84,1625051969.234375
-5.89,1625051969.25
-7.04,1625051969.265625
-8.23,1625051969.28125
-9.34,1625051969.296875
-10.24,1625051969.3125
-10.73,1625051969.328125
-10.68,1625051969.34375
-9.95,1625051969.359375
-8.5,1625051969.375
-6.37,1625051969.390625
-3.69,1625051969.40625
-0.68,1625051969.421875
2.38,1625051969.4375
5.18,1625051969.453125
7.47,1625051969.46875
9.09,1625051969.484375
9.98,1625051969.5
10.2,1625051969.515625
9.85,1625051969.53125
9.09,1625051969.546875
8.04,1625051969.5625
6.86,1625051969.578125
5.66,1625051969.59375
4.53,1625051969.609375
3.56,1625051969.625
2.76,1625051969.640625
2.13,1625051969.65625
1.64,1625051969.671875
1.26,1625051969.6875
0.95,1625051969.703125
0.68,1625051969.71875
0.38,1625051969.734375
-0.02,1625051969.75
-0.59,1625051969.765625
-1.35,1625051969.78125
-2.24,1625051969.796875
-3.17,1625051969.8125
-4.04,1625051969.828125
-4.84,1625051969.84375
-5.62,1625051969.859375
-6.5,1625051969.875
-7.57,1625051969.890625
-8.87,1625051969.90625
-10.33,1625051969.921875
-11.83,1625051969.9375
-13.2,1625051969.953125
-14.32,1625051969.96875
-15.02,1625051969.984375
-15.13,1625051970.0
-14.45,1625051970.015625
-12.91,1625051970.03125
-10.52,1625051970.046875
-7.51,1625051970.0625
-4.26,1625051970.078125
-1.17,1625051970.09375
1.45,1625051970.109375
3.46,1625051970.125
4.89,1625051970.140625
5.88,1625051970.15625
6.56,1625051970.171875
7.02,1625051970.1875
7.26,1625051970.203125
7.22,1625051970.21875
6.85,1625051970.234375
6.19,1625051970.25
5.35,1625051970.265625
4.51,1625051970.28125
3.83,1625051970.296875
3.44,1625051970.3125
3.32,1625051970.328125
3.38,1625051970.34375
3.45,1625051970.359375
3.37,1625051970.375
3.04,1625051970.390625
2.47,1625051970.40625
1.74,1625051970.421875
0.98,1625051970.4375
0.3,1625051970.453125
-0.25,1625051970.46875
-0.73,1625051970.484375
-1.21,1625051970.5
-1.79,1625051970.515625
-2.51,1625051970.53125
-3.35,1625051970.546875
-4.28,1625051970.5625
-5.27,1625051970.578125
-6.33,1625051970.59375
-7.46,1625051970.609375
-8.62,1625051970.625
-9.61,1625051970.640625
-10.16,1625051970.65625
-9.95,1625051970.671875
-8.76,1625051970.6875
-6.56,1625051970.703125
-3.6,1625051970.71875
-0.26,1625051970.734375
3.03,1625051970.75
5.95,1625051970.765625
8.3,1625051970.78125
10.05,1625051970.796875
11.24,1625051970.8125
11.93,1625051970.828125
12.17,1625051970.84375
12.01,1625051970.859375
11.56,1625051970.875
10.94,1625051970.890625
10.28,1625051970.90625
9.68,1625051970.921875
9.18,1625051970.9375
8.75,1625051970.953125
8.34,1625051970.96875
7.91,1625051970.984375
7.5,1625051971.0
7.13,1625051971.015625
6.86,1625051971.03125
6.67,1625051971.046875
6.5,1625051971.0625
6.22,1625051971.078125
5.72,1625051971.09375
4.9,1625051971.109375
3.72,1625051971.125
2.27,1625051971.140625
0.66,1625051971.15625
-0.95,1625051971.171875
-2.45,1625051971.1875
-3.86,1625051971.203125
-5.32,1625051971.21875
-6.97,1625051971.234375
-8.86,1625051971.25
-10.83,1625051971.265625
-12.55,1625051971.28125
-13.63,1625051971.296875
-13.82,1625051971.3125
-13.12,1625051971.328125
-11.77,1625051971.34375
-10.08,1625051971.359375
-8.33,1625051971.375
-6.63,1625051971.390625
-4.94,1625051971.40625
-3.18,1625051971.421875
-1.28,1625051971.4375
0.74,1625051971.453125
2.81,1625051971.46875
4.81,1625051971.484375
6.57,1625051971.5
7.91,1625051971.515625
8.65,1625051971.53125
8.72,1625051971.546875
8.2,1625051971.5625
7.37,1625051971.578125
6.65,1625051971.59375
6.39,1625051971.609375
6.82,1625051971.625
7.86,1625051971.640625
9.25,1625051971.65625
10.67,1625051971.671875
11.83,1625051971.6875
12.57,1625051971.703125
12.88,1625051971.71875
12.79,1625051971.734375
12.36,1625051971.75
11.62,1625051971.765625
10.57,1625051971.78125
9.19,1625051971.796875
7.51,1625051971.8125
5.56,1625051971.828125
3.42,1625051971.84375
1.16,1625051971.859375
-1.16,1625051971.875
-3.48,1625051971.890625
-5.78,1625051971.90625
-8.0,1625051971.921875
-10.05,1625051971.9375
-11.72,1625051971.953125
-12.78,1625051971.96875
-12.96,1625051971.984375
-12.15,1625051972.0
-10.43,1625051972.015625
-8.04,1625051972.03125
-5.36,1625051972.046875
-2.73,1625051972.0625
-0.41,1625051972.078125
1.44,1625051972.09375
2.7,1625051972.109375
3.27,1625051972.125
3.11,1625051972.140625
2.22,1625051972.15625
0.78,1625051972.171875
-0.95,1625051972.1875
-2.66,1625051972.203125
-4.08,1625051972.21875
-5.11,1625051972.234375
-5.77,1625051972.25
-6.17,1625051972.265625
-6.42,1625051972.28125
-6.57,1625051972.296875
-6.65,1625051972.3125
-6.66,1625051972.328125
-6.57,1625051972.34375
-6.38,1625051972.359375
-6.14,1625051972.375
-5.89,1625051972.390625
-5.7,1625051972.40625
-5.65,1625051972.421875
-5.77,1625051972.4375
-6.05,1625051972.453125
-6.44,1625051972.46875
-6.92,1625051972.484375
-7.48,1625051972.5
-8.18,1625051972.515625
-9.09,1625051972.53125
-10.2,1625051972.546875
-11.47,1625051972.5625
-12.7,1625051972.578125
-13.72,1625051972.59375
-14.36,1625051972.609375
-14.53,1625051972.625
-14.22,1625051972.640625
-13.44,1625051972.65625
-12.19,1625051972.671875
-10.48,1625051972.6875
-8.33,1625051972.703125
-5.89,1625051972.71875
-3.4,1625051972.734375
-1.13,1625051972.75
0.74,1625051972.765625
2.2,1625051972.78125
3.4,1625051972.796875
4.52,1625051972.8125
5.67,1625051972.828125
6.74,1625051972.84375
7.5,1625051972.859375
7.65,1625051972.875
7.07,1625051972.890625
5.82,1625051972.90625
4.23,1625051972.921875
2.65,1625051972.9375
1.42,1625051972.953125
0.66,1625051972.96875
0.34,1625051972.984375
0.32,1625051973.0
0.42,1625051973.015625
0.51,1625051973.03125
0.48,1625051973.046875
0.3,1625051973.0625
-0.07,1625051973.078125
-0.68,1625051973.09375
-1.56,1625051973.109375
-2.69,1625051973.125
-3.99,1625051973.140625
-5.31,1625051973.15625
-6.48,1625051973.171875
-7.36,1625051973.1875
-7.92,1625051973.203125
-8.25,1625051973.21875
-8.5,1625051973.234375
-8.83,1625051973.25
-9.3,1625051973.265625
-9.88,1625051973.28125
-10.42,1625051973.296875
-10.75,1625051973.3125
-10.72,1625051973.328125
-10.25,1625051973.34375
-9.36,1625051973.359375
-8.08,1625051973.375
-6.5,1625051973.390625
-4.65,1625051973.40625
-2.6,1625051973.421875
-0.45,1625051973.4375
1.65,1625051973.453125
3.55,1625051973.46875
5.13,1625051973.484375
6.41,1625051973.5
7.46,1625051973.515625
8.38,1625051973.53125
9.22,1625051973.546875
9.95,1625051973.5625
10.47,1625051973.578125
10.71,1625051973.59375
10.64,1625051973.609375
10.36,1625051973.625
9.99,1625051973.640625
9.64,1625051973.65625
9.39,1625051973.671875
9.28,1625051973.6875
9.35,1625051973.703125
9.63,1625051973.71875
10.1,1625051973.734375
10.64,1625051973.75
11.09,1625051973.765625
11.27,1625051973.78125
11.1,1625051973.796875
10.63,1625051973.8125
9.95,1625051973.828125
9.2,1625051973.84375
8.41,1625051973.859375
7.53,1625051973.875
6.5,1625051973.890625
5.3,1625051973.90625
4.01,1625051973.921875
2.81,1625051973.9375
1.79,1625051973.953125
0.98,1625051973.96875
0.29,1625051973.984375
-0.42,1625051974.0
-1.21,1625051974.015625
-2.03,1625051974.03125
-2.74,1625051974.046875
-3.21,1625051974.0625
-3.38,1625051974.078125
-3.23,1625051974.09375
-2.77,1625051974.109375
-2.01,1625051974.125
-0.89,1625051974.140625
0.61,1625051974.15625
2.48,1625051974.171875
4.63,1625051974.1875
6.88,1625051974.203125
9.03,1625051974.21875
10.88,1625051974.234375
12.27,1625051974.25
13.08,1625051974.265625
13.28,1625051974.28125
12.86,1625051974.296875
11.94,1625051974.3125
10.65,1625051974.328125
9.21,1625051974.34375
7.79,1625051974.359375
6.53,1625051974.375
5.49,1625051974.390625
4.66,1625051974.40625
4.03,1625051974.421875
3.55,1625051974.4375
3.21,1625051974.453125
3.0,1625051974.46875
2.9,1625051974.484375
2.85,1625051974.5
2.77,1625051974.515625
2.57,1625051974.53125
2.18,1625051974.546875
1.57,1625051974.5625
0.77,1625051974.578125
-0.18,1625051974.59375
-1.21,1625051974.609375
-2.32,1625051974.625
-3.49,1625051974.640625
-4.77,1625051974.65625
-6.15,1625051974.671875
-7.61,1625051974.6875
-9.04,1625051974.703125
-10.34,1625051974.71875
-11.44,1625051974.734375
-12.32,1625051974.75
-13.05,1625051974.765625
-13.68,1625051974.78125
-14.25,1625051974.796875
-14.68,1625051974.8125
-14.8,1625051974.828125
-14.41,1625051974.84375
-13.32,1625051974.859375
-11.46,1625051974.875
-8.95,1625051974.890625
-6.01,1625051974.90625
-2.95,1625051974.921875
-0.11,1625051974.9375
2.23,1625051974.953125
3.91,1625051974.96875
4.88,1625051974.984375
5.23,1625051975.0
5.17,1625051975.015625
4.89,1625051975.03125
4.56,1625051975.046875
4.23,1625051975.0625
3.94,1625051975.078125
3.66,1625051975.09375
3.41,1625051975.109375
3.27,1625051975.125
3.34,1625051975.140625
3.64,1625051975.15625
4.16,1625051975.171875
4.82,1625051975.1875
5.54,1625051975.203125
6.31,1625051975.21875
7.18,1625051975.234375
8.14,1625051975.25
9.09,1625051975.265625
9.75,1625051975.28125
9.79,1625051975.296875
9.0,1625051975.3125
7.37,1625051975.328125
5.14,1625051975.34375
2.71,1625051975.359375
0.42,1625051975.375
-1.55,1625051975.390625
-3.25,1625051975.40625
-4.81,1625051975.421875
-6.35,1625051975.4375
-7.83,1625051975.453125
-9.07,1625051975.46875
-9.83,1625051975.484375
-9.93,1625051975.5
-9.36,1625051975.515625
-8.25,1625051975.53125
-6.82,1625051975.546875
-5.34,1625051975.5625
-3.99,1625051975.578125
-2.83,1625051975.59375
-1.89,1625051975.609375
-1.15,1625051975.625
-0.61,1625051975.640625
-0.32,1625051975.65625
-0.33,1625051975.671875
-0.67,1625051975.6875
-1.27,1625051975.703125
-1.98,1625051975.71875
-2.66,1625051975.734375
-3.21,1625051975.75
-3.62,1625051975.765625
-3.96,1625051975.78125
-4.29,1625051975.796875
-4.65,1625051975.8125
-4.95,1625051975.828125
-5.07,1625051975.84375
-4.85,1625051975.859375
-4.28,1625051975.875
-3.47,1625051975.890625
-2.63,1625051975.90625
-1.99,1625051975.921875
-1.69,1625051975.9375
-1.75,1625051975.953125
-2.08,1625051975.96875
-2.54,1625051975.984375
-3.04,1625051976.0
-3.54,1625051976.015625
-4.05,1625051976.03125
-4.61,1625051976.046875
-5.23,1625051976.0625
-5.83,1625051976.078125
-6.27,1625051976.09375
-6.38,1625051976.109375
-6.01,1625051976.125
-5.1,1625051976.140625
-3.68,1625051976.15625
-1.85,1625051976.171875
0.22,1625051976.1875
2.4,1625051976.203125
4.57,1625051976.21875
6.65,1625051976.234375
8.58,1625051976.25
10.32,1625051976.265625
11.76,1625051976.28125
12.78,1625051976.296875
13.25,1625051976.3125
13.04,1625051976.328125
12.1,1625051976.34375
10.55,1625051976.359375
8.67,1625051976.375
6.8,1625051976.390625
5.26,1625051976.40625
4.19,1625051976.421875
3.55,1625051976.4375
3.15,1625051976.453125
2.79,1625051976.46875
2.4,1625051976.484375
1.98,1625051976.5
1.59,1625051976.515625
1.23,1625051976.53125
0.8,1625051976.546875
0.23,1625051976.5625
-0.52,1625051976.578125
-1.39,1625051976.59375
-2.29,1625051976.609375
-3.17,1625051976.625
-4.1,1625051976.640625
-5.21,1625051976.65625
-6.58,1625051976.671875
-8.22,1625051976.6875
-9.91,1625051976.703125
-11.36,1625051976.71875
-12.23,1625051976.734375
-12.32,1625051976.75
-11.57,1625051976.765625
-10.1,1625051976.78125
-8.13,1625051976.796875
-5.92,1625051976.8125
-3.67,1625051976.828125
-1.51,1625051976.84375
0.49,1625051976.859375
2.31,1625051976.875
3.92,1625051976.890625
5.26,1625051976.90625
6.29,1625051976.921875
6.94,1625051976.9375
7.23,1625051976.953125
7.16,1625051976.96875
6.75,1625051976.984375
6.06,1625051977.0
5.16,1625051977.015625
4.21,1625051977.03125
3.38,1625051977.046875
2.82,1625051977.0625
2.57,1625051977.078125
2.6,1625051977.09375
2.78,1625051977.109375
2.95,1625051977.125
3.0,1625051977.140625
2.86,1625051977.15625
2.51,1625051977.171875
1.92,1625051977.1875
1.12,1625051977.203125
0.13,1625051977.21875
-0.99,1625051977.234375
-2.18,1625051977.25
-3.36,1625051977.265625
-4.48,1625051977.28125
-5.56,1625051977.296875
-6.63,1625051977.3125
-7.71,1625051977.328125
-8.73,1625051977.34375
-9.56,1625051977.359375
-9.99,1625051977.375
-9.83,1625051977.390625
-8.94,1625051977.40625
-7.29,1625051977.421875
-5.02,1625051977.4375
-2.35,1625051977.453125
0.42,1625051977.46875
3.05,1625051977.484375
5.35,1625051977.5
7.19,1625051977.515625
8.53,1625051977.53125
9.31,1625051977.546875
9.52,1625051977.5625
9.13,1625051977.578125
8.21,1625051977.59375
6.9,1625051977.609375
5.45,1625051977.625
4.1,1625051977.640625
3.1,1625051977.65625
2.56,1625051977.671875
2.44,1625051977.6875
2.56,1625051977.703125
2.73,1625051977.71875
2.79,1625051977.734375
2.62,1625051977.75
2.26,1625051977.765625
1.74,1625051977.78125
1.12,1625051977.796875
0.47,1625051977.8125
-0.21,1625051977.828125
-0.89,1625051977.84375
-1.57,1625051977.859375
-2.27,1625051977.875
-3.04,1625051977.890625
-3.94,1625051977.90625
-5.0,1625051977.921875
-6.21,1625051977.9375
-7.43,1625051977.953125
-8.43,1625051977.96875
-8.93,1625051977.984375
-8.71,1625051978.0
-7.67,1625051978.015625
-5.87,1625051978.03125
-3.52,1625051978.046875
-0.94,1625051978.0625
1.61,1625051978.078125
3.91,1625051978.09375
5.88,1625051978.109375
7.48,1625051978.125
8.74,1625051978.140625
9.67,1625051978.15625
10.23,1625051978.171875
10.39,1625051978.1875
10.15,1625051978.203125
9.49,1625051978.21875
8.52,1625051978.234375
7.37,1625051978.25
6.23,1625051978.265625
5.27,1625051978.28125
4.56,1625051978.296875
4.08,1625051978.3125
3.68,1625051978.328125
3.18,1625051978.34375
2.43,1625051978.359375
1.43,1625051978.375
0.27,1625051978.390625
-0.89,1625051978.40625
-1.93,1625051978.421875
-2.85,1625051978.4375
-3.76,1625051978.453125
-4.77,1625051978.46875
-5.98,1625051978.484375
-7.38,1625051978.5
-8.95,1625051978.515625
-10.61,1625051978.53125
-12.28,1625051978.546875
-13.88,1625051978.5625
-15.23,1625051978.578125
-16.15,1625051978.59375
-16.4,1625051978.609375
-15.84,1625051978.625
-14.41,1625051978.640625
-12.22,1625051978.65625
-9.47,1625051978.671875
-6.42,1625051978.6875
-3.34,1625051978.703125
-0.44,1625051978.71875
2.08,1625051978.734375
4.08,1625051978.75
5.45,1625051978.765625
6.18,1625051978.78125
6.3,1625051978.796875
5.98,1625051978.8125
5.4,1625051978.828125
4.73,1625051978.84375
4.08,1625051978.859375
3.47,1625051978.875
2.88,1625051978.890625
2.27,1625051978.90625
1.69,1625051978.921875
1.2,1625051978.9375
0.9,1625051978.953125
0.83,1625051978.96875
0.95,1625051978.984375
1.18,1625051979.0
1.37,1625051979.015625
1.42,1625051979.03125
1.25,1625051979.046875
0.82,1625051979.0625
0.14,1625051979.078125
-0.75,1625051979.09375
-1.78,1625051979.109375
-2.87,1625051979.125
-3.95,1625051979.140625
-5.05,1625051979.15625
-6.21,1625051979.171875
-7.41,1625051979.1875
-8.59,1625051979.203125
-9.51,1625051979.21875
-9.9,1625051979.234375
-9.55,1625051979.25
-8.43,1625051979.265625
-6.68,1625051979.28125
-4.55,1625051979.296875
-2.28,1625051979.3125
-0.01,1625051979.328125
2.21,1625051979.34375
4.34,1625051979.359375
6.33,1625051979.375
8.06,1625051979.390625
9.36,1625051979.40625
10.15,1625051979.421875
10.4,1625051979.4375
10.15,1625051979.453125
9.53,1625051979.46875
8.66,1625051979.484375
7.66,1625051979.5
6.65,1625051979.515625
5.71,1625051979.53125
4.94,1625051979.546875
4.39,1625051979.5625
4.09,1625051979.578125
3.99,1625051979.59375
4.03,1625051979.609375
4.09,1625051979.625
4.06,1625051979.640625
3.86,1625051979.65625
3.45,1625051979.671875
2.87,1625051979.6875
2.15,1625051979.703125
1.34,1625051979.71875
0.45,1625051979.734375
-0.51,1625051979.75
-1.57,1625051979.765625
-2.7,1625051979.78125
-3.88,1625051979.796875
-5.08,1625051979.8125
-6.3,1625051979.828125
-7.55,1625051979.84375
-8.79,1625051979.859375
-9.92,1625051979.875
-10.73,1625051979.890625
-11.02,1625051979.90625
-10.59,1625051979.921875
-9.4,1625051979.9375
-7.55,1625051979.953125
-5.23,1625051979.96875
-2.68,1625051979.984375
-0.13,1625051980.0
2.26,1625051980.015625
4.36,1625051980.03125
6.1,1625051980.046875
7.41,1625051980.0625
8.28,1625051980.078125
8.78,1625051980.09375
8.95,1625051980.109375
8.88,1625051980.125
8.6,1625051980.140625
8.15,1625051980.15625
7.54,1625051980.171875
6.86,1625051980.1875
6.22,1625051980.203125
5.73,1625051980.21875
5.43,1625051980.234375
5.28,1625051980.25
5.17,1625051980.265625
5.0,1625051980.28125
4.75,1625051980.296875
4.45,1625051980.3125
4.22,1625051980.328125
4.08,1625051980.34375
4.01,1625051980.359375
3.88,1625051980.375
3.52,1625051980.390625
2.87,1625051980.40625
1.92,1625051980.421875
0.79,1625051980.4375
-0.39,1625051980.453125
-1.53,1625051980.46875
-2.58,1625051980.484375
-3.51,1625051980.5
-4.34,1625051980.515625
-5.1,1625051980.53125
-5.85,1625051980.546875
-6.69,1625051980.5625
-7.7,1625051980.578125
-8.87,1625051980.59375
-10.06,1625051980.609375
-11.01,1625051980.625
-11.42,1625051980.640625
-11.02,1625051980.65625
-9.76,1625051980.671875
-7.77,1625051980.6875
-5.33,1625051980.703125
-2.77,1625051980.71875
-0.35,1625051980.734375
1.82,1625051980.75
3.71,1625051980.765625
5.36,1625051980.78125
6.78,1625051980.796875
7.91,1625051980.8125
8.66,1625051980.828125
8.96,1625051980.84375
8.82,1625051980.859375
8.33,1625051980.875
7.68,1625051980.890625
7.05,1625051980.90625
6.55,1625051980.921875
6.18,1625051980.9375
5.86,1625051980.953125
5.46,1625051980.96875
4.91,1625051980.984375
4.24,1625051981.0
3.57,1625051981.015625
3.05,1625051981.03125
2.8,1625051981.046875
2.85,1625051981.0625
3.11,1625051981.078125
3.39,1625051981.09375
3.52,1625051981.109375
3.35,1625051981.125
2.85,1625051981.140625
2.1,1625051981.15625
1.2,1625051981.171875
0.26,1625051981.1875
-0.66,1625051981.203125
-1.54,1625051981.21875
-2.43,1625051981.234375
-3.35,1625051981.25
-4.32,1625051981.265625
-5.28,1625051981.28125
-6.21,1625051981.296875
-7.07,1625051981.3125
-7.83,1625051981.328125
-8.48,1625051981.34375
-8.94,1625051981.359375
-9.11,1625051981.375
-8.85,1625051981.390625
-8.06,1625051981.40625
-6.7,1625051981.421875
-4.85,1625051981.4375
-2.62,1625051981.453125
-0.17,1625051981.46875
2.34,1625051981.484375
4.76,1625051981.5
6.95,1625051981.515625
8.81,1625051981.53125
10.28,1625051981.546875
11.35,1625051981.5625
12.07,1625051981.578125
12.54,1625051981.59375
12.86,1625051981.609375
13.18,1625051981.625
13.66,1625051981.640625
14.41,1625051981.65625
15.46,1625051981.671875
16.66,1625051981.6875
17.67,1625051981.703125
18.06,1625051981.71875
17.56,1625051981.734375
16.27,1625051981.75
14.77,1625051981.765625
13.95,1625051981.78125
14.65,1625051981.796875
17.22,1625051981.8125
21.29,1625051981.828125
25.83,1625051981.84375
29.51,1625051981.859375
31.21,1625051981.875
30.42,1625051981.890625
27.35,1625051981.90625
22.77,1625051981.921875
17.64,1625051981.9375
12.72,1625051981.953125
8.34,1625051981.96875
4.32,1625051981.984375
0.07,1625051982.0
-5.11,1625051982.015625
-11.81,1625051982.03125
-20.26,1625051982.046875
-30.21,1625051982.0625
-40.99,1625051982.078125
-51.66,1625051982.09375
-61.24,1625051982.109375
-68.93,1625051982.125
-74.22,1625051982.140625
-76.96,1625051982.15625
-77.31,1625051982.171875
-75.58,1625051982.1875
-72.02,1625051982.203125
-66.7,1625051982.21875
-59.46,1625051982.234375
-50.03,1625051982.25
-38.36,1625051982.265625
-24.95,1625051982.28125
-10.94,1625051982.296875
1.86,1625051982.3125
11.51,1625051982.328125
16.4,1625051982.34375
15.89,1625051982.359375
10.68,1625051982.375
2.86,1625051982.390625
-4.47,1625051982.40625
-7.98,1625051982.421875
-4.89,1625051982.4375
6.27,1625051982.453125
25.54,1625051982.46875
51.69,1625051982.484375
82.75,1625051982.5
116.38,1625051982.515625
150.11,1625051982.53125
181.32,1625051982.546875
207.36,1625051982.5625
226.09,1625051982.578125
236.44,1625051982.59375
238.97,1625051982.609375
235.58,1625051982.625
228.82,1625051982.640625
220.89,1625051982.65625
212.89,1625051982.671875
204.79,1625051982.6875
195.98,1625051982.703125
185.84,1625051982.71875
174.22,1625051982.734375
161.39,1625051982.75
147.72,1625051982.765625
133.41,1625051982.78125
118.39,1625051982.796875
102.33,1625051982.8125
84.84,1625051982.828125
65.61,1625051982.84375
44.5,1625051982.859375
21.63,1625051982.875
-2.5,1625051982.890625
-27.0,1625051982.90625
-50.66,1625051982.921875
-72.15,1625051982.9375
-90.25,1625051982.953125
-104.01,1625051982.96875
-112.96,1625051982.984375
-117.03,1625051983.0
-116.56,1625051983.015625
-112.18,1625051983.03125
-104.66,1625051983.046875
-94.91,1625051983.0625
-83.84,1625051983.078125
-72.4,1625051983.09375
-61.46,1625051983.109375
-51.7,1625051983.125
-43.41,1625051983.140625
-36.43,1625051983.15625
-30.33,1625051983.171875
-24.8,1625051983.1875
-19.95,1625051983.203125
-16.5,1625051983.21875
-15.54,1625051983.234375
-17.99,1625051983.25
-24.11,1625051983.265625
-33.24,1625051983.28125
-44.0,1625051983.296875
-54.58,1625051983.3125
-63.32,1625051983.328125
-69.01,1625051983.34375
-71.11,1625051983.359375
-69.8,1625051983.375
-65.9,1625051983.390625
-60.67,1625051983.40625
-55.58,1625051983.421875
-51.85,1625051983.4375
-50.28,1625051983.453125
-51.08,1625051983.46875
-54.01,1625051983.484375
-58.57,1625051983.5
-64.15,1625051983.515625
-70.05,1625051983.53125
-75.39,1625051983.546875
-79.17,1625051983.5625
-80.49,1625051983.578125
-78.92,1625051983.59375
-74.72,1625051983.609375
-68.86,1625051983.625
-62.64,1625051983.640625
-57.15,1625051983.65625
-52.92,1625051983.671875
-49.76,1625051983.6875
-47.02,1625051983.703125
-43.9,1625051983.71875
-39.78,1625051983.734375
-34.37,1625051983.75
-27.65,1625051983.765625
-19.79,1625051983.78125
-11.12,1625051983.796875
-2.09,1625051983.8125
6.85,1625051983.828125
15.42,1625051983.84375
23.86,1625051983.859375
32.99,1625051983.875
43.82,1625051983.890625
56.78,1625051983.90625
70.75,1625051983.921875
82.64,1625051983.9375
87.98,1625051983.953125
82.33,1625051983.96875
63.04,1625051983.984375
30.59,1625051984.0
-11.24,1625051984.015625
-56.05,1625051984.03125
-96.28,1625051984.046875
-124.84,1625051984.0625
-136.53,1625051984.078125
-129.23,1625051984.09375
-104.48,1625051984.109375
-67.26,1625051984.125
-24.91,1625051984.140625
14.86,1625051984.15625
45.91,1625051984.171875
65.13,1625051984.1875
72.65,1625051984.203125
71.09,1625051984.21875
64.24,1625051984.234375
55.85,1625051984.25
48.94,1625051984.265625
45.44,1625051984.28125
46.03,1625051984.296875
49.96,1625051984.3125
54.98,1625051984.328125
57.71,1625051984.34375
54.52,1625051984.359375
42.73,1625051984.375
21.69,1625051984.390625
-6.68,1625051984.40625
-38.35,1625051984.421875
-68.29,1625051984.4375
-91.89,1625051984.453125
-106.03,1625051984.46875
-109.74,1625051984.484375
-104.18,1625051984.5
-92.29,1625051984.515625
-78.26,1625051984.53125
-66.67,1625051984.546875
-61.48,1625051984.5625
-64.87,1625051984.578125
-76.5,1625051984.59375
-93.51,1625051984.609375
-111.62,1625051984.625
-126.81,1625051984.640625
-137.06,1625051984.65625
-142.87,1625051984.671875
-146.53,1625051984.6875
-150.31,1625051984.703125
-154.88,1625051984.71875
-158.67,1625051984.734375
-158.72,1625051984.75
-152.09,1625051984.765625
-137.38,1625051984.78125
-115.18,1625051984.796875
-87.72,1625051984.8125
-57.94,1625051984.828125
-28.52,1625051984.84375
-1.39,1625051984.859375
22.42,1625051984.875
42.68,1625051984.890625
59.74,1625051984.90625
74.26,1625051984.921875
86.92,1625051984.9375
98.0,1625051984.953125
107.1,1625051984.96875
113.14,1625051984.984375
114.67,1625051985.0
110.6,1625051985.015625
100.9,1625051985.03125
87.11,1625051985.046875
72.21,1625051985.0625
59.76,1625051985.078125
52.61,1625051985.09375
51.57,1625051985.109375
54.95,1625051985.125
59.0,1625051985.140625
59.29,1625051985.15625
52.37,1625051985.171875
36.89,1625051985.1875
13.84,1625051985.203125
-14.06,1625051985.21875
-43.31,1625051985.234375
-70.43,1625051985.25
-92.27,1625051985.265625
-106.26,1625051985.28125
-110.71,1625051985.296875
-105.34,1625051985.3125
-91.72,1625051985.328125
-73.11,1625051985.34375
-53.55,1625051985.359375
-36.61,1625051985.375
-24.26,1625051985.390625
-16.59,1625051985.40625
-12.35,1625051985.421875
-10.02,1625051985.4375
-8.6,1625051985.453125
-7.87,1625051985.46875
-7.98,1625051985.484375
-8.95,1625051985.5
-10.19,1625051985.515625
-10.64,1625051985.53125
-9.19,1625051985.546875
-5.21,1625051985.5625
1.12,1625051985.578125
8.92,1625051985.59375
16.91,1625051985.609375
23.98,1625051985.625
29.47,1625051985.640625
33.31,1625051985.65625
35.87,1625051985.671875
37.65,1625051985.6875
39.04,1625051985.703125
40.2,1625051985.71875
41.15,1625051985.734375
41.81,1625051985.75
41.98,1625051985.765625
41.41,1625051985.78125
39.77,1625051985.796875
36.81,1625051985.8125
32.65,1625051985.828125
27.94,1625051985.84375
23.8,1625051985.859375
21.51,1625051985.875
22.05,1625051985.890625
25.66,1625051985.90625
31.8,1625051985.921875
39.35,1625051985.9375
46.99,1625051985.953125
53.59,1625051985.96875
58.23,1625051985.984375
60.24,1625051986.0
59.1,1625051986.015625
54.57,1625051986.03125
46.92,1625051986.046875
37.08,1625051986.0625
26.57,1625051986.078125
16.99,1625051986.09375
9.48,1625051986.109375
4.22,1625051986.125
0.47,1625051986.140625
-3.05,1625051986.15625
-7.52,1625051986.171875
-13.53,1625051986.1875
-20.88,1625051986.203125
-28.79,1625051986.21875
-36.33,1625051986.234375
-42.8,1625051986.25
-47.99,1625051986.265625
-52.14,1625051986.28125
-55.77,1625051986.296875
-59.44,1625051986.3125
-63.46,1625051986.328125
-67.77,1625051986.34375
-72.0,1625051986.359375
-75.57,1625051986.375
-77.94,1625051986.390625
-78.73,1625051986.40625
-77.77,1625051986.421875
-75.17,1625051986.4375
-71.17,1625051986.453125
-66.06,1625051986.46875
-60.1,1625051986.484375
-53.42,1625051986.5
-46.11,1625051986.515625
-38.17,1625051986.53125
-29.69,1625051986.546875
-20.83,1625051986.5625
-11.95,1625051986.578125
-3.48,1625051986.59375
4.11,1625051986.609375
10.49,1625051986.625
15.59,1625051986.640625
19.67,1625051986.65625
23.21,1625051986.671875
26.78,1625051986.6875
30.81,1625051986.703125
35.49,1625051986.71875
40.65,1625051986.734375
45.88,1625051986.75
50.69,1625051986.765625
54.68,1625051986.78125
57.62,1625051986.796875
59.44,1625051986.8125
60.19,1625051986.828125
59.93,1625051986.84375
58.84,1625051986.859375
57.19,1625051986.875
55.36,1625051986.890625
53.72,1625051986.90625
52.45,1625051986.921875
51.5,1625051986.9375
50.57,1625051986.953125
49.32,1625051986.96875
47.45,1625051986.984375
44.8,1625051987.0
41.38,1625051987.015625
37.26,1625051987.03125
32.65,1625051987.046875
27.92,1625051987.0625
23.61,1625051987.078125
20.27,1625051987.09375
18.29,1625051987.109375
17.62,1625051987.125
17.77,1625051987.140625
17.93,1625051987.15625
17.34,1625051987.171875
15.57,1625051987.1875
12.7,1625051987.203125
9.27,1625051987.21875
5.96,1625051987.234375
3.38,1625051987.25
1.79,1625051987.265625
1.14,1625051987.28125
1.1,1625051987.296875
1.25,1625051987.3125
1.22,1625051987.328125
0.69,1625051987.34375
-0.48,1625051987.359375
-2.33,1625051987.375
-4.77,1625051987.390625
-7.52,1625051987.40625
-10.27,1625051987.421875
-12.63,1625051987.4375
-14.31,1625051987.453125
-15.18,1625051987.46875
-15.32,1625051987.484375
-14.97,1625051987.5
-14.5,1625051987.515625
-14.17,1625051987.53125
-14.14,1625051987.546875
-14.37,1625051987.5625
-14.66,1625051987.578125
-14.8,1625051987.59375
-14.6,1625051987.609375
-13.98,1625051987.625
-13.02,1625051987.640625
-11.89,1625051987.65625
-10.77,1625051987.671875
-9.81,1625051987.6875
-9.05,1625051987.703125
-8.44,1625051987.71875
-7.9,1625051987.734375
-7.35,1625051987.75
-6.72,1625051987.765625
-6.03,1625051987.78125
-5.27,1625051987.796875
-4.38,1625051987.8125
-3.26,1625051987.828125
-1.79,1625051987.84375
0.05,1625051987.859375
2.2,1625051987.875
4.46,1625051987.890625
6.68,1625051987.90625
8.73,1625051987.921875
10.66,1625051987.9375
12.54,1625051987.953125
14.38,1625051987.96875
16.03,1625051987.984375
17.19,1625051988.0
17.6,1625051988.015625
17.06,1625051988.03125
15.67,1625051988.046875
13.74,1625051988.0625
11.71,1625051988.078125
10.02,1625051988.09375
8.9,1625051988.109375
8.34,1625051988.125
8.03,1625051988.140625
7.47,1625051988.15625
6.13,1625051988.171875
3.69,1625051988.1875
0.22,1625051988.203125
-3.77,1625051988.21875
-7.52,1625051988.234375
-10.31,1625051988.25
-11.85,1625051988.265625
-12.39,1625051988.28125
-12.56,1625051988.296875
-13.08,1625051988.3125
-14.28,1625051988.328125
-15.95,1625051988.34375
-17.42,1625051988.359375
-17.89,1625051988.375
-16.91,1625051988.390625
-14.64,1625051988.40625
-11.91,1625051988.421875
-9.82,1625051988.4375
-9.28,1625051988.453125
-10.53,1625051988.46875
-13.06,1625051988.484375
-15.88,1625051988.5
-18.08,1625051988.515625
-19.23,1625051988.53125
-19.53,1625051988.546875
-19.65,1625051988.5625
-20.62,1625051988.578125
-23.83,1625051988.59375
-31.1,1625051988.609375
-44.34,1625051988.625
-64.78,1625051988.640625
-91.81,1625051988.65625
-122.33,1625051988.671875
-150.94,1625051988.6875
-171.55,1625051988.703125
-179.38,1625051988.71875
-172.66,1625051988.734375
-152.95,1625051988.75
-124.11,1625051988.765625
-90.73,1625051988.78125
-56.73,1625051988.796875
-25.05,1625051988.8125
2.21,1625051988.828125
23.48,1625051988.84375
37.91,1625051988.859375
45.86,1625051988.875
49.25,1625051988.890625
51.13,1625051988.90625
54.74,1625051988.921875
62.18,1625051988.9375
73.72,1625051988.953125
87.76,1625051988.96875
101.69,1625051988.984375
112.96,1625051989.0
119.91,1625051989.015625
122.17,1625051989.03125
120.53,1625051989.046875
116.46,1625051989.0625
111.55,1625051989.078125
106.98,1625051989.09375
103.26,1625051989.109375
100.16,1625051989.125
97.01,1625051989.140625
93.14,1625051989.15625
88.15,1625051989.171875
82.0,1625051989.1875
74.9,1625051989.203125
67.01,1625051989.21875
58.3,1625051989.234375
48.61,1625051989.25
37.89,1625051989.265625
26.42,1625051989.28125
14.89,1625051989.296875
4.29,1625051989.3125
-4.49,1625051989.328125
-10.92,1625051989.34375
-15.1,1625051989.359375
-17.68,1625051989.375
-19.73,1625051989.390625
-22.45,1625051989.40625
-26.83,1625051989.421875
-33.34,1625051989.4375
-41.72,1625051989.453125
-51.01,1625051989.46875
-59.77,1625051989.484375
-66.5,1625051989.5
-70.1,1625051989.515625
-70.19,1625051989.53125
-67.09,1625051989.546875
-61.66,1625051989.5625
-54.88,1625051989.578125
-47.65,1625051989.59375
-40.61,1625051989.609375
-34.17,1625051989.625
-28.67,1625051989.640625
-24.28,1625051989.65625
-21.03,1625051989.671875
-18.7,1625051989.6875
-16.79,1625051989.703125
-14.69,1625051989.71875
-11.92,1625051989.734375
-8.42,1625051989.75
-4.54,1625051989.765625
-0.95,1625051989.78125
1.74,1625051989.796875
3.31,1625051989.8125
4.04,1625051989.828125
4.62,1625051989.84375
5.81,1625051989.859375
8.17,1625051989.875
11.84,1625051989.890625
16.6,1625051989.90625
21.97,1625051989.921875
27.49,1625051989.9375
32.86,1625051989.953125
37.93,1625051989.96875
42.66,1625051989.984375
47.01,1625051990.0
50.89,1625051990.015625
54.21,1625051990.03125
56.93,1625051990.046875
59.05,1625051990.0625
60.66,1625051990.078125
61.81,1625051990.09375
62.4,1625051990.109375
62.21,1625051990.125
60.85,1625051990.140625
57.93,1625051990.15625
53.26,1625051990.171875
46.91,1625051990.1875
39.27,1625051990.203125
30.93,1625051990.21875
22.44,1625051990.234375
14.25,1625051990.25
6.55,1625051990.265625
-0.66,1625051990.28125
-7.46,1625051990.296875
-13.97,1625051990.3125
-20.22,1625051990.328125
-26.27,1625051990.34375
-32.1,1625051990.359375
-37.7,1625051990.375
-43.05,1625051990.390625
-48.09,1625051990.40625
-52.75,1625051990.421875
-56.95,1625051990.4375
-60.56,1625051990.453125
-63.47,1625051990.46875
-65.5,1625051990.484375
-66.52,1625051990.5
-66.43,1625051990.515625
-65.26,1625051990.53125
-63.19,1625051990.546875
-60.48,1625051990.5625
-57.42,1625051990.578125
-54.26,1625051990.59375
-51.19,1625051990.609375
-48.34,1625051990.625
-45.77,1625051990.640625
-43.47,1625051990.65625
-41.28,1625051990.671875
-38.96,1625051990.6875
-36.19,1625051990.703125
-32.77,1625051990.71875
-28.68,1625051990.734375
-24.19,1625051990.75
-19.75,1625051990.765625
-15.76,1625051990.78125
-12.48,1625051990.796875
-9.91,1625051990.8125
-7.83,1625051990.828125
-6.0,1625051990.84375
-4.22,1625051990.859375
-2.42,1625051990.875
-0.59,1625051990.890625
1.23,1625051990.90625
3.03,1625051990.921875
4.78,1625051990.9375
6.48,1625051990.953125
8.11,1625051990.96875
9.66,1625051990.984375
11.19,1625051991.0
12.71,1625051991.015625
14.23,1625051991.03125
15.68,1625051991.046875
17.05,1625051991.0625
18.36,1625051991.078125
19.74,1625051991.09375
21.36,1625051991.109375
23.35,1625051991.125
25.7,1625051991.140625
28.21,1625051991.15625
30.64,1625051991.171875
32.81,1625051991.1875
34.64,1625051991.203125
36.17,1625051991.21875
37.41,1625051991.234375
38.22,1625051991.25
38.29,1625051991.265625
37.24,1625051991.28125
34.76,1625051991.296875
30.83,1625051991.3125
25.75,1625051991.328125
20.09,1625051991.34375
14.5,1625051991.359375
9.58,1625051991.375
5.68,1625051991.390625
2.85,1625051991.40625
0.97,1625051991.421875
-0.27,1625051991.4375
-1.11,1625051991.453125
-1.71,1625051991.46875
-2.09,1625051991.484375
-2.16,1625051991.5
-1.76,1625051991.515625
-0.79,1625051991.53125
0.78,1625051991.546875
2.82,1625051991.5625
5.02,1625051991.578125
6.95,1625051991.59375
8.13,1625051991.609375
8.11,1625051991.625
6.59,1625051991.640625
3.42,1625051991.65625
-1.34,1625051991.671875
-7.51,1625051991.6875
-14.74,1625051991.703125
-22.57,1625051991.71875
-30.43,1625051991.734375
-37.68,1625051991.75
-43.8,1625051991.765625
-48.43,1625051991.78125
-51.51,1625051991.796875
-53.19,1625051991.8125
-53.78,1625051991.828125
-53.58,1625051991.84375
-52.85,1625051991.859375
-51.79,1625051991.875
-50.59,1625051991.890625
-49.41,1625051991.90625
-48.34,1625051991.921875
-47.34,1625051991.9375
-46.18,1625051991.953125
-44.6,1625051991.96875
-42.3,1625051991.984375
-39.2,1625051992.0
-35.4,1625051992.015625
-31.21,1625051992.03125
-26.93,1625051992.046875
-22.81,1625051992.0625
-18.97,1625051992.078125
-15.41,1625051992.09375
-12.12,1625051992.109375
-9.07,1625051992.125
-6.26,1625051992.140625
-3.69,1625051992.15625
-1.34,1625051992.171875
0.78,1625051992.1875
2.65,1625051992.203125
4.13,1625051992.21875
5.13,1625051992.234375
5.6,1625051992.25
5.64,1625051992.265625
5.44,1625051992.28125
5.21,1625051992.296875
5.09,1625051992.3125
5.06,1625051992.328125
5.04,1625051992.34375
4.97,1625051992.359375
4.82,1625051992.375
4.72,1625051992.390625
4.84,1625051992.40625
5.37,1625051992.421875
6.42,1625051992.4375
8.04,1625051992.453125
10.2,1625051992.46875
12.8,1625051992.484375
15.66,1625051992.5
18.54,1625051992.515625
21.18,1625051992.53125
23.35,1625051992.546875
24.89,1625051992.5625
25.79,1625051992.578125
26.16,1625051992.59375
26.16,1625051992.609375
26.0,1625051992.625
25.79,1625051992.640625
25.59,1625051992.65625
25.31,1625051992.671875
24.85,1625051992.6875
24.12,1625051992.703125
23.17,1625051992.71875
22.1,1625051992.734375
21.07,1625051992.75
20.2,1625051992.765625
19.47,1625051992.78125
18.78,1625051992.796875
18.02,1625051992.8125
17.11,1625051992.828125
16.07,1625051992.84375
14.99,1625051992.859375
13.96,1625051992.875
13.01,1625051992.890625
12.05,1625051992.90625
10.94,1625051992.921875
9.57,1625051992.9375
7.89,1625051992.953125
5.99,1625051992.96875
4.04,1625051992.984375
2.26,1625051993.0
0.79,1625051993.015625
-0.28,1625051993.03125
-0.92,1625051993.046875
-1.1,1625051993.0625
-0.79,1625051993.078125
0.08,1625051993.09375
1.58,1625051993.109375
3.66,1625051993.125
6.14,1625051993.140625
8.73,1625051993.15625
11.14,1625051993.171875
13.15,1625051993.1875
14.66,1625051993.203125
15.72,1625051993.21875
16.4,1625051993.234375
16.78,1625051993.25
16.91,1625051993.265625
16.78,1625051993.28125
16.43,1625051993.296875
15.94,1625051993.3125
15.41,1625051993.328125
14.91,1625051993.34375
14.47,1625051993.359375
14.07,1625051993.375
13.65,1625051993.390625
13.21,1625051993.40625
12.76,1625051993.421875
12.34,1625051993.4375
11.94,1625051993.453125
11.5,1625051993.46875
10.93,1625051993.484375
10.15,1625051993.5
9.12,1625051993.515625
7.88,1625051993.53125
6.56,1625051993.546875
5.27,1625051993.5625
4.1,1625051993.578125
3.06,1625051993.59375
2.08,1625051993.609375
1.0,1625051993.625
-0.31,1625051993.640625
-1.87,1625051993.65625
-3.58,1625051993.671875
-5.25,1625051993.6875
-6.62,1625051993.703125
-7.44,1625051993.71875
-7.6,1625051993.734375
-7.02,1625051993.75
-5.69,1625051993.765625
-3.64,1625051993.78125
-0.96,1625051993.796875
2.19,1625051993.8125
5.49,1625051993.828125
8.58,1625051993.84375
11.14,1625051993.859375
12.99,1625051993.875
14.21,1625051993.890625
14.99,1625051993.90625
15.58,1625051993.921875
16.14,1625051993.9375
16.73,1625051993.953125
17.3,1625051993.96875
17.8,1625051993.984375
18.12,1625051994.0
18.16,1625051994.015625
17.82,1625051994.03125
17.02,1625051994.046875
15.76,1625051994.0625
14.18,1625051994.078125
12.53,1625051994.09375
11.08,1625051994.109375
10.03,1625051994.125
9.4,1625051994.140625
9.09,1625051994.15625
8.9,1625051994.171875
8.62,1625051994.1875
8.14,1625051994.203125
7.42,1625051994.21875
6.47,1625051994.234375
5.38,1625051994.25
4.2,1625051994.265625
3.0,1625051994.28125
1.78,1625051994.296875
0.55,1625051994.3125
-0.67,1625051994.328125
-1.89,1625051994.34375
-3.07,1625051994.359375
-4.21,1625051994.375
-5.32,1625051994.390625
-6.41,1625051994.40625
-7.44,1625051994.421875
-8.27,1625051994.4375
-8.71,1625051994.453125
-8.54,1625051994.46875
-7.64,1625051994.484375
-6.02,1625051994.5
-3.85,1625051994.515625
-1.39,1625051994.53125
1.11,1625051994.546875
3.4,1625051994.5625
5.38,1625051994.578125
7.01,1625051994.59375
8.27,1625051994.609375
9.22,1625051994.625
9.9,1625051994.640625
10.34,1625051994.65625
10.55,1625051994.671875
10.55,1625051994.6875
10.36,1625051994.703125
10.0,1625051994.71875
9.57,1625051994.734375
9.19,1625051994.75
9.03,1625051994.765625
9.24,1625051994.78125
9.89,1625051994.796875
10.96,1625051994.8125
12.26,1625051994.828125
13.52,1625051994.84375
14.44,1625051994.859375
14.82,1625051994.875
14.64,1625051994.890625
13.99,1625051994.90625
13.06,1625051994.921875
12.0,1625051994.9375
10.9,1625051994.953125
9.77,1625051994.96875
8.62,1625051994.984375
7.49,1625051995.0
6.44,1625051995.015625
5.53,1625051995.03125
4.72,1625051995.046875
3.85,1625051995.0625
2.72,1625051995.078125
1.16,1625051995.09375
-0.83,1625051995.109375
-3.07,1625051995.125
-5.2,1625051995.140625
-6.81,1625051995.15625
-7.6,1625051995.171875
-7.43,1625051995.1875
-6.37,1625051995.203125
-4.63,1625051995.21875
-2.48,1625051995.234375
-0.16,1625051995.25
2.18,1625051995.265625
4.44,1625051995.28125
6.59,1625051995.296875
8.58,1625051995.3125
10.38,1625051995.328125
11.99,1625051995.34375
13.44,1625051995.359375
14.77,1625051995.375
16.02,1625051995.390625
17.16,1625051995.40625
18.11,1625051995.421875
18.78,1625051995.4375
19.12,1625051995.453125
19.22,1625051995.46875
19.26,1625051995.484375
19.43,1625051995.5
19.8,1625051995.515625
20.26,1625051995.53125
20.54,1625051995.546875
20.31,1625051995.5625
19.36,1625051995.578125
17.73,1625051995.59375
15.63,1625051995.609375
13.37,1625051995.625
11.24,1625051995.640625
9.34,1625051995.65625
7.66,1625051995.671875
6.06,1625051995.6875
4.38,1625051995.703125
2.47,1625051995.71875
0.25,1625051995.734375
-2.3,1625051995.75
-5.09,1625051995.765625
-7.99,1625051995.78125
-10.82,1625051995.796875
-13.42,1625051995.8125
-15.65,1625051995.828125
-17.44,1625051995.84375
-18.74,1625051995.859375
-19.5,1625051995.875
-19.6,1625051995.890625
-18.92,1625051995.90625
-17.34,1625051995.921875
-14.85,1625051995.9375
-11.61,1625051995.953125
-7.88,1625051995.96875
-4.03,1625051995.984375
-0.36,1625051996.0
2.91,1625051996.015625
5.67,1625051996.03125
7.9,1625051996.046875
9.59,1625051996.0625
10.74,1625051996.078125
11.36,1625051996.09375
11.53,1625051996.109375
11.43,1625051996.125
11.31,1625051996.140625
11.33,1625051996.15625
11.52,1625051996.171875
11.7,1625051996.1875
11.65,1625051996.203125
11.17,1625051996.21875
10.25,1625051996.234375
9.05,1625051996.25
7.84,1625051996.265625
6.8,1625051996.28125
6.0,1625051996.296875
5.35,1625051996.3125
4.76,1625051996.328125
4.13,1625051996.34375
3.47,1625051996.359375
2.82,1625051996.375
2.23,1625051996.390625
1.75,1625051996.40625
1.42,1625051996.421875
1.35,1625051996.4375
1.66,1625051996.453125
2.4,1625051996.46875
3.44,1625051996.484375
4.4,1625051996.5
4.78,1625051996.515625
4.13,1625051996.53125
2.24,1625051996.546875
-0.69,1625051996.5625
-4.15,1625051996.578125
-7.49,1625051996.59375
-10.14,1625051996.609375
-11.69,1625051996.625
-11.98,1625051996.640625
-11.06,1625051996.65625
-9.12,1625051996.671875
-6.41,1625051996.6875
-3.24,1625051996.703125
0.09,1625051996.71875
3.28,1625051996.734375
6.12,1625051996.75
8.4,1625051996.765625
9.94,1625051996.78125
10.63,1625051996.796875
10.45,1625051996.8125
9.53,1625051996.828125
8.18,1625051996.84375
6.84,1625051996.859375
5.93,1625051996.875
5.66,1625051996.890625
5.89,1625051996.90625
6.15,1625051996.921875
5.8,1625051996.9375
4.33,1625051996.953125
1.6,1625051996.96875
-2.06,1625051996.984375
-5.96,1625051997.0
-9.34,1625051997.015625
-11.69,1625051997.03125
-12.94,1625051997.046875
-13.4,1625051997.0625
-13.61,1625051997.078125
-13.94,1625051997.09375
-14.53,1625051997.109375
-15.21,1625051997.125
-15.72,1625051997.140625
-15.89,1625051997.15625
-15.77,1625051997.171875
-15.59,1625051997.1875
-15.62,1625051997.203125
-16.02,1625051997.21875
-16.82,1625051997.234375
-17.87,1625051997.25
-19.02,1625051997.265625
-20.1,1625051997.28125
-20.99,1625051997.296875
-21.54,1625051997.3125
-21.54,1625051997.328125
-20.75,1625051997.34375
-19.01,1625051997.359375
-16.28,1625051997.375
-12.76,1625051997.390625
-8.85,1625051997.40625
-5.01,1625051997.421875
-1.66,1625051997.4375
0.96,1625051997.453125
2.82,1625051997.46875
4.07,1625051997.484375
4.91,1625051997.5
5.5,1625051997.515625
5.87,1625051997.53125
5.99,1625051997.546875
5.8,1625051997.5625
5.3,1625051997.578125
4.61,1625051997.59375
3.93,1625051997.609375
3.42,1625051997.625
3.15,1625051997.640625
3.06,1625051997.65625
2.99,1625051997.671875
2.81,1625051997.6875
2.47,1625051997.703125
2.04,1625051997.71875
1.65,1625051997.734375
1.36,1625051997.75
1.11,1625051997.765625
0.69,1625051997.78125
-0.08,1625051997.796875
-1.33,1625051997.8125
-2.98,1625051997.828125
-4.78,1625051997.84375
-6.44,1625051997.859375
-7.78,1625051997.875
-8.79,1625051997.890625
-9.67,1625051997.90625
-10.73,1625051997.921875
-12.22,1625051997.9375
-14.18,1625051997.953125
-16.43,1625051997.96875
-18.62,1625051997.984375
-20.35,1625051998.0
-21.29,1625051998.015625
-21.3,1625051998.03125
-20.41,1625051998.046875
-18.75,1625051998.0625
-16.5,1625051998.078125
-13.89,1625051998.09375
-11.13,1625051998.109375
-8.42,1625051998.125
-5.93,1625051998.140625
-3.77,1625051998.15625
-2.01,1625051998.171875
-0.66,1625051998.1875
0.23,1625051998.203125
0.57,1625051998.21875
0.21,1625051998.234375
-0.98,1625051998.25
-3.04,1625051998.265625
-5.84,1625051998.28125
-9.01,1625051998.296875
-12.01,1625051998.3125
-14.17,1625051998.328125
-14.88,1625051998.34375
-13.76,1625051998.359375
-10.86,1625051998.375
-6.69,1625051998.390625
-2.19,1625051998.40625
1.6,1625051998.421875
3.85,1625051998.4375
4.32,1625051998.453125
3.35,1625051998.46875
1.77,1625051998.484375
0.47,1625051998.5
0.01,1625051998.515625
0.48,1625051998.53125
1.53,1625051998.546875
2.62,1625051998.5625
3.37,1625051998.578125
3.68,1625051998.59375
3.69,1625051998.609375
3.7,1625051998.625
3.92,1625051998.640625
4.4,1625051998.65625
5.1,1625051998.671875
5.94,1625051998.6875
6.89,1625051998.703125
8.06,1625051998.71875
9.6,1625051998.734375
11.7,1625051998.75
14.55,1625051998.765625
18.32,1625051998.78125
23.1,1625051998.796875
28.91,1625051998.8125
35.62,1625051998.828125
42.97,1625051998.84375
50.51,1625051998.859375
57.67,1625051998.875
63.86,1625051998.890625
68.59,1625051998.90625
71.68,1625051998.921875
73.28,1625051998.9375
73.89,1625051998.953125
74.12,1625051998.96875
74.36,1625051998.984375
74.53,1625051999.0
73.94,1625051999.015625
71.5,1625051999.03125
66.08,1625051999.046875
57.04,1625051999.0625
44.53,1625051999.078125
29.61,1625051999.09375
13.92,1625051999.109375
-0.72,1625051999.125
-12.89,1625051999.140625
-21.98,1625051999.15625
-28.3,1625051999.171875
-32.88,1625051999.1875
-37.08,1625051999.203125
-41.97,1625051999.21875
-48.02,1625051999.234375
-54.96,1625051999.25
-62.0,1625051999.265625
-68.25,1625051999.28125
-73.03,1625051999.296875
-76.08,1625051999.3125
-77.46,1625051999.328125
-77.4,1625051999.34375
-76.14,1625051999.359375
-73.85,1625051999.375
-70.71,1625051999.390625
-66.98,1625051999.40625
-62.97,1625051999.421875
-58.98,1625051999.4375
-55.25,1625051999.453125
-51.82,1625051999.46875
-48.53,1625051999.484375
-45.09,1625051999.5
-41.26,1625051999.515625
-36.89,1625051999.53125
-32.1,1625051999.546875
-27.2,1625051999.5625
-22.66,1625051999.578125
-18.9,1625051999.59375
-16.15,1625051999.609375
-14.34,1625051999.625
-13.11,1625051999.640625
-12.03,1625051999.65625
-10.7,1625051999.671875
-8.94,1625051999.6875
-6.86,1625051999.703125
-4.69,1625051999.71875
-2.75,1625051999.734375
-1.23,1625051999.75
-0.19,1625051999.765625
0.46,1625051999.78125
0.87,1625051999.796875
1.22,1625051999.8125
1.64,1625051999.828125
2.2,1625051999.84375
2.93,1625051999.859375
3.79,1625051999.875
4.71,1625051999.890625
5.5,1625051999.90625
6.02,1625051999.921875
6.2,1625051999.9375
6.11,1625051999.953125
5.99,1625051999.96875
6.11,1625051999.984375
6.66,1625052000.0
7.6,1625052000.015625
8.73,1625052000.03125
9.73,1625052000.046875
10.29,1625052000.0625
10.28,1625052000.078125
9.7,1625052000.09375
8.65,1625052000.109375
7.32,1625052000.125
5.9,1625052000.140625
4.61,1625052000.15625
3.67,1625052000.171875
3.32,1625052000.1875
3.68,1625052000.203125
4.72,1625052000.21875
6.29,1625052000.234375
8.13,1625052000.25
10.01,1625052000.265625
11.79,1625052000.28125
13.4,1625052000.296875
14.83,1625052000.3125
16.07,1625052000.328125
17.07,1625052000.34375
17.79,1625052000.359375
18.18,1625052000.375
18.27,1625052000.390625
18.09,1625052000.40625
17.74,1625052000.421875
17.28,1625052000.4375
16.78,1625052000.453125
16.31,1625052000.46875
15.86,1625052000.484375
15.42,1625052000.5
14.9,1625052000.515625
14.26,1625052000.53125
13.47,1625052000.546875
12.61,1625052000.5625
11.8,1625052000.578125
11.17,1625052000.59375
10.74,1625052000.609375
10.41,1625052000.625
9.99,1625052000.640625
9.27,1625052000.65625
8.14,1625052000.671875
6.61,1625052000.6875
4.86,1625052000.703125
3.1,1625052000.71875
1.53,1625052000.734375
0.22,1625052000.75
-0.88,1625052000.765625
-1.91,1625052000.78125
-3.01,1625052000.796875
-4.31,1625052000.8125
-5.83,1625052000.828125
-7.48,1625052000.84375
-9.14,1625052000.859375
-10.62,1625052000.875
-11.71,1625052000.890625
-12.22,1625052000.90625
-12.0,1625052000.921875
-11.01,1625052000.9375
-9.31,1625052000.953125
-7.13,1625052000.96875
-4.72,1625052000.984375
-2.34,1625052001.0
-0.15,1625052001.015625
1.79,1625052001.03125
3.48,1625052001.046875
4.9,1625052001.0625
5.96,1625052001.078125
6.56,1625052001.09375
6.63,1625052001.109375
6.2,1625052001.125
5.47,1625052001.140625
4.66,1625052001.15625
4.01,1625052001.171875
3.61,1625052001.1875
3.44,1625052001.203125
3.34,1625052001.21875
3.13,1625052001.234375
2.67,1625052001.25
1.96,1625052001.265625
1.1,1625052001.28125
0.27,1625052001.296875
-0.36,1625052001.3125
-0.7,1625052001.328125
-0.79,1625052001.34375
-0.78,1625052001.359375
-0.89,1625052001.375
-1.27,1625052001.390625
-1.99,1625052001.40625
-2.94,1625052001.421875
-3.95,1625052001.4375
-4.86,1625052001.453125
-5.62,1625052001.46875
-6.29,1625052001.484375
-7.05,1625052001.5
-8.02,1625052001.515625
-9.25,1625052001.53125
-10.63,1625052001.546875
-12.0,1625052001.5625
-13.15,1625052001.578125
-13.92,1625052001.59375
-14.14,1625052001.609375
-13.74,1625052001.625
-12.68,1625052001.640625
-11.01,1625052001.65625
-8.86,1625052001.671875
-6.45,1625052001.6875
-4.03,1625052001.703125
-1.82,1625052001.71875
0.04,1625052001.734375
1.53,1625052001.75
2.7,1625052001.765625
3.66,1625052001.78125
4.52,1625052001.796875
5.33,1625052001.8125
6.06,1625052001.828125
6.64,1625052001.84375
6.98,1625052001.859375
7.13,1625052001.875
7.21,1625052001.890625
7.4,1625052001.90625
7.84,1625052001.921875
8.48,1625052001.9375
9.1,1625052001.953125
9.4,1625052001.96875
9.19,1625052001.984375
8.5,1625052002.0
7.55,1625052002.015625
6.64,1625052002.03125
5.92,1625052002.046875
5.34,1625052002.0625
4.7,1625052002.078125
3.77,1625052002.09375
2.48,1625052002.109375
0.95,1625052002.125
-0.59,1625052002.140625
-1.98,1625052002.15625
-3.21,1625052002.171875
-4.43,1625052002.1875
-5.85,1625052002.203125
-7.56,1625052002.21875
-9.54,1625052002.234375
-11.58,1625052002.25
-13.42,1625052002.265625
-14.83,1625052002.28125
-15.68,1625052002.296875
-15.89,1625052002.3125
-15.44,1625052002.328125
-14.35,1625052002.34375
-12.7,1625052002.359375
-10.63,1625052002.375
-8.34,1625052002.390625
-6.06,1625052002.40625
-3.94,1625052002.421875
-2.09,1625052002.4375
-0.6,1625052002.453125
0.51,1625052002.46875
1.17,1625052002.484375
1.42,1625052002.5
1.3,1625052002.515625
0.94,1625052002.53125
0.5,1625052002.546875
0.09,1625052002.5625
-0.27,1625052002.578125
-0.58,1625052002.59375
-0.89,1625052002.609375
-1.21,1625052002.625
-1.51,1625052002.640625
-1.72,1625052002.65625
-1.77,1625052002.671875
-1.65,1625052002.6875
-1.42,1625052002.703125
-1.2,1625052002.71875
-1.09,1625052002.734375
-1.19,1625052002.75
-1.5,1625052002.765625
-1.97,1625052002.78125
-2.45,1625052002.796875
-2.81,1625052002.8125
-2.93,1625052002.828125
-2.8,1625052002.84375
-2.51,1625052002.859375
-2.2,1625052002.875
-2.02,1625052002.890625
-2.09,1625052002.90625
-2.41,1625052002.921875
-2.84,1625052002.9375
-3.17,1625052002.953125
-3.11,1625052002.96875
-2.41,1625052002.984375
-0.93,1625052003.0
1.31,1625052003.015625
4.14,1625052003.03125
7.31,1625052003.046875
10.57,1625052003.0625
13.72,1625052003.078125
16.72,1625052003.09375
19.57,1625052003.109375
22.3,1625052003.125
24.92,1625052003.140625
27.37,1625052003.15625
29.57,1625052003.171875
31.39,1625052003.1875
32.76,1625052003.203125
33.67,1625052003.21875
34.24,1625052003.234375
34.67,1625052003.25
35.15,1625052003.265625
35.81,1625052003.28125
36.58,1625052003.296875
37.24,1625052003.3125
37.56,1625052003.328125
37.39,1625052003.34375
36.85,1625052003.359375
36.23,1625052003.375
35.9,1625052003.390625
36.11,1625052003.40625
36.82,1625052003.421875
37.79,1625052003.4375
38.65,1625052003.453125
39.08,1625052003.46875
38.84,1625052003.484375
37.82,1625052003.5
35.9,1625052003.515625
33.03,1625052003.53125
29.17,1625052003.546875
24.4,1625052003.5625
18.91,1625052003.578125
12.94,1625052003.59375
6.7,1625052003.609375
0.26,1625052003.625
-6.41,1625052003.640625
-13.39,1625052003.65625
-20.64,1625052003.671875
-27.88,1625052003.6875
-34.59,1625052003.703125
-40.11,1625052003.71875
-43.86,1625052003.734375
-45.53,1625052003.75
-45.33,1625052003.765625
-43.93,1625052003.78125
-42.3,1625052003.796875
-41.32,1625052003.8125
-41.51,1625052003.828125
-42.8,1625052003.84375
-44.69,1625052003.859375
-46.51,1625052003.875
-47.77,1625052003.890625
-48.31,1625052003.90625
-48.26,1625052003.921875
-47.82,1625052003.9375
-46.98,1625052003.953125
-45.53,1625052003.96875
-43.22,1625052003.984375
-39.99,1625052004.0
-36.17,1625052004.015625
-32.39,1625052004.03125
-29.3,1625052004.046875
-27.26,1625052004.0625
-26.21,1625052004.078125
-25.68,1625052004.09375
-25.08,1625052004.109375
-24.02,1625052004.125
-22.4,1625052004.140625
-20.49,1625052004.15625
-18.73,1625052004.171875
-17.45,1625052004.1875
-16.81,1625052004.203125
-16.75,1625052004.21875
-17.05,1625052004.234375
-17.48,1625052004.25
-17.87,1625052004.265625
-18.12,1625052004.28125
-18.18,1625052004.296875
-17.96,1625052004.3125
-17.35,1625052004.328125
-16.26,1625052004.34375
-14.64,1625052004.359375
-12.56,1625052004.375
-10.19,1625052004.390625
-7.71,1625052004.40625
-5.25,1625052004.421875
-2.84,1625052004.4375
-0.44,1625052004.453125
2.05,1625052004.46875
4.7,1625052004.484375
7.55,1625052004.5
10.52,1625052004.515625
13.42,1625052004.53125
15.98,1625052004.546875
17.9,1625052004.5625
18.99,1625052004.578125
19.21,1625052004.59375
18.74,1625052004.609375
17.93,1625052004.625
17.13,1625052004.640625
16.6,1625052004.65625
16.39,1625052004.671875
16.41,1625052004.6875
16.47,1625052004.703125
16.41,1625052004.71875
16.17,1625052004.734375
15.75,1625052004.75
15.2,1625052004.765625
14.53,1625052004.78125
13.75,1625052004.796875
12.84,1625052004.8125
11.78,1625052004.828125
10.59,1625052004.84375
9.27,1625052004.859375
7.8,1625052004.875
6.14,1625052004.890625
4.26,1625052004.90625
2.14,1625052004.921875
-0.14,1625052004.9375
-2.4,1625052004.953125
-4.43,1625052004.96875
-5.97,1625052004.984375
-6.81,1625052005.0
-6.85,1625052005.015625
-6.09,1625052005.03125
-4.66,1625052005.046875
-2.73,1625052005.0625
-0.52,1625052005.078125
1.79,1625052005.09375
4.06,1625052005.109375
6.21,1625052005.125
8.2,1625052005.140625
10.02,1625052005.15625
11.61,1625052005.171875
12.86,1625052005.1875
13.68,1625052005.203125
13.99,1625052005.21875
13.83,1625052005.234375
13.36,1625052005.25
12.8,1625052005.265625
12.37,1625052005.28125
12.18,1625052005.296875
12.25,1625052005.3125
12.47,1625052005.328125
12.7,1625052005.34375
12.84,1625052005.359375
12.82,1625052005.375
12.63,1625052005.390625
12.32,1625052005.40625
11.91,1625052005.421875
11.37,1625052005.4375
10.68,1625052005.453125
9.78,1625052005.46875
8.69,1625052005.484375
7.43,1625052005.5
6.09,1625052005.515625
4.74,1625052005.53125
3.41,1625052005.546875
2.09,1625052005.5625
0.74,1625052005.578125
-0.71,1625052005.59375
-2.23,1625052005.609375
-3.81,1625052005.625
-5.38,1625052005.640625
-6.95,1625052005.65625
-8.48,1625052005.671875
-9.95,1625052005.6875
-11.21,1625052005.703125
-12.05,1625052005.71875
-12.23,1625052005.734375
-11.58,1625052005.75
-10.11,1625052005.765625
-7.98,1625052005.78125
-5.49,1625052005.796875
-2.88,1625052005.8125
-0.31,1625052005.828125
2.14,1625052005.84375
4.48,1625052005.859375
6.67,1625052005.875
8.63,1625052005.890625
10.25,1625052005.90625
11.45,1625052005.921875
12.19,1625052005.9375
12.51,1625052005.953125
12.46,1625052005.96875
12.09,1625052005.984375
11.45,1625052006.0
10.62,1625052006.015625
9.73,1625052006.03125
8.91,1625052006.046875
8.34,1625052006.0625
8.1,1625052006.078125
8.18,1625052006.09375
8.42,1625052006.109375
8.62,1625052006.125
8.57,1625052006.140625
8.19,1625052006.15625
7.53,1625052006.171875
6.74,1625052006.1875
6.0,1625052006.203125
5.4,1625052006.21875
4.92,1625052006.234375
4.39,1625052006.25
3.65,1625052006.265625
2.62,1625052006.28125
1.36,1625052006.296875
0.07,1625052006.3125
-1.05,1625052006.328125
-1.85,1625052006.34375
-2.37,1625052006.359375
-2.78,1625052006.375
-3.3,1625052006.390625
-4.14,1625052006.40625
-5.39,1625052006.421875
-7.0,1625052006.4375
-8.78,1625052006.453125
-10.44,1625052006.46875
-11.66,1625052006.484375
-12.17,1625052006.5
-11.84,1625052006.515625
-10.64,1625052006.53125
-8.74,1625052006.546875
-6.34,1625052006.5625
-3.66,1625052006.578125
-0.87,1625052006.59375
1.93,1625052006.609375
4.64,1625052006.625
7.16,1625052006.640625
9.31,1625052006.65625
10.94,1625052006.671875
11.96,1625052006.6875
12.38,1625052006.703125
12.36,1625052006.71875
12.09,1625052006.734375
11.73,1625052006.75
11.35,1625052006.765625
10.94,1625052006.78125
10.46,1625052006.796875
9.9,1625052006.8125
9.32,1625052006.828125
8.78,1625052006.84375
8.34,1625052006.859375
7.93,1625052006.875
7.45,1625052006.890625
6.74,1625052006.90625
5.74,1625052006.921875
4.5,1625052006.9375
3.19,1625052006.953125
2.02,1625052006.96875
1.11,1625052006.984375
0.45,1625052007.0
-0.09,1625052007.015625
-0.68,1625052007.03125
-1.45,1625052007.046875
-2.43,1625052007.0625
-3.52,1625052007.078125
-4.62,1625052007.09375
-5.6,1625052007.109375
-6.43,1625052007.125
-7.16,1625052007.140625
-7.86,1625052007.15625
-8.62,1625052007.171875
-9.46,1625052007.1875
-10.38,1625052007.203125
-11.39,1625052007.21875
-12.46,1625052007.234375
-13.55,1625052007.25
-14.53,1625052007.265625
-15.18,1625052007.28125
-15.21,1625052007.296875
-14.4,1625052007.3125
-12.68,1625052007.328125
-10.14,1625052007.34375
-7.09,1625052007.359375
-3.89,1625052007.375
-0.86,1625052007.390625
1.72,1625052007.40625
3.74,1625052007.421875
5.12,1625052007.4375
5.88,1625052007.453125
6.08,1625052007.46875
5.86,1625052007.484375
5.41,1625052007.5
4.97,1625052007.515625
4.73,1625052007.53125
4.78,1625052007.546875
5.08,1625052007.5625
5.47,1625052007.578125
5.77,1625052007.59375
5.85,1625052007.609375
5.66,1625052007.625
5.23,1625052007.640625
4.71,1625052007.65625
4.2,1625052007.671875
3.76,1625052007.6875
3.38,1625052007.703125
3.0,1625052007.71875
2.52,1625052007.734375
1.88,1625052007.75
1.05,1625052007.765625
0.05,1625052007.78125
-1.07,1625052007.796875
-2.25,1625052007.8125
-3.38,1625052007.828125
-4.4,1625052007.84375
-5.27,1625052007.859375
-6.0,1625052007.875
-6.67,1625052007.890625
-7.4,1625052007.90625
-8.24,1625052007.921875
-9.22,1625052007.9375
-10.33,1625052007.953125
-11.55,1625052007.96875
-12.82,1625052007.984375
-14.07,1625052008.0
-15.15,1625052008.015625
-15.81,1625052008.03125
-15.77,1625052008.046875
-14.83,1625052008.0625
-12.97,1625052008.078125
-10.37,1625052008.09375
-7.4,1625052008.109375
-4.45,1625052008.125
-1.79,1625052008.140625
0.47,1625052008.15625
2.35,1625052008.171875
3.89,1625052008.1875
5.12,1625052008.203125
6.02,1625052008.21875
6.57,1625052008.234375
6.84,1625052008.25
6.89,1625052008.265625
6.8,1625052008.28125
6.61,1625052008.296875
6.31,1625052008.3125
5.9,1625052008.328125
5.39,1625052008.34375
4.87,1625052008.359375
4.44,1625052008.375
4.18,1625052008.390625
4.09,1625052008.40625
4.1,1625052008.421875
4.07,1625052008.4375
3.87,1625052008.453125
3.4,1625052008.46875
2.61,1625052008.484375
1.54,1625052008.5
0.31,1625052008.515625
-0.93,1625052008.53125
-2.05,1625052008.546875
-2.99,1625052008.5625
-3.83,1625052008.578125
-4.7,1625052008.59375
-5.75,1625052008.609375
-7.09,1625052008.625
-8.65,1625052008.640625
-10.3,1625052008.65625
-11.82,1625052008.671875
-13.07,1625052008.6875
-13.95,1625052008.703125
-14.43,1625052008.71875
-14.48,1625052008.734375
-14.06,1625052008.75
-13.12,1625052008.765625
-11.65,1625052008.78125
-9.69,1625052008.796875
-7.37,1625052008.8125
-4.88,1625052008.828125
-2.39,1625052008.84375
-0.01,1625052008.859375
2.16,1625052008.875
4.05,1625052008.890625
5.58,1625052008.90625
6.65,1625052008.921875
7.17,1625052008.9375
7.15,1625052008.953125
6.71,1625052008.96875
6.11,1625052008.984375
5.62,1625052009.0
5.45,1625052009.015625
5.62,1625052009.03125
5.98,1625052009.046875
6.31,1625052009.0625
6.39,1625052009.078125
6.15,1625052009.09375
5.67,1625052009.109375
5.11,1625052009.125
4.57,1625052009.140625
4.09,1625052009.15625
3.58,1625052009.171875
2.94,1625052009.1875
2.08,1625052009.203125
1.03,1625052009.21875
-0.12,1625052009.234375
-1.28,1625052009.25
-2.36,1625052009.265625
-3.38,1625052009.28125
-4.36,1625052009.296875
-5.4,1625052009.3125
-6.59,1625052009.328125
-8.0,1625052009.34375
-9.65,1625052009.359375
-11.48,1625052009.375
-13.32,1625052009.390625
-14.94,1625052009.40625
-16.04,1625052009.421875
-16.38,1625052009.4375
-15.81,1625052009.453125
-14.39,1625052009.46875
-12.29,1625052009.484375
-9.82,1625052009.5
-7.28,1625052009.515625
-4.85,1625052009.53125
-2.63,1625052009.546875
-0.62,1625052009.5625
1.18,1625052009.578125
2.73,1625052009.59375
3.92,1625052009.609375
4.67,1625052009.625
4.95,1625052009.640625
4.78,1625052009.65625
4.28,1625052009.671875
3.59,1625052009.6875
2.84,1625052009.703125
2.15,1625052009.71875
1.61,1625052009.734375
1.27,1625052009.75
1.17,1625052009.765625
1.25,1625052009.78125
1.41,1625052009.796875
1.55,1625052009.8125
1.55,1625052009.828125
1.35,1625052009.84375
0.95,1625052009.859375
0.37,1625052009.875
-0.38,1625052009.890625
-1.25,1625052009.90625
-2.18,1625052009.921875
-3.06,1625052009.9375
-3.81,1625052009.953125
-4.37,1625052009.96875
-4.77,1625052009.984375
-5.1,1625052010.0
-5.48,1625052010.015625
-6.01,1625052010.03125
-6.8,1625052010.046875
-7.85,1625052010.0625
-9.16,1625052010.078125
-10.67,1625052010.09375
-12.25,1625052010.109375
-13.67,1625052010.125
-14.6,1625052010.140625
-14.71,1625052010.15625
-13.77,1625052010.171875
-11.75,1625052010.1875
-8.87,1625052010.203125
-5.54,1625052010.21875
-2.18,1625052010.234375
0.86,1625052010.25
3.46,1625052010.265625
5.66,1625052010.28125
7.59,1625052010.296875
9.35,1625052010.3125
10.93,1625052010.328125
12.22,1625052010.34375
13.17,1625052010.359375
13.87,1625052010.375
14.55,1625052010.390625
15.55,1625052010.40625
17.1,1625052010.421875
19.23,1625052010.4375
21.73,1625052010.453125
24.26,1625052010.46875
26.52,1625052010.484375
28.41,1625052010.5
30.06,1625052010.515625
31.7,1625052010.53125
33.58,1625052010.546875
35.76,1625052010.5625
38.12,1625052010.578125
40.34,1625052010.59375
41.99,1625052010.609375
42.65,1625052010.625
41.97,1625052010.640625
39.67,1625052010.65625
35.55,1625052010.671875
29.56,1625052010.6875
21.89,1625052010.703125
13.05,1625052010.71875
3.83,1625052010.734375
-4.8,1625052010.75
-12.18,1625052010.765625
-18.07,1625052010.78125
-22.89,1625052010.796875
-27.42,1625052010.8125
-32.42,1625052010.828125
-38.18,1625052010.84375
-44.34,1625052010.859375
-50.06,1625052010.875
-54.44,1625052010.890625
-56.89,1625052010.90625
-57.41,1625052010.921875
-56.37,1625052010.9375
-54.3,1625052010.953125
-51.64,1625052010.96875
-48.56,1625052010.984375
-45.13,1625052011.0
-41.4,1625052011.015625
-37.52,1625052011.03125
-33.72,1625052011.046875
-30.23,1625052011.0625
-27.2,1625052011.078125
-24.63,1625052011.09375
-22.36,1625052011.109375
-20.19,1625052011.125
-17.92,1625052011.140625
-15.47,1625052011.15625
-12.91,1625052011.171875
-10.45,1625052011.1875
-8.33,1625052011.203125
-6.66,1625052011.21875
-5.39,1625052011.234375
-4.29,1625052011.25
-3.11,1625052011.265625
-1.72,1625052011.28125
-0.18,1625052011.296875
1.26,1625052011.3125
2.35,1625052011.328125
2.96,1625052011.34375
3.18,1625052011.359375
3.22,1625052011.375
3.32,1625052011.390625
3.6,1625052011.40625
4.02,1625052011.421875
4.45,1625052011.4375
4.72,1625052011.453125
4.75,1625052011.46875
4.52,1625052011.484375
4.07,1625052011.5
3.47,1625052011.515625
2.79,1625052011.53125
2.1,1625052011.546875
1.48,1625052011.5625
1.02,1625052011.578125
0.82,1625052011.59375
0.98,1625052011.609375
1.55,1625052011.625
2.55,1625052011.640625
3.92,1625052011.65625
5.54,1625052011.671875
7.22,1625052011.6875
8.82,1625052011.703125
10.27,1625052011.71875
11.56,1625052011.734375
12.72,1625052011.75
13.78,1625052011.765625
14.72,1625052011.78125
15.42,1625052011.796875
15.79,1625052011.8125
15.77,1625052011.828125
15.4,1625052011.84375
14.81,1625052011.859375
14.19,1625052011.875
13.68,1625052011.890625
13.33,1625052011.90625
13.11,1625052011.921875
12.93,1625052011.9375
12.68,1625052011.953125
12.3,1625052011.96875
11.83,1625052011.984375
11.31,1625052012.0
10.83,1625052012.015625
10.38,1625052012.03125
9.91,1625052012.046875
9.31,1625052012.0625
8.46,1625052012.078125
7.33,1625052012.09375
5.92,1625052012.109375
4.33,1625052012.125
2.65,1625052012.140625
0.93,1625052012.15625
-0.83,1625052012.171875
-2.66,1625052012.1875
-4.57,1625052012.203125
-6.55,1625052012.21875
-8.54,1625052012.234375
-10.52,1625052012.25
-12.44,1625052012.265625
-14.24,1625052012.28125
-15.79,1625052012.296875
-16.9,1625052012.3125
-17.35,1625052012.328125
-17.0,1625052012.34375
-15.82,1625052012.359375
-13.97,1625052012.375
-11.72,1625052012.390625
-9.39,1625052012.40625
-7.24,1625052012.421875
-5.43,1625052012.4375
-4.03,1625052012.453125
-3.04,1625052012.46875
-2.42,1625052012.484375
-2.11,1625052012.5
-2.02,1625052012.515625
-2.03,1625052012.53125
-2.04,1625052012.546875
-1.96,1625052012.5625
-1.73,1625052012.578125
-1.32,1625052012.59375
-0.77,1625052012.609375
-0.13,1625052012.625
0.54,1625052012.640625
1.2,1625052012.65625
1.85,1625052012.671875
2.48,1625052012.6875
3.14,1625052012.703125
3.85,1625052012.71875
4.61,1625052012.734375
5.4,1625052012.75
6.22,1625052012.765625
7.05,1625052012.78125
7.87,1625052012.796875
8.63,1625052012.8125
9.28,1625052012.828125
9.77,1625052012.84375
10.03,1625052012.859375
10.03,1625052012.875
9.73,1625052012.890625
9.07,1625052012.90625
8.01,1625052012.921875
6.55,1625052012.9375
4.79,1625052012.953125
2.95,1625052012.96875
1.32,1625052012.984375
0.19,1625052013.0
-0.28,1625052013.015625
-0.04,1625052013.03125
0.85,1625052013.046875
2.29,1625052013.0625
4.17,1625052013.078125
6.45,1625052013.09375
9.07,1625052013.109375
11.94,1625052013.125
14.91,1625052013.140625
17.76,1625052013.15625
20.26,1625052013.171875
22.23,1625052013.1875
23.52,1625052013.203125
24.09,1625052013.21875
23.99,1625052013.234375
23.37,1625052013.25
22.44,1625052013.265625
21.5,1625052013.28125
20.76,1625052013.296875
20.36,1625052013.3125
20.25,1625052013.328125
20.22,1625052013.34375
20.03,1625052013.359375
19.5,1625052013.375
18.63,1625052013.390625
17.52,1625052013.40625
16.35,1625052013.421875
15.21,1625052013.4375
14.05,1625052013.453125
12.71,1625052013.46875
11.06,1625052013.484375
9.06,1625052013.5
6.84,1625052013.515625
4.58,1625052013.53125
2.47,1625052013.546875
0.52,1625052013.5625
-1.38,1625052013.578125
-3.45,1625052013.59375
-5.91,1625052013.609375
-8.83,1625052013.625
-12.12,1625052013.640625
-15.5,1625052013.65625
-18.58,1625052013.671875
-20.93,1625052013.6875
-22.22,1625052013.703125
-22.24,1625052013.71875
-21.04,1625052013.734375
-18.84,1625052013.75
-15.99,1625052013.765625
-12.87,1625052013.78125
-9.79,1625052013.796875
-6.95,1625052013.8125
-4.48,1625052013.828125
-2.41,1625052013.84375
-0.76,1625052013.859375
0.45,1625052013.875
1.25,1625052013.890625
1.71,1625052013.90625
1.89,1625052013.921875
1.85,1625052013.9375
1.64,1625052013.953125
1.28,1625052013.96875
0.81,1625052013.984375
0.32,1625052014.0
-0.09,1625052014.015625
-0.32,1625052014.03125
-0.32,1625052014.046875
-0.21,1625052014.0625
-0.14,1625052014.078125
-0.26,1625052014.09375
-0.64,1625052014.109375
-1.25,1625052014.125
-1.99,1625052014.140625
-2.76,1625052014.15625
-3.53,1625052014.171875
-4.29,1625052014.1875
-5.07,1625052014.203125
-5.87,1625052014.21875
-6.68,1625052014.234375
-7.51,1625052014.25
-8.4,1625052014.265625
-9.46,1625052014.28125
-10.71,1625052014.296875
-12.16,1625052014.3125
-13.64,1625052014.328125
-14.91,1625052014.34375
-15.66,1625052014.359375
-15.64,1625052014.375
-14.69,1625052014.390625
-12.82,1625052014.40625
-10.17,1625052014.421875
-6.99,1625052014.4375
-3.6,1625052014.453125
-0.33,1625052014.46875
2.55,1625052014.484375
4.85,1625052014.5
6.46,1625052014.515625
7.39,1625052014.53125
7.7,1625052014.546875
7.53,1625052014.5625
7.06,1625052014.578125
6.48,1625052014.59375
5.96,1625052014.609375
5.57,1625052014.625
5.29,1625052014.640625
5.04,1625052014.65625
4.73,1625052014.671875
4.31,1625052014.6875
3.84,1625052014.703125
3.41,1625052014.71875
3.11,1625052014.734375
2.94,1625052014.75
2.79,1625052014.765625
2.52,1625052014.78125
1.98,1625052014.796875
1.1,1625052014.8125
-0.04,1625052014.828125
-1.29,1625052014.84375
-2.5,1625052014.859375
-3.65,1625052014.875
-4.83,1625052014.890625
-6.27,1625052014.90625
-8.16,1625052014.921875
-10.59,1625052014.9375
-13.43,1625052014.953125
-16.34,1625052014.96875
-18.91,1625052014.984375
-20.76,1625052015.0
-21.68,1625052015.015625
-21.64,1625052015.03125
-20.73,1625052015.046875
-19.1,1625052015.0625
-16.93,1625052015.078125
-14.34,1625052015.09375
-11.48,1625052015.109375
-8.51,1625052015.125
-5.65,1625052015.140625
-3.1,1625052015.15625
-1.02,1625052015.171875
0.54,1625052015.1875
1.62,1625052015.203125
2.33,1625052015.21875
2.76,1625052015.234375
2.96,1625052015.25
2.96,1625052015.265625
2.79,1625052015.28125
2.48,1625052015.296875
2.12,1625052015.3125
1.8,1625052015.328125
1.56,1625052015.34375
1.42,1625052015.359375
1.35,1625052015.375
1.28,1625052015.390625
1.18,1625052015.40625
1.01,1625052015.421875
0.73,1625052015.4375
0.28,1625052015.453125
-0.39,1625052015.46875
-1.31,1625052015.484375
-2.41,1625052015.5
-3.61,1625052015.515625
-4.76,1625052015.53125
-5.79,1625052015.546875
-6.65,1625052015.5625
-7.4,1625052015.578125
-8.13,1625052015.59375
-8.9,1625052015.609375
-9.75,1625052015.625
-10.64,1625052015.640625
-11.45,1625052015.65625
-11.94,1625052015.671875
-11.86,1625052015.6875
-10.95,1625052015.703125
-9.1,1625052015.71875
-6.41,1625052015.734375
-3.09,1625052015.75
0.54,1625052015.765625
4.26,1625052015.78125
7.96,1625052015.796875
11.63,1625052015.8125
15.25,1625052015.828125
18.68,1625052015.84375
21.71,1625052015.859375
24.15,1625052015.875
25.9,1625052015.890625
27.06,1625052015.90625
27.85,1625052015.921875
28.56,1625052015.9375
29.39,1625052015.953125
30.46,1625052015.96875
31.77,1625052015.984375
33.28,1625052016.0
34.86,1625052016.015625
36.38,1625052016.03125
37.67,1625052016.046875
38.56,1625052016.0625
38.94,1625052016.078125
38.73,1625052016.09375
37.93,1625052016.109375
36.5,1625052016.125
34.39,1625052016.140625
31.59,1625052016.15625
28.17,1625052016.171875
24.33,1625052016.1875
20.43,1625052016.203125
16.82,1625052016.21875
13.75,1625052016.234375
11.22,1625052016.25
8.96,1625052016.265625
6.51,1625052016.28125
3.38,1625052016.296875
-0.82,1625052016.3125
-6.23,1625052016.328125
-12.69,1625052016.34375
-19.75,1625052016.359375
-26.65,1625052016.375
-32.5,1625052016.390625
-36.45,1625052016.40625
-37.98,1625052016.421875
-37.19,1625052016.4375
-34.85,1625052016.453125
-32.22,1625052016.46875
-30.67,1625052016.484375
-31.13,1625052016.5
-33.77,1625052016.515625
-37.92,1625052016.53125
-42.49,1625052016.546875
-46.38,1625052016.5625
-48.88,1625052016.578125
-49.84,1625052016.59375
-49.45,1625052016.609375
-48.01,1625052016.625
-45.75,1625052016.640625
-42.83,1625052016.65625
-39.42,1625052016.671875
-35.79,1625052016.6875
-32.27,1625052016.703125
-29.15,1625052016.71875
-26.57,1625052016.734375
-24.4,1625052016.75
-22.38,1625052016.765625
-20.21,1625052016.78125
-17.72,1625052016.796875
-14.97,1625052016.8125
-12.17,1625052016.828125
-9.65,1625052016.84375
-7.67,1625052016.859375
-6.32,1625052016.875
-5.51,1625052016.890625
-4.98,1625052016.90625
-4.43,1625052016.921875
-3.65,1625052016.9375
-2.59,1625052016.953125
-1.4,1625052016.96875
-0.32,1625052016.984375
0.45,1625052017.0
0.8,1625052017.015625
0.81,1625052017.03125
0.68,1625052017.046875
0.74,1625052017.0625
1.3,1625052017.078125
2.57,1625052017.09375
4.58,1625052017.109375
7.19,1625052017.125
10.1,1625052017.140625
13.02,1625052017.15625
15.74,1625052017.171875
18.18,1625052017.1875
20.34,1625052017.203125
22.22,1625052017.21875
23.72,1625052017.234375
24.66,1625052017.25
24.92,1625052017.265625
24.5,1625052017.28125
23.58,1625052017.296875
22.4,1625052017.3125
21.22,1625052017.328125
20.12,1625052017.34375
19.11,1625052017.359375
18.17,1625052017.375
17.32,1625052017.390625
16.66,1625052017.40625
16.22,1625052017.421875
15.97,1625052017.4375
15.7,1625052017.453125
15.14,1625052017.46875
14.07,1625052017.484375
12.44,1625052017.5
10.37,1625052017.515625
8.13,1625052017.53125
6.0,1625052017.546875
4.18,1625052017.5625
2.76,1625052017.578125
1.66,1625052017.59375
0.72,1625052017.609375
-0.31,1625052017.625
-1.65,1625052017.640625
-3.43,1625052017.65625
-5.64,1625052017.671875
-8.12,1625052017.6875
-10.56,1625052017.703125
-12.63,1625052017.71875
-14.0,1625052017.734375
-14.46,1625052017.75
-13.93,1625052017.765625
-12.41,1625052017.78125
-10.03,1625052017.796875
-7.0,1625052017.8125
-3.59,1625052017.828125
-0.11,1625052017.84375
3.14,1625052017.859375
5.95,1625052017.875
8.16,1625052017.890625
9.72,1625052017.90625
10.64,1625052017.921875
10.96,1625052017.9375
10.78,1625052017.953125
10.22,1625052017.96875
9.45,1625052017.984375
8.67,1625052018.0
8.01,1625052018.015625
7.55,1625052018.03125
7.28,1625052018.046875
7.1,1625052018.0625
6.94,1625052018.078125
6.74,1625052018.09375
6.48,1625052018.109375
6.14,1625052018.125
5.68,1625052018.140625
4.99,1625052018.15625
4.01,1625052018.171875
2.71,1625052018.1875
1.2,1625052018.203125
-0.35,1625052018.21875
-1.73,1625052018.234375
-2.83,1625052018.25
-3.67,1625052018.265625
-4.4,1625052018.28125
-5.25,1625052018.296875
-6.43,1625052018.3125
-8.01,1625052018.328125
-9.97,1625052018.34375
-12.12,1625052018.359375
-14.24,1625052018.375
-16.05,1625052018.390625
-17.3,1625052018.40625
-17.76,1625052018.421875
-17.27,1625052018.4375
-15.77,1625052018.453125
-13.37,1625052018.46875
-10.27,1625052018.484375
-6.77,1625052018.5
-3.18,1625052018.515625
0.25,1625052018.53125
3.37,1625052018.546875
6.11,1625052018.5625
8.44,1625052018.578125
10.33,1625052018.59375
11.76,1625052018.609375
12.75,1625052018.625
13.36,1625052018.640625
13.66,1625052018.65625
13.72,1625052018.671875
13.56,1625052018.6875
13.16,1625052018.703125
12.5,1625052018.71875
11.62,1625052018.734375
10.59,1625052018.75
9.59,1625052018.765625
8.82,1625052018.78125
8.42,1625052018.796875
8.46,1625052018.8125
8.82,1625052018.828125
9.25,1625052018.84375
9.45,1625052018.859375
9.14,1625052018.875
8.18,1625052018.890625
6.62,1625052018.90625
4.64,1625052018.921875
2.51,1625052018.9375
0.49,1625052018.953125
-1.28,1625052018.96875
-2.77,1625052018.984375
-4.06,1625052019.0
-5.33,1625052019.015625
-6.76,1625052019.03125
-8.48,1625052019.046875
-10.46,1625052019.0625
-12.56,1625052019.078125
-14.46,1625052019.09375
-15.77,1625052019.109375
-16.14,1625052019.125
-15.36,1625052019.140625
-13.38,1625052019.15625
-10.37,1625052019.171875
-6.67,1625052019.1875
-2.64,1625052019.203125
1.36,1625052019.21875
5.06,1625052019.234375
8.35,1625052019.25
11.13,1625052019.265625
13.35,1625052019.28125
14.92,1625052019.296875
15.74,1625052019.3125
15.79,1625052019.328125
15.19,1625052019.34375
14.2,1625052019.359375
13.16,1625052019.375
12.34,1625052019.390625
11.86,1625052019.40625
11.65,1625052019.421875
11.51,1625052019.4375
11.27,1625052019.453125
10.84,1625052019.46875
10.29,1625052019.484375
9.72,1625052019.5
9.23,1625052019.515625
8.8,1625052019.53125
8.34,1625052019.546875
7.73,1625052019.5625
6.84,1625052019.578125
5.68,1625052019.59375
4.29,1625052019.609375
2.75,1625052019.625
1.18,1625052019.640625
-0.35,1625052019.65625
-1.81,1625052019.671875
-3.16,1625052019.6875
-4.41,1625052019.703125
-5.56,1625052019.71875
-6.72,1625052019.734375
-8.03,1625052019.75
-9.68,1625052019.765625
-11.76,1625052019.78125
-14.18,1625052019.796875
-16.65,1625052019.8125
-18.65,1625052019.828125
-19.68,1625052019.84375
-19.4,1625052019.859375
-17.77,1625052019.875
-15.03,1625052019.890625
-11.58,1625052019.90625
-7.82,1625052019.921875
-4.03,1625052019.9375
-0.36,1625052019.953125
3.13,1625052019.96875
6.37,1625052019.984375
9.23,1625052020.0
11.54,1625052020.015625
13.17,1625052020.03125
14.02,1625052020.046875
14.15,1625052020.0625
13.68,1625052020.078125
12.84,1625052020.09375
11.9,1625052020.109375
11.09,1625052020.125
10.63,1625052020.140625
10.56,1625052020.15625
10.81,1625052020.171875
11.17,1625052020.1875
11.41,1625052020.203125
11.39,1625052020.21875
11.05,1625052020.234375
10.46,1625052020.25
9.72,1625052020.265625
8.9,1625052020.28125
8.03,1625052020.296875
7.04,1625052020.3125
5.9,1625052020.328125
4.6,1625052020.34375
3.21,1625052020.359375
1.81,1625052020.375
0.47,1625052020.390625
-0.82,1625052020.40625
-2.06,1625052020.421875
-3.29,1625052020.4375
-4.51,1625052020.453125
-5.72,1625052020.46875
-6.96,1625052020.484375
-8.31,1625052020.5
-9.86,1625052020.515625
-11.65,1625052020.53125
-13.55,1625052020.546875
-15.27,1625052020.5625
-16.43,1625052020.578125
-16.65,1625052020.59375
-15.72,1625052020.609375
-13.63,1625052020.625
-10.56,1625052020.640625
-6.82,1625052020.65625
-2.74,1625052020.671875
1.31,1625052020.6875
5.07,1625052020.703125
8.26,1625052020.71875
10.7,1625052020.734375
12.29,1625052020.75
13.05,1625052020.765625
13.1,1625052020.78125
12.68,1625052020.796875
12.04,1625052020.8125
11.41,1625052020.828125
10.91,1625052020.84375
10.55,1625052020.859375
10.27,1625052020.875
9.97,1625052020.890625
9.6,1625052020.90625
9.21,1625052020.921875
8.85,1625052020.9375
8.58,1625052020.953125
8.34,1625052020.96875
8.0,1625052020.984375
7.4,1625052021.0
6.45,1625052021.015625
5.2,1625052021.03125
3.83,1625052021.046875
2.53,1625052021.0625
1.47,1625052021.078125
0.64,1625052021.09375
-0.07,1625052021.109375
-0.79,1625052021.125
-1.68,1625052021.140625
-2.76,1625052021.15625
-4.04,1625052021.171875
-5.55,1625052021.1875
-7.33,1625052021.203125
-9.45,1625052021.21875
-11.89,1625052021.234375
-14.47,1625052021.25
-16.82,1625052021.265625
-18.48,1625052021.28125
-19.04,1625052021.296875
-18.27,1625052021.3125
-16.23,1625052021.328125
-13.19,1625052021.34375
-9.59,1625052021.359375
-5.85,1625052021.375
-2.32,1625052021.390625
0.81,1625052021.40625
3.43,1625052021.421875
5.51,1625052021.4375
7.04,1625052021.453125
7.98,1625052021.46875
8.32,1625052021.484375
8.11,1625052021.5
7.5,1625052021.515625
6.64,1625052021.53125
5.73,1625052021.546875
4.86,1625052021.5625
4.03,1625052021.578125
3.21,1625052021.59375
2.4,1625052021.609375
1.73,1625052021.625
1.35,1625052021.640625
1.42,1625052021.65625
1.91,1625052021.671875
2.63,1625052021.6875
3.24,1625052021.703125
3.43,1625052021.71875
2.98,1625052021.734375
1.84,1625052021.75
0.12,1625052021.765625
-1.97,1625052021.78125
-4.23,1625052021.796875
-6.47,1625052021.8125
-8.54,1625052021.828125
-10.33,1625052021.84375
-11.85,1625052021.859375
-13.18,1625052021.875
-14.47,1625052021.890625
-15.84,1625052021.90625
-17.29,1625052021.921875
-18.66,1625052021.9375
-19.65,1625052021.953125
-19.93,1625052021.96875
-19.25,1625052021.984375
-17.48,1625052022.0
-14.67,1625052022.015625
-10.96,1625052022.03125
-6.57,1625052022.046875
-1.78,1625052022.0625
3.08,1625052022.078125
7.65,1625052022.09375
11.59,1625052022.109375
14.67,1625052022.125
16.88,1625052022.140625
18.45,1625052022.15625
19.73,1625052022.171875
21.06,1625052022.1875
22.57,1625052022.203125
24.17,1625052022.21875
25.58,1625052022.234375
26.56,1625052022.25
27.03,1625052022.265625
27.14,1625052022.28125
27.25,1625052022.296875
27.77,1625052022.3125
28.97,1625052022.328125
30.95,1625052022.34375
33.48,1625052022.359375
36.12,1625052022.375
38.24,1625052022.390625
39.03,1625052022.40625
37.69,1625052022.421875
33.62,1625052022.4375
26.61,1625052022.453125
17.09,1625052022.46875
6.03,1625052022.484375
-5.3,1625052022.5
-15.74,1625052022.515625
-24.59,1625052022.53125
-31.83,1625052022.546875
-37.85,1625052022.5625
-43.18,1625052022.578125
-48.11,1625052022.59375
-52.55,1625052022.609375
-56.15,1625052022.625
-58.54,1625052022.640625
-59.55,1625052022.65625
-59.25,1625052022.671875
-57.84,1625052022.6875
-55.5,1625052022.703125
-52.39,1625052022.71875
-48.63,1625052022.734375
-44.46,1625052022.75
-40.19,1625052022.765625
-36.18,1625052022.78125
-32.7,1625052022.796875
-29.82,1625052022.8125
-27.41,1625052022.828125
-25.23,1625052022.84375
-23.08,1625052022.859375
-20.83,1625052022.875
-18.48,1625052022.890625
-16.1,1625052022.90625
-13.76,1625052022.921875
-11.48,1625052022.9375
-9.24,1625052022.953125
-6.98,1625052022.96875
-4.61,1625052022.984375
-2.04,1625052023.0
0.84,1625052023.015625
4.01,1625052023.03125
7.39,1625052023.046875
10.74,1625052023.0625
13.72,1625052023.078125
16.0,1625052023.09375
17.33,1625052023.109375
17.62,1625052023.125
16.96,1625052023.140625
15.5,1625052023.15625
13.47,1625052023.171875
11.08,1625052023.1875
8.5,1625052023.203125
5.89,1625052023.21875
3.34,1625052023.234375
0.94,1625052023.25
-1.25,1625052023.265625
-3.09,1625052023.28125
-4.34,1625052023.296875
-4.68,1625052023.3125
-3.86,1625052023.328125
-1.83,1625052023.34375
1.18,1625052023.359375
4.72,1625052023.375
8.31,1625052023.390625
11.58,1625052023.40625
14.39,1625052023.421875
16.74,1625052023.4375
18.71,1625052023.453125
20.31,1625052023.46875
21.52,1625052023.484375
22.27,1625052023.5
22.56,1625052023.515625
22.45,1625052023.53125
22.0,1625052023.546875
21.28,1625052023.5625
20.33,1625052023.578125
19.19,1625052023.59375
17.89,1625052023.609375
16.49,1625052023.625
15.1,1625052023.640625
13.77,1625052023.65625
12.59,1625052023.671875
11.56,1625052023.6875
10.68,1625052023.703125
9.85,1625052023.71875
8.96,1625052023.734375
7.88,1625052023.75
6.54,1625052023.765625
5.0,1625052023.78125
3.38,1625052023.796875
1.8,1625052023.8125
0.33,1625052023.828125
-1.09,1625052023.84375
-2.62,1625052023.859375
-4.4,1625052023.875
-6.46,1625052023.890625
-8.69,1625052023.90625
-10.82,1625052023.921875
-12.55,1625052023.9375
-13.57,1625052023.953125
-13.66,1625052023.96875
-12.72,1625052023.984375
-10.8,1625052024.0
-8.08,1625052024.015625
-4.81,1625052024.03125
-1.28,1625052024.046875
2.23,1625052024.0625
5.48,1625052024.078125
8.29,1625052024.09375
10.46,1625052024.109375
11.9,1625052024.125
12.55,1625052024.140625
12.49,1625052024.15625
11.91,1625052024.171875
11.04,1625052024.1875
10.11,1625052024.203125
9.24,1625052024.21875
8.49,1625052024.234375
7.84,1625052024.25
7.29,1625052024.265625
6.83,1625052024.28125
6.46,1625052024.296875
6.13,1625052024.3125
5.71,1625052024.328125
5.08,1625052024.34375
4.15,1625052024.359375
2.94,1625052024.375
1.54,1625052024.390625
0.12,1625052024.40625
-1.22,1625052024.421875
-2.41,1625052024.4375
-3.5,1625052024.453125
-4.64,1625052024.46875
-5.97,1625052024.484375
-7.65,1625052024.5
-9.77,1625052024.515625
-12.3,1625052024.53125
-15.03,1625052024.546875
-17.63,1625052024.5625
-19.67,1625052024.578125
-20.71,1625052024.59375
-20.48,1625052024.609375
-18.95,1625052024.625
-16.36,1625052024.640625
-13.1,1625052024.65625
-9.61,1625052024.671875
-6.21,1625052024.6875
-3.06,1625052024.703125
-0.18,1625052024.71875
2.44,1625052024.734375
4.77,1625052024.75
6.71,1625052024.765625
8.17,1625052024.78125
9.06,1625052024.796875
9.36,1625052024.8125
9.12,1625052024.828125
8.43,1625052024.84375
7.41,1625052024.859375
6.29,1625052024.875
5.33,1625052024.890625
4.8,1625052024.90625
4.88,1625052024.921875
5.51,1625052024.9375
6.44,1625052024.953125
7.29,1625052024.96875
7.75,1625052024.984375
7.69,1625052025.0
7.21,1625052025.015625
6.5,1625052025.03125
5.69,1625052025.046875
4.86,1625052025.0625
3.96,1625052025.078125
2.99,1625052025.09375
2.01,1625052025.109375
1.16,1625052025.125
0.52,1625052025.140625
0.08,1625052025.15625
-0.32,1625052025.171875
-0.79,1625052025.1875
-1.32,1625052025.203125
-1.65,1625052025.21875
-1.43,1625052025.234375
-0.31,1625052025.25
1.86,1625052025.265625
4.99,1625052025.28125
8.9,1625052025.296875
13.46,1625052025.3125
18.66,1625052025.328125
24.51,1625052025.34375
30.87,1625052025.359375
37.35,1625052025.375
43.31,1625052025.390625
48.06,1625052025.40625
51.16,1625052025.421875
52.57,1625052025.4375
52.59,1625052025.453125
51.65,1625052025.46875
50.04,1625052025.484375
47.77,1625052025.5
44.65,1625052025.515625
40.38,1625052025.53125
34.75,1625052025.546875
27.71,1625052025.5625
19.3,1625052025.578125
9.74,1625052025.59375
-0.55,1625052025.609375
-10.95,1625052025.625
-20.71,1625052025.640625
-29.12,1625052025.65625
-35.82,1625052025.671875
-40.89,1625052025.6875
-44.84,1625052025.703125
-48.3,1625052025.71875
-51.72,1625052025.734375
-55.2,1625052025.75
-58.51,1625052025.765625
-61.3,1625052025.78125
-63.38,1625052025.796875
-64.76,1625052025.8125
-65.6,1625052025.828125
-66.01,1625052025.84375
-65.93,1625052025.859375
-65.1,1625052025.875
-63.22,1625052025.890625
-60.1,1625052025.90625
-55.8,1625052025.921875
-50.64,1625052025.9375
-45.06,1625052025.953125
-39.5,1625052025.96875
-34.2,1625052025.984375
-29.24,1625052026.0
-24.51,1625052026.015625
-19.92,1625052026.03125
-15.43,1625052026.046875
-11.13,1625052026.0625
-7.18,1625052026.078125
-3.72,1625052026.09375
-0.86,1625052026.109375
1.45,1625052026.125
3.31,1625052026.140625
4.97,1625052026.15625
6.7,1625052026.171875
8.82,1625052026.1875
11.55,1625052026.203125
14.92,1625052026.21875
18.76,1625052026.234375
22.64,1625052026.25
26.07,1625052026.265625
28.61,1625052026.28125
30.03,1625052026.296875
30.32,1625052026.3125
29.68,1625052026.328125
28.35,1625052026.34375
26.57,1625052026.359375
24.51,1625052026.375
22.32,1625052026.390625
20.12,1625052026.40625
18.06,1625052026.421875
16.23,1625052026.4375
14.66,1625052026.453125
13.24,1625052026.46875
11.81,1625052026.484375
10.17,1625052026.5
8.18,1625052026.515625
5.76,1625052026.53125
2.91,1625052026.546875
-0.22,1625052026.5625
-3.42,1625052026.578125
-6.32,1625052026.59375
-8.55,1625052026.609375
-9.76,1625052026.625
-9.79,1625052026.640625
-8.68,1625052026.65625
-6.62,1625052026.671875
-3.92,1625052026.6875
-0.84,1625052026.703125
2.36,1625052026.71875
5.48,1625052026.734375
8.36,1625052026.75
10.78,1625052026.765625
12.61,1625052026.78125
13.75,1625052026.796875
14.26,1625052026.8125
14.27,1625052026.828125
13.99,1625052026.84375
13.61,1625052026.859375
13.26,1625052026.875
12.98,1625052026.890625
12.76,1625052026.90625
12.53,1625052026.921875
12.25,1625052026.9375
11.88,1625052026.953125
11.42,1625052026.96875
10.88,1625052026.984375
10.27,1625052027.0
9.59,1625052027.015625
8.83,1625052027.03125
7.99,1625052027.046875
7.03,1625052027.0625
5.94,1625052027.078125
4.71,1625052027.09375
3.32,1625052027.109375
1.85,1625052027.125
0.38,1625052027.140625
-1.0,1625052027.15625
-2.23,1625052027.171875
-3.35,1625052027.1875
-4.46,1625052027.203125
-5.75,1625052027.21875
-7.32,1625052027.234375
-9.22,1625052027.25
-11.39,1625052027.265625
-13.63,1625052027.28125
-15.67,1625052027.296875
-17.22,1625052027.3125
-17.97,1625052027.328125
-17.69,1625052027.34375
-16.31,1625052027.359375
-13.96,1625052027.375
-10.9,1625052027.390625
-7.47,1625052027.40625
-3.99,1625052027.421875
-0.63,1625052027.4375
2.53,1625052027.453125
5.42,1625052027.46875
7.97,1625052027.484375
10.05,1625052027.5
11.53,1625052027.515625
12.36,1625052027.53125
12.59,1625052027.546875
12.37,1625052027.5625
11.9,1625052027.578125
11.35,1625052027.59375
10.83,1625052027.609375
10.38,1625052027.625
10.02,1625052027.640625
9.75,1625052027.65625
9.55,1625052027.671875
9.38,1625052027.6875
9.19,1625052027.703125
8.88,1625052027.71875
8.4,1625052027.734375
7.74,1625052027.75
6.92,1625052027.765625
6.0,1625052027.78125
4.96,1625052027.796875
3.77,1625052027.8125
2.4,1625052027.828125
0.83,1625052027.84375
-0.86,1625052027.859375
-2.54,1625052027.875
-4.09,1625052027.890625
-5.44,1625052027.90625
-6.69,1625052027.921875
-8.0,1625052027.9375
-9.53,1625052027.953125
-11.36,1625052027.96875
-13.4,1625052027.984375
-15.45,1625052028.0
-17.31,1625052028.015625
-18.82,1625052028.03125
-19.83,1625052028.046875
-20.23,1625052028.0625
-19.9,1625052028.078125
-18.7,1625052028.09375
-16.64,1625052028.109375
-13.81,1625052028.125
-10.48,1625052028.140625
-6.98,1625052028.15625
-3.58,1625052028.171875
-0.45,1625052028.1875
2.33,1625052028.203125
4.78,1625052028.21875
6.82,1625052028.234375
8.36,1625052028.25
9.27,1625052028.265625
9.56,1625052028.28125
9.4,1625052028.296875
9.08,1625052028.3125
8.93,1625052028.328125
9.11,1625052028.34375
9.58,1625052028.359375
10.13,1625052028.375
10.52,1625052028.390625
10.56,1625052028.40625
10.23,1625052028.421875
9.61,1625052028.4375
8.86,1625052028.453125
8.11,1625052028.46875
7.43,1625052028.484375
6.85,1625052028.5
6.28,1625052028.515625
5.66,1625052028.53125
4.9,1625052028.546875
3.94,1625052028.5625
2.83,1625052028.578125
1.64,1625052028.59375
0.47,1625052028.609375
-0.61,1625052028.625
-1.62,1625052028.640625
-2.65,1625052028.65625
-3.83,1625052028.671875
-5.18,1625052028.6875
-6.68,1625052028.703125
-8.2,1625052028.71875
-9.64,1625052028.734375
-11.01,1625052028.75
-12.36,1625052028.765625
-13.78,1625052028.78125
-15.26,1625052028.796875
-16.61,1625052028.8125
-17.44,1625052028.828125
-17.38,1625052028.84375
-16.19,1625052028.859375
-13.93,1625052028.875
-10.92,1625052028.890625
-7.58,1625052028.90625
-4.23,1625052028.921875
-1.03,1625052028.9375
2.07,1625052028.953125
5.12,1625052028.96875
8.07,1625052028.984375
10.72,1625052029.0
12.82,1625052029.015625
14.19,1625052029.03125
14.81,1625052029.046875
14.81,1625052029.0625
14.41,1625052029.078125
13.85,1625052029.09375
13.29,1625052029.109375
12.85,1625052029.125
12.61,1625052029.140625
12.57,1625052029.15625
12.67,1625052029.171875
12.74,1625052029.1875
12.63,1625052029.203125
12.22,1625052029.21875
11.48,1625052029.234375
10.47,1625052029.25
9.3,1625052029.265625
8.09,1625052029.28125
6.9,1625052029.296875
5.74,1625052029.3125
4.62,1625052029.328125
3.5,1625052029.34375
2.36,1625052029.359375
1.16,1625052029.375
-0.16,1625052029.390625
-1.59,1625052029.40625
-3.07,1625052029.421875
-4.48,1625052029.4375
-5.68,1625052029.453125
-6.59,1625052029.46875
-7.28,1625052029.484375
-7.91,1625052029.5
-8.69,1625052029.515625
-9.78,1625052029.53125
-11.2,1625052029.546875
-12.88,1625052029.5625
-14.62,1625052029.578125
-16.14,1625052029.59375
-17.14,1625052029.609375
-17.36,1625052029.625
-16.59,1625052029.640625
-14.82,1625052029.65625
-12.18,1625052029.671875
-8.92,1625052029.6875
-5.35,1625052029.703125
-1.76,1625052029.71875
1.69,1625052029.734375
4.86,1625052029.75
7.7,1625052029.765625
10.14,1625052029.78125
12.1,1625052029.796875
13.51,1625052029.8125
14.36,1625052029.828125
14.69,1625052029.84375
14.58,1625052029.859375
14.18,1625052029.875
13.7,1625052029.890625
13.34,1625052029.90625
13.33,1625052029.921875
13.82,1625052029.9375
14.85,1625052029.953125
16.33,1625052029.96875
18.07,1625052029.984375
19.79,1625052030.0
21.25,1625052030.015625
22.31,1625052030.03125
23.01,1625052030.046875
23.55,1625052030.0625
24.26,1625052030.078125
25.42,1625052030.09375
27.19,1625052030.109375
29.45,1625052030.125
31.87,1625052030.140625
33.99,1625052030.15625
35.42,1625052030.171875
35.94,1625052030.1875
35.55,1625052030.203125
34.41,1625052030.21875
32.75,1625052030.234375
30.7,1625052030.25
28.31,1625052030.265625
25.46,1625052030.28125
21.96,1625052030.296875
17.52,1625052030.3125
11.9,1625052030.328125
4.9,1625052030.34375
-3.44,1625052030.359375
-12.79,1625052030.375
-22.48,1625052030.390625
-31.67,1625052030.40625
-39.51,1625052030.421875
-45.44,1625052030.4375
-49.34,1625052030.453125
-51.54,1625052030.46875
-52.59,1625052030.484375
-53.09,1625052030.5
-53.39,1625052030.515625
-53.62,1625052030.53125
-53.73,1625052030.546875
-53.64,1625052030.5625
-53.32,1625052030.578125
-52.81,1625052030.59375
-52.09,1625052030.609375
-51.06,1625052030.625
-49.48,1625052030.640625
-47.16,1625052030.65625
-44.05,1625052030.671875
-40.29,1625052030.6875
-36.23,1625052030.703125
-32.24,1625052030.71875
-28.66,1625052030.734375
-25.63,1625052030.75
-23.12,1625052030.765625
-20.94,1625052030.78125
-18.85,1625052030.796875
-16.63,1625052030.8125
-14.18,1625052030.828125
-11.54,1625052030.84375
-8.87,1625052030.859375
-6.34,1625052030.875
-4.12,1625052030.890625
-2.27,1625052030.90625
-0.74,1625052030.921875
0.53,1625052030.9375
1.61,1625052030.953125
2.5,1625052030.96875
3.17,1625052030.984375
3.59,1625052031.0
3.79,1625052031.015625
3.83,1625052031.03125
3.78,1625052031.046875
3.66,1625052031.0625
3.42,1625052031.078125
2.99,1625052031.09375
2.38,1625052031.109375
1.75,1625052031.125
1.31,1625052031.140625
1.33,1625052031.15625
1.99,1625052031.171875
3.32,1625052031.1875
5.21,1625052031.203125
7.47,1625052031.21875
9.88,1625052031.234375
12.23,1625052031.25
14.36,1625052031.265625
16.09,1625052031.28125
17.28,1625052031.296875
17.85,1625052031.3125
17.84,1625052031.328125
17.37,1625052031.34375
16.66,1625052031.359375
15.89,1625052031.375
15.16,1625052031.390625
14.5,1625052031.40625
13.89,1625052031.421875
13.29,1625052031.4375
12.71,1625052031.453125
12.15,1625052031.46875
11.61,1625052031.484375
11.01,1625052031.5
10.24,1625052031.515625
9.26,1625052031.53125
8.07,1625052031.546875
6.82,1625052031.5625
5.66,1625052031.578125
4.72,1625052031.59375
3.94,1625052031.609375
3.18,1625052031.625
2.21,1625052031.640625
0.9,1625052031.65625
-0.77,1625052031.671875
-2.7,1625052031.6875
-4.75,1625052031.703125
-6.77,1625052031.71875
-8.75,1625052031.734375
-10.72,1625052031.75
-12.69,1625052031.765625
-14.61,1625052031.78125
-16.36,1625052031.796875
-17.72,1625052031.8125
-18.48,1625052031.828125
-18.5,1625052031.84375
-17.7,1625052031.859375
-16.15,1625052031.875
-13.95,1625052031.890625
-11.27,1625052031.90625
-8.27,1625052031.921875
-5.17,1625052031.9375
-2.2,1625052031.953125
0.42,1625052031.96875
2.5,1625052031.984375
3.92,1625052032.0
4.69,1625052032.015625
4.93,1625052032.03125
4.86,1625052032.046875
4.65,1625052032.0625
4.42,1625052032.078125
4.19,1625052032.09375
3.92,1625052032.109375
3.64,1625052032.125
3.4,1625052032.140625
3.3,1625052032.15625
3.38,1625052032.171875
3.62,1625052032.1875
3.88,1625052032.203125
3.99,1625052032.21875
3.84,1625052032.234375
3.4,1625052032.25
2.75,1625052032.265625
1.98,1625052032.28125
1.15,1625052032.296875
0.27,1625052032.3125
-0.68,1625052032.328125
-1.69,1625052032.34375
-2.75,1625052032.359375
-3.81,1625052032.375
-4.87,1625052032.390625
-5.95,1625052032.40625
-7.12,1625052032.421875
-8.44,1625052032.4375
-9.91,1625052032.453125
-11.44,1625052032.46875
-12.79,1625052032.484375
-13.65,1625052032.5
-13.71,1625052032.515625
-12.76,1625052032.53125
-10.81,1625052032.546875
-8.1,1625052032.5625
-5.02,1625052032.578125
-2.02,1625052032.59375
0.59,1625052032.609375
2.71,1625052032.625
4.42,1625052032.640625
5.88,1625052032.65625
7.23,1625052032.671875
8.48,1625052032.6875
9.52,1625052032.703125
10.22,1625052032.71875
10.46,1625052032.734375
10.28,1625052032.75
9.81,1625052032.765625
9.18,1625052032.78125
8.52,1625052032.796875
7.89,1625052032.8125
7.33,1625052032.828125
6.87,1625052032.84375
6.59,1625052032.859375
6.59,1625052032.875
6.88,1625052032.890625
7.4,1625052032.90625
7.96,1625052032.921875
8.31,1625052032.9375
8.27,1625052032.953125
7.75,1625052032.96875
6.85,1625052032.984375
5.76,1625052033.0
4.67,1625052033.015625
3.7,1625052033.03125
2.9,1625052033.046875
2.2,1625052033.0625
1.5,1625052033.078125
0.73,1625052033.09375
-0.07,1625052033.109375
-0.83,1625052033.125
-1.31,1625052033.140625
-1.27,1625052033.15625
-0.46,1625052033.171875
1.35,1625052033.1875
4.25,1625052033.203125
8.24,1625052033.21875
13.2,1625052033.234375
18.88,1625052033.25
24.99,1625052033.265625
31.2,1625052033.28125
37.16,1625052033.296875
42.51,1625052033.3125
46.89,1625052033.328125
49.92,1625052033.34375
51.26,1625052033.359375
50.6,1625052033.375
47.74,1625052033.390625
42.56,1625052033.40625
35.12,1625052033.421875
25.72,1625052033.4375
14.95,1625052033.453125
3.69,1625052033.46875
-7.08,1625052033.484375
-16.52,1625052033.5
-24.16,1625052033.515625
-30.06,1625052033.53125
-34.65,1625052033.546875
-38.51,1625052033.5625
-42.05,1625052033.578125
-45.38,1625052033.59375
-48.32,1625052033.609375
-50.57,1625052033.625
-51.96,1625052033.640625
-52.48,1625052033.65625
-52.28,1625052033.671875
-51.53,1625052033.6875
-50.33,1625052033.703125
-48.65,1625052033.71875
-46.5,1625052033.734375
-43.94,1625052033.75
-41.18,1625052033.765625
-38.45,1625052033.78125
-35.96,1625052033.796875
-33.76,1625052033.8125
-31.7,1625052033.828125
-29.52,1625052033.84375
-26.99,1625052033.859375
-23.96,1625052033.875
-20.49,1625052033.890625
-16.77,1625052033.90625
-13.03,1625052033.921875
-9.4,1625052033.9375
-5.96,1625052033.953125
-2.66,1625052033.96875
0.55,1625052033.984375
3.65,1625052034.0
6.57,1625052034.015625
9.17,1625052034.03125
11.32,1625052034.046875
12.97,1625052034.0625
14.16,1625052034.078125
15.04,1625052034.09375
15.79,1625052034.109375
16.53,1625052034.125
17.31,1625052034.140625
18.06,1625052034.15625
18.69,1625052034.171875
19.14,1625052034.1875
19.45,1625052034.203125
19.75,1625052034.21875
20.15,1625052034.234375
20.64,1625052034.25
21.06,1625052034.265625
21.13,1625052034.28125
20.62,1625052034.296875
19.45,1625052034.3125
17.78,1625052034.328125
15.91,1625052034.34375
14.13,1625052034.359375
12.57,1625052034.375
11.15,1625052034.390625
9.67,1625052034.40625
8.0,1625052034.421875
6.08,1625052034.4375
4.0,1625052034.453125
1.89,1625052034.46875
-0.16,1625052034.484375
-2.15,1625052034.5
-4.08,1625052034.515625
-5.91,1625052034.53125
-7.46,1625052034.546875
-8.47,1625052034.5625
-8.73,1625052034.578125
-8.14,1625052034.59375
-6.79,1625052034.609375
-4.9,1625052034.625
-2.73,1625052034.640625
-0.5,1625052034.65625
1.68,1625052034.671875
3.73,1625052034.6875
5.58,1625052034.703125
7.11,1625052034.71875
8.24,1625052034.734375
8.87,1625052034.75
8.97,1625052034.765625
8.57,1625052034.78125
7.75,1625052034.796875
6.58,1625052034.8125
5.18,1625052034.828125
3.7,1625052034.84375
2.35,1625052034.859375
1.34,1625052034.875
0.81,1625052034.890625
0.8,1625052034.90625
1.16,1625052034.921875
1.64,1625052034.9375
1.95,1625052034.953125
1.85,1625052034.96875
1.26,1625052034.984375
0.27,1625052035.0
-0.94,1625052035.015625
-2.18,1625052035.03125
-3.28,1625052035.046875
-4.22,1625052035.0625
-5.03,1625052035.078125
-5.83,1625052035.09375
-6.72,1625052035.109375
-7.82,1625052035.125
-9.17,1625052035.140625
-10.74,1625052035.15625
-12.43,1625052035.171875
-14.04,1625052035.1875
-15.32,1625052035.203125
-15.99,1625052035.21875
-15.79,1625052035.234375
-14.63,1625052035.25
-12.61,1625052035.265625
-10.01,1625052035.28125
-7.15,1625052035.296875
-4.34,1625052035.3125
-1.71,1625052035.328125
0.73,1625052035.34375
3.05,1625052035.359375
5.26,1625052035.375
7.22,1625052035.390625
8.74,1625052035.40625
9.62,1625052035.421875
9.84,1625052035.4375
9.57,1625052035.453125
9.13,1625052035.46875
8.8,1625052035.484375
8.72,1625052035.5
8.85,1625052035.515625
9.04,1625052035.53125
9.14,1625052035.546875
9.07,1625052035.5625
8.85,1625052035.578125
8.54,1625052035.59375
8.19,1625052035.609375
7.78,1625052035.625
7.24,1625052035.640625
6.51,1625052035.65625
5.56,1625052035.671875
4.44,1625052035.6875
3.27,1625052035.703125
2.18,1625052035.71875
1.26,1625052035.734375
0.52,1625052035.75
-0.18,1625052035.765625
-1.01,1625052035.78125
-2.2,1625052035.796875
-3.82,1625052035.8125
-5.85,1625052035.828125
-8.11,1625052035.84375
-10.36,1625052035.859375
-12.32,1625052035.875
-13.75,1625052035.890625
-14.44,1625052035.90625
-14.26,1625052035.921875
-13.14,1625052035.9375
-11.14,1625052035.953125
-8.45,1625052035.96875
-5.37,1625052035.984375
-2.23,1625052036.0
0.71,1625052036.015625
3.31,1625052036.03125
5.55,1625052036.046875
7.52,1625052036.0625
9.24,1625052036.078125
10.69,1625052036.09375
11.77,1625052036.109375
12.38,1625052036.125
12.54,1625052036.140625
12.37,1625052036.15625
12.05,1625052036.171875
11.77,1625052036.1875
11.58,1625052036.203125
11.44,1625052036.21875
11.25,1625052036.234375
10.95,1625052036.25
10.58,1625052036.265625
10.23,1625052036.28125
9.93,1625052036.296875
9.68,1625052036.3125
9.36,1625052036.328125
8.82,1625052036.34375
7.96,1625052036.359375
6.8,1625052036.375
5.37,1625052036.390625
3.78,1625052036.40625
2.12,1625052036.421875
0.49,1625052036.4375
-1.03,1625052036.453125
-2.38,1625052036.46875
-3.52,1625052036.484375
-4.54,1625052036.5
-5.56,1625052036.515625
-6.75,1625052036.53125
-8.17,1625052036.546875
-9.81,1625052036.5625
-11.52,1625052036.578125
-13.13,1625052036.59375
-14.44,1625052036.609375
-15.27,1625052036.625
-15.4,1625052036.640625
-14.68,1625052036.65625
-13.01,1625052036.671875
-10.46,1625052036.6875
-7.27,1625052036.703125
-3.8,1625052036.71875
-0.43,1625052036.734375
2.57,1625052036.75
5.12,1625052036.765625
7.23,1625052036.78125
8.98,1625052036.796875
10.4,1625052036.8125
11.48,1625052036.828125
12.18,1625052036.84375
12.52,1625052036.859375
12.57,1625052036.875
12.44,1625052036.890625
12.23,1625052036.90625
11.99,1625052036.921875
11.75,1625052036.9375
11.5,1625052036.953125
11.26,1625052036.96875
11.05,1625052036.984375
10.86,1625052037.0
10.64,1625052037.015625
10.35,1625052037.03125
9.96,1625052037.046875
9.47,1625052037.0625
8.93,1625052037.078125
8.36,1625052037.09375
7.74,1625052037.109375
6.99,1625052037.125
6.04,1625052037.140625
4.83,1625052037.15625
3.43,1625052037.171875
1.93,1625052037.1875
0.44,1625052037.203125
-0.98,1625052037.21875
-2.31,1625052037.234375
-3.58,1625052037.25
-4.8,1625052037.265625
-6.02,1625052037.28125
-7.26,1625052037.296875
-8.59,1625052037.3125
-10.04,1625052037.328125
-11.61,1625052037.34375
-13.16,1625052037.359375
-14.42,1625052037.375
-15.04,1625052037.390625
-14.75,1625052037.40625
-13.43,1625052037.421875
-11.17,1625052037.4375
-8.21,1625052037.453125
-4.83,1625052037.46875
-1.27,1625052037.484375
2.28,1625052037.5
5.69,1625052037.515625
8.81,1625052037.53125
11.46,1625052037.546875
13.5,1625052037.5625
14.84,1625052037.578125
15.52,1625052037.59375
15.65,1625052037.609375
15.4,1625052037.625
14.87,1625052037.640625
14.16,1625052037.65625
13.32,1625052037.671875
12.42,1625052037.6875
11.55,1625052037.703125
10.8,1625052037.71875
10.16,1625052037.734375
9.58,1625052037.75
8.94,1625052037.765625
8.19,1625052037.78125
7.35,1625052037.796875
6.52,1625052037.8125
5.79,1625052037.828125
5.2,1625052037.84375
4.64,1625052037.859375
3.95,1625052037.875
2.99,1625052037.890625
1.72,1625052037.90625
0.31,1625052037.921875
-1.0,1625052037.9375
-2.02,1625052037.953125
-2.67,1625052037.96875
-3.13,1625052037.984375
-3.63,1625052038.0
-4.44,1625052038.015625
-5.66,1625052038.03125
-7.22,1625052038.046875
-8.94,1625052038.0625
-10.63,1625052038.078125
-12.11,1625052038.09375
-13.25,1625052038.109375
-13.88,1625052038.125
-13.79,1625052038.140625
-12.73,1625052038.15625
-10.49,1625052038.171875
-6.99,1625052038.1875
-2.43,1625052038.203125
2.83,1625052038.21875
8.29,1625052038.234375
13.49,1625052038.25
18.13,1625052038.265625
22.15,1625052038.28125
25.7,1625052038.296875
29.09,1625052038.3125
32.59,1625052038.328125
36.35,1625052038.34375
40.26,1625052038.359375
43.98,1625052038.375
47.04,1625052038.390625
48.82,1625052038.40625
48.71,1625052038.421875
46.08,1625052038.4375
40.45,1625052038.453125
31.71,1625052038.46875
20.28,1625052038.484375
7.18,1625052038.5
-6.1,1625052038.515625
-18.14,1625052038.53125
-27.95,1625052038.546875
-35.33,1625052038.5625
-40.8,1625052038.578125
-45.19,1625052038.59375
-49.19,1625052038.609375
-53.05,1625052038.625
-56.6,1625052038.640625
-59.5,1625052038.65625
-61.56,1625052038.671875
-62.77,1625052038.6875
-63.31,1625052038.703125
-63.27,1625052038.71875
-62.6,1625052038.734375
-61.15,1625052038.75
-58.86,1625052038.765625
-55.84,1625052038.78125
-52.44,1625052038.796875
-49.01,1625052038.8125
-45.8,1625052038.828125
-42.77,1625052038.84375
-39.63,1625052038.859375
-36.06,1625052038.875
-31.83,1625052038.890625
-26.94,1625052038.90625
-21.59,1625052038.921875
-15.99,1625052038.9375
-10.25,1625052038.953125
-4.36,1625052038.96875
1.78,1625052038.984375
8.21,1625052039.0
14.73,1625052039.015625
20.93,1625052039.03125
26.28,1625052039.046875
30.38,1625052039.0625
33.1,1625052039.078125
34.61,1625052039.09375
35.3,1625052039.109375
35.57,1625052039.125
35.7,1625052039.140625
35.83,1625052039.15625
35.94,1625052039.171875
36.01,1625052039.1875
35.99,1625052039.203125
35.84,1625052039.21875
35.51,1625052039.234375
34.89,1625052039.25
33.88,1625052039.265625
32.33,1625052039.28125
30.19,1625052039.296875
27.46,1625052039.3125
24.26,1625052039.328125
20.76,1625052039.34375
17.14,1625052039.359375
13.58,1625052039.375
10.13,1625052039.390625
6.82,1625052039.40625
3.59,1625052039.421875
0.4,1625052039.4375
-2.72,1625052039.453125
-5.7,1625052039.46875
-8.48,1625052039.484375
-11.02,1625052039.5
-13.4,1625052039.515625
-15.66,1625052039.53125
-17.76,1625052039.546875
-19.49,1625052039.5625
-20.53,1625052039.578125
-20.55,1625052039.59375
-19.39,1625052039.609375
-17.15,1625052039.625
-14.15,1625052039.640625
-10.84,1625052039.65625
-7.63,1625052039.671875
-4.74,1625052039.6875
-2.25,1625052039.703125
-0.09,1625052039.71875
1.75,1625052039.734375
3.26,1625052039.75
4.36,1625052039.765625
5.0,1625052039.78125
5.23,1625052039.796875
5.23,1625052039.8125
5.2,1625052039.828125
5.31,1625052039.84375
5.6,1625052039.859375
5.99,1625052039.875
6.3,1625052039.890625
6.42,1625052039.90625
6.29,1625052039.921875
5.99,1625052039.9375
5.6,1625052039.953125
5.2,1625052039.96875
4.76,1625052039.984375
4.21,1625052040.0
3.46,1625052040.015625
2.49,1625052040.03125
1.34,1625052040.046875
0.15,1625052040.0625
-0.96,1625052040.078125
-1.95,1625052040.09375
-2.82,1625052040.109375
-3.71,1625052040.125
-4.8,1625052040.140625
-6.26,1625052040.15625
-8.16,1625052040.171875
-10.43,1625052040.1875
-12.77,1625052040.203125
-14.74,1625052040.21875
-15.87,1625052040.234375
-15.86,1625052040.25
-14.68,1625052040.265625
-12.58,1625052040.28125
-9.96,1625052040.296875
-7.17,1625052040.3125
-4.47,1625052040.328125
-1.9,1625052040.34375
0.55,1625052040.359375
2.91,1625052040.375
5.1,1625052040.390625
7.01,1625052040.40625
8.48,1625052040.421875
9.41,1625052040.4375
9.75,1625052040.453125
9.5,1625052040.46875
8.73,1625052040.484375
7.52,1625052040.5
6.07,1625052040.515625
4.59,1625052040.53125
3.33,1625052040.546875
2.47,1625052040.5625
2.1,1625052040.578125
2.15,1625052040.59375
2.44,1625052040.609375
2.75,1625052040.625
2.82,1625052040.640625
2.48,1625052040.65625
1.69,1625052040.671875
0.51,1625052040.6875
-0.9,1625052040.703125
-2.33,1625052040.71875
-3.62,1625052040.734375
-4.69,1625052040.75
-5.6,1625052040.765625
-6.55,1625052040.78125
-7.76,1625052040.796875
-9.39,1625052040.8125
-11.47,1625052040.828125
-13.84,1625052040.84375
-16.2,1625052040.859375
-18.16,1625052040.875
-19.39,1625052040.890625
-19.69,1625052040.90625
-19.01,1625052040.921875
-17.44,1625052040.9375
-15.12,1625052040.953125
-12.23,1625052040.96875
-8.97,1625052040.984375
-5.56,1625052041.0
-2.25,1625052041.015625
0.75,1625052041.03125
3.28,1625052041.046875
5.29,1625052041.0625
6.84,1625052041.078125
8.05,1625052041.09375
9.02,1625052041.109375
9.76,1625052041.125
10.19,1625052041.140625
10.17,1625052041.15625
9.63,1625052041.171875
8.67,1625052041.1875
7.54,1625052041.203125
6.54,1625052041.21875
5.96,1625052041.234375
5.85,1625052041.25
6.09,1625052041.265625
6.35,1625052041.28125
6.28,1625052041.296875
5.67,1625052041.3125
4.52,1625052041.328125
3.03,1625052041.34375
1.46,1625052041.359375
-0.02,1625052041.375
-1.37,1625052041.390625
-2.67,1625052041.40625
-4.0,1625052041.421875
-5.39,1625052041.4375
-6.79,1625052041.453125
-8.13,1625052041.46875
-9.46,1625052041.484375
-10.92,1625052041.5
-12.65,1625052041.515625
-14.65,1625052041.53125
-16.69,1625052041.546875
-18.29,1625052041.5625
