PPG GREEN,time
2097152.0,1625051971.978
2330299.0,1625051972.059
2097152.0,1625051972.018
2330505.0,1625051972.099
2330599.0,1625051972.138
2330525.0,1625051972.179
2330697.0,1625051972.218
2330831.0,1625051972.259
2331118.0,1625051972.301
2331448.0,1625051972.339
2331649.0,1625051972.379
2331983.0,1625051972.42
2196570.0,1625051972.459
2196919.0,1625051972.5
2197581.0,1625051972.54
2198195.0,1625051972.579
2117078.0,1625051972.661
2118415.0,1625051972.701
2198741.0,1625051972.62
2119879.0,1625051972.74
2121336.0,1625051972.781
2122581.0,1625051972.82
2081667.0,1625051972.86
2082382.0,1625051972.902
2083530.0,1625051972.98
2082894.0,1625051972.94
2085515.0,1625051973.021
2087587.0,1625051973.06
2089362.0,1625051973.101
2091234.0,1625051973.141
2093070.0,1625051973.18
2095160.0,1625051973.221
2096987.0,1625051973.262
2098827.0,1625051973.302
2100685.0,1625051973.341
2102465.0,1625051973.382
2104495.0,1625051973.421
2106159.0,1625051973.461
2107614.0,1625051973.503
2107853.0,1625051973.541
2106101.0,1625051973.581
2104675.0,1625051973.622
2103070.0,1625051973.661
2101716.0,1625051973.702
2099786.0,1625051973.742
2098614.0,1625051973.781
2090190.0,1625051973.863
2083941.0,1625051973.903
2077826.0,1625051973.942
2071138.0,1625051973.983
2066538.0,1625051974.022
2064894.0,1625051974.062
2057164.0,1625051974.104
2037196.0,1625051974.182
2029419.0,1625051974.223
2020499.0,1625051974.262
2010617.0,1625051974.303
2000880.0,1625051974.343
1991668.0,1625051974.383
1983112.0,1625051974.423
1975031.0,1625051974.464
2095862.0,1625051973.821
2045300.0,1625051974.142
1967172.0,1625051974.504
1959175.0,1625051974.543
1951576.0,1625051974.584
1943775.0,1625051974.623
1936538.0,1625051974.664
1929580.0,1625051974.705
1923484.0,1625051974.743
1917394.0,1625051974.783
1910363.0,1625051974.824
1900809.0,1625051974.863
1890674.0,1625051974.905
1880705.0,1625051974.945
1871100.0,1625051974.984
1862653.0,1625051975.024
1855454.0,1625051975.065
1848405.0,1625051975.105
1841162.0,1625051975.144
1834024.0,1625051975.185
1827052.0,1625051975.224
1820611.0,1625051975.264
1814593.0,1625051975.306
1809209.0,1625051975.344
1804170.0,1625051975.385
1799170.0,1625051975.426
1792286.0,1625051975.465
1783681.0,1625051975.506
1774738.0,1625051975.546
1766280.0,1625051975.585
1758745.0,1625051975.625
1752426.0,1625051975.666
1746708.0,1625051975.706
1740632.0,1625051975.745
1734949.0,1625051975.786
1729126.0,1625051975.825
1724058.0,1625051975.866
1719450.0,1625051975.908
1714964.0,1625051975.946
1710792.0,1625051975.986
1707047.0,1625051976.027
1702891.0,1625051976.066
1696224.0,1625051976.107
1688890.0,1625051976.147
1681876.0,1625051976.186
1675794.0,1625051976.226
1670883.0,1625051976.267
1666639.0,1625051976.307
1662225.0,1625051976.346
1657999.0,1625051976.388
1653812.0,1625051976.427
1650037.0,1625051976.467
1646414.0,1625051976.509
1643099.0,1625051976.547
1640185.0,1625051976.587
1637682.0,1625051976.628
1634757.0,1625051976.667
1630323.0,1625051976.708
1624708.0,1625051976.748
1618869.0,1625051976.787
1613903.0,1625051976.828
1609527.0,1625051976.869
1606555.0,1625051976.909
1603380.0,1625051976.948
1600037.0,1625051976.989
1596807.0,1625051977.028
1594015.0,1625051977.068
1591250.0,1625051977.11
1588743.0,1625051977.148
1586640.0,1625051977.188
1584539.0,1625051977.229
1582590.0,1625051977.268
1579868.0,1625051977.309
1575177.0,1625051977.35
1570066.0,1625051977.389
1565331.0,1625051977.429
1561245.0,1625051977.47
1558302.0,1625051977.51
1555934.0,1625051977.549
1553432.0,1625051977.59
1550907.0,1625051977.629
1548438.0,1625051977.669
1546014.0,1625051977.711
1544078.0,1625051977.749
1542458.0,1625051977.789
1541041.0,1625051977.831
1539565.0,1625051977.87
1538290.0,1625051977.911
1535741.0,1625051977.951
1531829.0,1625051977.99
1527126.0,1625051978.03
1523701.0,1625051978.071
1520716.0,1625051978.111
1518757.0,1625051978.15
1517025.0,1625051978.192
1515222.0,1625051978.231
1513319.0,1625051978.271
1511551.0,1625051978.313
1509923.0,1625051978.351
1508783.0,1625051978.391
1507568.0,1625051978.432
1506879.0,1625051978.471
1506214.0,1625051978.512
1505615.0,1625051978.552
1505146.0,1625051978.591
1503867.0,1625051978.632
1500970.0,1625051978.673
1498014.0,1625051978.713
1495720.0,1625051978.752
1493852.0,1625051978.793
1492636.0,1625051978.832
1491888.0,1625051978.872
1491132.0,1625051978.914
1490207.0,1625051978.952
1489520.0,1625051978.992
1488877.0,1625051979.034
1488937.0,1625051979.073
1489050.0,1625051979.114
1489024.0,1625051979.154
1489529.0,1625051979.193
1489770.0,1625051979.233
1490583.0,1625051979.274
1491216.0,1625051979.314
1491655.0,1625051979.353
1490496.0,1625051979.394
1488924.0,1625051979.434
1487617.0,1625051979.474
1486623.0,1625051979.516
1486243.0,1625051979.554
1486775.0,1625051979.594
1486947.0,1625051979.635
1487284.0,1625051979.674
1487642.0,1625051979.715
1488459.0,1625051979.755
1489491.0,1625051979.794
1490879.0,1625051979.835
1492304.0,1625051979.876
1493828.0,1625051979.916
1495349.0,1625051979.955
1496930.0,1625051979.996
1498777.0,1625051980.035
1500401.0,1625051980.075
1500839.0,1625051980.117
1500593.0,1625051980.155
1500333.0,1625051980.195
1500520.0,1625051980.237
1501157.0,1625051980.276
1502457.0,1625051980.317
1503930.0,1625051980.357
1504902.0,1625051980.396
1505785.0,1625051980.436
1506958.0,1625051980.477
1508268.0,1625051980.517
1510141.0,1625051980.556
1511035.0,1625051980.598
1512400.0,1625051980.637
1513830.0,1625051980.677
1515184.0,1625051980.719
1517143.0,1625051980.757
1518410.0,1625051980.797
1518116.0,1625051980.877
1518558.0,1625051980.838
1517341.0,1625051980.918
1516502.0,1625051980.959
1516480.0,1625051980.998
1516239.0,1625051981.038
1515716.0,1625051981.079
1516306.0,1625051981.119
1517277.0,1625051981.158
1518243.0,1625051981.199
1518892.0,1625051981.238
1519235.0,1625051981.279
1519580.0,1625051981.321
1519729.0,1625051981.359
1519959.0,1625051981.399
1520079.0,1625051981.44
1519373.0,1625051981.479
1517862.0,1625051981.52
1515741.0,1625051981.599
1515505.0,1625051981.64
1516535.0,1625051981.56
1516158.0,1625051981.681
1516978.0,1625051981.721
1517772.0,1625051981.76
1522599.0,1625051981.84
1519118.0,1625051981.801
1528074.0,1625051981.922
1527258.0,1625051981.88
1518944.0,1625051981.961
1515769.0,1625051982.001
1517017.0,1625051982.042
1523639.0,1625051982.081
1534434.0,1625051982.122
1545491.0,1625051982.162
1561529.0,1625051982.241
1553808.0,1625051982.201
1575028.0,1625051982.323
1569270.0,1625051982.283
1577268.0,1625051982.362
1576801.0,1625051982.403
1572190.0,1625051982.442
1564231.0,1625051982.482
1556990.0,1625051982.524
1553115.0,1625051982.562
1555527.0,1625051982.603
1554004.0,1625051982.644
1550183.0,1625051982.683
1553790.0,1625051982.724
1559806.0,1625051982.764
1561775.0,1625051982.803
1560737.0,1625051982.843
1561807.0,1625051982.884
1563949.0,1625051982.924
1564984.0,1625051982.964
1566361.0,1625051983.005
1567839.0,1625051983.044
1569025.0,1625051983.084
1570306.0,1625051983.126
1571090.0,1625051983.164
1574063.0,1625051983.204
1577257.0,1625051983.245
1580137.0,1625051983.284
1582698.0,1625051983.365
1582516.0,1625051983.325
1582768.0,1625051983.404
1582157.0,1625051983.444
1581147.0,1625051983.486
1581215.0,1625051983.525
1586003.0,1625051983.565
1594820.0,1625051983.606
1602205.0,1625051983.645
1629207.0,1625051983.727
1612997.0,1625051983.685
1650631.0,1625051983.805
1650411.0,1625051983.846
1641770.0,1625051983.765
1640468.0,1625051983.926
1638452.0,1625051984.001
1645707.0,1625051983.885
1638469.0,1625051983.966
1636876.0,1625051984.042
1642307.0,1625051984.083
1646761.0,1625051984.122
1646399.0,1625051984.162
1648561.0,1625051984.203
1655399.0,1625051984.242
1661141.0,1625051984.282
1662760.0,1625051984.324
1664197.0,1625051984.362
1664818.0,1625051984.402
1663412.0,1625051984.443
1665442.0,1625051984.482
1668984.0,1625051984.523
1672548.0,1625051984.564
1675298.0,1625051984.603
1675505.0,1625051984.643
1675725.0,1625051984.684
1678127.0,1625051984.724
1681012.0,1625051984.764
1682498.0,1625051984.803
1684728.0,1625051984.842
1687506.0,1625051984.883
1689594.0,1625051984.924
1691561.0,1625051984.963
1693188.0,1625051985.003
1695001.0,1625051985.044
1696097.0,1625051985.084
1697393.0,1625051985.124
1698644.0,1625051985.165
1699985.0,1625051985.204
1701519.0,1625051985.242
1702786.0,1625051985.283
1702184.0,1625051985.323
1700747.0,1625051985.363
1698611.0,1625051985.404
1697051.0,1625051985.443
1696082.0,1625051985.484
1695924.0,1625051985.526
1695977.0,1625051985.564
1695608.0,1625051985.604
1694904.0,1625051985.643
1694730.0,1625051985.684
1694531.0,1625051985.724
1694897.0,1625051985.764
1695650.0,1625051985.803
1696631.0,1625051985.844
1697634.0,1625051985.885
1698310.0,1625051985.925
1696784.0,1625051985.964
1695527.0,1625051986.006
1693743.0,1625051986.043
1693285.0,1625051986.083
1693342.0,1625051986.125
1693630.0,1625051986.163
1694139.0,1625051986.203
1694291.0,1625051986.245
1694496.0,1625051986.284
1695142.0,1625051986.325
1695929.0,1625051986.365
1696451.0,1625051986.405
1697710.0,1625051986.443
1699059.0,1625051986.484
1700292.0,1625051986.524
1700838.0,1625051986.563
1699542.0,1625051986.605
1698204.0,1625051986.644
1697015.0,1625051986.684
1696656.0,1625051986.726
1697969.0,1625051986.764
1699814.0,1625051986.803
1701256.0,1625051986.844
1702087.0,1625051986.883
1703324.0,1625051986.924
1704189.0,1625051986.964
1705144.0,1625051987.003
1706719.0,1625051987.043
1708910.0,1625051987.085
1713560.0,1625051987.124
1721468.0,1625051987.164
1730731.0,1625051987.205
1741903.0,1625051987.244
1757139.0,1625051987.327
1751304.0,1625051987.285
1767226.0,1625051987.403
1761982.0,1625051987.365
1771759.0,1625051987.444
1773646.0,1625051987.483
1774854.0,1625051987.524
1773545.0,1625051987.565
1772990.0,1625051987.604
1771463.0,1625051987.644
1767216.0,1625051987.686
1764063.0,1625051987.726
1760593.0,1625051987.765
1758052.0,1625051987.804
1758554.0,1625051987.884
1757501.0,1625051987.843
1758902.0,1625051987.926
1758504.0,1625051987.964
1757540.0,1625051988.004
1756748.0,1625051988.046
1756768.0,1625051988.085
1756915.0,1625051988.126
1755628.0,1625051988.166
1749159.0,1625051988.203
1742989.0,1625051988.244
1738374.0,1625051988.285
1735146.0,1625051988.325
1733557.0,1625051988.364
1732763.0,1625051988.405
1733213.0,1625051988.445
1733952.0,1625051988.485
1734623.0,1625051988.527
1734174.0,1625051988.565
1731615.0,1625051988.605
1728879.0,1625051988.646
1726241.0,1625051988.685
1723773.0,1625051988.726
1722045.0,1625051988.766
1720483.0,1625051988.806
1718993.0,1625051988.846
1717275.0,1625051988.887
1715972.0,1625051988.926
1714620.0,1625051988.966
1713277.0,1625051989.007
1711827.0,1625051989.046
1710698.0,1625051989.086
1709684.0,1625051989.128
1708687.0,1625051989.166
1706890.0,1625051989.206
1703496.0,1625051989.245
1699706.0,1625051989.284
1696358.0,1625051989.325
1693419.0,1625051989.365
1691326.0,1625051989.405
1689577.0,1625051989.445
1687488.0,1625051989.484
1685240.0,1625051989.524
1683179.0,1625051989.563
1681037.0,1625051989.604
1679267.0,1625051989.643
1677565.0,1625051989.684
1675664.0,1625051989.726
1674285.0,1625051989.764
1672745.0,1625051989.804
1670138.0,1625051989.846
1666359.0,1625051989.885
1663255.0,1625051989.926
1662081.0,1625051989.966
1662472.0,1625051990.005
1660603.0,1625051990.046
1660407.0,1625051990.087
1661338.0,1625051990.127
1661988.0,1625051990.164
1662725.0,1625051990.205
1662180.0,1625051990.245
1662094.0,1625051990.285
1663643.0,1625051990.327
1663918.0,1625051990.365
1663322.0,1625051990.406
1661705.0,1625051990.447
1658918.0,1625051990.486
1654540.0,1625051990.527
1649540.0,1625051990.565
1644693.0,1625051990.605
1641070.0,1625051990.645
1637869.0,1625051990.686
1635486.0,1625051990.726
1632986.0,1625051990.765
1630248.0,1625051990.807
1627735.0,1625051990.846
1622990.0,1625051990.928
1625396.0,1625051990.886
1620506.0,1625051990.964
1618332.0,1625051991.005
1616172.0,1625051991.046
1614356.0,1625051991.085
1611742.0,1625051991.126
1607952.0,1625051991.167
1603115.0,1625051991.206
1598725.0,1625051991.246
1595223.0,1625051991.287
1592003.0,1625051991.327
1589586.0,1625051991.365
1587245.0,1625051991.406
1584500.0,1625051991.445
1581712.0,1625051991.485
1579341.0,1625051991.527
1576962.0,1625051991.566
1574824.0,1625051991.606
1572506.0,1625051991.647
1571073.0,1625051991.686
1569280.0,1625051991.727
1567162.0,1625051991.766
1563663.0,1625051991.805
1559419.0,1625051991.845
1555485.0,1625051991.887
1551890.0,1625051991.927
1548630.0,1625051991.966
1546363.0,1625051992.007
1544185.0,1625051992.05
1541708.0,1625051992.09
1539249.0,1625051992.133
1536829.0,1625051992.168
1534856.0,1625051992.205
1532912.0,1625051992.246
1531414.0,1625051992.285
1529792.0,1625051992.326
1528226.0,1625051992.367
1526213.0,1625051992.406
1524446.0,1625051992.446
1520992.0,1625051992.488
1516444.0,1625051992.527
1512375.0,1625051992.567
1509308.0,1625051992.606
1506700.0,1625051992.645
1504881.0,1625051992.686
1502924.0,1625051992.728
1500840.0,1625051992.766
1498428.0,1625051992.806
1496317.0,1625051992.848
1494595.0,1625051992.887
1493274.0,1625051992.928
1492326.0,1625051992.966
1491636.0,1625051993.006
1491204.0,1625051993.046
1490840.0,1625051993.087
1490488.0,1625051993.127
1489616.0,1625051993.166
1487219.0,1625051993.208
1484524.0,1625051993.247
1481795.0,1625051993.287
1479430.0,1625051993.329
1478370.0,1625051993.365
1477602.0,1625051993.406
1477042.0,1625051993.447
1476878.0,1625051993.486
1477679.0,1625051993.527
1478167.0,1625051993.568
1478223.0,1625051993.607
1478589.0,1625051993.647
1479071.0,1625051993.688
1478612.0,1625051993.728
1478067.0,1625051993.766
1477597.0,1625051993.807
1477483.0,1625051993.846
1476266.0,1625051993.887
1474582.0,1625051993.928
1472432.0,1625051993.967
1470655.0,1625051994.007
1468919.0,1625051994.048
1467475.0,1625051994.088
1466208.0,1625051994.126
1465079.0,1625051994.167
1464539.0,1625051994.206
1466450.0,1625051994.246
1470923.0,1625051994.288
1477435.0,1625051994.328
1489889.0,1625051994.367
1505234.0,1625051994.408
1519062.0,1625051994.447
1534384.0,1625051994.488
1549871.0,1625051994.528
1563704.0,1625051994.566
1576900.0,1625051994.606
1589586.0,1625051994.647
1603835.0,1625051994.727
1608700.0,1625051994.768
1598420.0,1625051994.686
1613017.0,1625051994.807
1615313.0,1625051994.847
1619961.0,1625051994.928
1625707.0,1625051995.009
1629344.0,1625051995.048
1622418.0,1625051994.968
1618000.0,1625051994.888
1633541.0,1625051995.128
1631012.0,1625051995.086
1637356.0,1625051995.207
1635130.0,1625051995.167
1640351.0,1625051995.248
1644274.0,1625051995.287
1647628.0,1625051995.328
1650187.0,1625051995.369
1651600.0,1625051995.408
1654101.0,1625051995.448
1656788.0,1625051995.489
1660014.0,1625051995.529
1661753.0,1625051995.568
1664353.0,1625051995.609
1666800.0,1625051995.648
1668555.0,1625051995.689
1670725.0,1625051995.73
1672782.0,1625051995.769
1675039.0,1625051995.809
1676685.0,1625051995.85
1678490.0,1625051995.889
1681359.0,1625051995.93
1684956.0,1625051995.97
1687530.0,1625051996.06
1689356.0,1625051996.1
1691570.0,1625051996.141
1694082.0,1625051996.181
1695348.0,1625051996.22
1697045.0,1625051996.261
1699919.0,1625051996.3
1702801.0,1625051996.34
1704848.0,1625051996.382
1706258.0,1625051996.421
1708176.0,1625051996.461
1710019.0,1625051996.502
1711900.0,1625051996.541
1713634.0,1625051996.582
1715480.0,1625051996.622
1716932.0,1625051996.661
1718538.0,1625051996.701
1719829.0,1625051996.742
1720979.0,1625051996.782
1722264.0,1625051996.821
1721897.0,1625051996.863
1721584.0,1625051996.902
1720605.0,1625051996.942
1719740.0,1625051996.984
1719042.0,1625051997.022
1717446.0,1625051997.062
1716812.0,1625051997.103
1720073.0,1625051997.142
1722722.0,1625051997.183
1725111.0,1625051997.223
1729021.0,1625051997.262
1733681.0,1625051997.302
1736976.0,1625051997.344
1739333.0,1625051997.383
1741254.0,1625051997.423
1741442.0,1625051997.464
1740779.0,1625051997.503
1738111.0,1625051997.543
1734575.0,1625051997.585
1731225.0,1625051997.623
1727668.0,1625051997.663
1724884.0,1625051997.704
1722463.0,1625051997.743
1719999.0,1625051997.784
1716886.0,1625051997.824
1713601.0,1625051997.864
1711142.0,1625051997.904
1708740.0,1625051997.945
1705874.0,1625051997.984
1703514.0,1625051998.024
1701440.0,1625051998.065
1699355.0,1625051998.104
1697340.0,1625051998.144
1694926.0,1625051998.186
1691796.0,1625051998.224
1687172.0,1625051998.264
1682307.0,1625051998.305
1677603.0,1625051998.345
1673734.0,1625051998.385
1670178.0,1625051998.426
1667311.0,1625051998.465
1664388.0,1625051998.505
1661008.0,1625051998.546
1658042.0,1625051998.586
1655179.0,1625051998.625
1652546.0,1625051998.666
1649830.0,1625051998.705
1647970.0,1625051998.745
1645642.0,1625051998.787
1643011.0,1625051998.825
1640636.0,1625051998.866
1638625.0,1625051998.907
1636327.0,1625051998.946
1632121.0,1625051998.986
1627547.0,1625051999.027
1622816.0,1625051999.066
1618706.0,1625051999.106
1615125.0,1625051999.147
1612161.0,1625051999.187
1609065.0,1625051999.226
1606048.0,1625051999.267
1602865.0,1625051999.306
1599654.0,1625051999.346
1596998.0,1625051999.388
1594245.0,1625051999.427
1591462.0,1625051999.467
1588995.0,1625051999.508
1586801.0,1625051999.547
1584085.0,1625051999.588
1581808.0,1625051999.628
1579482.0,1625051999.667
1575946.0,1625051999.707
1571751.0,1625051999.748
1567501.0,1625051999.788
1563782.0,1625051999.827
1560832.0,1625051999.869
1558046.0,1625051999.908
1555257.0,1625051999.948
1552863.0,1625051999.99
1550234.0,1625052000.028
1547387.0,1625052000.068
1545122.0,1625052000.109
1543061.0,1625052000.148
1540959.0,1625052000.189
1539028.0,1625052000.229
1536950.0,1625052000.268
1535109.0,1625052000.308
1533299.0,1625052000.35
1530784.0,1625052000.389
1527705.0,1625052000.429
1524188.0,1625052000.461
1520823.0,1625052000.5
1517790.0,1625052000.54
1515442.0,1625052000.582
1513253.0,1625052000.621
1511288.0,1625052000.661
1509213.0,1625052000.702
1507172.0,1625052000.741
1505329.0,1625052000.78
1503649.0,1625052000.82
1502285.0,1625052000.86
1501267.0,1625052000.9
1500465.0,1625052000.941
1499651.0,1625052000.98
1499652.0,1625052001.02
1499107.0,1625052001.061
1497353.0,1625052001.1
1495327.0,1625052001.14
1493493.0,1625052001.182
1491881.0,1625052001.22
1490498.0,1625052001.26
1489797.0,1625052001.301
1489596.0,1625052001.34
1489284.0,1625052001.381
1488748.0,1625052001.422
1488804.0,1625052001.461
1489522.0,1625052001.501
1490746.0,1625052001.542
1491872.0,1625052001.582
1493187.0,1625052001.621
1494943.0,1625052001.662
1496614.0,1625052001.701
1498340.0,1625052001.741
1499751.0,1625052001.783
1499917.0,1625052001.821
1498303.0,1625052001.861
1494966.0,1625052001.902
1491980.0,1625052001.941
1490176.0,1625052001.982
1488364.0,1625052002.023
1486364.0,1625052002.062
1484595.0,1625052002.102
1482624.0,1625052002.143
1481276.0,1625052002.183
1479805.0,1625052002.222
1478344.0,1625052002.263
1477321.0,1625052002.302
1476280.0,1625052002.342
1475457.0,1625052002.384
1474452.0,1625052002.422
1472972.0,1625052002.462
1470896.0,1625052002.503
1469006.0,1625052002.543
1466988.0,1625052002.583
1465734.0,1625052002.624
1465187.0,1625052002.663
1464798.0,1625052002.703
1464095.0,1625052002.744
1463347.0,1625052002.784
1462559.0,1625052002.823
1461836.0,1625052002.864
1461419.0,1625052002.903
1460787.0,1625052002.943
1460366.0,1625052002.985
1460291.0,1625052003.023
1459921.0,1625052003.063
1459191.0,1625052003.105
1457474.0,1625052003.144
1455378.0,1625052003.184
1453302.0,1625052003.225
1451723.0,1625052003.264
1450643.0,1625052003.304
1449857.0,1625052003.345
1449281.0,1625052003.385
1448973.0,1625052003.424
1448185.0,1625052003.465
1447741.0,1625052003.504
1447302.0,1625052003.544
1447028.0,1625052003.586
1447041.0,1625052003.625
1447112.0,1625052003.665
1447323.0,1625052003.706
1447543.0,1625052003.745
1446886.0,1625052003.786
1445643.0,1625052003.826
1443966.0,1625052003.865
1442489.0,1625052003.905
1440794.0,1625052003.946
1440114.0,1625052003.986
1439596.0,1625052004.025
1439304.0,1625052004.067
1438650.0,1625052004.106
1438424.0,1625052004.146
1438417.0,1625052004.187
1438344.0,1625052004.226
1438526.0,1625052004.266
1439073.0,1625052004.307
1439489.0,1625052004.346
1440104.0,1625052004.387
1440884.0,1625052004.427
1441276.0,1625052004.466
1441337.0,1625052004.506
1440446.0,1625052004.548
1438890.0,1625052004.587
1437470.0,1625052004.627
1436349.0,1625052004.668
1435894.0,1625052004.707
1435773.0,1625052004.789
1435725.0,1625052004.747
1435894.0,1625052004.827
1435891.0,1625052004.867
1435900.0,1625052004.908
1436266.0,1625052004.947
1436775.0,1625052004.988
1437279.0,1625052005.029
1438173.0,1625052005.068
1439010.0,1625052005.108
1439747.0,1625052005.149
1440923.0,1625052005.189
1441771.0,1625052005.228
1442594.0,1625052005.269
1442727.0,1625052005.308
1442788.0,1625052005.348
1442852.0,1625052005.39
1443500.0,1625052005.428
1444641.0,1625052005.468
1446330.0,1625052005.51
1448920.0,1625052005.549
1450773.0,1625052005.589
1452154.0,1625052005.63
1453922.0,1625052005.669
1455375.0,1625052005.709
1458487.0,1625052005.79
1460287.0,1625052005.829
1456814.0,1625052005.75
1462397.0,1625052005.87
1464649.0,1625052005.91
1466724.0,1625052005.95
1468573.0,1625052005.991
1470300.0,1625052006.03
1471734.0,1625052006.103
1471381.0,1625052006.064
1472050.0,1625052006.142
1472233.0,1625052006.183
1472904.0,1625052006.224
1473961.0,1625052006.263
1475982.0,1625052006.344
1474970.0,1625052006.303
1476660.0,1625052006.384
1477220.0,1625052006.424
1478677.0,1625052006.502
1477702.0,1625052006.463
1480696.0,1625052006.584
1482767.0,1625052006.663
1484032.0,1625052006.704
1485083.0,1625052006.744
1481693.0,1625052006.623
1485876.0,1625052006.785
1485993.0,1625052006.823
1485889.0,1625052006.862
1479571.0,1625052006.542
1485454.0,1625052006.903
1484965.0,1625052006.984
1485340.0,1625052007.023
1485015.0,1625052006.944
1485777.0,1625052007.065
1486101.0,1625052007.104
1488664.0,1625052007.263
1486317.0,1625052007.142
1488971.0,1625052007.304
1489716.0,1625052007.343
1486970.0,1625052007.184
1490244.0,1625052007.384
1487749.0,1625052007.223
1492147.0,1625052007.462
1492322.0,1625052007.502
1491917.0,1625052007.543
1491116.0,1625052007.425
1491039.0,1625052007.582
1490297.0,1625052007.622
1489774.0,1625052007.663
1489716.0,1625052007.703
1489883.0,1625052007.743
1490144.0,1625052007.785
1489818.0,1625052007.823
1489667.0,1625052007.864
1489784.0,1625052007.905
1491636.0,1625052007.983
1490691.0,1625052007.944
1493188.0,1625052008.024
1494988.0,1625052008.066
1496649.0,1625052008.106
1498535.0,1625052008.147
1500464.0,1625052008.187
1501334.0,1625052008.226
1501484.0,1625052008.267
1502771.0,1625052008.306
1502306.0,1625052008.347
1501032.0,1625052008.388
1499404.0,1625052008.427
1497862.0,1625052008.467
1496644.0,1625052008.508
1495286.0,1625052008.548
1493965.0,1625052008.589
1490066.0,1625052008.709
1492380.0,1625052008.63
1489011.0,1625052008.75
1488321.0,1625052008.79
1488402.0,1625052008.83
1491235.0,1625052008.669
1489758.0,1625052008.871
1490751.0,1625052008.91
1492680.0,1625052008.992
1491463.0,1625052008.95
1493010.0,1625052009.029
1493081.0,1625052009.069
1489538.0,1625052009.15
1486823.0,1625052009.19
1482804.0,1625052009.27
1485093.0,1625052009.231
1491716.0,1625052009.11
1479297.0,1625052009.352
1480961.0,1625052009.311
1477678.0,1625052009.39
1476046.0,1625052009.429
1474788.0,1625052009.471
1473445.0,1625052009.51
1472057.0,1625052009.55
1470605.0,1625052009.592
1469154.0,1625052009.631
1467583.0,1625052009.671
1464942.0,1625052009.71
1461963.0,1625052009.749
1459022.0,1625052009.79
1456634.0,1625052009.831
1454728.0,1625052009.87
1453065.0,1625052009.91
1451591.0,1625052009.952
1450494.0,1625052009.992
1449689.0,1625052010.031
1449167.0,1625052010.072
1448432.0,1625052010.111
1448476.0,1625052010.149
1448214.0,1625052010.191
1448440.0,1625052010.23
1448622.0,1625052010.27
1448791.0,1625052010.311
1448902.0,1625052010.35
1448629.0,1625052010.391
1447190.0,1625052010.432
1445182.0,1625052010.471
1443737.0,1625052010.509
1442696.0,1625052010.551
1441763.0,1625052010.591
1441507.0,1625052010.63
1441551.0,1625052010.671
1441117.0,1625052010.711
1441229.0,1625052010.751
1441549.0,1625052010.793
1442407.0,1625052010.832
1444296.0,1625052010.87
1446006.0,1625052010.911
1447257.0,1625052010.95
1449492.0,1625052010.991
1451147.0,1625052011.032
1452511.0,1625052011.071
1452683.0,1625052011.111
1452581.0,1625052011.152
1452759.0,1625052011.192
1453431.0,1625052011.23
1454771.0,1625052011.271
1456831.0,1625052011.31
1459189.0,1625052011.35
1462137.0,1625052011.392
1465228.0,1625052011.431
1467951.0,1625052011.471
1470516.0,1625052011.513
1472954.0,1625052011.552
1475823.0,1625052011.591
1480432.0,1625052011.631
1483378.0,1625052011.67
1484447.0,1625052011.711
1483325.0,1625052011.752
1480540.0,1625052011.792
1478067.0,1625052011.832
1476278.0,1625052011.873
1474288.0,1625052011.91
1472448.0,1625052011.95
1471020.0,1625052011.992
1469875.0,1625052012.031
1468746.0,1625052012.071
1466079.0,1625052012.151
1467669.0,1625052012.112
1464996.0,1625052012.192
1464086.0,1625052012.233
1463161.0,1625052012.27
1462415.0,1625052012.31
1461807.0,1625052012.352
1461366.0,1625052012.391
1461111.0,1625052012.431
1461088.0,1625052012.472
1459922.0,1625052012.512
1459343.0,1625052012.552
1459274.0,1625052012.591
1459109.0,1625052012.63
1459784.0,1625052012.67
1461052.0,1625052012.712
1463060.0,1625052012.75
1464544.0,1625052012.791
1466138.0,1625052012.832
1467998.0,1625052012.871
1470068.0,1625052012.911
1472072.0,1625052012.953
1474739.0,1625052012.992
1478026.0,1625052013.032
1480645.0,1625052013.073
1482549.0,1625052013.11
1483068.0,1625052013.151
1483035.0,1625052013.193
1482705.0,1625052013.231
1481462.0,1625052013.271
1481041.0,1625052013.313
1481249.0,1625052013.352
1482057.0,1625052013.393
1482779.0,1625052013.434
1483449.0,1625052013.47
1483837.0,1625052013.511
1484812.0,1625052013.552
1486269.0,1625052013.592
1487088.0,1625052013.632
1486569.0,1625052013.673
1485952.0,1625052013.712
1484631.0,1625052013.752
1483144.0,1625052013.794
1480390.0,1625052013.831
1477687.0,1625052013.871
1475299.0,1625052013.912
1473597.0,1625052013.952
1472342.0,1625052013.993
1472190.0,1625052014.033
1472110.0,1625052014.072
1472302.0,1625052014.113
1472922.0,1625052014.152
1473179.0,1625052014.192
1473312.0,1625052014.232
1473479.0,1625052014.273
1473956.0,1625052014.312
1475115.0,1625052014.352
1476877.0,1625052014.394
1478408.0,1625052014.433
1478761.0,1625052014.473
1476247.0,1625052014.512
1473119.0,1625052014.551
1470463.0,1625052014.592
1467890.0,1625052014.633
1466931.0,1625052014.672
1466628.0,1625052014.712
1466791.0,1625052014.753
1467174.0,1625052014.793
1467968.0,1625052014.833
1468196.0,1625052014.872
1468810.0,1625052014.911
1469964.0,1625052014.952
1470892.0,1625052014.994
1471834.0,1625052015.032
1472705.0,1625052015.072
1473257.0,1625052015.114
1472968.0,1625052015.15
1471898.0,1625052015.191
1470341.0,1625052015.233
1468457.0,1625052015.272
1467406.0,1625052015.311
1467255.0,1625052015.352
1467738.0,1625052015.392
1467919.0,1625052015.432
1468105.0,1625052015.473
1468392.0,1625052015.512
1468647.0,1625052015.553
1469500.0,1625052015.595
1470246.0,1625052015.633
1471236.0,1625052015.671
1472514.0,1625052015.713
1473712.0,1625052015.752
1474711.0,1625052015.793
1475699.0,1625052015.834
1475399.0,1625052015.873
1474635.0,1625052015.913
1473494.0,1625052015.954
1472972.0,1625052015.992
1472856.0,1625052016.032
1473128.0,1625052016.073
1473592.0,1625052016.112
1473765.0,1625052016.152
1474354.0,1625052016.194
1474756.0,1625052016.233
1475367.0,1625052016.273
1476035.0,1625052016.315
1476773.0,1625052016.352
1477552.0,1625052016.393
1478440.0,1625052016.433
1479409.0,1625052016.472
1479702.0,1625052016.513
1478965.0,1625052016.554
1477743.0,1625052016.594
1476449.0,1625052016.634
1475851.0,1625052016.675
1475379.0,1625052016.712
1475408.0,1625052016.752
1475237.0,1625052016.794
1474467.0,1625052016.873
1474923.0,1625052016.833
1474101.0,1625052016.914
1473949.0,1625052016.953
1473921.0,1625052016.994
1474215.0,1625052017.033
1474884.0,1625052017.112
1474519.0,1625052017.072
1475300.0,1625052017.154
1475444.0,1625052017.194
1474365.0,1625052017.233
1470778.0,1625052017.314
1472810.0,1625052017.274
1469026.0,1625052017.354
1467749.0,1625052017.394
1467274.0,1625052017.432
1467493.0,1625052017.472
1467359.0,1625052017.514
1467368.0,1625052017.553
1467205.0,1625052017.594
1467297.0,1625052017.635
1467635.0,1625052017.674
1468132.0,1625052017.711
1468577.0,1625052017.752
1469326.0,1625052017.792
1470107.0,1625052017.832
1470831.0,1625052017.874
1470374.0,1625052017.912
1468950.0,1625052017.952
1467328.0,1625052017.994
1465610.0,1625052018.033
1464393.0,1625052018.073
1463564.0,1625052018.114
1463563.0,1625052018.154
1463508.0,1625052018.195
1463356.0,1625052018.235
1463473.0,1625052018.272
1463622.0,1625052018.313
1463854.0,1625052018.354
1464346.0,1625052018.394
1465122.0,1625052018.433
1466077.0,1625052018.475
1466907.0,1625052018.514
1467642.0,1625052018.554
1468465.0,1625052018.596
1468604.0,1625052018.632
1467480.0,1625052018.673
1465754.0,1625052018.714
1464091.0,1625052018.753
1462828.0,1625052018.794
1462368.0,1625052018.835
1462290.0,1625052018.874
1462481.0,1625052018.914
1462736.0,1625052018.954
1463112.0,1625052018.993
1463371.0,1625052019.033
1463982.0,1625052019.074
1464998.0,1625052019.114
1465956.0,1625052019.154
1466870.0,1625052019.196
1467992.0,1625052019.234
1469200.0,1625052019.275
1470086.0,1625052019.307
1470705.0,1625052019.346
1469558.0,1625052019.387
1467584.0,1625052019.427
1465480.0,1625052019.466
1464461.0,1625052019.506
1464576.0,1625052019.547
1465412.0,1625052019.587
1466484.0,1625052019.626
1467379.0,1625052019.667
1468280.0,1625052019.707
1469163.0,1625052019.747
1469786.0,1625052019.788
1470741.0,1625052019.827
1471612.0,1625052019.867
1472789.0,1625052019.908
1473509.0,1625052019.947
1475007.0,1625052019.988
1476577.0,1625052020.024
1477197.0,1625052020.041
1477115.0,1625052020.081
1476791.0,1625052020.122
1476124.0,1625052020.162
1476605.0,1625052020.201
1477599.0,1625052020.242
1478640.0,1625052020.282
1479791.0,1625052020.322
1480827.0,1625052020.364
1481578.0,1625052020.402
1482932.0,1625052020.442
1483541.0,1625052020.483
1482888.0,1625052020.519
1479860.0,1625052020.59
1478796.0,1625052020.626
1481419.0,1625052020.557
1478120.0,1625052020.666
1476628.0,1625052020.708
1474152.0,1625052020.748
1468810.0,1625052020.829
1466481.0,1625052020.868
1464720.0,1625052020.908
1463110.0,1625052020.948
1461202.0,1625052020.987
1471337.0,1625052020.787
1459153.0,1625052021.027
1457170.0,1625052021.068
1455521.0,1625052021.107
1454006.0,1625052021.148
1452551.0,1625052021.189
1451541.0,1625052021.228
1450593.0,1625052021.268
1450411.0,1625052021.307
1450973.0,1625052021.347
1450303.0,1625052021.387
1448171.0,1625052021.428
1445870.0,1625052021.467
1443518.0,1625052021.508
1441920.0,1625052021.55
1440892.0,1625052021.588
1440062.0,1625052021.628
1439383.0,1625052021.668
1438819.0,1625052021.707
1438062.0,1625052021.748
1438160.0,1625052021.789
1438281.0,1625052021.828
1438182.0,1625052021.868
1438518.0,1625052021.909
1439065.0,1625052021.949
1439799.0,1625052021.987
1440057.0,1625052022.028
1439158.0,1625052022.067
1437490.0,1625052022.107
1435969.0,1625052022.149
1434838.0,1625052022.188
1434240.0,1625052022.228
1434175.0,1625052022.269
1434350.0,1625052022.309
1434341.0,1625052022.348
1434756.0,1625052022.388
1435124.0,1625052022.427
1435454.0,1625052022.468
1435986.0,1625052022.509
1436704.0,1625052022.549
1437653.0,1625052022.589
1438607.0,1625052022.63
1439526.0,1625052022.669
1439193.0,1625052022.707
1438216.0,1625052022.749
1437030.0,1625052022.788
1436043.0,1625052022.827
1435858.0,1625052022.869
1436104.0,1625052022.908
1436499.0,1625052022.948
1437210.0,1625052022.989
1438063.0,1625052023.028
1439558.0,1625052023.068
1441315.0,1625052023.11
1443139.0,1625052023.149
1445233.0,1625052023.189
1447642.0,1625052023.228
1450368.0,1625052023.267
1453618.0,1625052023.308
1456445.0,1625052023.35
1458729.0,1625052023.388
1461592.0,1625052023.428
1464894.0,1625052023.47
1468522.0,1625052023.508
1472931.0,1625052023.549
1482588.0,1625052023.629
1489841.0,1625052023.71
1490997.0,1625052023.748
1489599.0,1625052023.788
1487580.0,1625052023.829
1486753.0,1625052023.669
1477769.0,1625052023.59
1486742.0,1625052023.868
1486219.0,1625052023.909
1485505.0,1625052023.951
1483689.0,1625052023.989
1481246.0,1625052024.029
1478849.0,1625052024.068
1476536.0,1625052024.108
1474848.0,1625052024.149
1473473.0,1625052024.189
1472175.0,1625052024.228
1470874.0,1625052024.269
1469700.0,1625052024.31
1468478.0,1625052024.35
1467510.0,1625052024.39
1466365.0,1625052024.429
1465430.0,1625052024.468
1464556.0,1625052024.508
1463775.0,1625052024.55
1463129.0,1625052024.589
1462247.0,1625052024.629
1460944.0,1625052024.67
1458665.0,1625052024.709
1456694.0,1625052024.75
1454685.0,1625052024.789
1452979.0,1625052024.828
1452092.0,1625052024.868
1451750.0,1625052024.91
1451498.0,1625052024.95
1451243.0,1625052024.989
1451382.0,1625052025.03
1451589.0,1625052025.07
1452321.0,1625052025.108
1452918.0,1625052025.15
1453519.0,1625052025.189
1454474.0,1625052025.229
1455548.0,1625052025.27
1456574.0,1625052025.309
1457120.0,1625052025.35
1456849.0,1625052025.388
1455813.0,1625052025.427
1454853.0,1625052025.468
1454326.0,1625052025.51
1454313.0,1625052025.549
1454734.0,1625052025.588
1455517.0,1625052025.629
1456083.0,1625052025.669
1456809.0,1625052025.709
1457272.0,1625052025.751
1458101.0,1625052025.79
1458668.0,1625052025.83
1459635.0,1625052025.871
1460465.0,1625052025.908
1461531.0,1625052025.95
1462565.0,1625052025.99
1463431.0,1625052026.028
1463864.0,1625052026.068
1463632.0,1625052026.11
1462464.0,1625052026.149
1461744.0,1625052026.189
1461026.0,1625052026.23
1461038.0,1625052026.27
1461390.0,1625052026.31
1461807.0,1625052026.352
1462224.0,1625052026.389
1462673.0,1625052026.429
1463163.0,1625052026.47
1463823.0,1625052026.509
1464397.0,1625052026.55
1465175.0,1625052026.591
1465949.0,1625052026.63
1467027.0,1625052026.67
1467754.0,1625052026.711
1468494.0,1625052026.749
1468550.0,1625052026.789
1467810.0,1625052026.83
1466383.0,1625052026.869
1464900.0,1625052026.91
1463445.0,1625052026.952
1462835.0,1625052026.99
1462471.0,1625052027.03
1462784.0,1625052027.07
1462747.0,1625052027.109
1463092.0,1625052027.15
1463206.0,1625052027.191
1463433.0,1625052027.23
1464066.0,1625052027.27
1464735.0,1625052027.311
1465658.0,1625052027.351
1466674.0,1625052027.391
1467783.0,1625052027.43
1468759.0,1625052027.469
1469845.0,1625052027.509
1470701.0,1625052027.551
1470862.0,1625052027.59
1470216.0,1625052027.63
1469000.0,1625052027.671
1468797.0,1625052027.71
1469375.0,1625052027.751
1470876.0,1625052027.79
1473086.0,1625052027.829
1475845.0,1625052027.869
1478400.0,1625052027.911
1480431.0,1625052027.95
1482621.0,1625052027.99
1485054.0,1625052028.031
1488127.0,1625052028.07
1491635.0,1625052028.11
1494663.0,1625052028.152
1497113.0,1625052028.191
1500528.0,1625052028.231
1504094.0,1625052028.27
1505308.0,1625052028.309
1504074.0,1625052028.35
1501120.0,1625052028.391
1497835.0,1625052028.43
1494963.0,1625052028.47
1492665.0,1625052028.512
1491262.0,1625052028.551
1489950.0,1625052028.591
1488285.0,1625052028.63
1486581.0,1625052028.669
1484886.0,1625052028.71
1483157.0,1625052028.752
1481692.0,1625052028.79
1480380.0,1625052028.831
1479386.0,1625052028.872
1478368.0,1625052028.911
1477390.0,1625052028.95
1476526.0,1625052028.991
1476086.0,1625052029.03
1475688.0,1625052029.07
1475389.0,1625052029.111
1474707.0,1625052029.151
1473305.0,1625052029.191
1471133.0,1625052029.232
1469467.0,1625052029.271
1468630.0,1625052029.309
1467903.0,1625052029.351
1467774.0,1625052029.39
1467747.0,1625052029.43
1467720.0,1625052029.471
1467566.0,1625052029.511
1467724.0,1625052029.552
1467977.0,1625052029.592
1468757.0,1625052029.631
1469387.0,1625052029.67
1470277.0,1625052029.711
1470876.0,1625052029.751
1471843.0,1625052029.79
1472435.0,1625052029.832
1472999.0,1625052029.871
1472416.0,1625052029.911
1471270.0,1625052029.953
1470268.0,1625052029.99
1469594.0,1625052030.03
1469425.0,1625052030.071
1469428.0,1625052030.11
1469792.0,1625052030.151
1469916.0,1625052030.192
1469986.0,1625052030.231
1470516.0,1625052030.313
1469980.0,1625052030.271
1471109.0,1625052030.39
1471744.0,1625052030.431
1470861.0,1625052030.351
1472206.0,1625052030.471
1472641.0,1625052030.511
1472624.0,1625052030.552
1471576.0,1625052030.591
1468007.0,1625052030.672
1469927.0,1625052030.631
1465306.0,1625052030.752
1464968.0,1625052030.793
1465194.0,1625052030.83
1466250.0,1625052030.711
1466448.0,1625052030.87
1467784.0,1625052030.912
1468398.0,1625052030.952
1468949.0,1625052030.991
1470151.0,1625052031.032
1471872.0,1625052031.072
1474245.0,1625052031.112
1479302.0,1625052031.19
1476913.0,1625052031.154
1480879.0,1625052031.23
1481429.0,1625052031.272
1481292.0,1625052031.311
1480706.0,1625052031.352
1480227.0,1625052031.392
1480266.0,1625052031.432
1481456.0,1625052031.472
1483767.0,1625052031.513
1486282.0,1625052031.551
1488706.0,1625052031.591
1492076.0,1625052031.632
1494401.0,1625052031.671
1494705.0,1625052031.711
1492560.0,1625052031.753
1490200.0,1625052031.792
1488042.0,1625052031.832
1486833.0,1625052031.872
1484684.0,1625052031.911
1481660.0,1625052031.952
1478255.0,1625052031.992
1475033.0,1625052032.033
1472280.0,1625052032.073
1469825.0,1625052032.114
1467757.0,1625052032.154
1465965.0,1625052032.194
1464021.0,1625052032.235
1462073.0,1625052032.274
1460450.0,1625052032.314
1459491.0,1625052032.356
1458912.0,1625052032.395
1458464.0,1625052032.434
1458349.0,1625052032.475
1458384.0,1625052032.516
1458745.0,1625052032.557
1458498.0,1625052032.597
1457328.0,1625052032.636
1455588.0,1625052032.676
1453655.0,1625052032.717
1452208.0,1625052032.757
1451820.0,1625052032.797
1451683.0,1625052032.838
1451739.0,1625052032.877
1452102.0,1625052032.918
1452185.0,1625052032.96
1452270.0,1625052032.996
1452825.0,1625052033.036
1453471.0,1625052033.077
1454138.0,1625052033.116
1454645.0,1625052033.157
1455433.0,1625052033.197
1456279.0,1625052033.237
1456666.0,1625052033.277
1456200.0,1625052033.318
1454794.0,1625052033.358
1452969.0,1625052033.398
1451692.0,1625052033.439
1450871.0,1625052033.476
1450247.0,1625052033.516
1449739.0,1625052033.558
1449512.0,1625052033.597
1449245.0,1625052033.637
1449019.0,1625052033.678
1449254.0,1625052033.718
1449425.0,1625052033.759
1449562.0,1625052033.799
1449876.0,1625052033.838
1450074.0,1625052033.875
1450349.0,1625052033.916
1450263.0,1625052033.956
1449101.0,1625052033.996
1447078.0,1625052034.037
1444863.0,1625052034.076
1443288.0,1625052034.116
1442246.0,1625052034.158
1441592.0,1625052034.196
1441562.0,1625052034.236
1441530.0,1625052034.277
1441457.0,1625052034.316
1441386.0,1625052034.357
1441520.0,1625052034.397
1442069.0,1625052034.436
1442356.0,1625052034.476
1443285.0,1625052034.518
1443859.0,1625052034.557
1444661.0,1625052034.597
1444938.0,1625052034.638
1444131.0,1625052034.677
1442403.0,1625052034.718
1440222.0,1625052034.76
1438843.0,1625052034.798
1438089.0,1625052034.839
1437611.0,1625052034.878
1437917.0,1625052034.917
1437940.0,1625052034.958
1438133.0,1625052034.998
1438404.0,1625052035.038
1438644.0,1625052035.078
1439446.0,1625052035.119
1439992.0,1625052035.159
1440895.0,1625052035.199
1441849.0,1625052035.238
1442609.0,1625052035.277
1443789.0,1625052035.317
1444380.0,1625052035.359
1443993.0,1625052035.398
1442673.0,1625052035.438
1440843.0,1625052035.479
1439547.0,1625052035.519
1438565.0,1625052035.56
1438810.0,1625052035.598
1438938.0,1625052035.637
1439329.0,1625052035.678
1439601.0,1625052035.719
1440151.0,1625052035.759
1440648.0,1625052035.798
1441651.0,1625052035.84
1442419.0,1625052035.879
1443287.0,1625052035.917
1444620.0,1625052035.959
1445748.0,1625052035.998
1447150.0,1625052036.038
1448409.0,1625052036.079
1449606.0,1625052036.118
1450495.0,1625052036.159
1450455.0,1625052036.2
1451079.0,1625052036.239
1452090.0,1625052036.279
1454203.0,1625052036.318
1456971.0,1625052036.358
1458769.0,1625052036.398
1461163.0,1625052036.439
1464137.0,1625052036.478
1466961.0,1625052036.519
1469811.0,1625052036.56
1472735.0,1625052036.599
1475551.0,1625052036.639
1479610.0,1625052036.678
1482307.0,1625052036.718
1483342.0,1625052036.759
1483916.0,1625052036.799
1482977.0,1625052036.838
1481563.0,1625052036.879
1479592.0,1625052036.92
1477222.0,1625052036.96
1475125.0,1625052036.999
1472961.0,1625052037.039
1471021.0,1625052037.078
1469083.0,1625052037.118
1467252.0,1625052037.16
1465278.0,1625052037.198
1463407.0,1625052037.239
1461621.0,1625052037.28
1460182.0,1625052037.319
1459410.0,1625052037.36
1459026.0,1625052037.399
1458092.0,1625052037.438
1457146.0,1625052037.478
1456710.0,1625052037.519
1456203.0,1625052037.559
1455364.0,1625052037.599
1453682.0,1625052037.64
1451527.0,1625052037.679
1449751.0,1625052037.72
1448080.0,1625052037.76
1447412.0,1625052037.798
1447192.0,1625052037.838
1447105.0,1625052037.88
1447144.0,1625052037.919
1447098.0,1625052037.96
1447483.0,1625052038.0
1447825.0,1625052038.04
1448422.0,1625052038.08
1449150.0,1625052038.119
1449831.0,1625052038.159
1450856.0,1625052038.198
1451529.0,1625052038.239
1452261.0,1625052038.279
1452302.0,1625052038.319
1450947.0,1625052038.361
1449864.0,1625052038.399
1448782.0,1625052038.44
1448211.0,1625052038.481
1448384.0,1625052038.518
1448709.0,1625052038.559
1449160.0,1625052038.6
1449383.0,1625052038.639
1449530.0,1625052038.679
1450146.0,1625052038.72
1450867.0,1625052038.76
1451344.0,1625052038.8
1451942.0,1625052038.839
1452565.0,1625052038.879
1453578.0,1625052038.919
1454219.0,1625052038.961
1453992.0,1625052038.999
1452791.0,1625052039.04
1451282.0,1625052039.081
1450504.0,1625052039.12
1449879.0,1625052039.161
1449773.0,1625052039.199
1450536.0,1625052039.239
1451739.0,1625052039.279
1453206.0,1625052039.32
1454465.0,1625052039.36
1455222.0,1625052039.4
1456319.0,1625052039.441
1457092.0,1625052039.48
1458077.0,1625052039.52
1459245.0,1625052039.56
1459911.0,1625052039.599
1460354.0,1625052039.639
1459460.0,1625052039.68
1457995.0,1625052039.719
1456276.0,1625052039.76
1455034.0,1625052039.801
1454334.0,1625052039.84
1454254.0,1625052039.881
1454357.0,1625052039.92
1454287.0,1625052039.96
1454131.0,1625052039.999
1454220.0,1625052040.04
1454062.0,1625052040.08
1454080.0,1625052040.12
1454319.0,1625052040.162
1454329.0,1625052040.2
1454601.0,1625052040.241
1454532.0,1625052040.28
1453959.0,1625052040.319
1452316.0,1625052040.36
1450137.0,1625052040.401
1448059.0,1625052040.44
1446519.0,1625052040.48
1445551.0,1625052040.521
1445258.0,1625052040.561
1445189.0,1625052040.601
1445247.0,1625052040.64
1444967.0,1625052040.679
1445653.0,1625052040.72
1446887.0,1625052040.761
1449115.0,1625052040.8
1452756.0,1625052040.84
1458315.0,1625052040.882
1463530.0,1625052040.921
1468939.0,1625052040.962
1474686.0,1625052041.0
1478479.0,1625052041.039
1481372.0,1625052041.079
1482542.0,1625052041.12
1483154.0,1625052041.16
1484391.0,1625052041.2
1485175.0,1625052041.241
1485775.0,1625052041.28
1487024.0,1625052041.32
1487872.0,1625052041.362
1485185.0,1625052041.401
1483648.0,1625052041.441
1481922.0,1625052041.48
1479901.0,1625052041.52
1477426.0,1625052041.561
1475772.0,1625052041.601
1474050.0,1625052041.64
1470928.0,1625052041.722
1469430.0,1625052041.762
1464439.0,1625052041.841
1472609.0,1625052041.681
1467236.0,1625052041.801
1458654.0,1625052041.92
1454928.0,1625052042.001
1456559.0,1625052041.962
1453519.0,1625052042.041
1452647.0,1625052042.082
1461418.0,1625052041.88
1451666.0,1625052042.121
1451131.0,1625052042.162
1450862.0,1625052042.24
1451712.0,1625052042.321
1450817.0,1625052042.201
1451226.0,1625052042.28
1452252.0,1625052042.361
1453008.0,1625052042.401
1453794.0,1625052042.442
1454358.0,1625052042.481
1454819.0,1625052042.522
1453560.0,1625052042.562
1452349.0,1625052042.6
1451499.0,1625052042.64
1450775.0,1625052042.682
1450422.0,1625052042.721
1450596.0,1625052042.762
1450900.0,1625052042.802
1451323.0,1625052042.842
1451598.0,1625052042.88
1451748.0,1625052042.921
1452051.0,1625052042.961
1452284.0,1625052043.001
1452384.0,1625052043.042
1452638.0,1625052043.081
1452739.0,1625052043.121
1452772.0,1625052043.163
1453133.0,1625052043.202
1452833.0,1625052043.24
1451610.0,1625052043.281
1449666.0,1625052043.32
1447614.0,1625052043.361
1445940.0,1625052043.402
1444920.0,1625052043.441
1444489.0,1625052043.481
1444649.0,1625052043.523
1444458.0,1625052043.563
1444359.0,1625052043.602
1444319.0,1625052043.641
1444345.0,1625052043.681
1444449.0,1625052043.721
1445093.0,1625052043.763
1445418.0,1625052043.801
1445884.0,1625052043.842
1446830.0,1625052043.883
1447818.0,1625052043.922
1448370.0,1625052043.961
1447925.0,1625052044.002
1446486.0,1625052044.038
1444425.0,1625052044.078
1442952.0,1625052044.119
1441606.0,1625052044.159
1441198.0,1625052044.198
1441101.0,1625052044.239
1441524.0,1625052044.278
1441603.0,1625052044.318
1441708.0,1625052044.36
1442075.0,1625052044.399
1442697.0,1625052044.439
1442909.0,1625052044.48
1440949.0,1625052044.52
1439811.0,1625052044.561
1438944.0,1625052044.602
1437291.0,1625052044.641
1435993.0,1625052044.681
1434903.0,1625052044.722
1432818.0,1625052044.762
1431236.0,1625052044.802
1430090.0,1625052044.843
1428749.0,1625052044.882
1428361.0,1625052044.922
1428275.0,1625052044.964
1428313.0,1625052045.001
1428642.0,1625052045.041
1428660.0,1625052045.082
1428676.0,1625052045.122
1428854.0,1625052045.163
1428970.0,1625052045.203
1429235.0,1625052045.242
1430099.0,1625052045.283
1430960.0,1625052045.324
1431722.0,1625052045.362
1432364.0,1625052045.401
1432989.0,1625052045.443
1432835.0,1625052045.482
1431971.0,1625052045.522
1431373.0,1625052045.564
1431203.0,1625052045.603
1431360.0,1625052045.643
1433786.0,1625052045.682
1435512.0,1625052045.721
1436154.0,1625052045.762
1436035.0,1625052045.803
1436298.0,1625052045.842
1436781.0,1625052045.88
1437384.0,1625052045.923
1438541.0,1625052045.963
1439758.0,1625052046.001
1440908.0,1625052046.043
1442022.0,1625052046.082
1442605.0,1625052046.122
1443333.0,1625052046.164
1443203.0,1625052046.203
1441952.0,1625052046.243
1440345.0,1625052046.284
1438815.0,1625052046.323
1437935.0,1625052046.362
1437597.0,1625052046.403
1437604.0,1625052046.442
1437653.0,1625052046.482
1437860.0,1625052046.524
1438045.0,1625052046.563
1438490.0,1625052046.603
1438749.0,1625052046.644
1439279.0,1625052046.684
1439715.0,1625052046.722
1441963.0,1625052046.802
1440839.0,1625052046.764
1443388.0,1625052046.884
1442605.0,1625052046.843
1443297.0,1625052046.923
1442194.0,1625052046.964
1441028.0,1625052047.005
1440431.0,1625052047.042
1440333.0,1625052047.082
1440874.0,1625052047.123
1441900.0,1625052047.163
1442844.0,1625052047.203
1443761.0,1625052047.244
1445485.0,1625052047.324
1444433.0,1625052047.283
1447512.0,1625052047.402
1446643.0,1625052047.366
1450178.0,1625052047.483
1452320.0,1625052047.564
1451431.0,1625052047.523
1448658.0,1625052047.442
1452533.0,1625052047.604
1451663.0,1625052047.643
1450619.0,1625052047.684
1450010.0,1625052047.725
1450077.0,1625052047.763
1450727.0,1625052047.802
1452201.0,1625052047.883
1451594.0,1625052047.844
1452858.0,1625052047.923
1454451.0,1625052048.004
1456049.0,1625052048.083
1455133.0,1625052048.044
1453462.0,1625052047.965
1456887.0,1625052048.122
1458507.0,1625052048.204
1457681.0,1625052048.163
1458496.0,1625052048.243
1457424.0,1625052048.283
1456237.0,1625052048.325
1455372.0,1625052048.365
1454967.0,1625052048.404
1454908.0,1625052048.445
1455182.0,1625052048.482
1455748.0,1625052048.523
1455762.0,1625052048.565
1456025.0,1625052048.603
1456457.0,1625052048.643
1457256.0,1625052048.685
1457940.0,1625052048.724
1458996.0,1625052048.765
1460024.0,1625052048.806
1460902.0,1625052048.843
1460922.0,1625052048.883
1460050.0,1625052048.924
1459170.0,1625052048.964
1459963.0,1625052049.003
1461430.0,1625052049.04
1463216.0,1625052049.079
1468359.0,1625052049.161
1465442.0,1625052049.119
1471441.0,1625052049.199
1473270.0,1625052049.239
1474995.0,1625052049.28
1476641.0,1625052049.319
1478554.0,1625052049.36
1480288.0,1625052049.4
1482542.0,1625052049.44
1484690.0,1625052049.48
1486684.0,1625052049.521
1485873.0,1625052049.561
1484799.0,1625052049.6
1483583.0,1625052049.641
1482090.0,1625052049.68
1480526.0,1625052049.719
1478905.0,1625052049.758
1477119.0,1625052049.797
1475481.0,1625052049.833
1473816.0,1625052049.874
1472322.0,1625052049.906
1470829.0,1625052049.947
1469630.0,1625052049.985
1468480.0,1625052050.024
1467331.0,1625052050.064
1466013.0,1625052050.106
1464603.0,1625052050.146
1459382.0,1625052050.227
1451264.0,1625052050.346
1453816.0,1625052050.304
1456637.0,1625052050.266
1462281.0,1625052050.185
1449955.0,1625052050.385
1448983.0,1625052050.425
1447619.0,1625052050.505
1448251.0,1625052050.466
1446959.0,1625052050.587
1447051.0,1625052050.546
1447468.0,1625052050.626
1448668.0,1625052050.706
1447787.0,1625052050.664
1449232.0,1625052050.746
1450213.0,1625052050.785
1450927.0,1625052050.827
1451459.0,1625052050.866
1451080.0,1625052050.906
1449621.0,1625052050.948
1448148.0,1625052050.986
1447336.0,1625052051.023
1447059.0,1625052051.065
1447379.0,1625052051.104
1447677.0,1625052051.145
1447995.0,1625052051.186
1448108.0,1625052051.225
1448356.0,1625052051.265
1448938.0,1625052051.307
1449742.0,1625052051.346
1450501.0,1625052051.386
1451225.0,1625052051.427
1452173.0,1625052051.467
1452865.0,1625052051.505
1453743.0,1625052051.547
1453364.0,1625052051.585
1452217.0,1625052051.625
1450947.0,1625052051.667
1450198.0,1625052051.706
1449668.0,1625052051.747
1449655.0,1625052051.788
1449898.0,1625052051.827
1450045.0,1625052051.865
1450516.0,1625052051.906
1450616.0,1625052051.946
1451155.0,1625052051.986
1451908.0,1625052052.027
1452619.0,1625052052.066
1453424.0,1625052052.106
1454219.0,1625052052.149
1454982.0,1625052052.185
1455661.0,1625052052.225
1455590.0,1625052052.267
1454125.0,1625052052.306
1452276.0,1625052052.347
1450510.0,1625052052.387
1449131.0,1625052052.426
1448818.0,1625052052.467
1448860.0,1625052052.508
1449118.0,1625052052.546
1449236.0,1625052052.585
1449267.0,1625052052.627
1449613.0,1625052052.666
1449821.0,1625052052.706
1450403.0,1625052052.748
1451024.0,1625052052.787
1451548.0,1625052052.827
1452161.0,1625052052.866
1452614.0,1625052052.905
1452664.0,1625052052.946
1452828.0,1625052052.987
1451838.0,1625052053.026
1449758.0,1625052053.066
1448076.0,1625052053.108
1446464.0,1625052053.148
1445725.0,1625052053.185
1445703.0,1625052053.227
1445808.0,1625052053.266
1446362.0,1625052053.306
1447361.0,1625052053.348
1448798.0,1625052053.387
1450535.0,1625052053.427
1452193.0,1625052053.468
1453980.0,1625052053.505
1455728.0,1625052053.545
1456758.0,1625052053.586
1458181.0,1625052053.625
1459211.0,1625052053.666
1460243.0,1625052053.707
1460729.0,1625052053.747
1460195.0,1625052053.787
1459037.0,1625052053.828
1457799.0,1625052053.907
1458288.0,1625052053.948
1458107.0,1625052053.867
1459002.0,1625052053.986
1460476.0,1625052054.026
1462152.0,1625052054.068
1463247.0,1625052054.107
1464676.0,1625052054.148
1466498.0,1625052054.189
1468158.0,1625052054.228
1469883.0,1625052054.266
1471881.0,1625052054.307
1473714.0,1625052054.347
1475371.0,1625052054.387
1476837.0,1625052054.428
1479247.0,1625052054.467
1481037.0,1625052054.507
1482803.0,1625052054.55
1486035.0,1625052054.586
1489807.0,1625052054.626
1494177.0,1625052054.668
1498851.0,1625052054.707
1503810.0,1625052054.748
1508422.0,1625052054.828
1506225.0,1625052054.788
1510388.0,1625052054.868
1512135.0,1625052054.907
1514668.0,1625052054.987
1513324.0,1625052054.947
1517575.0,1625052055.067
1516512.0,1625052055.028
1517680.0,1625052055.107
1518440.0,1625052055.15
1517116.0,1625052055.188
1514770.0,1625052055.226
1512414.0,1625052055.268
1510177.0,1625052055.307
1507115.0,1625052055.388
1508578.0,1625052055.348
1504979.0,1625052055.468
1503857.0,1625052055.509
1502799.0,1625052055.549
1506144.0,1625052055.427
1503030.0,1625052055.586
1506088.0,1625052055.628
1509333.0,1625052055.667
1512827.0,1625052055.707
1516024.0,1625052055.749
1518429.0,1625052055.788
1519592.0,1625052055.828
1519913.0,1625052055.87
1520292.0,1625052055.906
1519838.0,1625052055.947
1517804.0,1625052055.992
1514624.0,1625052056.031
1514624.0,1625052056.07
1511569.0,1625052056.109
1508749.0,1625052056.148
1506660.0,1625052056.187
1504366.0,1625052056.226
1502446.0,1625052056.265
1499842.0,1625052056.304
1497724.0,1625052056.343
1495732.0,1625052056.382
1494225.0,1625052056.421
1491306.0,1625052056.499
1492547.0,1625052056.46
1490025.0,1625052056.538
1488753.0,1625052056.577
1488038.0,1625052056.616
1486471.0,1625052056.655
1484329.0,1625052056.694
1481958.0,1625052056.733
1479824.0,1625052056.772
1478271.0,1625052056.811
1477137.0,1625052056.85
1476734.0,1625052056.889
1476369.0,1625052056.928
1475600.0,1625052056.967
1475207.0,1625052057.006
1474963.0,1625052057.045
1474609.0,1625052057.084
1474697.0,1625052057.123
1474801.0,1625052057.162
1475184.0,1625052057.201
1475538.0,1625052057.24
1475428.0,1625052057.279
1474562.0,1625052057.318
1473128.0,1625052057.357
1471799.0,1625052057.396
1470924.0,1625052057.435
1470598.0,1625052057.474
1470731.0,1625052057.513
1470857.0,1625052057.552
1470750.0,1625052057.591
1470469.0,1625052057.63
1470380.0,1625052057.669
1470700.0,1625052057.708
1471019.0,1625052057.747
1471344.0,1625052057.786
1471743.0,1625052057.825
1472468.0,1625052057.864
1472252.0,1625052057.903
1470678.0,1625052057.942
1468517.0,1625052057.981
1466447.0,1625052058.02
1464704.0,1625052058.059
1463309.0,1625052058.098
1462706.0,1625052058.137
1462410.0,1625052058.176
1461854.0,1625052058.215
1461732.0,1625052058.254
1461624.0,1625052058.293
1461623.0,1625052058.332
1461571.0,1625052058.371
1461597.0,1625052058.41
1461593.0,1625052058.449
1461813.0,1625052058.488
1461358.0,1625052058.527
1459897.0,1625052058.566
1457556.0,1625052058.605
1455009.0,1625052058.644
1453086.0,1625052058.683
1451946.0,1625052058.722
1451264.0,1625052058.761
1451112.0,1625052058.801
1450675.0,1625052058.841
1450195.0,1625052058.881
1449803.0,1625052058.921
1449400.0,1625052058.961
1449564.0,1625052059.001
1449732.0,1625052059.041
1450180.0,1625052059.081
1450632.0,1625052059.121
1451335.0,1625052059.161
1451597.0,1625052059.201
1450224.0,1625052059.241
1448280.0,1625052059.281
1445926.0,1625052059.321
1444270.0,1625052059.361
1443155.0,1625052059.401
1442690.0,1625052059.441
1442757.0,1625052059.481
1442646.0,1625052059.521
1442661.0,1625052059.561
1442502.0,1625052059.601
1442787.0,1625052059.641
1443108.0,1625052059.681
1443806.0,1625052059.721
1444888.0,1625052059.761
1445705.0,1625052059.801
1446534.0,1625052059.841
1447226.0,1625052059.881
1448053.0,1625052059.921
1447635.0,1625052059.961
1446457.0,1625052060.001
1444547.0,1625052060.041
1443114.0,1625052060.081
1442098.0,1625052060.121
1441903.0,1625052060.161
1442075.0,1625052060.201
1442685.0,1625052060.241
1442888.0,1625052060.281
1443135.0,1625052060.321
1443968.0,1625052060.361
1444673.0,1625052060.401
1445749.0,1625052060.441
1446743.0,1625052060.481
1448075.0,1625052060.521
1449168.0,1625052060.561
1450412.0,1625052060.601
1451381.0,1625052060.641
1452383.0,1625052060.681
1452379.0,1625052060.721
1451592.0,1625052060.761
1450677.0,1625052060.801
1450219.0,1625052060.841
1450519.0,1625052060.881
1450987.0,1625052060.921
1451814.0,1625052060.961
1452549.0,1625052061.001
1453321.0,1625052061.041
1454125.0,1625052061.081
1455108.0,1625052061.121
1456188.0,1625052061.161
1457100.0,1625052061.201
1458380.0,1625052061.241
1459651.0,1625052061.281
1460758.0,1625052061.321
1461632.0,1625052061.361
1462138.0,1625052061.401
1462005.0,1625052061.441
1461198.0,1625052061.481
1460298.0,1625052061.521
1459771.0,1625052061.561
1460072.0,1625052061.601
1460561.0,1625052061.641
1460941.0,1625052061.681
1461538.0,1625052061.721
1461891.0,1625052061.761
1462556.0,1625052061.801
1463399.0,1625052061.841
1464153.0,1625052061.881
1465103.0,1625052061.921
1465743.0,1625052061.961
1466827.0,1625052062.001
1467533.0,1625052062.041
1468236.0,1625052062.081
1467796.0,1625052062.121
1466646.0,1625052062.161
1465529.0,1625052062.201
1465047.0,1625052062.241
1464705.0,1625052062.281
1465215.0,1625052062.321
1465482.0,1625052062.361
1465967.0,1625052062.401
1466153.0,1625052062.441
1466544.0,1625052062.481
1467068.0,1625052062.521
1468031.0,1625052062.561
1468636.0,1625052062.601
1469501.0,1625052062.641
1470281.0,1625052062.681
1471692.0,1625052062.721
1472212.0,1625052062.761
1471779.0,1625052062.801
1470706.0,1625052062.841
1469710.0,1625052062.881
1468996.0,1625052062.921
1468521.0,1625052062.961
1468610.0,1625052063.001
1468707.0,1625052063.041
1468852.0,1625052063.081
1468849.0,1625052063.121
1469336.0,1625052063.161
1470007.0,1625052063.201
1470650.0,1625052063.241
1471588.0,1625052063.281
1473884.0,1625052063.321
1476332.0,1625052063.361
1479400.0,1625052063.401
1484515.0,1625052063.441
1487873.0,1625052063.481
1489227.0,1625052063.521
1489782.0,1625052063.561
1490080.0,1625052063.601
1490357.0,1625052063.641
1490956.0,1625052063.681
1492630.0,1625052063.721
1494973.0,1625052063.761
1496567.0,1625052063.801
1497811.0,1625052063.841
1499372.0,1625052063.881
1500289.0,1625052063.921
1501362.0,1625052063.961
1502634.0,1625052064.001
1504320.0,1625052064.041
1505952.0,1625052064.081
1506883.0,1625052064.121
1507510.0,1625052064.161
1507197.0,1625052064.201
1506307.0,1625052064.241
1504864.0,1625052064.281
1504236.0,1625052064.321
1503430.0,1625052064.361
1502967.0,1625052064.401
1502375.0,1625052064.441
1501474.0,1625052064.481
1500636.0,1625052064.521
1499931.0,1625052064.561
1500262.0,1625052064.601
1501549.0,1625052064.641
1504448.0,1625052064.681
1508699.0,1625052064.721
1512048.0,1625052064.761
1515230.0,1625052064.801
1517739.0,1625052064.841
1519931.0,1625052064.881
1520911.0,1625052064.921
1521696.0,1625052064.961
1521528.0,1625052065.001
1520941.0,1625052065.041
1521138.0,1625052065.081
1522389.0,1625052065.121
1522560.0,1625052065.161
1522480.0,1625052065.201
1522580.0,1625052065.241
1522975.0,1625052065.281
1523572.0,1625052065.321
1524897.0,1625052065.361
1525918.0,1625052065.401
1527013.0,1625052065.441
1528709.0,1625052065.481
1529663.0,1625052065.521
1529948.0,1625052065.561
1529244.0,1625052065.601
1527927.0,1625052065.641
1526257.0,1625052065.681
1525090.0,1625052065.721
1524543.0,1625052065.761
1524456.0,1625052065.801
1524172.0,1625052065.841
1524042.0,1625052065.881
1523881.0,1625052065.921
1523876.0,1625052065.961
1524629.0,1625052066.001
1525061.0,1625052066.041
1525538.0,1625052066.081
1526621.0,1625052066.121
1527376.0,1625052066.161
1527893.0,1625052066.201
1527192.0,1625052066.241
1525542.0,1625052066.281
1523520.0,1625052066.321
1521437.0,1625052066.361
1519709.0,1625052066.401
1518804.0,1625052066.441
1518205.0,1625052066.481
1517958.0,1625052066.521
1517834.0,1625052066.561
1517778.0,1625052066.601
1517695.0,1625052066.641
1517740.0,1625052066.681
1518170.0,1625052066.721
1518602.0,1625052066.761
1518743.0,1625052066.801
1519221.0,1625052066.841
1519292.0,1625052066.881
1518355.0,1625052066.921
1515988.0,1625052066.961
1513322.0,1625052067.001
1510725.0,1625052067.041
1508981.0,1625052067.081
1507881.0,1625052067.121
1507185.0,1625052067.161
1506466.0,1625052067.201
1506073.0,1625052067.241
1505600.0,1625052067.281
1504993.0,1625052067.321
1504813.0,1625052067.361
1503693.0,1625052067.401
1502118.0,1625052067.441
1501103.0,1625052067.481
1500301.0,1625052067.521
1498668.0,1625052067.561
1496053.0,1625052067.601
1492582.0,1625052067.641
1488909.0,1625052067.681
1485683.0,1625052067.721
1482981.0,1625052067.761
1480694.0,1625052067.801
1479409.0,1625052067.841
1477630.0,1625052067.881
1476306.0,1625052067.921
1475444.0,1625052068.004
1474689.0,1625052068.044
1474325.0,1625052068.085
1473951.0,1625052068.124
1473900.0,1625052068.164
1474251.0,1625052068.205
1474403.0,1625052068.244
1474524.0,1625052068.284
1474700.0,1625052068.326
1474633.0,1625052068.364
1473223.0,1625052068.404
1471137.0,1625052068.446
1469393.0,1625052068.486
1468316.0,1625052068.526
1467879.0,1625052068.567
1467744.0,1625052068.606
1467788.0,1625052068.647
1467840.0,1625052068.689
1467841.0,1625052068.729
1468255.0,1625052068.768
1468874.0,1625052068.809
1469477.0,1625052068.848
1470489.0,1625052068.887
1471226.0,1625052068.929
1472009.0,1625052068.968
1472796.0,1625052069.008
1473172.0,1625052069.049
1472531.0,1625052069.088
1471134.0,1625052069.129
1469742.0,1625052069.17
1468972.0,1625052069.209
1468607.0,1625052069.249
1468396.0,1625052069.291
1468366.0,1625052069.33
1468334.0,1625052069.37
1467909.0,1625052069.409
1467662.0,1625052069.448
1467672.0,1625052069.489
1467541.0,1625052069.531
1467796.0,1625052069.569
1468005.0,1625052069.609
1468484.0,1625052069.651
1468755.0,1625052069.69
1469033.0,1625052069.731
1468103.0,1625052069.769
1466255.0,1625052069.809
1464054.0,1625052069.849
1461997.0,1625052069.89
1460663.0,1625052069.93
1460536.0,1625052069.97
1460420.0,1625052070.011
1460510.0,1625052070.05
1460399.0,1625052070.088
1460372.0,1625052070.13
1460110.0,1625052070.169
1460243.0,1625052070.209
1459998.0,1625052070.25
1460264.0,1625052070.289
1460272.0,1625052070.33
1460775.0,1625052070.371
1461287.0,1625052070.41
1461251.0,1625052070.45
1459878.0,1625052070.49
1457897.0,1625052070.529
1455597.0,1625052070.569
1454016.0,1625052070.61
1453156.0,1625052070.649
1452995.0,1625052070.69
1453387.0,1625052070.732
1453538.0,1625052070.77
1453554.0,1625052070.809
1453634.0,1625052070.85
1453944.0,1625052070.889
1454482.0,1625052070.93
1455642.0,1625052070.971
1456716.0,1625052071.009
1458025.0,1625052071.049
1459317.0,1625052071.09
1460529.0,1625052071.13
1461880.0,1625052071.17
1461715.0,1625052071.211
1460480.0,1625052071.25
1459236.0,1625052071.291
1458287.0,1625052071.331
1458092.0,1625052071.369
1458568.0,1625052071.409
1458960.0,1625052071.451
1459652.0,1625052071.49
1459936.0,1625052071.53
1460189.0,1625052071.571
1460833.0,1625052071.61
1461881.0,1625052071.65
1462522.0,1625052071.692
1463458.0,1625052071.731
1464588.0,1625052071.769
1465554.0,1625052071.81
1466501.0,1625052071.85
1467703.0,1625052071.89
1467995.0,1625052071.932
1467803.0,1625052071.97
1466452.0,1625052072.011
1466000.0,1625052072.052
1465970.0,1625052072.089
1466128.0,1625052072.13
1466728.0,1625052072.171
1467478.0,1625052072.21
1468123.0,1625052072.25
1469036.0,1625052072.291
1470057.0,1625052072.331
1471420.0,1625052072.371
1472629.0,1625052072.412
1473801.0,1625052072.449
1474614.0,1625052072.49
1475683.0,1625052072.532
1476359.0,1625052072.57
1477078.0,1625052072.61
1476871.0,1625052072.652
1475492.0,1625052072.691
1473787.0,1625052072.732
1471879.0,1625052072.772
1470527.0,1625052072.809
1469913.0,1625052072.85
1469929.0,1625052072.891
1469932.0,1625052072.931
1469997.0,1625052072.97
1469920.0,1625052073.012
1469942.0,1625052073.051
1470343.0,1625052073.091
1470669.0,1625052073.133
1470606.0,1625052073.17
1471268.0,1625052073.21
1471603.0,1625052073.251
1471917.0,1625052073.29
1472084.0,1625052073.331
1470784.0,1625052073.372
1468685.0,1625052073.411
1466494.0,1625052073.451
1464802.0,1625052073.493
1463590.0,1625052073.53
1463229.0,1625052073.57
1463617.0,1625052073.611
1463756.0,1625052073.651
1463601.0,1625052073.691
1463822.0,1625052073.733
1463773.0,1625052073.771
1464279.0,1625052073.812
1464741.0,1625052073.851
1465239.0,1625052073.89
1466289.0,1625052073.931
1467638.0,1625052073.972
1468863.0,1625052074.011
1469564.0,1625052074.051
1469163.0,1625052074.092
1468151.0,1625052074.132
1467407.0,1625052074.171
1467462.0,1625052074.212
1468297.0,1625052074.252
1470379.0,1625052074.292
1473148.0,1625052074.332
1476838.0,1625052074.37
1480618.0,1625052074.411
1483806.0,1625052074.452
1487341.0,1625052074.491
1491863.0,1625052074.532
1494512.0,1625052074.573
1495616.0,1625052074.612
1494955.0,1625052074.652
1492627.0,1625052074.691
1489385.0,1625052074.731
1485472.0,1625052074.771
1481924.0,1625052074.812
1478774.0,1625052074.851
1476402.0,1625052074.892
1474491.0,1625052074.934
1472870.0,1625052074.972
1471356.0,1625052075.01
1469912.0,1625052075.052
1469001.0,1625052075.091
1469148.0,1625052075.132
1470464.0,1625052075.172
1472001.0,1625052075.211
1474327.0,1625052075.252
1477524.0,1625052075.293
1479337.0,1625052075.333
1479785.0,1625052075.37
1478682.0,1625052075.412
1476999.0,1625052075.451
1475907.0,1625052075.491
1476307.0,1625052075.533
1477563.0,1625052075.572
1479470.0,1625052075.612
1481588.0,1625052075.653
1482772.0,1625052075.693
1484588.0,1625052075.731
1486283.0,1625052075.772
1488015.0,1625052075.811
1489314.0,1625052075.851
1491520.0,1625052075.893
1493246.0,1625052075.933
1493599.0,1625052075.972
1491024.0,1625052076.013
1487062.0,1625052076.053
1483383.0,1625052076.091
1479592.0,1625052076.133
1476654.0,1625052076.171
1474335.0,1625052076.211
1472338.0,1625052076.253
1470668.0,1625052076.292
1469046.0,1625052076.333
1469403.0,1625052076.373
1471282.0,1625052076.413
1472331.0,1625052076.453
1474434.0,1625052076.492
1476789.0,1625052076.532
1479129.0,1625052076.571
1481724.0,1625052076.612
1484361.0,1625052076.652
1485882.0,1625052076.692
1485788.0,1625052076.734
1484895.0,1625052076.772
1483597.0,1625052076.813
1482538.0,1625052076.852
1482237.0,1625052076.891
1483107.0,1625052076.932
1484351.0,1625052076.973
1485428.0,1625052077.012
1486321.0,1625052077.052
1486972.0,1625052077.094
1487662.0,1625052077.133
1488652.0,1625052077.173
1489764.0,1625052077.214
1490222.0,1625052077.251
1490644.0,1625052077.292
1490122.0,1625052077.333
1489122.0,1625052077.372
1487360.0,1625052077.412
1485261.0,1625052077.453
1484026.0,1625052077.493
1483318.0,1625052077.534
1482662.0,1625052077.574
1482961.0,1625052077.611
1483160.0,1625052077.652
1483612.0,1625052077.693
1483947.0,1625052077.733
1484449.0,1625052077.772
1485465.0,1625052077.814
1486924.0,1625052077.853
1488124.0,1625052077.893
1489250.0,1625052077.933
1490740.0,1625052077.972
1492397.0,1625052078.012
1493038.0,1625052078.053
1492423.0,1625052078.092
1490483.0,1625052078.133
1488332.0,1625052078.174
1486203.0,1625052078.213
1484262.0,1625052078.253
1483083.0,1625052078.295
1482045.0,1625052078.332
1480834.0,1625052078.372
1480090.0,1625052078.413
1479616.0,1625052078.452
1479075.0,1625052078.493
1478474.0,1625052078.535
1478239.0,1625052078.573
1478148.0,1625052078.613
1478027.0,1625052078.655
1477724.0,1625052078.692
1477873.0,1625052078.733
1477717.0,1625052078.773
1477210.0,1625052078.813
1475499.0,1625052078.853
1473616.0,1625052078.894
1471718.0,1625052078.934
1470009.0,1625052078.974
1468941.0,1625052079.013
1468477.0,1625052079.052
1468285.0,1625052079.092
1468170.0,1625052079.134
1468688.0,1625052079.213
1468255.0,1625052079.173
1469239.0,1625052079.254
1469654.0,1625052079.294
1471069.0,1625052079.335
1472247.0,1625052079.375
1473284.0,1625052079.412
1474361.0,1625052079.452
1475594.0,1625052079.494
1476621.0,1625052079.534
1476387.0,1625052079.573
1475573.0,1625052079.614
1474392.0,1625052079.654
1473693.0,1625052079.694
1473322.0,1625052079.736
1473594.0,1625052079.772
1473603.0,1625052079.813
1473728.0,1625052079.854
1473420.0,1625052079.893
1473284.0,1625052079.934
1473483.0,1625052079.975
1473396.0,1625052080.008
1473631.0,1625052080.048
1473922.0,1625052080.089
1474195.0,1625052080.129
1474833.0,1625052080.168
1475589.0,1625052080.209
1475795.0,1625052080.248
1475711.0,1625052080.288
1474803.0,1625052080.33
1472141.0,1625052080.368
1467868.0,1625052080.408
1464303.0,1625052080.449
1462922.0,1625052080.489
1461650.0,1625052080.527
1460151.0,1625052080.568
1459429.0,1625052080.607
1458709.0,1625052080.647
1458062.0,1625052080.688
1457656.0,1625052080.728
1457915.0,1625052080.768
1457929.0,1625052080.809
1458447.0,1625052080.849
1458788.0,1625052080.887
1459031.0,1625052080.929
1459246.0,1625052080.967
1459629.0,1625052081.007
1459368.0,1625052081.049
1458656.0,1625052081.088
1457700.0,1625052081.129
1456864.0,1625052081.169
1456562.0,1625052081.209
1456882.0,1625052081.249
1457183.0,1625052081.288
1458098.0,1625052081.328
1459631.0,1625052081.367
1461272.0,1625052081.409
1462496.0,1625052081.448
1463139.0,1625052081.488
1464123.0,1625052081.53
1465009.0,1625052081.569
1466207.0,1625052081.609
1467532.0,1625052081.648
1468802.0,1625052081.687
1469561.0,1625052081.728
1469004.0,1625052081.768
1467978.0,1625052081.808
1467257.0,1625052081.848
1466677.0,1625052081.889
1466635.0,1625052081.929
1466524.0,1625052081.969
1466195.0,1625052082.01
1466439.0,1625052082.047
1466274.0,1625052082.087
1466181.0,1625052082.129
1466405.0,1625052082.168
1466631.0,1625052082.208
1466823.0,1625052082.249
1467363.0,1625052082.289
1467487.0,1625052082.33
1467820.0,1625052082.37
1467184.0,1625052082.407
1465549.0,1625052082.448
1463622.0,1625052082.489
1461998.0,1625052082.529
1460979.0,1625052082.568
1460720.0,1625052082.61
1460503.0,1625052082.649
1460350.0,1625052082.689
1460253.0,1625052082.731
1460143.0,1625052082.768
1460158.0,1625052082.808
1460352.0,1625052082.849
1460627.0,1625052082.888
1461156.0,1625052082.929
1462287.0,1625052083.009
1460622.0,1625052083.089
1457153.0,1625052083.168
1456075.0,1625052083.209
1462113.0,1625052083.049
1458889.0,1625052083.129
1461694.0,1625052082.97
1455309.0,1625052083.249
1455376.0,1625052083.289
1455720.0,1625052083.331
1455630.0,1625052083.369
1455523.0,1625052083.41
1455427.0,1625052083.449
1455612.0,1625052083.488
1455800.0,1625052083.529
1456409.0,1625052083.57
1457191.0,1625052083.609
1458074.0,1625052083.649
1458638.0,1625052083.69
1458099.0,1625052083.73
1456891.0,1625052083.77
1455675.0,1625052083.809
1454629.0,1625052083.848
1454699.0,1625052083.888
1454927.0,1625052083.93
1455405.0,1625052083.969
1455741.0,1625052084.009
1456434.0,1625052084.05
1457845.0,1625052084.09
1458791.0,1625052084.131
1459747.0,1625052084.169
1461420.0,1625052084.208
1463057.0,1625052084.248
1464667.0,1625052084.29
1466313.0,1625052084.329
1467298.0,1625052084.369
1467170.0,1625052084.41
1466863.0,1625052084.45
1467493.0,1625052084.49
1468646.0,1625052084.532
1470244.0,1625052084.568
1472084.0,1625052084.609
1474095.0,1625052084.65
1475667.0,1625052084.689
1476746.0,1625052084.73
1477872.0,1625052084.771
1480178.0,1625052084.81
1482683.0,1625052084.85
1485689.0,1625052084.889
1488439.0,1625052084.929
1490281.0,1625052084.969
1491090.0,1625052085.01
1489401.0,1625052085.049
1486915.0,1625052085.09
1484336.0,1625052085.132
1482951.0,1625052085.17
1482448.0,1625052085.21
1481604.0,1625052085.25
1481220.0,1625052085.289
1480890.0,1625052085.33
1480789.0,1625052085.37
1480961.0,1625052085.409
1480903.0,1625052085.45
1481107.0,1625052085.491
1481292.0,1625052085.531
1481306.0,1625052085.57
1481707.0,1625052085.61
1481758.0,1625052085.649
1478946.0,1625052085.689
1475477.0,1625052085.731
1472090.0,1625052085.77
1469812.0,1625052085.81
1468605.0,1625052085.851
1469999.0,1625052085.891
1472815.0,1625052085.929
1474018.0,1625052085.971
1475131.0,1625052086.009
1477402.0,1625052086.049
1478681.0,1625052086.09
1478642.0,1625052086.13
1479005.0,1625052086.169
1480445.0,1625052086.211
1480012.0,1625052086.25
1478684.0,1625052086.29
1477323.0,1625052086.332
1475923.0,1625052086.371
1474768.0,1625052086.411
1474441.0,1625052086.45
1474544.0,1625052086.489
1476185.0,1625052086.53
1477932.0,1625052086.571
1480288.0,1625052086.61
1481854.0,1625052086.65
1482313.0,1625052086.691
1480779.0,1625052086.731
1478462.0,1625052086.771
1476500.0,1625052086.809
1475033.0,1625052086.848
1476014.0,1625052086.889
1477163.0,1625052086.931
1477180.0,1625052086.969
1476630.0,1625052087.009
1475501.0,1625052087.051
1474809.0,1625052087.082
1474654.0,1625052087.123
1474380.0,1625052087.164
1475149.0,1625052087.203
1475729.0,1625052087.243
1475557.0,1625052087.284
1475812.0,1625052087.323
1476259.0,1625052087.363
1476494.0,1625052087.404
1476794.0,1625052087.443
1476683.0,1625052087.483
1477086.0,1625052087.525
1476270.0,1625052087.563
1474296.0,1625052087.603
1471005.0,1625052087.644
1467481.0,1625052087.683
1464326.0,1625052087.724
1462690.0,1625052087.765
1462453.0,1625052087.802
1462096.0,1625052087.835
1461938.0,1625052087.877
1461574.0,1625052087.913
1461193.0,1625052087.95
1460756.0,1625052087.992
1460523.0,1625052088.031
1460258.0,1625052088.071
1460439.0,1625052088.113
1460193.0,1625052088.152
1460186.0,1625052088.192
1460187.0,1625052088.232
1458727.0,1625052088.272
1456874.0,1625052088.313
1454639.0,1625052088.353
1452989.0,1625052088.392
1452160.0,1625052088.433
1451694.0,1625052088.472
1451702.0,1625052088.512
1451681.0,1625052088.551
1451148.0,1625052088.593
1450831.0,1625052088.632
1450684.0,1625052088.672
1450871.0,1625052088.714
1451149.0,1625052088.753
1451360.0,1625052088.793
1451857.0,1625052088.832
1452368.0,1625052088.871
1452702.0,1625052088.912
1451843.0,1625052088.953
1450018.0,1625052088.992
1447472.0,1625052089.032
1445762.0,1625052089.074
1444614.0,1625052089.113
1444205.0,1625052089.153
1444210.0,1625052089.192
1444241.0,1625052089.231
1444003.0,1625052089.272
1444002.0,1625052089.314
1444240.0,1625052089.352
1444510.0,1625052089.389
1444949.0,1625052089.432
1445506.0,1625052089.471
1446158.0,1625052089.512
1446781.0,1625052089.553
1447535.0,1625052089.592
1447673.0,1625052089.632
1446559.0,1625052089.673
1444418.0,1625052089.713
1442070.0,1625052089.753
1440624.0,1625052089.794
1439716.0,1625052089.831
1439621.0,1625052089.872
1439827.0,1625052089.914
1440129.0,1625052089.952
1440281.0,1625052089.992
1440757.0,1625052090.034
1441416.0,1625052090.073
1442217.0,1625052090.114
1443262.0,1625052090.155
1444408.0,1625052090.191
1445811.0,1625052090.232
1447126.0,1625052090.273
1448904.0,1625052090.313
1450380.0,1625052090.352
1450837.0,1625052090.394
1450499.0,1625052090.433
1449797.0,1625052090.473
1450295.0,1625052090.515
1451509.0,1625052090.552
1453336.0,1625052090.592
1455720.0,1625052090.633
1458461.0,1625052090.672
1459958.0,1625052090.713
1461621.0,1625052090.754
1463228.0,1625052090.793
1464983.0,1625052090.834
1466267.0,1625052090.873
1467261.0,1625052090.913
1467993.0,1625052090.952
1468661.0,1625052090.994
1468802.0,1625052091.033
1468852.0,1625052091.073
1467599.0,1625052091.115
1466044.0,1625052091.154
1464410.0,1625052091.192
1463973.0,1625052091.233
1464204.0,1625052091.273
1464816.0,1625052091.313
1464877.0,1625052091.354
1464967.0,1625052091.393
1465690.0,1625052091.433
1466416.0,1625052091.475
1467082.0,1625052091.515
1467903.0,1625052091.552
1468813.0,1625052091.593
1469972.0,1625052091.633
1470873.0,1625052091.673
1471918.0,1625052091.715
1471433.0,1625052091.753
1469756.0,1625052091.794
1468021.0,1625052091.835
1466363.0,1625052091.872
1465248.0,1625052091.916
1464583.0,1625052091.952
1464895.0,1625052091.994
1465342.0,1625052092.034
1465697.0,1625052092.075
1466459.0,1625052092.115
1467621.0,1625052092.154
1470213.0,1625052092.195
1472965.0,1625052092.234
1477406.0,1625052092.274
1483565.0,1625052092.316
1488405.0,1625052092.354
1488814.0,1625052092.394
1485362.0,1625052092.435
1482310.0,1625052092.475
1478823.0,1625052092.516
1475603.0,1625052092.557
1472926.0,1625052092.596
1471023.0,1625052092.636
1469421.0,1625052092.678
1468001.0,1625052092.718
1466427.0,1625052092.757
1464831.0,1625052092.799
1463098.0,1625052092.836
1462058.0,1625052092.876
1461928.0,1625052092.918
1460915.0,1625052092.957
1460203.0,1625052092.997
1459744.0,1625052093.038
1459205.0,1625052093.077
1458586.0,1625052093.118
1456299.0,1625052093.157
1453437.0,1625052093.196
1451070.0,1625052093.236
1449068.0,1625052093.278
1447899.0,1625052093.318
1447886.0,1625052093.357
1447752.0,1625052093.399
1447762.0,1625052093.438
1447710.0,1625052093.476
1447853.0,1625052093.518
1448292.0,1625052093.557
1448998.0,1625052093.597
1449634.0,1625052093.638
1450442.0,1625052093.677
1451569.0,1625052093.718
1452657.0,1625052093.759
1453589.0,1625052093.796
1453767.0,1625052093.836
1452754.0,1625052093.878
1451115.0,1625052093.918
1449849.0,1625052093.957
1448844.0,1625052093.999
1448592.0,1625052094.038
1449072.0,1625052094.078
1449555.0,1625052094.118
1449742.0,1625052094.157
1450201.0,1625052094.197
1450636.0,1625052094.238
1451346.0,1625052094.277
1451949.0,1625052094.318
1452730.0,1625052094.359
1453611.0,1625052094.398
1454447.0,1625052094.436
1455247.0,1625052094.478
1456364.0,1625052094.517
1456139.0,1625052094.556
1454651.0,1625052094.597
1452978.0,1625052094.637
1451672.0,1625052094.677
1450758.0,1625052094.719
1450645.0,1625052094.758
1451157.0,1625052094.798
1451441.0,1625052094.84
1451428.0,1625052094.877
1451443.0,1625052094.918
1451483.0,1625052094.958
1451658.0,1625052094.997
1451925.0,1625052095.038
1452229.0,1625052095.079
1452826.0,1625052095.119
1453400.0,1625052095.159
1454259.0,1625052095.198
1454728.0,1625052095.237
1453631.0,1625052095.277
1451878.0,1625052095.319
1449891.0,1625052095.358
1448624.0,1625052095.398
1448432.0,1625052095.44
1449775.0,1625052095.479
1453167.0,1625052095.518
1457885.0,1625052095.558
1462677.0,1625052095.597
1466690.0,1625052095.637
1470249.0,1625052095.679
1473745.0,1625052095.719
1476906.0,1625052095.758
1480368.0,1625052095.8
1482400.0,1625052095.837
1481312.0,1625052095.877
1478699.0,1625052095.919
1477149.0,1625052095.958
1474765.0,1625052095.998
1472060.0,1625052096.039
1469591.0,1625052096.079
1467338.0,1625052096.12
1466158.0,1625052096.158
1465154.0,1625052096.197
1464204.0,1625052096.238
1462762.0,1625052096.279
1461501.0,1625052096.319
1460098.0,1625052096.358
1459248.0,1625052096.4
1459176.0,1625052096.439
1458424.0,1625052096.477
1458058.0,1625052096.519
1458066.0,1625052096.558
1457938.0,1625052096.598
1458079.0,1625052096.639
1457953.0,1625052096.679
1456312.0,1625052096.72
1454647.0,1625052096.76
1453153.0,1625052096.799
1452338.0,1625052096.837
1452293.0,1625052096.879
1452861.0,1625052096.919
1453272.0,1625052096.958
1453882.0,1625052097.0
1454079.0,1625052097.039
1454742.0,1625052097.076
1455622.0,1625052097.119
1456498.0,1625052097.157
1457538.0,1625052097.198
1458168.0,1625052097.239
1459220.0,1625052097.278
1459970.0,1625052097.319
1459692.0,1625052097.36
1458624.0,1625052097.399
1457472.0,1625052097.439
1456829.0,1625052097.481
1456643.0,1625052097.52
1456985.0,1625052097.558
1457524.0,1625052097.599
1457879.0,1625052097.638
1458229.0,1625052097.678
1458631.0,1625052097.721
1459143.0,1625052097.759
1459569.0,1625052097.799
1460486.0,1625052097.841
1461473.0,1625052097.878
1462321.0,1625052097.919
1463212.0,1625052097.96
1463852.0,1625052097.999
1463108.0,1625052098.039
1461739.0,1625052098.08
1461098.0,1625052098.12
1460531.0,1625052098.16
1460608.0,1625052098.199
1460694.0,1625052098.238
1460977.0,1625052098.279
1461030.0,1625052098.321
1461176.0,1625052098.359
1461074.0,1625052098.399
1461144.0,1625052098.441
1461597.0,1625052098.48
1462098.0,1625052098.519
1462841.0,1625052098.56
1463378.0,1625052098.599
1463309.0,1625052098.639
1461948.0,1625052098.68
1460027.0,1625052098.72
1457804.0,1625052098.76
1456403.0,1625052098.801
1456267.0,1625052098.838
1456727.0,1625052098.879
1457875.0,1625052098.921
1459253.0,1625052098.959
1460089.0,1625052098.999
1460776.0,1625052099.041
1461979.0,1625052099.08
1463532.0,1625052099.121
1465165.0,1625052099.16
1466244.0,1625052099.199
1467421.0,1625052099.239
1468997.0,1625052099.28
1469397.0,1625052099.32
1468942.0,1625052099.36
1468458.0,1625052099.401
1467227.0,1625052099.44
1466440.0,1625052099.479
1466684.0,1625052099.521
1467667.0,1625052099.559
1469129.0,1625052099.599
1470617.0,1625052099.64
1473098.0,1625052099.68
1473218.0,1625052099.721
1472594.0,1625052099.761
1470556.0,1625052099.8
1468436.0,1625052099.839
1467112.0,1625052099.88
1465739.0,1625052099.92
1464219.0,1625052099.96
1462772.0,1625052100.001
1460624.0,1625052100.04
1457882.0,1625052100.08
1454989.0,1625052100.122
1452467.0,1625052100.159
1450408.0,1625052100.199
1449090.0,1625052100.24
1448244.0,1625052100.28
1448382.0,1625052100.321
1448332.0,1625052100.361
1448197.0,1625052100.4
1448273.0,1625052100.44
1448361.0,1625052100.482
1449008.0,1625052100.52
1449737.0,1625052100.559
1450306.0,1625052100.601
1451120.0,1625052100.64
1452095.0,1625052100.68
1453068.0,1625052100.722
1454077.0,1625052100.761
1454119.0,1625052100.801
1453257.0,1625052100.84
1452559.0,1625052100.879
1452559.0,1625052100.92
1453005.0,1625052100.961
1453917.0,1625052101.0
1454703.0,1625052101.04
1455391.0,1625052101.082
1456223.0,1625052101.122
1456832.0,1625052101.159
1457773.0,1625052101.201
1458627.0,1625052101.24
1459324.0,1625052101.28
1460452.0,1625052101.322
1461481.0,1625052101.361
1462732.0,1625052101.401
1464131.0,1625052101.442
1465085.0,1625052101.479
1464877.0,1625052101.52
1464489.0,1625052101.561
1464167.0,1625052101.6
1464032.0,1625052101.64
1464188.0,1625052101.682
1464307.0,1625052101.721
1464499.0,1625052101.761
1464714.0,1625052101.803
1464650.0,1625052101.839
1464817.0,1625052101.88
1465223.0,1625052101.922
1465722.0,1625052101.96
1466607.0,1625052102.0
1467777.0,1625052102.042
1468618.0,1625052102.081
1469356.0,1625052102.122
1469550.0,1625052102.161
1468165.0,1625052102.2
1466187.0,1625052102.241
1464115.0,1625052102.281
1462718.0,1625052102.321
1462118.0,1625052102.36
1462512.0,1625052102.402
1462889.0,1625052102.441
1463401.0,1625052102.481
1464092.0,1625052102.523
1464946.0,1625052102.562
1466512.0,1625052102.6
1468501.0,1625052102.641
1471226.0,1625052102.68
1474945.0,1625052102.721
1478240.0,1625052102.762
1481748.0,1625052102.801
1484643.0,1625052102.841
1487134.0,1625052102.883
1489000.0,1625052102.921
1487229.0,1625052102.96
1482989.0,1625052103.002
1479972.0,1625052103.041
1478705.0,1625052103.081
1477624.0,1625052103.123
1477250.0,1625052103.162
1476314.0,1625052103.202
1475545.0,1625052103.241
1475085.0,1625052103.28
1474555.0,1625052103.321
1474180.0,1625052103.362
1473857.0,1625052103.401
1473685.0,1625052103.441
1473308.0,1625052103.483
1472728.0,1625052103.523
1472375.0,1625052103.56
1470759.0,1625052103.602
1468967.0,1625052103.641
1467251.0,1625052103.681
1465968.0,1625052103.723
1465190.0,1625052103.761
1464999.0,1625052103.802
1465148.0,1625052103.843
1465346.0,1625052103.88
1465764.0,1625052103.921
1465926.0,1625052103.962
1466478.0,1625052103.995
1466478.0,1625052104.035
1467109.0,1625052104.076
1467996.0,1625052104.116
1469091.0,1625052104.155
1469871.0,1625052104.196
1470900.0,1625052104.236
1471577.0,1625052104.317
1472064.0,1625052104.276
1470280.0,1625052104.356
1468881.0,1625052104.396
1468238.0,1625052104.437
1467954.0,1625052104.475
1468423.0,1625052104.516
1468801.0,1625052104.554
1469199.0,1625052104.593
1469321.0,1625052104.63
1469297.0,1625052104.661
1469321.0,1625052104.701
1469436.0,1625052104.739
1469770.0,1625052104.781
1470594.0,1625052104.82
1472891.0,1625052104.86
1472660.0,1625052104.901
1473006.0,1625052104.94
1472423.0,1625052104.98
1470071.0,1625052105.021
1467657.0,1625052105.061
1467260.0,1625052105.102
1466867.0,1625052105.142
1465324.0,1625052105.181
1464305.0,1625052105.222
1463680.0,1625052105.261
1463427.0,1625052105.301
1464299.0,1625052105.34
1466381.0,1625052105.382
1468491.0,1625052105.421
1468787.0,1625052105.461
1468895.0,1625052105.503
1470285.0,1625052105.542
1471477.0,1625052105.582
1469958.0,1625052105.621
1465910.0,1625052105.66
1462700.0,1625052105.701
1462032.0,1625052105.742
1463600.0,1625052105.781
1466069.0,1625052105.821
1468701.0,1625052105.863
1471003.0,1625052105.903
1473065.0,1625052105.935
1474155.0,1625052105.976
1474808.0,1625052106.015
1475331.0,1625052106.055
1475928.0,1625052106.097
1475808.0,1625052106.135
1475774.0,1625052106.175
1476051.0,1625052106.217
1476413.0,1625052106.256
1476033.0,1625052106.296
1475297.0,1625052106.337
1473218.0,1625052106.376
1471214.0,1625052106.416
1469465.0,1625052106.457
1468081.0,1625052106.497
1467388.0,1625052106.536
1466461.0,1625052106.577
1465823.0,1625052106.616
1465082.0,1625052106.656
1464246.0,1625052106.697
1463676.0,1625052106.732
1463794.0,1625052106.773
1463931.0,1625052106.807
1464116.0,1625052106.846
1464244.0,1625052106.884
1464575.0,1625052106.923
1465179.0,1625052106.962
1464710.0,1625052107.002
1463317.0,1625052107.044
1461677.0,1625052107.083
1460460.0,1625052107.123
1459849.0,1625052107.164
1459403.0,1625052107.203
1459510.0,1625052107.242
1459785.0,1625052107.283
1459613.0,1625052107.32
1459509.0,1625052107.361
1459533.0,1625052107.402
1460052.0,1625052107.441
1460321.0,1625052107.482
1460934.0,1625052107.523
1461526.0,1625052107.562
1462178.0,1625052107.602
1462569.0,1625052107.644
1461908.0,1625052107.684
1460339.0,1625052107.723
1458704.0,1625052107.765
1457325.0,1625052107.802
1456463.0,1625052107.842
1456150.0,1625052107.884
1456382.0,1625052107.923
1456464.0,1625052107.963
1456234.0,1625052108.004
1455892.0,1625052108.044
1455940.0,1625052108.084
1455937.0,1625052108.123
1456330.0,1625052108.162
1456541.0,1625052108.203
1457008.0,1625052108.244
1457275.0,1625052108.284
1457091.0,1625052108.323
1455680.0,1625052108.365
1453078.0,1625052108.404
1450809.0,1625052108.442
1448962.0,1625052108.484
1448040.0,1625052108.523
1447895.0,1625052108.563
1448037.0,1625052108.604
1448035.0,1625052108.643
1447967.0,1625052108.684
1447870.0,1625052108.725
1448130.0,1625052108.764
1448936.0,1625052108.802
1450274.0,1625052108.844
1452769.0,1625052108.884
1456079.0,1625052108.923
1460633.0,1625052108.965
1464501.0,1625052109.004
1466215.0,1625052109.044
1466693.0,1625052109.086
1465204.0,1625052109.122
1463379.0,1625052109.163
1462014.0,1625052109.204
1461702.0,1625052109.243
1461852.0,1625052109.284
1462030.0,1625052109.325
1462210.0,1625052109.364
1463162.0,1625052109.404
1464056.0,1625052109.446
1465259.0,1625052109.483
1466393.0,1625052109.523
1466739.0,1625052109.564
1467137.0,1625052109.603
1466152.0,1625052109.644
1464266.0,1625052109.686
1462913.0,1625052109.724
1462264.0,1625052109.765
1461239.0,1625052109.804
1459072.0,1625052109.842
1456108.0,1625052109.883
1453397.0,1625052109.924
1451242.0,1625052109.963
1449936.0,1625052110.003
1449163.0,1625052110.045
1448980.0,1625052110.085
1448599.0,1625052110.124
1448681.0,1625052110.166
1448884.0,1625052110.203
1449151.0,1625052110.243
1449963.0,1625052110.285
1450856.0,1625052110.324
1452170.0,1625052110.364
1453307.0,1625052110.405
1454472.0,1625052110.444
1455460.0,1625052110.485
1456605.0,1625052110.526
1457336.0,1625052110.563
1456926.0,1625052110.603
1456054.0,1625052110.645
1454889.0,1625052110.685
1454283.0,1625052110.724
1454431.0,1625052110.766
1454908.0,1625052110.805
1455425.0,1625052110.845
1456120.0,1625052110.885
1456518.0,1625052110.923
1457160.0,1625052110.964
1457955.0,1625052111.005
1458831.0,1625052111.044
1459805.0,1625052111.085
1460836.0,1625052111.126
1462009.0,1625052111.165
1463092.0,1625052111.203
1464077.0,1625052111.245
1464568.0,1625052111.285
1463856.0,1625052111.324
1462428.0,1625052111.366
1461157.0,1625052111.405
1459721.0,1625052111.445
1458709.0,1625052111.487
1458682.0,1625052111.523
1458815.0,1625052111.564
1459098.0,1625052111.605
1459463.0,1625052111.644
1459598.0,1625052111.685
1459797.0,1625052111.726
1460221.0,1625052111.765
1460654.0,1625052111.805
1461010.0,1625052111.845
1461706.0,1625052111.885
1462591.0,1625052111.924
1463118.0,1625052111.966
1463729.0,1625052112.005
1464076.0,1625052112.045
1463697.0,1625052112.087
1462141.0,1625052112.126
1459998.0,1625052112.164
1458142.0,1625052112.205
1457197.0,1625052112.244
1456824.0,1625052112.285
1457079.0,1625052112.326
1457443.0,1625052112.365
1457516.0,1625052112.404
1457578.0,1625052112.443
1457885.0,1625052112.483
1458248.0,1625052112.523
1458986.0,1625052112.564
1459890.0,1625052112.604
1460670.0,1625052112.644
1461205.0,1625052112.686
1462258.0,1625052112.724
1462890.0,1625052112.765
1463378.0,1625052112.806
1462841.0,1625052112.845
1460756.0,1625052112.886
1458996.0,1625052112.927
1457490.0,1625052112.964
1456967.0,1625052113.004
1457101.0,1625052113.046
1457362.0,1625052113.086
1458031.0,1625052113.125
1458469.0,1625052113.167
1459079.0,1625052113.206
1459606.0,1625052113.246
1460591.0,1625052113.286
1461601.0,1625052113.324
1463692.0,1625052113.365
1465772.0,1625052113.406
1469004.0,1625052113.445
1470703.0,1625052113.486
1472990.0,1625052113.527
1474688.0,1625052113.566
1475662.0,1625052113.606
1476437.0,1625052113.645
1477765.0,1625052113.685
1479361.0,1625052113.725
1481455.0,1625052113.766
1484208.0,1625052113.805
1485499.0,1625052113.846
1485227.0,1625052113.888
1485751.0,1625052113.926
1485673.0,1625052113.964
1485501.0,1625052114.006
1486055.0,1625052114.045
1487492.0,1625052114.086
1489332.0,1625052114.127
1491549.0,1625052114.166
1493906.0,1625052114.206
1495583.0,1625052114.247
1496062.0,1625052114.285
1494564.0,1625052114.325
1492524.0,1625052114.366
1490890.0,1625052114.405
1489569.0,1625052114.446
1488583.0,1625052114.488
1488015.0,1625052114.526
1487736.0,1625052114.566
1488074.0,1625052114.608
1489027.0,1625052114.645
1490637.0,1625052114.686
1492688.0,1625052114.726
1494649.0,1625052114.765
1496142.0,1625052114.806
1497744.0,1625052114.847
1499159.0,1625052114.887
1499812.0,1625052114.927
1498830.0,1625052114.965
1495026.0,1625052115.004
1490404.0,1625052115.044
1486651.0,1625052115.087
1483814.0,1625052115.125
1482475.0,1625052115.165
1482162.0,1625052115.207
1482072.0,1625052115.246
1481755.0,1625052115.287
1481564.0,1625052115.328
1480889.0,1625052115.367
1480995.0,1625052115.407
1481439.0,1625052115.446
1481796.0,1625052115.486
1481656.0,1625052115.526
1481134.0,1625052115.567
1480315.0,1625052115.606
1478971.0,1625052115.646
1477905.0,1625052115.688
1475894.0,1625052115.727
1473621.0,1625052115.765
1471895.0,1625052115.807
1470707.0,1625052115.846
1470006.0,1625052115.887
1470166.0,1625052115.932
1470221.0,1625052115.956
1470221.0,1625052115.996
1471604.0,1625052116.038
1473103.0,1625052116.077
1475165.0,1625052116.117
1476501.0,1625052116.158
1476598.0,1625052116.197
1475422.0,1625052116.237
1474099.0,1625052116.279
1472172.0,1625052116.317
1470633.0,1625052116.357
1468627.0,1625052116.398
1465593.0,1625052116.438
1461881.0,1625052116.473
1458279.0,1625052116.51
1455084.0,1625052116.546
1452569.0,1625052116.587
1450354.0,1625052116.628
1448442.0,1625052116.668
1446700.0,1625052116.707
1445643.0,1625052116.749
1444309.0,1625052116.788
1443541.0,1625052116.828
1444275.0,1625052116.868
1444585.0,1625052116.907
1445209.0,1625052116.947
1446007.0,1625052116.988
1446505.0,1625052117.028
1446430.0,1625052117.068
1445148.0,1625052117.109
1443190.0,1625052117.148
1441466.0,1625052117.189
1440020.0,1625052117.228
1439174.0,1625052117.268
1439319.0,1625052117.307
1439540.0,1625052117.349
1439652.0,1625052117.388
1439736.0,1625052117.428
1439996.0,1625052117.47
1440416.0,1625052117.509
1440847.0,1625052117.549
1441423.0,1625052117.59
1442368.0,1625052117.627
1443250.0,1625052117.668
1443813.0,1625052117.708
1443507.0,1625052117.748
1441541.0,1625052117.788
1439602.0,1625052117.829
1437994.0,1625052117.869
1437039.0,1625052117.909
1436730.0,1625052117.948
1436725.0,1625052117.987
1436962.0,1625052118.028
1436944.0,1625052118.07
1436979.0,1625052118.108
1436850.0,1625052118.148
1437111.0,1625052118.19
1437121.0,1625052118.229
1437218.0,1625052118.27
1437939.0,1625052118.308
1438323.0,1625052118.347
1438138.0,1625052118.388
1437515.0,1625052118.429
1435169.0,1625052118.469
1432317.0,1625052118.508
1430185.0,1625052118.55
1428885.0,1625052118.589
1428368.0,1625052118.629
1428276.0,1625052118.669
1428543.0,1625052118.708
1428318.0,1625052118.748
1428112.0,1625052118.789
1428091.0,1625052118.829
1427960.0,1625052118.87
1428781.0,1625052118.91
1429525.0,1625052118.949
1430121.0,1625052118.987
1430778.0,1625052119.029
1431679.0,1625052119.069
1431939.0,1625052119.108
1431214.0,1625052119.15
1428992.0,1625052119.189
1426409.0,1625052119.229
1424357.0,1625052119.271
1422981.0,1625052119.309
1422718.0,1625052119.348
1422870.0,1625052119.389
1423331.0,1625052119.428
1423475.0,1625052119.469
1423504.0,1625052119.51
1423814.0,1625052119.549
1424381.0,1625052119.589
1425228.0,1625052119.63
1426103.0,1625052119.67
1427135.0,1625052119.708
1428155.0,1625052119.749
1429162.0,1625052119.788
1430070.0,1625052119.829
1431013.0,1625052119.871
1431458.0,1625052119.909
1430711.0,1625052119.949
1428575.0,1625052119.991
1426502.0,1625052120.028
1425097.0,1625052120.069
1424540.0,1625052120.109
1424997.0,1625052120.148
1425543.0,1625052120.188
1426146.0,1625052120.23
1426963.0,1625052120.269
1427434.0,1625052120.309
1428057.0,1625052120.35
1429190.0,1625052120.389
1430380.0,1625052120.43
1431597.0,1625052120.47
1432985.0,1625052120.508
1434349.0,1625052120.548
1435623.0,1625052120.59
1437075.0,1625052120.629
1438231.0,1625052120.67
1438694.0,1625052120.71
1437787.0,1625052120.75
1436384.0,1625052120.788
1435412.0,1625052120.829
1435174.0,1625052120.869
1435474.0,1625052120.909
1436230.0,1625052120.949
1436681.0,1625052120.988
1437605.0,1625052121.029
1438133.0,1625052121.071
1438698.0,1625052121.109
1439688.0,1625052121.149
1440413.0,1625052121.191
1441367.0,1625052121.23
1442350.0,1625052121.271
1443561.0,1625052121.309
1444526.0,1625052121.349
1445396.0,1625052121.389
1446214.0,1625052121.43
1445655.0,1625052121.47
1444423.0,1625052121.509
1443091.0,1625052121.551
1442170.0,1625052121.59
1441709.0,1625052121.63
1441832.0,1625052121.67
1442083.0,1625052121.709
1442380.0,1625052121.749
1442323.0,1625052121.79
1442337.0,1625052121.83
1442535.0,1625052121.87
1442722.0,1625052121.911
1443257.0,1625052121.95
1443657.0,1625052121.99
1443910.0,1625052122.03
1444783.0,1625052122.069
1445605.0,1625052122.109
1445866.0,1625052122.15
1445288.0,1625052122.189
1443342.0,1625052122.23
1441295.0,1625052122.272
1439542.0,1625052122.31
1438454.0,1625052122.35
1438161.0,1625052122.39
1438466.0,1625052122.429
1438507.0,1625052122.47
1438340.0,1625052122.51
1438563.0,1625052122.55
1438794.0,1625052122.59
1439375.0,1625052122.631
1439955.0,1625052122.668
1440473.0,1625052122.709
1441347.0,1625052122.75
1442339.0,1625052122.789
1443269.0,1625052122.829
1443705.0,1625052122.871
1443237.0,1625052122.909
1441625.0,1625052122.95
1439617.0,1625052122.991
1437746.0,1625052123.03
1436695.0,1625052123.071
1436825.0,1625052123.112
1437359.0,1625052123.151
1438710.0,1625052123.23
1440368.0,1625052123.31
1439562.0,1625052123.27
1438284.0,1625052123.189
1441449.0,1625052123.351
1442860.0,1625052123.39
1443860.0,1625052123.43
1444876.0,1625052123.472
1445945.0,1625052123.511
1446760.0,1625052123.549
1447582.0,1625052123.59
1446983.0,1625052123.63
1445387.0,1625052123.671
1444097.0,1625052123.711
1442941.0,1625052123.75
1443070.0,1625052123.791
1443424.0,1625052123.832
1444268.0,1625052123.909
1444299.0,1625052123.951
1443925.0,1625052123.872
1444985.0,1625052123.99
1445632.0,1625052124.03
1446335.0,1625052124.072
1447249.0,1625052124.111
1448299.0,1625052124.151
1449204.0,1625052124.192
1449997.0,1625052124.231
1450420.0,1625052124.27
1449542.0,1625052124.311
1448150.0,1625052124.35
1446539.0,1625052124.39
1445571.0,1625052124.471
1445609.0,1625052124.431
1445622.0,1625052124.511
1445870.0,1625052124.552
1445779.0,1625052124.591
1445211.0,1625052124.63
1445280.0,1625052124.672
1445119.0,1625052124.71
1445181.0,1625052124.75
1445122.0,1625052124.792
1445357.0,1625052124.831
1445563.0,1625052124.872
1445784.0,1625052124.912
1445206.0,1625052124.952
1443313.0,1625052124.99
1440803.0,1625052125.031
1438969.0,1625052125.071
1437478.0,1625052125.11
1436796.0,1625052125.151
1436947.0,1625052125.19
1436853.0,1625052125.23
1436643.0,1625052125.272
1436578.0,1625052125.31
1436479.0,1625052125.351
1436605.0,1625052125.392
1437215.0,1625052125.431
1437555.0,1625052125.472
1437872.0,1625052125.512
1438627.0,1625052125.551
1439135.0,1625052125.591
1438488.0,1625052125.632
1437067.0,1625052125.672
1434519.0,1625052125.711
1432468.0,1625052125.752
1431369.0,1625052125.791
1430577.0,1625052125.832
1430464.0,1625052125.874
1431019.0,1625052125.912
1430902.0,1625052125.95
1430974.0,1625052125.991
1431398.0,1625052126.031
1432154.0,1625052126.072
1433021.0,1625052126.112
1433981.0,1625052126.151
1434862.0,1625052126.191
1435937.0,1625052126.233
1437111.0,1625052126.273
1437656.0,1625052126.312
1436919.0,1625052126.351
1435189.0,1625052126.391
1433740.0,1625052126.431
1433016.0,1625052126.473
1432891.0,1625052126.511
1433845.0,1625052126.552
1434655.0,1625052126.593
1435404.0,1625052126.632
1435810.0,1625052126.673
1436328.0,1625052126.711
1437096.0,1625052126.751
1438108.0,1625052126.791
1439098.0,1625052126.832
1440114.0,1625052126.872
1441470.0,1625052126.912
1442916.0,1625052126.953
1444121.0,1625052126.992
1444269.0,1625052127.031
1443762.0,1625052127.072
1443718.0,1625052127.111
1445254.0,1625052127.151
1447111.0,1625052127.192
1449094.0,1625052127.232
1450564.0,1625052127.273
1451338.0,1625052127.313
1451867.0,1625052127.352
1452580.0,1625052127.393
1453159.0,1625052127.432
1454094.0,1625052127.472
1454692.0,1625052127.511
1455629.0,1625052127.552
1456713.0,1625052127.592
1457757.0,1625052127.632
1458181.0,1625052127.674
1457659.0,1625052127.712
1456405.0,1625052127.751
1454618.0,1625052127.792
1453233.0,1625052127.831
1452153.0,1625052127.872
1452378.0,1625052127.912
1452672.0,1625052127.954
1453367.0,1625052127.995
1453634.0,1625052128.036
1454100.0,1625052128.075
1454779.0,1625052128.115
1455305.0,1625052128.156
1455841.0,1625052128.195
1456150.0,1625052128.235
1457067.0,1625052128.277
1457214.0,1625052128.315
1457545.0,1625052128.355
1456563.0,1625052128.396
1454650.0,1625052128.436
1452023.0,1625052128.478
1450004.0,1625052128.518
1448515.0,1625052128.557
1448252.0,1625052128.597
1448602.0,1625052128.638
1448750.0,1625052128.678
1448493.0,1625052128.718
1448436.0,1625052128.759
1448577.0,1625052128.798
1448787.0,1625052128.839
1449183.0,1625052128.881
1449788.0,1625052128.919
1450591.0,1625052128.957
1451452.0,1625052128.999
1452245.0,1625052129.038
1452786.0,1625052129.079
1451827.0,1625052129.119
1449285.0,1625052129.158
1446739.0,1625052129.199
1444853.0,1625052129.24
1443723.0,1625052129.28
1443429.0,1625052129.319
1443927.0,1625052129.358
1444486.0,1625052129.398
1444224.0,1625052129.438
1444273.0,1625052129.48
1444288.0,1625052129.518
1444437.0,1625052129.559
1445040.0,1625052129.6
1445999.0,1625052129.639
1447255.0,1625052129.68
1448780.0,1625052129.719
1450384.0,1625052129.758
1451817.0,1625052129.798
1451985.0,1625052129.839
1451101.0,1625052129.879
1448836.0,1625052129.919
1447165.0,1625052129.96
1446127.0,1625052129.999
1446261.0,1625052130.038
1446931.0,1625052130.08
1447663.0,1625052130.118
1448229.0,1625052130.158
1449323.0,1625052130.2
1450272.0,1625052130.239
1451639.0,1625052130.28
1453032.0,1625052130.32
1454411.0,1625052130.357
1455451.0,1625052130.398
1456727.0,1625052130.44
1458085.0,1625052130.479
1459673.0,1625052130.518
1460530.0,1625052130.559
1460161.0,1625052130.598
1458811.0,1625052130.639
1457572.0,1625052130.681
1456786.0,1625052130.719
1456913.0,1625052130.759
1457338.0,1625052130.801
1457714.0,1625052130.84
1458181.0,1625052130.879
1458487.0,1625052130.919
1458896.0,1625052130.958
1459717.0,1625052130.998
1460668.0,1625052131.039
1461397.0,1625052131.079
1462289.0,1625052131.119
1463331.0,1625052131.16
1463993.0,1625052131.199
1465164.0,1625052131.239
1465506.0,1625052131.281
1464555.0,1625052131.32
1463078.0,1625052131.36
1461786.0,1625052131.399
1461034.0,1625052131.438
1461235.0,1625052131.479
1461474.0,1625052131.52
1462251.0,1625052131.559
1462487.0,1625052131.599
1462690.0,1625052131.641
1463186.0,1625052131.681
1464222.0,1625052131.72
1465355.0,1625052131.759
1467541.0,1625052131.799
1469352.0,1625052131.839
1470996.0,1625052131.881
1472333.0,1625052131.919
1473561.0,1625052131.96
1473253.0,1625052132.001
1471703.0,1625052132.04
1469602.0,1625052132.081
1467941.0,1625052132.12
1467047.0,1625052132.159
1466618.0,1625052132.199
1466658.0,1625052132.24
1466628.0,1625052132.28
1466246.0,1625052132.32
1466395.0,1625052132.361
1466624.0,1625052132.4
1467173.0,1625052132.441
1467969.0,1625052132.48
1468435.0,1625052132.519
1469028.0,1625052132.559
1469642.0,1625052132.6
1469810.0,1625052132.64
1469887.0,1625052132.681
1468762.0,1625052132.721
1466510.0,1625052132.761
1464185.0,1625052132.799
1462411.0,1625052132.84
1461210.0,1625052132.88
1461002.0,1625052132.919
1461507.0,1625052132.96
1461605.0,1625052132.999
1461543.0,1625052133.04
1461394.0,1625052133.082
1461479.0,1625052133.12
1461452.0,1625052133.16
1461866.0,1625052133.202
1462249.0,1625052133.241
1462730.0,1625052133.28
1463323.0,1625052133.32
1464145.0,1625052133.359
1464825.0,1625052133.4
1465035.0,1625052133.441
1464270.0,1625052133.481
1462372.0,1625052133.52
1460318.0,1625052133.562
1458416.0,1625052133.601
1457457.0,1625052133.639
1457549.0,1625052133.681
1457817.0,1625052133.72
1458470.0,1625052133.76
1459158.0,1625052133.801
1460255.0,1625052133.881
1460974.0,1625052133.922
1459672.0,1625052133.84
1462224.0,1625052133.961
1463255.0,1625052133.999
1464395.0,1625052134.041
1465401.0,1625052134.08
1466311.0,1625052134.12
1467539.0,1625052134.161
1468161.0,1625052134.2
1467959.0,1625052134.241
1466828.0,1625052134.283
1465487.0,1625052134.321
1464679.0,1625052134.359
1464231.0,1625052134.401
1464511.0,1625052134.44
1464959.0,1625052134.481
1465507.0,1625052134.521
1466256.0,1625052134.601
1467041.0,1625052134.642
1465861.0,1625052134.561
1468737.0,1625052134.72
1469514.0,1625052134.761
1470651.0,1625052134.8
1471715.0,1625052134.84
1467804.0,1625052134.682
1472714.0,1625052134.882
1473530.0,1625052134.921
1473361.0,1625052134.961
1472566.0,1625052135.003
1471129.0,1625052135.04
1470321.0,1625052135.081
1469856.0,1625052135.121
1469787.0,1625052135.16
1470462.0,1625052135.201
1470380.0,1625052135.242
1470599.0,1625052135.282
1470858.0,1625052135.321
1471123.0,1625052135.363
1471617.0,1625052135.4
1472297.0,1625052135.44
1473072.0,1625052135.482
1473713.0,1625052135.52
1474739.0,1625052135.56
1475261.0,1625052135.601
1475566.0,1625052135.64
1474727.0,1625052135.681
1472896.0,1625052135.722
1471045.0,1625052135.761
1470026.0,1625052135.802
1469196.0,1625052135.843
1469403.0,1625052135.881
1469486.0,1625052135.92
1470137.0,1625052136.0
1469780.0,1625052135.961
1470283.0,1625052136.04
1471020.0,1625052136.082
1471824.0,1625052136.121
1472836.0,1625052136.161
1473635.0,1625052136.202
1475684.0,1625052136.282
1474607.0,1625052136.241
1475961.0,1625052136.323
1475169.0,1625052136.36
1473280.0,1625052136.4
1471281.0,1625052136.442
1469847.0,1625052136.482
1469157.0,1625052136.521
1469304.0,1625052136.602
1469343.0,1625052136.562
1469376.0,1625052136.642
1469162.0,1625052136.684
1469459.0,1625052136.72
1469803.0,1625052136.761
1470448.0,1625052136.802
1471122.0,1625052136.841
1472031.0,1625052136.882
1472610.0,1625052136.923
1473433.0,1625052136.962
1472947.0,1625052137.002
1469088.0,1625052137.081
1471458.0,1625052137.042
1467635.0,1625052137.121
1466295.0,1625052137.162
1465898.0,1625052137.201
1465789.0,1625052137.242
1465709.0,1625052137.284
1465209.0,1625052137.322
1464718.0,1625052137.362
1464829.0,1625052137.402
1464945.0,1625052137.441
1465228.0,1625052137.482
1465425.0,1625052137.522
1465977.0,1625052137.562
1465256.0,1625052137.643
1462755.0,1625052137.683
1460085.0,1625052137.723
1456715.0,1625052137.841
1458239.0,1625052137.762
1457050.0,1625052137.801
1466189.0,1625052137.602
1456658.0,1625052137.922
1456761.0,1625052137.883
1456583.0,1625052137.962
1456575.0,1625052138.003
1456427.0,1625052138.04
1456577.0,1625052138.082
1457147.0,1625052138.122
1457538.0,1625052138.161
1457911.0,1625052138.201
1457205.0,1625052138.242
1455134.0,1625052138.282
1452348.0,1625052138.322
1450698.0,1625052138.363
1449405.0,1625052138.402
1449203.0,1625052138.484
1448926.0,1625052138.443
1449479.0,1625052138.523
1449311.0,1625052138.561
1449672.0,1625052138.683
1450518.0,1625052138.723
1449067.0,1625052138.602
1449130.0,1625052138.642
1451189.0,1625052138.762
1452125.0,1625052138.803
1452123.0,1625052138.844
1450561.0,1625052138.884
1448311.0,1625052138.921
1446170.0,1625052138.962
1445089.0,1625052139.002
1444741.0,1625052139.042
1445855.0,1625052139.084
1446705.0,1625052139.122
1447071.0,1625052139.163
1447541.0,1625052139.204
1450520.0,1625052139.282
1452357.0,1625052139.323
1448759.0,1625052139.243
1454339.0,1625052139.362
1456144.0,1625052139.402
1457889.0,1625052139.443
1459467.0,1625052139.483
1459976.0,1625052139.523
1458890.0,1625052139.564
1457109.0,1625052139.603
1455882.0,1625052139.642
1455371.0,1625052139.683
1455229.0,1625052139.722
1455373.0,1625052139.762
1455789.0,1625052139.804
1456218.0,1625052139.843
1457003.0,1625052139.884
1458875.0,1625052139.924
1461848.0,1625052139.955
1464810.0,1625052139.995
1469919.0,1625052140.076
1474085.0,1625052140.116
1467192.0,1625052140.037
1477583.0,1625052140.157
1480897.0,1625052140.196
1485319.0,1625052140.236
1488226.0,1625052140.277
1488490.0,1625052140.316
1486777.0,1625052140.356
1483614.0,1625052140.397
1479117.0,1625052140.478
1481107.0,1625052140.437
1476550.0,1625052140.518
1474307.0,1625052140.557
1472299.0,1625052140.597
1470678.0,1625052140.638
1469665.0,1625052140.678
1469397.0,1625052140.717
1469542.0,1625052140.759
1469991.0,1625052140.798
1474117.0,1625052140.88
1476773.0,1625052140.957
1476308.0,1625052140.998
1477195.0,1625052141.038
1476666.0,1625052140.919
1470911.0,1625052140.838
1478569.0,1625052141.078
1479934.0,1625052141.119
1481611.0,1625052141.158
1483865.0,1625052141.198
1487845.0,1625052141.28
1485636.0,1625052141.24
1489602.0,1625052141.319
1488827.0,1625052141.358
1488281.0,1625052141.397
1487053.0,1625052141.438
1485812.0,1625052141.48
1484784.0,1625052141.518
1483461.0,1625052141.559
1481556.0,1625052141.6
1478467.0,1625052141.639
1475103.0,1625052141.68
1471823.0,1625052141.718
1469354.0,1625052141.758
1467517.0,1625052141.798
1466012.0,1625052141.839
1465331.0,1625052141.879
1464515.0,1625052141.919
1463957.0,1625052141.96
1463981.0,1625052141.999
1464095.0,1625052142.038
1464305.0,1625052142.08
1464795.0,1625052142.118
1465534.0,1625052142.158
1466373.0,1625052142.2
1467251.0,1625052142.239
1468329.0,1625052142.28
1468929.0,1625052142.32
1467956.0,1625052142.36
1466403.0,1625052142.398
1464867.0,1625052142.439
1464253.0,1625052142.479
1463960.0,1625052142.518
1464444.0,1625052142.56
1465310.0,1625052142.599
1466166.0,1625052142.639
1466863.0,1625052142.681
1467629.0,1625052142.72
1468476.0,1625052142.758
1469284.0,1625052142.799
1470417.0,1625052142.838
1471393.0,1625052142.879
1472821.0,1625052142.92
1473843.0,1625052142.959
1474550.0,1625052142.999
1474763.0,1625052143.041
1474400.0,1625052143.081
1473461.0,1625052143.118
1473729.0,1625052143.159
1475035.0,1625052143.198
1477771.0,1625052143.238
1481012.0,1625052143.28
1483344.0,1625052143.319
1485810.0,1625052143.401
1484878.0,1625052143.359
1487334.0,1625052143.44
1489141.0,1625052143.481
1491249.0,1625052143.519
1493662.0,1625052143.558
1495156.0,1625052143.599
1496827.0,1625052143.64
1497008.0,1625052143.68
1494859.0,1625052143.719
1490820.0,1625052143.761
1486899.0,1625052143.8
1483914.0,1625052143.838
1481770.0,1625052143.88
1479545.0,1625052143.919
1477561.0,1625052143.959
1475523.0,1625052144.0
1473527.0,1625052144.04
1471795.0,1625052144.08
1470114.0,1625052144.121
1469189.0,1625052144.16
1468524.0,1625052144.198
1467697.0,1625052144.24
1467454.0,1625052144.28
1467948.0,1625052144.319
1467868.0,1625052144.361
1466377.0,1625052144.4
1463637.0,1625052144.44
1460785.0,1625052144.482
1458645.0,1625052144.52
1456914.0,1625052144.559
1456026.0,1625052144.6
1455919.0,1625052144.639
1455427.0,1625052144.68
1455253.0,1625052144.721
1454967.0,1625052144.76
1455099.0,1625052144.8
1455244.0,1625052144.841
1455442.0,1625052144.877
1455901.0,1625052144.917
1456667.0,1625052144.958
1457086.0,1625052144.997
1457798.0,1625052145.037
1458093.0,1625052145.078
1457375.0,1625052145.117
1455638.0,1625052145.157
1451771.0,1625052145.237
1453310.0,1625052145.198
1451454.0,1625052145.278
1451636.0,1625052145.318
1451950.0,1625052145.357
1452480.0,1625052145.397
1452675.0,1625052145.438
1453097.0,1625052145.479
1453742.0,1625052145.518
1454300.0,1625052145.56
1455124.0,1625052145.599
1456097.0,1625052145.639
1457202.0,1625052145.681
1458159.0,1625052145.719
1459191.0,1625052145.759
1457754.0,1625052145.84
1459028.0,1625052145.8
1455877.0,1625052145.881
1454606.0,1625052145.922
1453815.0,1625052145.96
1454200.0,1625052146.001
1455056.0,1625052146.042
1456013.0,1625052146.082
1457305.0,1625052146.119
1462317.0,1625052146.2
1459547.0,1625052146.16
1470102.0,1625052146.282
1465713.0,1625052146.24
1475745.0,1625052146.321
1481498.0,1625052146.361
1480817.0,1625052146.48
1477584.0,1625052146.521
1484143.0,1625052146.402
1483560.0,1625052146.441
1473741.0,1625052146.56
1469888.0,1625052146.6
1466641.0,1625052146.641
1463992.0,1625052146.681
1459880.0,1625052146.762
1461907.0,1625052146.721
1457945.0,1625052146.799
1454297.0,1625052146.882
1455922.0,1625052146.84
1452931.0,1625052146.92
1451948.0,1625052146.96
1450718.0,1625052147.082
1450684.0,1625052147.041
1451212.0,1625052147.002
1450723.0,1625052147.123
1450501.0,1625052147.16
1450423.0,1625052147.2
1449470.0,1625052147.241
1447596.0,1625052147.281
1444938.0,1625052147.321
1442082.0,1625052147.401
1443035.0,1625052147.362
1441950.0,1625052147.441
1442509.0,1625052147.483
1443258.0,1625052147.52
1443959.0,1625052147.601
1443722.0,1625052147.56
1444768.0,1625052147.641
1445369.0,1625052147.682
1446468.0,1625052147.722
1447406.0,1625052147.761
1449579.0,1625052147.841
1450904.0,1625052147.881
1448562.0,1625052147.802
1452131.0,1625052147.92
1452883.0,1625052148.001
1453052.0,1625052147.962
1452443.0,1625052148.041
1452230.0,1625052148.083
1453664.0,1625052148.122
1457606.0,1625052148.162
1461207.0,1625052148.201
1464693.0,1625052148.24
1467076.0,1625052148.281
1469143.0,1625052148.322
1473030.0,1625052148.361
1477852.0,1625052148.401
1479637.0,1625052148.442
1479133.0,1625052148.482
1477378.0,1625052148.522
1475853.0,1625052148.563
1474445.0,1625052148.6
1473191.0,1625052148.641
1471670.0,1625052148.683
1468722.0,1625052148.721
1465610.0,1625052148.761
1462699.0,1625052148.803
1460602.0,1625052148.842
1459060.0,1625052148.883
1458569.0,1625052148.921
1458430.0,1625052148.961
1458133.0,1625052149.001
1457775.0,1625052149.042
1458026.0,1625052149.082
1458148.0,1625052149.122
1459079.0,1625052149.163
1459759.0,1625052149.202
1460273.0,1625052149.242
1461223.0,1625052149.282
1462242.0,1625052149.321
1463042.0,1625052149.361
1463407.0,1625052149.402
1462438.0,1625052149.442
1461198.0,1625052149.482
1459828.0,1625052149.523
1458835.0,1625052149.562
1458849.0,1625052149.603
1459257.0,1625052149.642
1459609.0,1625052149.682
1460164.0,1625052149.721
1460864.0,1625052149.763
1462012.0,1625052149.802
1462701.0,1625052149.842
1463792.0,1625052149.884
1464425.0,1625052149.923
1465682.0,1625052149.961
1466787.0,1625052150.002
1468022.0,1625052150.041
1468056.0,1625052150.082
1466862.0,1625052150.123
1465457.0,1625052150.162
1464913.0,1625052150.202
1464844.0,1625052150.244
1466632.0,1625052150.284
1468630.0,1625052150.321
1471982.0,1625052150.362
1476147.0,1625052150.401
1479494.0,1625052150.442
1483045.0,1625052150.484
1487531.0,1625052150.522
1492984.0,1625052150.604
1490468.0,1625052150.563
1496264.0,1625052150.643
1498095.0,1625052150.682
1496351.0,1625052150.722
1493821.0,1625052150.762
1489858.0,1625052150.802
1485463.0,1625052150.843
1481462.0,1625052150.883
1477939.0,1625052150.922
1475185.0,1625052150.964
1473274.0,1625052151.003
1471345.0,1625052151.041
1469520.0,1625052151.083
1467229.0,1625052151.122
1465325.0,1625052151.162
1463847.0,1625052151.203
1462541.0,1625052151.242
1461371.0,1625052151.283
1460504.0,1625052151.324
1459754.0,1625052151.363
1459515.0,1625052151.401
1459116.0,1625052151.443
1458084.0,1625052151.483
1456580.0,1625052151.522
1453526.0,1625052151.563
1450781.0,1625052151.603
1448733.0,1625052151.643
1447722.0,1625052151.685
1447185.0,1625052151.723
1447598.0,1625052151.803
1447363.0,1625052151.762
1447728.0,1625052151.842
1448354.0,1625052151.883
1448983.0,1625052151.924
1449742.0,1625052151.963
1450999.0,1625052152.002
1452003.0,1625052152.041
1453085.0,1625052152.08
1453924.0,1625052152.119
1454974.0,1625052152.158
1456016.0,1625052152.197
1456320.0,1625052152.236
1455311.0,1625052152.275
1453650.0,1625052152.314
1452715.0,1625052152.353
1452967.0,1625052152.392
1454034.0,1625052152.431
1457022.0,1625052152.47
1461917.0,1625052152.548
1464583.0,1625052152.587
1468297.0,1625052152.626
1472170.0,1625052152.665
1475612.0,1625052152.704
1478702.0,1625052152.743
1480884.0,1625052152.782
1482152.0,1625052152.821
1483068.0,1625052152.86
1484109.0,1625052152.899
1484832.0,1625052152.938
1484769.0,1625052152.977
1484264.0,1625052153.055
1484280.0,1625052153.094
1485015.0,1625052153.016
1459689.0,1625052152.509
1485197.0,1625052153.133
1486606.0,1625052153.172
1488176.0,1625052153.211
1489852.0,1625052153.289
1489364.0,1625052153.25
1491428.0,1625052153.367
1492349.0,1625052153.406
1493532.0,1625052153.445
1490433.0,1625052153.328
1494927.0,1625052153.484
1496484.0,1625052153.562
1496992.0,1625052153.601
1494998.0,1625052153.679
1492854.0,1625052153.718
1491071.0,1625052153.758
1496578.0,1625052153.64
1495927.0,1625052153.523
1490156.0,1625052153.798
1489837.0,1625052153.838
1490108.0,1625052153.878
1490347.0,1625052153.918
1490377.0,1625052153.958
1491229.0,1625052154.038
1491439.0,1625052154.118
1491517.0,1625052154.158
1492599.0,1625052154.198
1494609.0,1625052154.238
1491464.0,1625052154.078
1490997.0,1625052153.998
1496918.0,1625052154.278
1498092.0,1625052154.318
1497970.0,1625052154.358
1497266.0,1625052154.398
1495383.0,1625052154.438
1492618.0,1625052154.478
1490559.0,1625052154.518
1488880.0,1625052154.558
1487323.0,1625052154.598
1485400.0,1625052154.638
1482110.0,1625052154.718
1483528.0,1625052154.678
1480345.0,1625052154.758
1478958.0,1625052154.798
1478057.0,1625052154.838
1476996.0,1625052154.878
1476451.0,1625052154.918
1475045.0,1625052154.958
1470861.0,1625052155.038
1473007.0,1625052154.998
1468412.0,1625052155.118
1468829.0,1625052155.198
1468505.0,1625052155.158
1468994.0,1625052155.078
1468914.0,1625052155.238
1469175.0,1625052155.278
1469303.0,1625052155.318
1469891.0,1625052155.398
1469374.0,1625052155.358
1469757.0,1625052155.438
1470166.0,1625052155.478
1471377.0,1625052155.558
1471845.0,1625052155.598
1470741.0,1625052155.638
1470849.0,1625052155.518
1468757.0,1625052155.678
1466477.0,1625052155.718
1464682.0,1625052155.798
1465238.0,1625052155.758
1465326.0,1625052155.878
1465018.0,1625052155.838
1465823.0,1625052155.918
1466060.0,1625052155.958
1466303.0,1625052155.998
1467000.0,1625052156.038
1467427.0,1625052156.078
1468269.0,1625052156.118
1469072.0,1625052156.158
1469543.0,1625052156.198
1470074.0,1625052156.238
1470679.0,1625052156.278
1470792.0,1625052156.318
1469802.0,1625052156.358
1467467.0,1625052156.398
1464933.0,1625052156.438
1463082.0,1625052156.478
1462025.0,1625052156.558
1462237.0,1625052156.518
1462698.0,1625052156.638
1462401.0,1625052156.598
1462752.0,1625052156.718
1462551.0,1625052156.678
1462913.0,1625052156.758
1463119.0,1625052156.798
1463715.0,1625052156.838
1464208.0,1625052156.878
1464611.0,1625052156.918
1464735.0,1625052156.958
1464926.0,1625052156.998
1465558.0,1625052157.038
1465877.0,1625052157.078
1464855.0,1625052157.118
1463160.0,1625052157.158
1460850.0,1625052157.198
1459199.0,1625052157.238
1458396.0,1625052157.278
1458474.0,1625052157.318
1458864.0,1625052157.358
1459099.0,1625052157.398
1459055.0,1625052157.438
1459364.0,1625052157.478
