bvp,time
-11.55,1567412145.28125
-11.43,1567412145.296875
-11.09,1567412145.3125
-10.34,1567412145.328125
-9.31,1567412145.34375
-8.42,1567412145.359375
-8.08,1567412145.375
-8.49,1567412145.390625
-9.42,1567412145.40625
-10.31,1567412145.421875
-10.55,1567412145.4375
-9.76,1567412145.453125
-8.05,1567412145.46875
-5.9,1567412145.484375
-3.92,1567412145.5
-2.55,1567412145.515625
-1.92,1567412145.53125
-1.86,1567412145.546875
-2.13,1567412145.5625
-2.57,1567412145.578125
-3.09,1567412145.59375
-3.68,1567412145.609375
-4.24,1567412145.625
-4.71,1567412145.640625
-5.0,1567412145.65625
-5.11,1567412145.671875
-5.14,1567412145.6875
-5.2,1567412145.703125
-5.42,1567412145.71875
-5.86,1567412145.734375
-6.48,1567412145.75
-7.22,1567412145.765625
-8.02,1567412145.78125
-8.7,1567412145.796875
-9.03,1567412145.8125
-8.84,1567412145.828125
-8.04,1567412145.84375
-6.8,1567412145.859375
-5.49,1567412145.875
-4.51,1567412145.890625
-4.03,1567412145.90625
-3.9,1567412145.921875
-3.7,1567412145.9375
-3.08,1567412145.953125
-1.95,1567412145.96875
-0.66,1567412145.984375
0.17,1567412146.0
0.0,1567412146.015625
-1.27,1567412146.03125
-3.15,1567412146.046875
-4.84,1567412146.0625
-5.54,1567412146.078125
-4.95,1567412146.09375
-3.41,1567412146.109375
-1.67,1567412146.125
-0.51,1567412146.140625
-0.45,1567412146.15625
-1.5,1567412146.171875
-3.28,1567412146.1875
-5.3,1567412146.203125
-7.12,1567412146.21875
-8.55,1567412146.234375
-9.5,1567412146.25
-9.91,1567412146.265625
-9.63,1567412146.28125
-8.33,1567412146.296875
-5.63,1567412146.3125
-1.01,1567412146.328125
6.01,1567412146.34375
15.8,1567412146.359375
28.45,1567412146.375
43.5,1567412146.390625
59.89,1567412146.40625
76.25,1567412146.421875
91.2,1567412146.4375
103.78,1567412146.453125
113.79,1567412146.46875
121.69,1567412146.484375
128.29,1567412146.5
134.28,1567412146.515625
139.86,1567412146.53125
144.47,1567412146.546875
146.69,1567412146.5625
144.32,1567412146.578125
134.73,1567412146.59375
115.6,1567412146.609375
85.8,1567412146.625
46.31,1567412146.640625
0.65,1567412146.65625
-45.68,1567412146.671875
-86.46,1567412146.6875
-116.55,1567412146.703125
-133.31,1567412146.71875
-137.19,1567412146.734375
-131.14,1567412146.75
-119.27,1567412146.765625
-105.4,1567412146.78125
-91.98,1567412146.796875
-79.99,1567412146.8125
-69.39,1567412146.828125
-59.94,1567412146.84375
-51.61,1567412146.859375
-44.55,1567412146.875
-38.79,1567412146.890625
-33.97,1567412146.90625
-29.24,1567412146.921875
-23.74,1567412146.9375
-17.13,1567412146.953125
-9.89,1567412146.96875
-3.2,1567412146.984375
1.61,1567412147.0
3.79,1567412147.015625
3.63,1567412147.03125
2.33,1567412147.046875
1.55,1567412147.0625
2.6,1567412147.078125
5.97,1567412147.09375
11.16,1567412147.109375
17.01,1567412147.125
22.32,1567412147.140625
26.18,1567412147.15625
28.29,1567412147.171875
28.85,1567412147.1875
28.29,1567412147.203125
26.99,1567412147.21875
25.18,1567412147.234375
22.89,1567412147.25
20.06,1567412147.265625
16.69,1567412147.28125
12.87,1567412147.296875
8.9,1567412147.3125
5.14,1567412147.328125
2.0,1567412147.34375
-0.18,1567412147.359375
-1.22,1567412147.375
-1.16,1567412147.390625
-0.27,1567412147.40625
1.05,1567412147.421875
2.35,1567412147.4375
3.21,1567412147.453125
3.35,1567412147.46875
2.71,1567412147.484375
1.38,1567412147.5
-0.43,1567412147.515625
-2.43,1567412147.53125
-4.33,1567412147.546875
-5.86,1567412147.5625
-6.85,1567412147.578125
-7.21,1567412147.59375
-6.96,1567412147.609375
-6.26,1567412147.625
-5.31,1567412147.640625
-4.35,1567412147.65625
-3.53,1567412147.671875
-2.86,1567412147.6875
-2.25,1567412147.703125
-1.59,1567412147.71875
-0.78,1567412147.734375
0.15,1567412147.75
1.13,1567412147.765625
2.05,1567412147.78125
2.85,1567412147.796875
3.54,1567412147.8125
4.21,1567412147.828125
4.99,1567412147.84375
6.01,1567412147.859375
7.36,1567412147.875
9.12,1567412147.890625
11.25,1567412147.90625
13.68,1567412147.921875
16.24,1567412147.9375
18.7,1567412147.953125
20.8,1567412147.96875
22.25,1567412147.984375
22.83,1567412148.0
22.5,1567412148.015625
21.42,1567412148.03125
19.85,1567412148.046875
18.14,1567412148.0625
16.53,1567412148.078125
15.07,1567412148.09375
13.65,1567412148.109375
12.15,1567412148.125
10.56,1567412148.140625
9.02,1567412148.15625
7.82,1567412148.171875
7.19,1567412148.1875
7.16,1567412148.203125
7.59,1567412148.21875
8.21,1567412148.234375
8.76,1567412148.25
9.11,1567412148.265625
9.19,1567412148.28125
9.0,1567412148.296875
8.56,1567412148.3125
7.82,1567412148.328125
6.83,1567412148.34375
5.69,1567412148.359375
4.55,1567412148.375
3.58,1567412148.390625
2.86,1567412148.40625
2.37,1567412148.421875
2.02,1567412148.4375
1.69,1567412148.453125
1.33,1567412148.46875
0.94,1567412148.484375
0.52,1567412148.5
0.13,1567412148.515625
-0.21,1567412148.53125
-0.45,1567412148.546875
-0.54,1567412148.5625
-0.43,1567412148.578125
-0.07,1567412148.59375
0.46,1567412148.609375
1.05,1567412148.625
1.46,1567412148.640625
1.54,1567412148.65625
1.26,1567412148.671875
0.73,1567412148.6875
0.07,1567412148.703125
-0.54,1567412148.71875
-1.09,1567412148.734375
-1.63,1567412148.75
-2.29,1567412148.765625
-3.12,1567412148.78125
-4.06,1567412148.796875
-5.05,1567412148.8125
-6.06,1567412148.828125
-7.16,1567412148.84375
-8.46,1567412148.859375
-10.09,1567412148.875
-12.05,1567412148.890625
-14.24,1567412148.90625
-16.45,1567412148.921875
-18.46,1567412148.9375
-20.14,1567412148.953125
-21.39,1567412148.96875
-22.14,1567412148.984375
-22.35,1567412149.0
-21.98,1567412149.015625
-21.07,1567412149.03125
-19.73,1567412149.046875
-18.13,1567412149.0625
-16.53,1567412149.078125
-15.16,1567412149.09375
-14.16,1567412149.109375
-13.55,1567412149.125
-13.22,1567412149.140625
-13.07,1567412149.15625
-12.99,1567412149.171875
-12.96,1567412149.1875
-13.05,1567412149.203125
-13.32,1567412149.21875
-13.83,1567412149.234375
-14.51,1567412149.25
-15.21,1567412149.265625
-15.71,1567412149.28125
-15.74,1567412149.296875
-15.01,1567412149.3125
-13.35,1567412149.328125
-10.71,1567412149.34375
-7.27,1567412149.359375
-3.4,1567412149.375
0.41,1567412149.390625
3.64,1567412149.40625
6.01,1567412149.421875
7.48,1567412149.4375
8.2,1567412149.453125
8.4,1567412149.46875
8.22,1567412149.484375
7.73,1567412149.5
6.96,1567412149.515625
6.05,1567412149.53125
5.27,1567412149.546875
4.92,1567412149.5625
5.23,1567412149.578125
6.13,1567412149.59375
7.32,1567412149.609375
8.33,1567412149.625
8.79,1567412149.640625
8.54,1567412149.65625
7.73,1567412149.671875
6.66,1567412149.6875
5.69,1567412149.703125
5.02,1567412149.71875
4.72,1567412149.734375
4.7,1567412149.75
4.88,1567412149.765625
5.18,1567412149.78125
5.6,1567412149.796875
6.1,1567412149.8125
6.66,1567412149.828125
7.23,1567412149.84375
7.76,1567412149.859375
8.24,1567412149.875
8.74,1567412149.890625
9.32,1567412149.90625
10.02,1567412149.921875
10.81,1567412149.9375
11.59,1567412149.953125
12.23,1567412149.96875
12.62,1567412149.984375
12.67,1567412150.0
12.36,1567412150.015625
11.74,1567412150.03125
10.91,1567412150.046875
9.96,1567412150.0625
9.07,1567412150.078125
8.35,1567412150.09375
7.89,1567412150.109375
7.71,1567412150.125
7.72,1567412150.140625
7.78,1567412150.15625
7.72,1567412150.171875
7.41,1567412150.1875
6.83,1567412150.203125
6.06,1567412150.21875
5.22,1567412150.234375
4.43,1567412150.25
3.76,1567412150.265625
3.15,1567412150.28125
2.55,1567412150.296875
1.94,1567412150.3125
1.35,1567412150.328125
0.84,1567412150.34375
0.38,1567412150.359375
-0.13,1567412150.375
-0.85,1567412150.390625
-1.9,1567412150.40625
-3.19,1567412150.421875
-4.45,1567412150.4375
-5.28,1567412150.453125
-5.36,1567412150.46875
-4.51,1567412150.484375
-2.9,1567412150.5
-0.89,1567412150.515625
1.06,1567412150.53125
2.64,1567412150.546875
3.69,1567412150.5625
4.29,1567412150.578125
4.6,1567412150.59375
4.75,1567412150.609375
4.8,1567412150.625
4.77,1567412150.640625
4.73,1567412150.65625
4.85,1567412150.671875
5.34,1567412150.6875
6.35,1567412150.703125
7.83,1567412150.71875
9.51,1567412150.734375
10.96,1567412150.75
11.82,1567412150.765625
11.94,1567412150.78125
11.36,1567412150.796875
10.21,1567412150.8125
8.68,1567412150.828125
6.85,1567412150.84375
4.8,1567412150.859375
2.6,1567412150.875
0.43,1567412150.890625
-1.59,1567412150.90625
-3.38,1567412150.921875
-4.99,1567412150.9375
-6.48,1567412150.953125
-7.88,1567412150.96875
-9.07,1567412150.984375
-9.82,1567412151.0
-9.93,1567412151.015625
-9.35,1567412151.03125
-8.28,1567412151.046875
-7.05,1567412151.0625
-6.11,1567412151.078125
-5.71,1567412151.09375
-5.91,1567412151.109375
-6.58,1567412151.125
-7.46,1567412151.140625
-8.33,1567412151.15625
-9.06,1567412151.171875
-9.56,1567412151.1875
-9.7,1567412151.203125
-9.29,1567412151.21875
-8.15,1567412151.234375
-6.19,1567412151.25
-3.63,1567412151.265625
-0.91,1567412151.28125
1.38,1567412151.296875
2.83,1567412151.3125
3.28,1567412151.328125
3.02,1567412151.34375
2.58,1567412151.359375
2.47,1567412151.375
2.98,1567412151.390625
4.01,1567412151.40625
5.23,1567412151.421875
6.16,1567412151.4375
6.45,1567412151.453125
5.95,1567412151.46875
4.8,1567412151.484375
3.25,1567412151.5
1.62,1567412151.515625
0.19,1567412151.53125
-0.86,1567412151.546875
-1.46,1567412151.5625
-1.6,1567412151.578125
-1.34,1567412151.59375
-0.8,1567412151.609375
-0.15,1567412151.625
0.45,1567412151.640625
0.96,1567412151.65625
1.4,1567412151.671875
1.9,1567412151.6875
2.5,1567412151.703125
3.19,1567412151.71875
3.79,1567412151.734375
4.11,1567412151.75
4.06,1567412151.765625
3.71,1567412151.78125
3.35,1567412151.796875
3.25,1567412151.8125
3.56,1567412151.828125
4.19,1567412151.84375
4.88,1567412151.859375
5.38,1567412151.875
5.58,1567412151.890625
5.61,1567412151.90625
5.66,1567412151.921875
5.94,1567412151.9375
6.52,1567412151.953125
7.3,1567412151.96875
8.12,1567412151.984375
8.82,1567412152.0
9.3,1567412152.015625
9.54,1567412152.03125
9.58,1567412152.046875
9.46,1567412152.0625
9.26,1567412152.078125
9.14,1567412152.09375
9.26,1567412152.109375
9.77,1567412152.125
10.7,1567412152.140625
12.02,1567412152.15625
13.56,1567412152.171875
15.21,1567412152.1875
16.84,1567412152.203125
18.34,1567412152.21875
19.61,1567412152.234375
20.47,1567412152.25
20.71,1567412152.265625
20.05,1567412152.28125
18.35,1567412152.296875
15.63,1567412152.3125
12.13,1567412152.328125
8.31,1567412152.34375
4.63,1567412152.359375
1.46,1567412152.375
-1.08,1567412152.390625
-3.03,1567412152.40625
-4.57,1567412152.421875
-5.89,1567412152.4375
-7.06,1567412152.453125
-8.17,1567412152.46875
-9.23,1567412152.484375
-10.32,1567412152.5
-11.45,1567412152.515625
-12.53,1567412152.53125
-13.41,1567412152.546875
-13.91,1567412152.5625
-13.95,1567412152.578125
-13.69,1567412152.59375
-13.4,1567412152.609375
-13.36,1567412152.625
-13.76,1567412152.640625
-14.52,1567412152.65625
-15.52,1567412152.671875
-16.64,1567412152.6875
-17.8,1567412152.703125
-18.97,1567412152.71875
-20.04,1567412152.734375
-20.83,1567412152.75
-21.06,1567412152.765625
-20.53,1567412152.78125
-19.25,1567412152.796875
-17.46,1567412152.8125
-15.52,1567412152.828125
-13.73,1567412152.84375
-12.22,1567412152.859375
-10.9,1567412152.875
-9.66,1567412152.890625
-8.47,1567412152.90625
-7.42,1567412152.921875
-6.64,1567412152.9375
-6.13,1567412152.953125
-5.65,1567412152.96875
-4.81,1567412152.984375
-3.31,1567412153.0
-1.1,1567412153.015625
1.5,1567412153.03125
3.92,1567412153.046875
5.67,1567412153.0625
6.56,1567412153.078125
6.81,1567412153.09375
6.91,1567412153.109375
7.29,1567412153.125
8.01,1567412153.140625
8.79,1567412153.15625
9.11,1567412153.171875
8.73,1567412153.1875
7.92,1567412153.203125
7.6,1567412153.21875
8.98,1567412153.234375
13.07,1567412153.25
20.08,1567412153.265625
29.21,1567412153.28125
38.72,1567412153.296875
46.44,1567412153.3125
50.35,1567412153.328125
49.02,1567412153.34375
41.92,1567412153.359375
29.32,1567412153.375
12.27,1567412153.390625
-7.62,1567412153.40625
-28.26,1567412153.421875
-47.26,1567412153.4375
-62.31,1567412153.453125
-71.63,1567412153.46875
-74.54,1567412153.484375
-71.67,1567412153.5
-64.87,1567412153.515625
-56.44,1567412153.53125
-48.56,1567412153.546875
-42.53,1567412153.5625
-38.68,1567412153.578125
-36.61,1567412153.59375
-35.62,1567412153.609375
-35.07,1567412153.625
-34.46,1567412153.640625
-33.29,1567412153.65625
-31.06,1567412153.671875
-27.33,1567412153.6875
-22.03,1567412153.703125
-15.6,1567412153.71875
-8.91,1567412153.734375
-2.92,1567412153.75
1.78,1567412153.765625
5.18,1567412153.78125
7.76,1567412153.796875
10.17,1567412153.8125
12.91,1567412153.828125
16.14,1567412153.84375
19.65,1567412153.859375
23.03,1567412153.875
25.75,1567412153.890625
27.35,1567412153.90625
27.47,1567412153.921875
25.99,1567412153.9375
23.12,1567412153.953125
19.41,1567412153.96875
15.59,1567412153.984375
12.35,1567412154.0
10.13,1567412154.015625
8.98,1567412154.03125
8.69,1567412154.046875
8.87,1567412154.0625
9.22,1567412154.078125
9.53,1567412154.09375
9.72,1567412154.109375
9.78,1567412154.125
9.74,1567412154.140625
9.71,1567412154.15625
9.89,1567412154.171875
10.5,1567412154.1875
11.67,1567412154.203125
13.36,1567412154.21875
15.29,1567412154.234375
17.02,1567412154.25
18.09,1567412154.265625
18.29,1567412154.28125
17.62,1567412154.296875
16.37,1567412154.3125
14.92,1567412154.328125
13.63,1567412154.34375
12.62,1567412154.359375
11.87,1567412154.375
11.24,1567412154.390625
10.65,1567412154.40625
10.07,1567412154.421875
9.64,1567412154.4375
9.47,1567412154.453125
9.59,1567412154.46875
9.94,1567412154.484375
10.27,1567412154.5
10.41,1567412154.515625
10.2,1567412154.53125
9.73,1567412154.546875
9.16,1567412154.5625
8.68,1567412154.578125
8.41,1567412154.59375
8.28,1567412154.609375
8.14,1567412154.625
7.8,1567412154.640625
7.13,1567412154.65625
6.11,1567412154.671875
4.83,1567412154.6875
3.41,1567412154.703125
2.02,1567412154.71875
0.79,1567412154.734375
-0.21,1567412154.75
-0.99,1567412154.765625
-1.65,1567412154.78125
-2.3,1567412154.796875
-3.05,1567412154.8125
-3.96,1567412154.828125
-4.91,1567412154.84375
-5.67,1567412154.859375
-6.01,1567412154.875
-5.68,1567412154.890625
-4.6,1567412154.90625
-2.84,1567412154.921875
-0.64,1567412154.9375
1.68,1567412154.953125
3.88,1567412154.96875
5.8,1567412154.984375
7.38,1567412155.0
8.64,1567412155.015625
9.54,1567412155.03125
10.03,1567412155.046875
10.04,1567412155.0625
9.6,1567412155.078125
8.83,1567412155.09375
7.97,1567412155.109375
7.15,1567412155.125
6.43,1567412155.140625
5.69,1567412155.15625
4.88,1567412155.171875
4.02,1567412155.1875
3.32,1567412155.203125
3.07,1567412155.21875
3.47,1567412155.234375
4.5,1567412155.25
5.89,1567412155.265625
7.25,1567412155.28125
8.26,1567412155.296875
8.79,1567412155.3125
8.92,1567412155.328125
8.84,1567412155.34375
8.77,1567412155.359375
8.79,1567412155.375
8.89,1567412155.390625
8.94,1567412155.40625
8.9,1567412155.421875
8.73,1567412155.4375
8.47,1567412155.453125
8.14,1567412155.46875
7.7,1567412155.484375
7.1,1567412155.5
6.32,1567412155.515625
5.4,1567412155.53125
4.45,1567412155.546875
3.55,1567412155.5625
2.7,1567412155.578125
1.73,1567412155.59375
0.4,1567412155.609375
-1.45,1567412155.625
-3.78,1567412155.640625
-6.27,1567412155.65625
-8.51,1567412155.671875
-10.09,1567412155.6875
-10.76,1567412155.703125
-10.48,1567412155.71875
-9.31,1567412155.734375
-7.38,1567412155.75
-4.86,1567412155.765625
-2.09,1567412155.78125
0.46,1567412155.796875
2.22,1567412155.8125
2.74,1567412155.828125
1.89,1567412155.84375
0.0,1567412155.859375
-2.29,1567412155.875
-4.29,1567412155.890625
-5.55,1567412155.90625
-6.05,1567412155.921875
-6.04,1567412155.9375
-5.91,1567412155.953125
-5.89,1567412155.96875
-6.08,1567412155.984375
-6.43,1567412156.0
-6.9,1567412156.015625
-7.58,1567412156.03125
-8.53,1567412156.046875
-9.81,1567412156.0625
-11.3,1567412156.078125
-12.83,1567412156.09375
-14.14,1567412156.109375
-15.02,1567412156.125
-15.4,1567412156.140625
-15.34,1567412156.15625
-15.01,1567412156.171875
-14.57,1567412156.1875
-14.15,1567412156.203125
-13.75,1567412156.21875
-13.3,1567412156.234375
-12.74,1567412156.25
-12.05,1567412156.265625
-11.38,1567412156.28125
-10.94,1567412156.296875
-10.93,1567412156.3125
-11.35,1567412156.328125
-11.96,1567412156.34375
-12.34,1567412156.359375
-12.05,1567412156.375
-10.82,1567412156.390625
-8.65,1567412156.40625
-5.8,1567412156.421875
-2.68,1567412156.4375
0.32,1567412156.453125
2.9,1567412156.46875
4.95,1567412156.484375
6.45,1567412156.5
7.53,1567412156.515625
8.36,1567412156.53125
9.1,1567412156.546875
9.94,1567412156.5625
11.0,1567412156.578125
12.34,1567412156.59375
13.81,1567412156.609375
15.24,1567412156.625
16.38,1567412156.640625
17.03,1567412156.65625
17.17,1567412156.671875
16.95,1567412156.6875
16.67,1567412156.703125
16.56,1567412156.71875
16.77,1567412156.734375
17.18,1567412156.75
17.52,1567412156.765625
17.48,1567412156.78125
16.79,1567412156.796875
15.33,1567412156.8125
13.18,1567412156.828125
10.5,1567412156.84375
7.6,1567412156.859375
4.79,1567412156.875
2.24,1567412156.890625
0.03,1567412156.90625
-1.92,1567412156.921875
-3.73,1567412156.9375
-5.41,1567412156.953125
-6.89,1567412156.96875
-7.95,1567412156.984375
-8.46,1567412157.0
-8.41,1567412157.015625
-8.07,1567412157.03125
-7.76,1567412157.046875
-7.73,1567412157.0625
-8.06,1567412157.078125
-8.54,1567412157.09375
-8.93,1567412157.109375
-9.04,1567412157.125
-8.87,1567412157.140625
-8.55,1567412157.15625
-8.17,1567412157.171875
-7.66,1567412157.1875
-6.84,1567412157.203125
-5.48,1567412157.21875
-3.51,1567412157.234375
-1.08,1567412157.25
1.5,1567412157.265625
3.9,1567412157.28125
5.9,1567412157.296875
7.47,1567412157.3125
8.64,1567412157.328125
9.43,1567412157.34375
9.81,1567412157.359375
9.71,1567412157.375
9.09,1567412157.390625
8.06,1567412157.40625
6.83,1567412157.421875
5.65,1567412157.4375
4.69,1567412157.453125
4.01,1567412157.46875
3.51,1567412157.484375
3.09,1567412157.5
2.65,1567412157.515625
2.18,1567412157.53125
1.73,1567412157.546875
1.3,1567412157.5625
0.83,1567412157.578125
0.24,1567412157.59375
-0.48,1567412157.609375
-1.27,1567412157.625
-1.97,1567412157.640625
-2.47,1567412157.65625
-2.72,1567412157.671875
-2.79,1567412157.6875
-2.82,1567412157.703125
-2.89,1567412157.71875
-3.02,1567412157.734375
-3.18,1567412157.75
-3.33,1567412157.765625
-3.43,1567412157.78125
-3.53,1567412157.796875
-3.67,1567412157.8125
-3.85,1567412157.828125
-4.04,1567412157.84375
-4.13,1567412157.859375
-4.06,1567412157.875
-3.79,1567412157.890625
-3.36,1567412157.90625
-2.78,1567412157.921875
-2.14,1567412157.9375
-1.42,1567412157.953125
-0.58,1567412157.96875
0.44,1567412157.984375
1.74,1567412158.0
3.29,1567412158.015625
5.02,1567412158.03125
6.73,1567412158.046875
8.26,1567412158.0625
9.47,1567412158.078125
10.33,1567412158.09375
10.84,1567412158.109375
11.07,1567412158.125
11.11,1567412158.140625
11.02,1567412158.15625
10.83,1567412158.171875
10.57,1567412158.1875
10.33,1567412158.203125
10.11,1567412158.21875
9.93,1567412158.234375
9.67,1567412158.25
9.22,1567412158.265625
8.43,1567412158.28125
7.33,1567412158.296875
6.1,1567412158.3125
4.98,1567412158.328125
4.14,1567412158.34375
3.66,1567412158.359375
3.41,1567412158.375
3.23,1567412158.390625
2.96,1567412158.40625
2.63,1567412158.421875
2.25,1567412158.4375
1.83,1567412158.453125
1.26,1567412158.46875
0.38,1567412158.484375
-0.96,1567412158.5
-2.69,1567412158.515625
-4.64,1567412158.53125
-6.65,1567412158.546875
-8.63,1567412158.5625
-10.63,1567412158.578125
-12.72,1567412158.59375
-14.9,1567412158.609375
-17.03,1567412158.625
-18.87,1567412158.640625
-20.27,1567412158.65625
-21.12,1567412158.671875
-21.46,1567412158.6875
-21.23,1567412158.703125
-20.25,1567412158.71875
-18.28,1567412158.734375
-15.18,1567412158.75
-11.1,1567412158.765625
-6.52,1567412158.78125
-2.19,1567412158.796875
1.23,1567412158.8125
3.39,1567412158.828125
4.33,1567412158.84375
4.49,1567412158.859375
4.32,1567412158.875
4.24,1567412158.890625
4.39,1567412158.90625
4.77,1567412158.921875
5.27,1567412158.9375
5.85,1567412158.953125
6.53,1567412158.96875
7.31,1567412158.984375
8.07,1567412159.0
8.56,1567412159.015625
8.53,1567412159.03125
7.8,1567412159.046875
6.45,1567412159.0625
4.73,1567412159.078125
3.06,1567412159.09375
1.71,1567412159.109375
0.79,1567412159.125
0.19,1567412159.140625
-0.27,1567412159.15625
-0.63,1567412159.171875
-0.85,1567412159.1875
-0.83,1567412159.203125
-0.56,1567412159.21875
-0.26,1567412159.234375
-0.28,1567412159.25
-0.98,1567412159.265625
-2.45,1567412159.28125
-4.46,1567412159.296875
-6.52,1567412159.3125
-8.13,1567412159.328125
-8.97,1567412159.34375
-9.08,1567412159.359375
-8.74,1567412159.375
-8.28,1567412159.390625
-7.86,1567412159.40625
-7.51,1567412159.421875
-7.14,1567412159.4375
-6.69,1567412159.453125
-6.2,1567412159.46875
-5.79,1567412159.484375
-5.54,1567412159.5
-5.37,1567412159.515625
-5.19,1567412159.53125
-4.88,1567412159.546875
-4.42,1567412159.5625
-3.91,1567412159.578125
-3.47,1567412159.59375
-3.16,1567412159.609375
-2.92,1567412159.625
-2.71,1567412159.640625
-2.49,1567412159.65625
-2.25,1567412159.671875
-1.98,1567412159.6875
-1.64,1567412159.703125
-1.16,1567412159.71875
-0.52,1567412159.734375
0.26,1567412159.75
1.04,1567412159.765625
1.62,1567412159.78125
1.83,1567412159.796875
1.65,1567412159.8125
1.14,1567412159.828125
0.5,1567412159.84375
-0.02,1567412159.859375
-0.26,1567412159.875
-0.15,1567412159.890625
0.28,1567412159.90625
0.92,1567412159.921875
1.61,1567412159.9375
2.28,1567412159.953125
2.91,1567412159.96875
3.45,1567412159.984375
3.76,1567412160.0
3.67,1567412160.015625
2.99,1567412160.03125
1.69,1567412160.046875
0.0,1567412160.0625
-1.64,1567412160.078125
-2.77,1567412160.09375
-3.05,1567412160.109375
-2.4,1567412160.125
-0.98,1567412160.140625
0.96,1567412160.15625
3.15,1567412160.171875
5.27,1567412160.1875
6.94,1567412160.203125
7.63,1567412160.21875
6.83,1567412160.234375
4.28,1567412160.25
0.09,1567412160.265625
-5.24,1567412160.28125
-11.04,1567412160.296875
-16.73,1567412160.3125
-22.1,1567412160.328125
-27.11,1567412160.34375
-31.81,1567412160.359375
-36.08,1567412160.375
-39.58,1567412160.390625
-41.98,1567412160.40625
-43.11,1567412160.421875
-43.26,1567412160.4375
-43.1,1567412160.453125
-43.4,1567412160.46875
-44.88,1567412160.484375
-47.99,1567412160.5
-52.86,1567412160.515625
-59.37,1567412160.53125
-67.18,1567412160.546875
-75.73,1567412160.5625
-84.14,1567412160.578125
-91.11,1567412160.59375
-95.18,1567412160.609375
-95.09,1567412160.625
-90.33,1567412160.640625
-81.48,1567412160.65625
-70.13,1567412160.671875
-58.27,1567412160.6875
-47.6,1567412160.703125
-38.89,1567412160.71875
-31.95,1567412160.734375
-26.11,1567412160.75
-20.8,1567412160.765625
-16.02,1567412160.78125
-12.27,1567412160.796875
-10.08,1567412160.8125
-9.42,1567412160.828125
-9.47,1567412160.84375
-8.84,1567412160.859375
-6.05,1567412160.875
0.04,1567412160.890625
10.07,1567412160.90625
23.98,1567412160.921875
41.11,1567412160.9375
60.15,1567412160.953125
79.22,1567412160.96875
96.17,1567412160.984375
109.07,1567412161.0
116.75,1567412161.015625
119.09,1567412161.03125
116.97,1567412161.046875
111.85,1567412161.0625
105.16,1567412161.078125
97.99,1567412161.09375
91.05,1567412161.109375
84.79,1567412161.125
79.63,1567412161.140625
75.9,1567412161.15625
73.81,1567412161.171875
73.13,1567412161.1875
73.19,1567412161.203125
73.06,1567412161.21875
71.81,1567412161.234375
68.86,1567412161.25
64.14,1567412161.265625
58.18,1567412161.28125
51.76,1567412161.296875
45.64,1567412161.3125
40.26,1567412161.328125
35.61,1567412161.34375
31.32,1567412161.359375
26.93,1567412161.375
22.14,1567412161.390625
17.11,1567412161.40625
12.33,1567412161.421875
8.47,1567412161.4375
6.01,1567412161.453125
5.05,1567412161.46875
5.17,1567412161.484375
5.61,1567412161.5
5.58,1567412161.515625
4.49,1567412161.53125
2.2,1567412161.546875
-1.04,1567412161.5625
-4.72,1567412161.578125
-8.22,1567412161.59375
-11.02,1567412161.609375
-12.74,1567412161.625
-13.18,1567412161.640625
-12.39,1567412161.65625
-10.74,1567412161.671875
-8.79,1567412161.6875
-7.18,1567412161.703125
-6.37,1567412161.71875
-6.43,1567412161.734375
-7.04,1567412161.75
-7.68,1567412161.765625
-7.92,1567412161.78125
-7.63,1567412161.796875
-7.04,1567412161.8125
-6.59,1567412161.828125
-6.67,1567412161.84375
-7.36,1567412161.859375
-8.43,1567412161.875
-9.52,1567412161.890625
-10.29,1567412161.90625
-10.65,1567412161.921875
-10.7,1567412161.9375
-10.64,1567412161.953125
-10.59,1567412161.96875
-10.5,1567412161.984375
-10.18,1567412162.0
-9.46,1567412162.015625
-8.27,1567412162.03125
-6.8,1567412162.046875
-5.4,1567412162.0625
-4.4,1567412162.078125
-3.96,1567412162.09375
-3.99,1567412162.109375
-4.19,1567412162.125
-4.28,1567412162.140625
-4.14,1567412162.15625
-3.85,1567412162.171875
-3.57,1567412162.1875
-3.42,1567412162.203125
-3.36,1567412162.21875
-3.32,1567412162.234375
-3.31,1567412162.25
-3.42,1567412162.265625
-3.86,1567412162.28125
-4.77,1567412162.296875
-5.97,1567412162.3125
-7.05,1567412162.328125
-7.5,1567412162.34375
-7.03,1567412162.359375
-5.66,1567412162.375
-3.76,1567412162.390625
-1.82,1567412162.40625
-0.16,1567412162.421875
1.13,1567412162.4375
2.2,1567412162.453125
3.19,1567412162.46875
4.16,1567412162.484375
5.07,1567412162.5
5.81,1567412162.515625
6.37,1567412162.53125
6.81,1567412162.546875
7.2,1567412162.5625
7.52,1567412162.578125
7.73,1567412162.59375
7.67,1567412162.609375
7.32,1567412162.625
6.76,1567412162.640625
6.19,1567412162.65625
5.78,1567412162.671875
5.5,1567412162.6875
5.27,1567412162.703125
4.94,1567412162.71875
4.43,1567412162.734375
3.8,1567412162.75
3.16,1567412162.765625
2.58,1567412162.78125
1.95,1567412162.796875
1.11,1567412162.8125
-0.11,1567412162.828125
-1.61,1567412162.84375
-3.08,1567412162.859375
-4.07,1567412162.875
-4.27,1567412162.890625
-3.68,1567412162.90625
-2.59,1567412162.921875
-1.5,1567412162.9375
-0.78,1567412162.953125
-0.5,1567412162.96875
-0.45,1567412162.984375
-0.28,1567412163.0
0.28,1567412163.015625
1.26,1567412163.03125
2.47,1567412163.046875
3.64,1567412163.0625
4.47,1567412163.078125
4.76,1567412163.09375
4.28,1567412163.109375
2.83,1567412163.125
0.26,1567412163.140625
-3.39,1567412163.15625
-7.85,1567412163.171875
-12.64,1567412163.1875
-17.23,1567412163.203125
-21.22,1567412163.21875
-24.51,1567412163.234375
-27.21,1567412163.25
-29.53,1567412163.265625
-31.49,1567412163.28125
-32.93,1567412163.296875
-33.48,1567412163.3125
-32.91,1567412163.328125
-31.15,1567412163.34375
-28.59,1567412163.359375
-25.83,1567412163.375
-23.51,1567412163.390625
-22.03,1567412163.40625
-21.3,1567412163.421875
-20.83,1567412163.4375
-19.92,1567412163.453125
-18.0,1567412163.46875
-14.93,1567412163.484375
-10.97,1567412163.5
-6.7,1567412163.515625
-2.68,1567412163.53125
0.81,1567412163.546875
3.8,1567412163.5625
6.52,1567412163.578125
9.24,1567412163.59375
12.05,1567412163.609375
14.91,1567412163.625
17.62,1567412163.640625
20.01,1567412163.65625
21.92,1567412163.671875
23.19,1567412163.6875
23.73,1567412163.703125
23.48,1567412163.71875
22.48,1567412163.734375
20.85,1567412163.75
18.78,1567412163.765625
16.48,1567412163.78125
14.08,1567412163.796875
11.71,1567412163.8125
9.56,1567412163.828125
7.86,1567412163.84375
6.91,1567412163.859375
6.91,1567412163.875
7.86,1567412163.890625
9.47,1567412163.90625
11.28,1567412163.921875
12.76,1567412163.9375
13.55,1567412163.953125
13.54,1567412163.96875
12.92,1567412163.984375
11.98,1567412164.0
11.05,1567412164.015625
10.23,1567412164.03125
9.49,1567412164.046875
8.65,1567412164.0625
7.49,1567412164.078125
5.95,1567412164.09375
4.07,1567412164.109375
2.09,1567412164.125
0.24,1567412164.140625
-1.29,1567412164.15625
-2.4,1567412164.171875
-3.08,1567412164.1875
-3.34,1567412164.203125
-3.25,1567412164.21875
-2.92,1567412164.234375
-2.49,1567412164.25
-2.17,1567412164.265625
-2.15,1567412164.28125
-2.56,1567412164.296875
-3.4,1567412164.3125
-4.61,1567412164.328125
-6.14,1567412164.34375
-7.96,1567412164.359375
-10.07,1567412164.375
-12.41,1567412164.390625
-14.81,1567412164.40625
-16.94,1567412164.421875
-18.47,1567412164.4375
-19.14,1567412164.453125
-18.84,1567412164.46875
-17.72,1567412164.484375
-16.0,1567412164.5
-13.93,1567412164.515625
-11.7,1567412164.53125
-9.36,1567412164.546875
-6.91,1567412164.5625
-4.31,1567412164.578125
-1.59,1567412164.59375
1.12,1567412164.609375
3.66,1567412164.625
5.83,1567412164.640625
7.51,1567412164.65625
8.64,1567412164.671875
9.24,1567412164.6875
9.41,1567412164.703125
9.3,1567412164.71875
9.05,1567412164.734375
8.86,1567412164.75
8.85,1567412164.765625
9.13,1567412164.78125
9.67,1567412164.796875
10.33,1567412164.8125
10.93,1567412164.828125
11.23,1567412164.84375
11.03,1567412164.859375
10.28,1567412164.875
9.07,1567412164.890625
7.6,1567412164.90625
6.1,1567412164.921875
4.8,1567412164.9375
3.82,1567412164.953125
3.2,1567412164.96875
2.91,1567412164.984375
2.83,1567412165.0
2.78,1567412165.015625
2.56,1567412165.03125
2.0,1567412165.046875
1.0,1567412165.0625
-0.44,1567412165.078125
-2.17,1567412165.09375
-4.0,1567412165.109375
-5.65,1567412165.125
-6.94,1567412165.140625
-7.75,1567412165.15625
-8.07,1567412165.171875
-8.0,1567412165.1875
-7.71,1567412165.203125
-7.28,1567412165.21875
-6.83,1567412165.234375
-6.37,1567412165.25
-5.83,1567412165.265625
-5.13,1567412165.28125
-4.15,1567412165.296875
-2.86,1567412165.3125
-1.31,1567412165.328125
0.37,1567412165.34375
1.96,1567412165.359375
3.27,1567412165.375
4.18,1567412165.390625
4.75,1567412165.40625
5.11,1567412165.421875
5.42,1567412165.4375
5.69,1567412165.453125
5.84,1567412165.46875
5.65,1567412165.484375
4.94,1567412165.5
3.68,1567412165.515625
2.01,1567412165.53125
0.22,1567412165.546875
-1.42,1567412165.5625
-2.81,1567412165.578125
-3.99,1567412165.59375
-5.08,1567412165.609375
-6.23,1567412165.625
-7.54,1567412165.640625
-9.0,1567412165.65625
-10.52,1567412165.671875
-12.02,1567412165.6875
-13.37,1567412165.703125
-14.48,1567412165.71875
-15.3,1567412165.734375
-15.88,1567412165.75
-16.3,1567412165.765625
-16.62,1567412165.78125
-16.85,1567412165.796875
-16.93,1567412165.8125
-16.73,1567412165.828125
-16.11,1567412165.84375
-15.0,1567412165.859375
-13.34,1567412165.875
-11.17,1567412165.890625
-8.56,1567412165.90625
-5.66,1567412165.921875
-2.65,1567412165.9375
0.2,1567412165.953125
2.67,1567412165.96875
4.61,1567412165.984375
5.99,1567412166.0
6.92,1567412166.015625
7.55,1567412166.03125
8.07,1567412166.046875
8.64,1567412166.0625
9.36,1567412166.078125
10.29,1567412166.09375
11.42,1567412166.109375
12.66,1567412166.125
13.81,1567412166.140625
14.64,1567412166.15625
14.98,1567412166.171875
14.79,1567412166.1875
14.17,1567412166.203125
13.35,1567412166.21875
12.51,1567412166.234375
11.71,1567412166.25
10.88,1567412166.265625
9.86,1567412166.28125
8.61,1567412166.296875
7.23,1567412166.3125
5.85,1567412166.328125
4.66,1567412166.34375
3.7,1567412166.359375
2.96,1567412166.375
2.32,1567412166.390625
1.79,1567412166.40625
1.46,1567412166.421875
1.45,1567412166.4375
1.81,1567412166.453125
2.44,1567412166.46875
3.12,1567412166.484375
3.61,1567412166.5
3.79,1567412166.515625
3.65,1567412166.53125
3.27,1567412166.546875
2.65,1567412166.5625
1.67,1567412166.578125
0.2,1567412166.59375
-1.81,1567412166.609375
-4.14,1567412166.625
-6.34,1567412166.640625
-7.91,1567412166.65625
-8.51,1567412166.671875
-8.17,1567412166.6875
-7.26,1567412166.703125
-6.35,1567412166.71875
-5.84,1567412166.734375
-5.79,1567412166.75
-5.95,1567412166.765625
-5.96,1567412166.78125
-5.54,1567412166.796875
-4.66,1567412166.8125
-3.49,1567412166.828125
-2.18,1567412166.84375
-0.83,1567412166.859375
0.57,1567412166.875
2.05,1567412166.890625
3.49,1567412166.90625
4.74,1567412166.921875
5.56,1567412166.9375
5.9,1567412166.953125
5.87,1567412166.96875
5.83,1567412166.984375
6.11,1567412167.0
6.91,1567412167.015625
8.17,1567412167.03125
9.58,1567412167.046875
10.72,1567412167.0625
11.29,1567412167.078125
11.13,1567412167.09375
10.3,1567412167.109375
8.95,1567412167.125
7.2,1567412167.140625
5.13,1567412167.15625
2.8,1567412167.171875
0.36,1567412167.1875
-1.84,1567412167.203125
-3.44,1567412167.21875
-4.23,1567412167.234375
-4.27,1567412167.25
-4.03,1567412167.265625
-4.12,1567412167.28125
-5.03,1567412167.296875
-6.84,1567412167.3125
-9.16,1567412167.328125
-11.35,1567412167.34375
-12.73,1567412167.359375
-12.93,1567412167.375
-11.97,1567412167.390625
-10.19,1567412167.40625
-8.09,1567412167.421875
-6.09,1567412167.4375
-4.38,1567412167.453125
-2.91,1567412167.46875
-1.53,1567412167.484375
-0.11,1567412167.5
1.38,1567412167.515625
2.84,1567412167.53125
4.14,1567412167.546875
5.3,1567412167.5625
6.48,1567412167.578125
7.91,1567412167.59375
9.7,1567412167.609375
11.67,1567412167.625
13.45,1567412167.640625
14.58,1567412167.65625
14.84,1567412167.671875
14.23,1567412167.6875
13.05,1567412167.703125
11.65,1567412167.71875
10.27,1567412167.734375
8.98,1567412167.75
7.71,1567412167.765625
6.34,1567412167.78125
4.77,1567412167.796875
2.99,1567412167.8125
1.1,1567412167.828125
-0.78,1567412167.84375
-2.45,1567412167.859375
-3.65,1567412167.875
-4.25,1567412167.890625
-4.18,1567412167.90625
-3.57,1567412167.921875
-2.65,1567412167.9375
-1.74,1567412167.953125
-1.1,1567412167.96875
-0.86,1567412167.984375
-1.04,1567412168.0
-1.6,1567412168.015625
-2.51,1567412168.03125
-3.75,1567412168.046875
-5.38,1567412168.0625
-7.37,1567412168.078125
-9.63,1567412168.09375
-11.99,1567412168.109375
-14.23,1567412168.125
-16.17,1567412168.140625
-17.72,1567412168.15625
-18.92,1567412168.171875
-19.88,1567412168.1875
-20.71,1567412168.203125
-21.48,1567412168.21875
-22.12,1567412168.234375
-22.53,1567412168.25
-22.54,1567412168.265625
-22.06,1567412168.28125
-21.07,1567412168.296875
-19.58,1567412168.3125
-17.68,1567412168.328125
-15.43,1567412168.34375
-12.9,1567412168.359375
-10.16,1567412168.375
-7.34,1567412168.390625
-4.56,1567412168.40625
-1.96,1567412168.421875
0.44,1567412168.4375
2.69,1567412168.453125
4.91,1567412168.46875
7.15,1567412168.484375
9.34,1567412168.5
11.27,1567412168.515625
12.71,1567412168.53125
13.5,1567412168.546875
13.62,1567412168.5625
13.13,1567412168.578125
12.31,1567412168.59375
11.32,1567412168.609375
10.29,1567412168.625
9.27,1567412168.640625
8.18,1567412168.65625
6.93,1567412168.671875
5.41,1567412168.6875
3.62,1567412168.703125
1.62,1567412168.71875
-0.39,1567412168.734375
-2.18,1567412168.75
-3.58,1567412168.765625
-4.52,1567412168.78125
-5.04,1567412168.796875
-5.2,1567412168.8125
-5.04,1567412168.828125
-4.53,1567412168.84375
-3.63,1567412168.859375
-2.36,1567412168.875
-0.94,1567412168.890625
0.41,1567412168.90625
1.46,1567412168.921875
2.03,1567412168.9375
2.16,1567412168.953125
1.93,1567412168.96875
1.47,1567412168.984375
0.85,1567412169.0
0.07,1567412169.015625
-0.87,1567412169.03125
-1.95,1567412169.046875
-3.12,1567412169.0625
-4.22,1567412169.078125
-5.09,1567412169.09375
-5.6,1567412169.109375
-5.67,1567412169.125
-5.37,1567412169.140625
-4.86,1567412169.15625
-4.37,1567412169.171875
-4.1,1567412169.1875
-4.14,1567412169.203125
-4.39,1567412169.21875
-4.7,1567412169.234375
-4.92,1567412169.25
-5.08,1567412169.265625
-5.28,1567412169.28125
-5.75,1567412169.296875
-6.59,1567412169.3125
-7.7,1567412169.328125
-8.87,1567412169.34375
-9.8,1567412169.359375
-10.34,1567412169.375
-10.47,1567412169.390625
-10.34,1567412169.40625
-10.03,1567412169.421875
-9.54,1567412169.4375
-8.74,1567412169.453125
-7.5,1567412169.46875
-5.73,1567412169.484375
-3.54,1567412169.5
-1.12,1567412169.515625
1.34,1567412169.53125
3.77,1567412169.546875
6.2,1567412169.5625
8.69,1567412169.578125
11.23,1567412169.59375
13.68,1567412169.609375
15.82,1567412169.625
17.44,1567412169.640625
18.44,1567412169.65625
18.82,1567412169.671875
18.67,1567412169.6875
18.05,1567412169.703125
16.97,1567412169.71875
15.48,1567412169.734375
13.7,1567412169.75
11.84,1567412169.765625
10.12,1567412169.78125
8.74,1567412169.796875
7.73,1567412169.8125
7.01,1567412169.828125
6.56,1567412169.84375
6.38,1567412169.859375
6.6,1567412169.875
7.31,1567412169.890625
8.48,1567412169.90625
9.86,1567412169.921875
11.07,1567412169.9375
11.8,1567412169.953125
11.92,1567412169.96875
11.54,1567412169.984375
10.94,1567412170.0
10.37,1567412170.015625
9.99,1567412170.03125
9.8,1567412170.046875
9.68,1567412170.0625
9.5,1567412170.078125
9.23,1567412170.09375
8.92,1567412170.109375
8.53,1567412170.125
8.02,1567412170.140625
7.29,1567412170.15625
6.25,1567412170.171875
4.92,1567412170.1875
3.54,1567412170.203125
2.36,1567412170.21875
1.54,1567412170.234375
1.02,1567412170.25
0.48,1567412170.265625
-0.45,1567412170.28125
-1.91,1567412170.296875
-3.71,1567412170.3125
-5.42,1567412170.328125
-6.6,1567412170.34375
-7.08,1567412170.359375
-7.08,1567412170.375
-7.01,1567412170.390625
-7.27,1567412170.40625
-7.93,1567412170.421875
-8.8,1567412170.4375
-9.55,1567412170.453125
-9.99,1567412170.46875
-10.11,1567412170.484375
-10.02,1567412170.5
-9.79,1567412170.515625
-9.42,1567412170.53125
-8.82,1567412170.546875
-7.91,1567412170.5625
-6.86,1567412170.578125
-5.85,1567412170.59375
-5.09,1567412170.609375
-4.55,1567412170.625
-4.02,1567412170.640625
-3.27,1567412170.65625
-2.16,1567412170.671875
-0.85,1567412170.6875
0.34,1567412170.703125
0.99,1567412170.71875
0.9,1567412170.734375
0.05,1567412170.75
-1.39,1567412170.765625
-3.15,1567412170.78125
-5.04,1567412170.796875
-6.88,1567412170.8125
-8.51,1567412170.828125
-9.74,1567412170.84375
-10.45,1567412170.859375
-10.58,1567412170.875
-10.18,1567412170.890625
-9.51,1567412170.90625
-8.92,1567412170.921875
-8.79,1567412170.9375
-9.31,1567412170.953125
-10.41,1567412170.96875
-11.65,1567412170.984375
-12.44,1567412171.0
-12.22,1567412171.015625
-10.77,1567412171.03125
-8.27,1567412171.046875
-5.25,1567412171.0625
-2.31,1567412171.078125
0.14,1567412171.09375
2.04,1567412171.109375
3.62,1567412171.125
5.14,1567412171.140625
6.71,1567412171.15625
8.2,1567412171.171875
9.36,1567412171.1875
10.07,1567412171.203125
10.36,1567412171.21875
10.47,1567412171.234375
10.59,1567412171.25
10.75,1567412171.265625
10.74,1567412171.28125
10.24,1567412171.296875
9.08,1567412171.3125
7.32,1567412171.328125
5.3,1567412171.34375
3.45,1567412171.359375
2.09,1567412171.375
1.34,1567412171.390625
1.09,1567412171.40625
1.17,1567412171.421875
1.47,1567412171.4375
1.93,1567412171.453125
2.54,1567412171.46875
3.18,1567412171.484375
3.62,1567412171.5
3.64,1567412171.515625
3.1,1567412171.53125
2.08,1567412171.546875
0.81,1567412171.5625
-0.35,1567412171.578125
-1.16,1567412171.59375
-1.54,1567412171.609375
-1.62,1567412171.625
-1.6,1567412171.640625
-1.67,1567412171.65625
-1.9,1567412171.671875
-2.24,1567412171.6875
-2.56,1567412171.703125
-2.7,1567412171.71875
-2.47,1567412171.734375
-1.79,1567412171.75
-0.65,1567412171.765625
0.77,1567412171.78125
2.18,1567412171.796875
3.26,1567412171.8125
3.78,1567412171.828125
3.74,1567412171.84375
3.42,1567412171.859375
3.21,1567412171.875
3.42,1567412171.890625
4.16,1567412171.90625
5.24,1567412171.921875
6.3,1567412171.9375
7.02,1567412171.953125
7.21,1567412171.96875
6.97,1567412171.984375
6.54,1567412172.0
6.15,1567412172.015625
5.91,1567412172.03125
5.73,1567412172.046875
5.4,1567412172.0625
4.74,1567412172.078125
3.7,1567412172.09375
2.46,1567412172.109375
1.25,1567412172.125
0.21,1567412172.140625
-0.64,1567412172.15625
-1.47,1567412172.171875
-2.42,1567412172.1875
-3.57,1567412172.203125
-4.77,1567412172.21875
-5.82,1567412172.234375
-6.51,1567412172.25
-6.77,1567412172.265625
-6.7,1567412172.28125
-6.48,1567412172.296875
-6.15,1567412172.3125
-5.61,1567412172.328125
-4.72,1567412172.34375
-3.38,1567412172.359375
-1.69,1567412172.375
-0.02,1567412172.390625
1.19,1567412172.40625
1.62,1567412172.421875
1.21,1567412172.4375
0.31,1567412172.453125
-0.56,1567412172.46875
-0.86,1567412172.484375
-0.32,1567412172.5
0.95,1567412172.515625
2.5,1567412172.53125
3.79,1567412172.546875
4.32,1567412172.5625
3.89,1567412172.578125
2.58,1567412172.59375
0.77,1567412172.609375
-1.15,1567412172.625
-2.77,1567412172.640625
-3.88,1567412172.65625
-4.42,1567412172.671875
-4.53,1567412172.6875
-4.42,1567412172.703125
-4.31,1567412172.71875
-4.36,1567412172.734375
-4.58,1567412172.75
-4.87,1567412172.765625
-5.07,1567412172.78125
-5.05,1567412172.796875
-4.76,1567412172.8125
-4.27,1567412172.828125
-3.56,1567412172.84375
-2.56,1567412172.859375
-1.1,1567412172.875
0.9,1567412172.890625
3.32,1567412172.90625
5.79,1567412172.921875
7.82,1567412172.9375
9.02,1567412172.953125
9.32,1567412172.96875
8.95,1567412172.984375
8.31,1567412173.0
7.7,1567412173.015625
7.16,1567412173.03125
6.42,1567412173.046875
5.13,1567412173.0625
3.09,1567412173.078125
0.41,1567412173.09375
-2.55,1567412173.109375
-5.37,1567412173.125
-7.71,1567412173.140625
-9.42,1567412173.15625
-10.53,1567412173.171875
-11.14,1567412173.1875
-11.29,1567412173.203125
-10.96,1567412173.21875
-10.12,1567412173.234375
-8.84,1567412173.25
-7.25,1567412173.265625
-5.6,1567412173.28125
-4.15,1567412173.296875
-3.02,1567412173.3125
-2.18,1567412173.328125
-1.49,1567412173.34375
-0.77,1567412173.359375
0.11,1567412173.375
1.12,1567412173.390625
2.12,1567412173.40625
2.89,1567412173.421875
3.22,1567412173.4375
3.02,1567412173.453125
2.35,1567412173.46875
1.36,1567412173.484375
0.36,1567412173.5
-0.42,1567412173.515625
-0.84,1567412173.53125
-0.89,1567412173.546875
-0.69,1567412173.5625
-0.41,1567412173.578125
-0.12,1567412173.59375
0.17,1567412173.609375
0.54,1567412173.625
1.05,1567412173.640625
1.65,1567412173.65625
2.22,1567412173.671875
2.56,1567412173.6875
2.64,1567412173.703125
2.51,1567412173.71875
2.33,1567412173.734375
2.27,1567412173.75
2.35,1567412173.765625
2.44,1567412173.78125
2.28,1567412173.796875
1.64,1567412173.8125
0.51,1567412173.828125
-0.96,1567412173.84375
-2.42,1567412173.859375
-3.53,1567412173.875
-4.14,1567412173.890625
-4.37,1567412173.90625
-4.54,1567412173.921875
-5.03,1567412173.9375
-6.02,1567412173.953125
-7.47,1567412173.96875
-9.12,1567412173.984375
-10.59,1567412174.0
-11.54,1567412174.015625
-11.82,1567412174.03125
-11.4,1567412174.046875
-10.35,1567412174.0625
-8.87,1567412174.078125
-7.1,1567412174.09375
-5.2,1567412174.109375
-3.31,1567412174.125
-1.49,1567412174.140625
0.21,1567412174.15625
1.84,1567412174.171875
3.45,1567412174.1875
5.2,1567412174.203125
7.17,1567412174.21875
9.33,1567412174.234375
11.57,1567412174.25
13.6,1567412174.265625
15.02,1567412174.28125
15.52,1567412174.296875
14.93,1567412174.3125
13.44,1567412174.328125
11.45,1567412174.34375
9.49,1567412174.359375
7.93,1567412174.375
6.91,1567412174.390625
6.3,1567412174.40625
5.86,1567412174.421875
5.45,1567412174.4375
5.01,1567412174.453125
4.59,1567412174.46875
4.24,1567412174.484375
3.86,1567412174.5
3.29,1567412174.515625
2.37,1567412174.53125
1.12,1567412174.546875
-0.3,1567412174.5625
-1.61,1567412174.578125
-2.56,1567412174.59375
-3.0,1567412174.609375
-2.98,1567412174.625
-2.59,1567412174.640625
-1.96,1567412174.65625
-1.2,1567412174.671875
-0.43,1567412174.6875
0.24,1567412174.703125
0.79,1567412174.71875
1.31,1567412174.734375
1.96,1567412174.75
2.91,1567412174.765625
4.19,1567412174.78125
5.64,1567412174.796875
6.94,1567412174.8125
7.78,1567412174.828125
7.95,1567412174.84375
7.45,1567412174.859375
6.39,1567412174.875
5.05,1567412174.890625
3.65,1567412174.90625
2.29,1567412174.921875
1.1,1567412174.9375
0.11,1567412174.953125
-0.65,1567412174.96875
-1.13,1567412174.984375
-1.32,1567412175.0
-1.24,1567412175.015625
-1.02,1567412175.03125
-0.84,1567412175.046875
-0.9,1567412175.0625
-1.38,1567412175.078125
-2.22,1567412175.09375
-3.22,1567412175.109375
-4.04,1567412175.125
-4.34,1567412175.140625
-4.03,1567412175.15625
-3.19,1567412175.171875
-2.06,1567412175.1875
-0.96,1567412175.203125
-0.14,1567412175.21875
0.24,1567412175.234375
0.17,1567412175.25
-0.25,1567412175.265625
-0.77,1567412175.28125
-1.04,1567412175.296875
-0.74,1567412175.3125
0.29,1567412175.328125
1.91,1567412175.34375
3.67,1567412175.359375
4.99,1567412175.375
5.42,1567412175.390625
4.78,1567412175.40625
3.26,1567412175.421875
1.23,1567412175.4375
-0.88,1567412175.453125
-2.74,1567412175.46875
-4.13,1567412175.484375
-5.02,1567412175.5
-5.35,1567412175.515625
-5.2,1567412175.53125
-4.7,1567412175.546875
-4.03,1567412175.5625
-3.33,1567412175.578125
-2.73,1567412175.59375
-2.28,1567412175.609375
-1.9,1567412175.625
-1.53,1567412175.640625
-1.15,1567412175.65625
-0.83,1567412175.671875
-0.68,1567412175.6875
-0.77,1567412175.703125
-1.09,1567412175.71875
-1.53,1567412175.734375
-1.95,1567412175.75
-2.18,1567412175.765625
-2.22,1567412175.78125
-2.15,1567412175.796875
-2.17,1567412175.8125
-2.51,1567412175.828125
-3.21,1567412175.84375
-4.2,1567412175.859375
-5.17,1567412175.875
-5.8,1567412175.890625
-5.91,1567412175.90625
-5.49,1567412175.921875
-4.76,1567412175.9375
-4.0,1567412175.953125
-3.43,1567412175.96875
-3.11,1567412175.984375
-2.93,1567412176.0
-2.76,1567412176.015625
-2.53,1567412176.03125
-2.25,1567412176.046875
-2.04,1567412176.0625
-1.98,1567412176.078125
-2.02,1567412176.09375
-2.03,1567412176.109375
-1.89,1567412176.125
-1.64,1567412176.140625
-1.34,1567412176.15625
-1.24,1567412176.171875
-1.42,1567412176.1875
-1.89,1567412176.203125
-2.44,1567412176.21875
-2.82,1567412176.234375
-2.81,1567412176.25
-2.33,1567412176.265625
-1.53,1567412176.28125
-0.65,1567412176.296875
0.08,1567412176.3125
0.52,1567412176.328125
0.66,1567412176.34375
0.6,1567412176.359375
0.5,1567412176.375
0.49,1567412176.390625
0.67,1567412176.40625
1.05,1567412176.421875
1.6,1567412176.4375
2.21,1567412176.453125
2.85,1567412176.46875
3.46,1567412176.484375
4.14,1567412176.5
4.94,1567412176.515625
5.88,1567412176.53125
6.87,1567412176.546875
7.64,1567412176.5625
7.96,1567412176.578125
7.76,1567412176.59375
7.2,1567412176.609375
6.62,1567412176.625
6.37,1567412176.640625
6.53,1567412176.65625
6.89,1567412176.671875
7.01,1567412176.6875
6.45,1567412176.703125
5.11,1567412176.71875
3.26,1567412176.734375
1.35,1567412176.75
-0.15,1567412176.765625
-1.02,1567412176.78125
-1.3,1567412176.796875
-1.26,1567412176.8125
-1.17,1567412176.828125
-1.25,1567412176.84375
-1.65,1567412176.859375
-2.41,1567412176.875
-3.59,1567412176.890625
-5.15,1567412176.90625
-6.9,1567412176.921875
-8.52,1567412176.9375
-9.61,1567412176.953125
-9.8,1567412176.96875
-8.95,1567412176.984375
-7.26,1567412177.0
-5.22,1567412177.015625
-3.42,1567412177.03125
-2.32,1567412177.046875
-2.05,1567412177.0625
-2.37,1567412177.078125
-2.8,1567412177.09375
-2.86,1567412177.109375
-2.3,1567412177.125
-1.16,1567412177.140625
0.31,1567412177.15625
1.73,1567412177.171875
2.88,1567412177.1875
3.71,1567412177.203125
4.3,1567412177.21875
4.78,1567412177.234375
5.16,1567412177.25
5.34,1567412177.265625
5.17,1567412177.28125
4.61,1567412177.296875
3.74,1567412177.3125
2.86,1567412177.328125
2.18,1567412177.34375
1.85,1567412177.359375
1.83,1567412177.375
1.99,1567412177.390625
2.16,1567412177.40625
2.29,1567412177.421875
2.42,1567412177.4375
2.56,1567412177.453125
2.66,1567412177.46875
2.59,1567412177.484375
2.23,1567412177.5
1.52,1567412177.515625
0.47,1567412177.53125
-0.82,1567412177.546875
-2.32,1567412177.5625
-4.02,1567412177.578125
-5.95,1567412177.59375
-8.02,1567412177.609375
-9.99,1567412177.625
-11.49,1567412177.640625
-12.1,1567412177.65625
-11.6,1567412177.671875
-10.0,1567412177.6875
-7.65,1567412177.703125
-4.98,1567412177.71875
-2.36,1567412177.734375
0.04,1567412177.75
2.29,1567412177.765625
4.53,1567412177.78125
6.83,1567412177.796875
8.97,1567412177.8125
10.55,1567412177.828125
11.19,1567412177.84375
10.79,1567412177.859375
9.58,1567412177.875
8.15,1567412177.890625
7.13,1567412177.90625
6.87,1567412177.921875
7.35,1567412177.9375
8.16,1567412177.953125
8.74,1567412177.96875
8.63,1567412177.984375
7.69,1567412178.0
6.15,1567412178.015625
4.46,1567412178.03125
3.14,1567412178.046875
2.46,1567412178.0625
2.44,1567412178.078125
2.81,1567412178.09375
3.16,1567412178.109375
3.11,1567412178.125
2.47,1567412178.140625
1.25,1567412178.15625
-0.34,1567412178.171875
-1.99,1567412178.1875
-3.45,1567412178.203125
-4.56,1567412178.21875
-5.33,1567412178.234375
-5.93,1567412178.25
-6.53,1567412178.265625
-7.29,1567412178.28125
-8.2,1567412178.296875
-9.19,1567412178.3125
-10.11,1567412178.328125
-10.95,1567412178.34375
-11.66,1567412178.359375
-12.31,1567412178.375
-12.88,1567412178.390625
-13.26,1567412178.40625
-13.31,1567412178.421875
-12.91,1567412178.4375
-12.06,1567412178.453125
-10.88,1567412178.46875
-9.53,1567412178.484375
-8.11,1567412178.5
-6.57,1567412178.515625
-4.81,1567412178.53125
-2.78,1567412178.546875
-0.49,1567412178.5625
1.85,1567412178.578125
3.98,1567412178.59375
5.68,1567412178.609375
6.85,1567412178.625
7.48,1567412178.640625
7.66,1567412178.65625
7.5,1567412178.671875
7.09,1567412178.6875
6.5,1567412178.703125
5.78,1567412178.71875
5.03,1567412178.734375
4.33,1567412178.75
3.75,1567412178.765625
3.29,1567412178.78125
2.86,1567412178.796875
2.45,1567412178.8125
2.08,1567412178.828125
1.85,1567412178.84375
1.88,1567412178.859375
2.24,1567412178.875
2.8,1567412178.890625
3.33,1567412178.90625
3.51,1567412178.921875
3.21,1567412178.9375
2.52,1567412178.953125
1.68,1567412178.96875
1.03,1567412178.984375
0.74,1567412179.0
0.71,1567412179.015625
0.62,1567412179.03125
0.08,1567412179.046875
-1.08,1567412179.0625
-2.8,1567412179.078125
-4.68,1567412179.09375
-6.22,1567412179.109375
-6.98,1567412179.125
-6.81,1567412179.140625
-5.9,1567412179.15625
-4.66,1567412179.171875
-3.55,1567412179.1875
-2.8,1567412179.203125
-2.34,1567412179.21875
-1.9,1567412179.234375
-1.2,1567412179.25
-0.16,1567412179.265625
1.05,1567412179.28125
2.03,1567412179.296875
2.48,1567412179.3125
2.3,1567412179.328125
1.71,1567412179.34375
1.01,1567412179.359375
0.54,1567412179.375
0.47,1567412179.390625
0.77,1567412179.40625
1.3,1567412179.421875
1.93,1567412179.4375
2.54,1567412179.453125
3.05,1567412179.46875
3.36,1567412179.484375
3.39,1567412179.5
3.17,1567412179.515625
2.83,1567412179.53125
2.58,1567412179.546875
2.62,1567412179.5625
2.98,1567412179.578125
3.51,1567412179.59375
4.02,1567412179.609375
4.34,1567412179.625
4.49,1567412179.640625
4.66,1567412179.65625
4.97,1567412179.671875
5.47,1567412179.6875
5.99,1567412179.703125
6.25,1567412179.71875
6.04,1567412179.734375
5.3,1567412179.75
4.16,1567412179.765625
2.82,1567412179.78125
1.44,1567412179.796875
0.06,1567412179.8125
-1.31,1567412179.828125
-2.65,1567412179.84375
-3.79,1567412179.859375
-4.48,1567412179.875
-4.48,1567412179.890625
-3.74,1567412179.90625
-2.52,1567412179.921875
-1.23,1567412179.9375
-0.36,1567412179.953125
-0.13,1567412179.96875
-0.38,1567412179.984375
-0.72,1567412180.0
-0.67,1567412180.015625
0.01,1567412180.03125
1.15,1567412180.046875
2.36,1567412180.0625
3.12,1567412180.078125
3.19,1567412180.09375
2.6,1567412180.109375
1.68,1567412180.125
0.86,1567412180.140625
0.51,1567412180.15625
0.74,1567412180.171875
1.47,1567412180.1875
2.51,1567412180.203125
3.59,1567412180.21875
4.45,1567412180.234375
4.89,1567412180.25
4.78,1567412180.265625
4.06,1567412180.28125
2.81,1567412180.296875
1.19,1567412180.3125
-0.55,1567412180.328125
-2.18,1567412180.34375
-3.51,1567412180.359375
-4.4,1567412180.375
-4.83,1567412180.390625
-4.87,1567412180.40625
-4.67,1567412180.421875
-4.45,1567412180.4375
-4.44,1567412180.453125
-4.86,1567412180.46875
-5.77,1567412180.484375
-7.16,1567412180.5
-8.76,1567412180.515625
-10.21,1567412180.53125
-11.14,1567412180.546875
-11.35,1567412180.5625
-10.85,1567412180.578125
-9.9,1567412180.59375
-8.85,1567412180.609375
-7.95,1567412180.625
-7.18,1567412180.640625
-6.37,1567412180.65625
-5.34,1567412180.671875
-4.07,1567412180.6875
-2.75,1567412180.703125
-1.73,1567412180.71875
-1.26,1567412180.734375
-1.34,1567412180.75
-1.76,1567412180.765625
-2.16,1567412180.78125
-2.33,1567412180.796875
-2.22,1567412180.8125
-1.96,1567412180.828125
-1.74,1567412180.84375
-1.62,1567412180.859375
-1.52,1567412180.875
-1.32,1567412180.890625
-0.95,1567412180.90625
-0.39,1567412180.921875
0.26,1567412180.9375
0.93,1567412180.953125
1.64,1567412180.96875
2.55,1567412180.984375
3.77,1567412181.0
5.34,1567412181.015625
7.16,1567412181.03125
8.92,1567412181.046875
10.32,1567412181.0625
11.11,1567412181.078125
11.26,1567412181.09375
10.91,1567412181.109375
10.27,1567412181.125
9.55,1567412181.140625
8.85,1567412181.15625
8.12,1567412181.171875
7.35,1567412181.1875
6.49,1567412181.203125
5.56,1567412181.21875
4.55,1567412181.234375
3.48,1567412181.25
2.26,1567412181.265625
0.83,1567412181.28125
-0.89,1567412181.296875
-2.88,1567412181.3125
-5.01,1567412181.328125
-7.07,1567412181.34375
-8.76,1567412181.359375
-9.79,1567412181.375
-9.95,1567412181.390625
-9.26,1567412181.40625
-7.93,1567412181.421875
-6.33,1567412181.4375
-4.84,1567412181.453125
-3.68,1567412181.46875
-2.86,1567412181.484375
-2.2,1567412181.5
-1.45,1567412181.515625
-0.47,1567412181.53125
0.69,1567412181.546875
1.82,1567412181.5625
2.66,1567412181.578125
3.05,1567412181.59375
3.04,1567412181.609375
2.84,1567412181.625
2.76,1567412181.640625
3.04,1567412181.65625
3.79,1567412181.671875
4.86,1567412181.6875
5.94,1567412181.703125
6.73,1567412181.71875
6.98,1567412181.734375
6.67,1567412181.75
5.95,1567412181.765625
5.08,1567412181.78125
4.25,1567412181.796875
3.39,1567412181.8125
2.31,1567412181.828125
0.8,1567412181.84375
-1.14,1567412181.859375
-3.27,1567412181.875
-5.09,1567412181.890625
-6.15,1567412181.90625
-6.24,1567412181.921875
-5.49,1567412181.9375
-4.33,1567412181.953125
-3.2,1567412181.96875
-2.42,1567412181.984375
-2.09,1567412182.0
-2.05,1567412182.015625
-2.16,1567412182.03125
-2.26,1567412182.046875
-2.27,1567412182.0625
-2.14,1567412182.078125
-1.73,1567412182.09375
-0.9,1567412182.109375
0.43,1567412182.125
2.18,1567412182.140625
4.03,1567412182.15625
5.52,1567412182.171875
6.26,1567412182.1875
6.1,1567412182.203125
5.21,1567412182.21875
4.0,1567412182.234375
2.87,1567412182.25
2.06,1567412182.265625
1.52,1567412182.28125
1.02,1567412182.296875
0.37,1567412182.3125
-0.45,1567412182.328125
-1.24,1567412182.34375
-1.72,1567412182.359375
-1.72,1567412182.375
-1.21,1567412182.390625
-0.42,1567412182.40625
0.38,1567412182.421875
1.0,1567412182.4375
1.43,1567412182.453125
1.75,1567412182.46875
2.12,1567412182.484375
2.65,1567412182.5
3.33,1567412182.515625
4.05,1567412182.53125
4.68,1567412182.546875
5.15,1567412182.5625
5.41,1567412182.578125
5.48,1567412182.59375
5.3,1567412182.609375
4.79,1567412182.625
3.89,1567412182.640625
2.53,1567412182.65625
0.83,1567412182.671875
-1.03,1567412182.6875
-2.83,1567412182.703125
-4.46,1567412182.71875
-5.9,1567412182.734375
-7.25,1567412182.75
-8.65,1567412182.765625
-10.19,1567412182.78125
-11.84,1567412182.796875
-13.51,1567412182.8125
-15.03,1567412182.828125
-16.19,1567412182.84375
-16.75,1567412182.859375
-16.5,1567412182.875
-15.3,1567412182.890625
-13.14,1567412182.90625
-10.26,1567412182.921875
-7.06,1567412182.9375
-3.97,1567412182.953125
-1.31,1567412182.96875
0.83,1567412182.984375
2.53,1567412183.0
3.97,1567412183.015625
5.25,1567412183.03125
6.32,1567412183.046875
7.07,1567412183.0625
7.44,1567412183.078125
7.48,1567412183.09375
7.35,1567412183.109375
7.15,1567412183.125
6.92,1567412183.140625
6.51,1567412183.15625
5.75,1567412183.171875
4.67,1567412183.1875
3.49,1567412183.203125
2.6,1567412183.21875
2.3,1567412183.234375
2.69,1567412183.25
3.61,1567412183.265625
4.68,1567412183.28125
5.63,1567412183.296875
6.31,1567412183.3125
6.64,1567412183.328125
6.59,1567412183.34375
6.11,1567412183.359375
5.07,1567412183.375
3.51,1567412183.390625
1.66,1567412183.40625
-0.1,1567412183.421875
-1.3,1567412183.4375
-1.63,1567412183.453125
-1.06,1567412183.46875
0.18,1567412183.484375
1.72,1567412183.5
3.23,1567412183.515625
4.51,1567412183.53125
5.52,1567412183.546875
6.24,1567412183.5625
6.61,1567412183.578125
6.61,1567412183.59375
6.28,1567412183.609375
5.92,1567412183.625
6.01,1567412183.640625
7.13,1567412183.65625
9.59,1567412183.671875
13.24,1567412183.6875
17.36,1567412183.703125
20.94,1567412183.71875
23.04,1567412183.734375
23.08,1567412183.75
21.12,1567412183.765625
17.68,1567412183.78125
13.47,1567412183.796875
9.03,1567412183.8125
4.72,1567412183.828125
0.65,1567412183.84375
-3.06,1567412183.859375
-6.23,1567412183.875
-8.6,1567412183.890625
-10.01,1567412183.90625
-10.53,1567412183.921875
-10.43,1567412183.9375
-10.07,1567412183.953125
-9.67,1567412183.96875
-9.17,1567412183.984375
-8.26,1567412184.0
-6.54,1567412184.015625
-3.72,1567412184.03125
0.12,1567412184.046875
4.53,1567412184.0625
8.83,1567412184.078125
12.36,1567412184.09375
14.62,1567412184.109375
15.45,1567412184.125
14.95,1567412184.140625
13.38,1567412184.15625
10.97,1567412184.171875
7.98,1567412184.1875
4.67,1567412184.203125
1.41,1567412184.21875
-1.46,1567412184.234375
-3.67,1567412184.25
-5.2,1567412184.265625
-6.36,1567412184.28125
-7.68,1567412184.296875
-9.75,1567412184.3125
-12.9,1567412184.328125
-17.13,1567412184.34375
-22.1,1567412184.359375
-27.25,1567412184.375
-32.02,1567412184.390625
-36.0,1567412184.40625
-38.88,1567412184.421875
-40.53,1567412184.4375
-40.94,1567412184.453125
-40.23,1567412184.46875
-38.66,1567412184.484375
-36.54,1567412184.5
-34.21,1567412184.515625
-31.81,1567412184.53125
-29.35,1567412184.546875
-26.72,1567412184.5625
-23.83,1567412184.578125
-20.74,1567412184.59375
-17.72,1567412184.609375
-15.16,1567412184.625
-13.42,1567412184.640625
-12.66,1567412184.65625
-12.79,1567412184.671875
-13.47,1567412184.6875
-14.19,1567412184.703125
-14.51,1567412184.71875
-14.11,1567412184.734375
-12.87,1567412184.75
-10.87,1567412184.765625
-8.28,1567412184.78125
-5.36,1567412184.796875
-2.39,1567412184.8125
0.27,1567412184.828125
2.33,1567412184.84375
3.56,1567412184.859375
4.06,1567412184.875
4.17,1567412184.890625
4.42,1567412184.90625
5.27,1567412184.921875
6.8,1567412184.9375
8.7,1567412184.953125
10.27,1567412184.96875
10.88,1567412184.984375
10.29,1567412185.0
8.81,1567412185.015625
7.14,1567412185.03125
5.99,1567412185.046875
5.75,1567412185.0625
6.33,1567412185.078125
7.25,1567412185.09375
7.99,1567412185.109375
8.22,1567412185.125
7.95,1567412185.140625
7.47,1567412185.15625
7.2,1567412185.171875
7.42,1567412185.1875
8.25,1567412185.203125
9.66,1567412185.21875
11.48,1567412185.234375
13.56,1567412185.25
15.73,1567412185.265625
17.77,1567412185.28125
19.41,1567412185.296875
20.39,1567412185.3125
20.49,1567412185.328125
19.64,1567412185.34375
17.96,1567412185.359375
15.75,1567412185.375
13.39,1567412185.390625
11.25,1567412185.40625
9.66,1567412185.421875
8.88,1567412185.4375
8.99,1567412185.453125
9.94,1567412185.46875
11.47,1567412185.484375
13.11,1567412185.5
14.41,1567412185.515625
15.04,1567412185.53125
14.94,1567412185.546875
14.27,1567412185.5625
13.26,1567412185.578125
12.19,1567412185.59375
11.16,1567412185.609375
10.28,1567412185.625
9.55,1567412185.640625
8.93,1567412185.65625
8.29,1567412185.671875
7.44,1567412185.6875
6.08,1567412185.703125
4.1,1567412185.71875
1.62,1567412185.734375
-0.93,1567412185.75
-2.99,1567412185.765625
-4.09,1567412185.78125
-4.17,1567412185.796875
-3.62,1567412185.8125
-3.11,1567412185.828125
-3.18,1567412185.84375
-4.09,1567412185.859375
-5.57,1567412185.875
-7.07,1567412185.890625
-8.04,1567412185.90625
-8.09,1567412185.921875
-7.14,1567412185.9375
-5.39,1567412185.953125
-3.1,1567412185.96875
-0.51,1567412185.984375
2.18,1567412186.0
4.87,1567412186.015625
7.39,1567412186.03125
9.6,1567412186.046875
11.33,1567412186.0625
12.52,1567412186.078125
13.22,1567412186.09375
13.54,1567412186.109375
13.6,1567412186.125
13.44,1567412186.140625
13.04,1567412186.15625
12.33,1567412186.171875
11.33,1567412186.1875
10.18,1567412186.203125
9.05,1567412186.21875
8.11,1567412186.234375
7.38,1567412186.25
6.75,1567412186.265625
5.97,1567412186.28125
4.89,1567412186.296875
3.46,1567412186.3125
1.78,1567412186.328125
0.13,1567412186.34375
-1.32,1567412186.359375
-2.49,1567412186.375
-3.49,1567412186.390625
-4.53,1567412186.40625
-5.79,1567412186.421875
-7.26,1567412186.4375
-8.75,1567412186.453125
-9.9,1567412186.46875
-10.45,1567412186.484375
-10.32,1567412186.5
-9.73,1567412186.515625
-9.13,1567412186.53125
-8.96,1567412186.546875
-9.48,1567412186.5625
-10.69,1567412186.578125
-12.37,1567412186.59375
-14.21,1567412186.609375
-15.84,1567412186.625
-17.01,1567412186.640625
-17.46,1567412186.65625
-17.07,1567412186.671875
-15.9,1567412186.6875
-14.15,1567412186.703125
-12.19,1567412186.71875
-10.37,1567412186.734375
-8.91,1567412186.75
-7.79,1567412186.765625
-6.83,1567412186.78125
-5.83,1567412186.796875
-4.71,1567412186.8125
-3.6,1567412186.828125
-2.73,1567412186.84375
-2.32,1567412186.859375
-2.42,1567412186.875
-2.88,1567412186.890625
-3.43,1567412186.90625
-3.79,1567412186.921875
-3.75,1567412186.9375
-3.31,1567412186.953125
-2.55,1567412186.96875
-1.69,1567412186.984375
-0.9,1567412187.0
-0.2,1567412187.015625
0.5,1567412187.03125
1.37,1567412187.046875
2.51,1567412187.0625
3.75,1567412187.078125
4.78,1567412187.09375
5.24,1567412187.109375
5.0,1567412187.125
4.27,1567412187.140625
3.5,1567412187.15625
3.24,1567412187.171875
3.76,1567412187.1875
5.02,1567412187.203125
6.63,1567412187.21875
8.04,1567412187.234375
8.71,1567412187.25
8.36,1567412187.265625
6.96,1567412187.28125
4.63,1567412187.296875
1.71,1567412187.3125
-1.37,1567412187.328125
-4.15,1567412187.34375
-6.21,1567412187.359375
-7.31,1567412187.375
-7.42,1567412187.390625
-6.71,1567412187.40625
-5.44,1567412187.421875
-3.86,1567412187.4375
-2.21,1567412187.453125
-0.63,1567412187.46875
0.71,1567412187.484375
1.71,1567412187.5
2.3,1567412187.515625
2.55,1567412187.53125
2.63,1567412187.546875
2.86,1567412187.5625
3.43,1567412187.578125
4.4,1567412187.59375
5.63,1567412187.609375
6.84,1567412187.625
7.74,1567412187.640625
8.19,1567412187.65625
8.23,1567412187.671875
8.05,1567412187.6875
7.86,1567412187.703125
7.84,1567412187.71875
8.01,1567412187.734375
8.31,1567412187.75
8.6,1567412187.765625
8.71,1567412187.78125
8.46,1567412187.796875
7.68,1567412187.8125
6.27,1567412187.828125
4.19,1567412187.84375
1.57,1567412187.859375
-1.31,1567412187.875
-4.08,1567412187.890625
-6.29,1567412187.90625
-7.64,1567412187.921875
-7.99,1567412187.9375
-7.53,1567412187.953125
-6.63,1567412187.96875
-5.74,1567412187.984375
-5.18,1567412188.0
-5.1,1567412188.015625
-5.38,1567412188.03125
-5.85,1567412188.046875
-6.36,1567412188.0625
-6.87,1567412188.078125
-7.4,1567412188.09375
-7.9,1567412188.109375
-8.16,1567412188.125
-7.94,1567412188.140625
-6.99,1567412188.15625
-5.3,1567412188.171875
-3.13,1567412188.1875
-0.92,1567412188.203125
1.0,1567412188.21875
2.6,1567412188.234375
4.05,1567412188.25
5.64,1567412188.265625
7.52,1567412188.28125
9.56,1567412188.296875
11.36,1567412188.3125
12.54,1567412188.328125
12.89,1567412188.34375
12.43,1567412188.359375
11.36,1567412188.375
9.87,1567412188.390625
8.07,1567412188.40625
5.99,1567412188.421875
3.76,1567412188.4375
1.56,1567412188.453125
-0.36,1567412188.46875
-1.78,1567412188.484375
-2.68,1567412188.5
-3.19,1567412188.515625
-3.55,1567412188.53125
-3.92,1567412188.546875
-4.31,1567412188.5625
-4.61,1567412188.578125
-4.73,1567412188.59375
-4.63,1567412188.609375
-4.34,1567412188.625
-3.87,1567412188.640625
-3.21,1567412188.65625
-2.26,1567412188.671875
-0.95,1567412188.6875
0.56,1567412188.703125
1.94,1567412188.71875
2.76,1567412188.734375
2.69,1567412188.75
1.6,1567412188.765625
-0.36,1567412188.78125
-2.81,1567412188.796875
-5.32,1567412188.8125
-7.5,1567412188.828125
-9.04,1567412188.84375
-9.72,1567412188.859375
-9.46,1567412188.875
-8.24,1567412188.890625
-6.17,1567412188.90625
-3.54,1567412188.921875
-0.75,1567412188.9375
1.73,1567412188.953125
3.6,1567412188.96875
4.79,1567412188.984375
5.48,1567412189.0
6.01,1567412189.015625
6.68,1567412189.03125
7.6,1567412189.046875
8.68,1567412189.0625
9.71,1567412189.078125
10.48,1567412189.09375
10.95,1567412189.109375
11.2,1567412189.125
11.35,1567412189.140625
11.43,1567412189.15625
11.26,1567412189.171875
10.62,1567412189.1875
9.25,1567412189.203125
7.06,1567412189.21875
4.21,1567412189.234375
0.99,1567412189.25
-2.23,1567412189.265625
-5.15,1567412189.28125
-7.7,1567412189.296875
-10.02,1567412189.3125
-12.55,1567412189.328125
-15.85,1567412189.34375
-20.38,1567412189.359375
-26.26,1567412189.375
-33.08,1567412189.390625
-39.97,1567412189.40625
-45.88,1567412189.421875
-50.08,1567412189.4375
-52.39,1567412189.453125
-53.28,1567412189.46875
-53.42,1567412189.484375
-53.31,1567412189.5
-52.88,1567412189.515625
-51.57,1567412189.53125
-48.72,1567412189.546875
-44.1,1567412189.5625
-38.05,1567412189.578125
-31.4,1567412189.59375
-25.05,1567412189.609375
-19.58,1567412189.625
-15.04,1567412189.640625
-11.15,1567412189.65625
-7.58,1567412189.671875
-4.12,1567412189.6875
-0.84,1567412189.703125
2.04,1567412189.71875
4.28,1567412189.734375
5.74,1567412189.75
6.46,1567412189.765625
6.58,1567412189.78125
6.34,1567412189.796875
6.01,1567412189.8125
5.93,1567412189.828125
6.4,1567412189.84375
7.66,1567412189.859375
9.81,1567412189.875
12.82,1567412189.890625
16.45,1567412189.90625
20.29,1567412189.921875
23.9,1567412189.9375
26.88,1567412189.953125
29.01,1567412189.96875
30.27,1567412189.984375
30.78,1567412190.0
30.62,1567412190.015625
29.82,1567412190.03125
28.35,1567412190.046875
26.21,1567412190.0625
23.6,1567412190.078125
20.86,1567412190.09375
18.39,1567412190.109375
16.57,1567412190.125
15.53,1567412190.140625
15.13,1567412190.15625
15.04,1567412190.171875
14.87,1567412190.1875
14.33,1567412190.203125
13.41,1567412190.21875
12.25,1567412190.234375
11.11,1567412190.25
10.19,1567412190.265625
9.63,1567412190.28125
9.45,1567412190.296875
9.66,1567412190.3125
10.32,1567412190.328125
11.42,1567412190.34375
12.93,1567412190.359375
14.65,1567412190.375
16.29,1567412190.390625
17.51,1567412190.40625
18.1,1567412190.421875
18.0,1567412190.4375
17.38,1567412190.453125
16.43,1567412190.46875
15.38,1567412190.484375
14.31,1567412190.5
13.24,1567412190.515625
12.1,1567412190.53125
10.89,1567412190.546875
9.69,1567412190.5625
8.59,1567412190.578125
7.68,1567412190.59375
6.99,1567412190.609375
6.42,1567412190.625
5.79,1567412190.640625
4.97,1567412190.65625
3.93,1567412190.671875
2.8,1567412190.6875
1.84,1567412190.703125
1.31,1567412190.71875
1.35,1567412190.734375
1.81,1567412190.75
2.42,1567412190.765625
2.79,1567412190.78125
2.6,1567412190.796875
1.82,1567412190.8125
0.63,1567412190.828125
-0.62,1567412190.84375
-1.64,1567412190.859375
-2.3,1567412190.875
-2.74,1567412190.890625
-3.17,1567412190.90625
-3.82,1567412190.921875
-4.8,1567412190.9375
-6.08,1567412190.953125
-7.53,1567412190.96875
-9.04,1567412190.984375
-10.55,1567412191.0
-12.0,1567412191.015625
-13.3,1567412191.03125
-14.26,1567412191.046875
-14.63,1567412191.0625
-14.12,1567412191.078125
-12.58,1567412191.09375
-10.06,1567412191.109375
-6.79,1567412191.125
-3.19,1567412191.140625
0.3,1567412191.15625
3.3,1567412191.171875
5.68,1567412191.1875
7.43,1567412191.203125
8.69,1567412191.21875
9.68,1567412191.234375
10.48,1567412191.25
11.17,1567412191.265625
11.67,1567412191.28125
11.87,1567412191.296875
11.65,1567412191.3125
11.0,1567412191.328125
9.98,1567412191.34375
8.81,1567412191.359375
7.78,1567412191.375
7.18,1567412191.390625
7.08,1567412191.40625
7.33,1567412191.421875
7.61,1567412191.4375
7.56,1567412191.453125
7.04,1567412191.46875
6.22,1567412191.484375
5.49,1567412191.5
5.23,1567412191.515625
5.57,1567412191.53125
6.28,1567412191.546875
6.85,1567412191.5625
6.76,1567412191.578125
5.71,1567412191.59375
3.81,1567412191.609375
1.45,1567412191.625
-0.88,1567412191.640625
-2.88,1567412191.65625
-4.52,1567412191.671875
-5.98,1567412191.6875
-7.53,1567412191.703125
-9.32,1567412191.71875
-11.29,1567412191.734375
-13.36,1567412191.75
-15.44,1567412191.765625
-17.53,1567412191.78125
-19.66,1567412191.796875
-21.73,1567412191.8125
-23.43,1567412191.828125
-24.32,1567412191.84375
-24.02,1567412191.859375
-22.45,1567412191.875
-19.93,1567412191.890625
-17.11,1567412191.90625
-14.67,1567412191.921875
-13.03,1567412191.9375
-12.2,1567412191.953125
-11.84,1567412191.96875
-11.46,1567412191.984375
-10.68,1567412192.0
-9.34,1567412192.015625
-7.5,1567412192.03125
-5.39,1567412192.046875
-3.28,1567412192.0625
-1.45,1567412192.078125
-0.12,1567412192.09375
0.62,1567412192.109375
0.81,1567412192.125
0.67,1567412192.140625
0.53,1567412192.15625
0.69,1567412192.171875
1.31,1567412192.1875
2.31,1567412192.203125
3.49,1567412192.21875
4.61,1567412192.234375
5.58,1567412192.25
6.45,1567412192.265625
7.36,1567412192.28125
8.4,1567412192.296875
9.49,1567412192.3125
10.41,1567412192.328125
10.92,1567412192.34375
10.94,1567412192.359375
10.66,1567412192.375
10.3,1567412192.390625
10.1,1567412192.40625
10.03,1567412192.421875
9.85,1567412192.4375
9.27,1567412192.453125
8.14,1567412192.46875
6.54,1567412192.484375
4.67,1567412192.5
2.69,1567412192.515625
0.56,1567412192.53125
-1.92,1567412192.546875
-4.89,1567412192.5625
-8.08,1567412192.578125
-10.9,1567412192.59375
-12.53,1567412192.609375
-12.33,1567412192.625
-10.29,1567412192.640625
-7.04,1567412192.65625
-3.61,1567412192.671875
-0.99,1567412192.6875
0.25,1567412192.703125
0.18,1567412192.71875
-0.55,1567412192.734375
-1.19,1567412192.75
-1.14,1567412192.765625
-0.19,1567412192.78125
1.44,1567412192.796875
3.29,1567412192.8125
4.93,1567412192.828125
6.11,1567412192.84375
6.81,1567412192.859375
7.2,1567412192.875
7.46,1567412192.890625
7.7,1567412192.90625
7.91,1567412192.921875
7.99,1567412192.9375
7.9,1567412192.953125
7.69,1567412192.96875
7.53,1567412192.984375
7.55,1567412193.0
7.77,1567412193.015625
8.01,1567412193.03125
8.04,1567412193.046875
7.59,1567412193.0625
6.6,1567412193.078125
5.16,1567412193.09375
3.42,1567412193.109375
1.61,1567412193.125
-0.07,1567412193.140625
-1.52,1567412193.15625
-2.63,1567412193.171875
-3.36,1567412193.1875
-3.77,1567412193.203125
-3.99,1567412193.21875
-4.18,1567412193.234375
-4.53,1567412193.25
-5.19,1567412193.265625
-6.19,1567412193.28125
-7.48,1567412193.296875
-8.89,1567412193.3125
-10.15,1567412193.328125
-10.95,1567412193.34375
-11.02,1567412193.359375
-10.22,1567412193.375
-8.63,1567412193.390625
-6.51,1567412193.40625
-4.2,1567412193.421875
-2.02,1567412193.4375
-0.12,1567412193.453125
1.56,1567412193.46875
3.17,1567412193.484375
4.92,1567412193.5
6.9,1567412193.515625
9.14,1567412193.53125
11.51,1567412193.546875
13.81,1567412193.5625
15.85,1567412193.578125
17.56,1567412193.59375
19.0,1567412193.609375
20.3,1567412193.625
21.55,1567412193.640625
22.63,1567412193.65625
23.23,1567412193.671875
22.97,1567412193.6875
21.61,1567412193.703125
19.26,1567412193.71875
16.35,1567412193.734375
13.53,1567412193.75
11.29,1567412193.765625
9.85,1567412193.78125
9.02,1567412193.796875
8.46,1567412193.8125
7.84,1567412193.828125
6.92,1567412193.84375
5.63,1567412193.859375
3.92,1567412193.875
1.79,1567412193.890625
-0.71,1567412193.90625
-3.45,1567412193.921875
-6.22,1567412193.9375
-8.83,1567412193.953125
-11.21,1567412193.96875
-13.49,1567412193.984375
-15.97,1567412194.0
-18.95,1567412194.015625
-22.57,1567412194.03125
-26.66,1567412194.046875
-30.75,1567412194.0625
-34.18,1567412194.078125
-36.37,1567412194.09375
-36.89,1567412194.109375
-35.7,1567412194.125
-33.06,1567412194.140625
-29.5,1567412194.15625
-25.57,1567412194.171875
-21.69,1567412194.1875
-18.13,1567412194.203125
-15.0,1567412194.21875
-12.27,1567412194.234375
-9.93,1567412194.25
-7.93,1567412194.265625
-6.19,1567412194.28125
-4.57,1567412194.296875
-2.92,1567412194.3125
-1.13,1567412194.328125
0.8,1567412194.34375
2.82,1567412194.359375
4.77,1567412194.375
6.53,1567412194.390625
8.01,1567412194.40625
9.18,1567412194.421875
10.06,1567412194.4375
10.68,1567412194.453125
11.11,1567412194.46875
11.44,1567412194.484375
11.69,1567412194.5
11.84,1567412194.515625
11.8,1567412194.53125
11.4,1567412194.546875
10.54,1567412194.5625
9.22,1567412194.578125
7.5,1567412194.59375
5.54,1567412194.609375
3.51,1567412194.625
1.55,1567412194.640625
-0.24,1567412194.65625
-1.8,1567412194.671875
-3.04,1567412194.6875
-3.88,1567412194.703125
-4.29,1567412194.71875
-4.25,1567412194.734375
-3.87,1567412194.75
-3.32,1567412194.765625
-2.86,1567412194.78125
-2.75,1567412194.796875
-3.12,1567412194.8125
-3.96,1567412194.828125
-5.09,1567412194.84375
-6.09,1567412194.859375
-6.52,1567412194.875
-6.02,1567412194.890625
-4.4,1567412194.90625
-1.75,1567412194.921875
1.63,1567412194.9375
5.18,1567412194.953125
8.31,1567412194.96875
10.54,1567412194.984375
11.64,1567412195.0
11.73,1567412195.015625
11.23,1567412195.03125
10.63,1567412195.046875
10.31,1567412195.0625
10.4,1567412195.078125
10.72,1567412195.09375
10.97,1567412195.109375
10.86,1567412195.125
10.28,1567412195.140625
9.32,1567412195.15625
8.17,1567412195.171875
7.05,1567412195.1875
6.09,1567412195.203125
5.34,1567412195.21875
4.75,1567412195.234375
4.24,1567412195.25
3.77,1567412195.265625
3.33,1567412195.28125
3.02,1567412195.296875
2.97,1567412195.3125
3.28,1567412195.328125
3.87,1567412195.34375
4.53,1567412195.359375
4.89,1567412195.375
4.68,1567412195.390625
3.9,1567412195.40625
2.72,1567412195.421875
1.4,1567412195.4375
0.17,1567412195.453125
-0.93,1567412195.46875
-1.92,1567412195.484375
-2.83,1567412195.5
-3.57,1567412195.515625
-4.0,1567412195.53125
-4.01,1567412195.546875
-3.69,1567412195.5625
-3.32,1567412195.578125
-3.25,1567412195.59375
-3.69,1567412195.609375
-4.59,1567412195.625
-5.69,1567412195.640625
-6.55,1567412195.65625
-6.78,1567412195.671875
-6.24,1567412195.6875
-5.05,1567412195.703125
-3.55,1567412195.71875
-2.15,1567412195.734375
-1.18,1567412195.75
-0.74,1567412195.765625
-0.6,1567412195.78125
-0.45,1567412195.796875
0.08,1567412195.8125
1.13,1567412195.828125
2.52,1567412195.84375
3.96,1567412195.859375
5.07,1567412195.875
5.69,1567412195.890625
5.87,1567412195.90625
5.81,1567412195.921875
5.75,1567412195.9375
5.8,1567412195.953125
6.0,1567412195.96875
6.25,1567412195.984375
6.5,1567412196.0
6.68,1567412196.015625
6.83,1567412196.03125
6.9,1567412196.046875
6.92,1567412196.0625
6.87,1567412196.078125
6.74,1567412196.09375
6.53,1567412196.109375
6.19,1567412196.125
5.65,1567412196.140625
4.76,1567412196.15625
3.47,1567412196.171875
1.78,1567412196.1875
-0.12,1567412196.203125
-1.97,1567412196.21875
-3.4,1567412196.234375
-4.16,1567412196.25
-4.14,1567412196.265625
-3.43,1567412196.28125
-2.43,1567412196.296875
-1.73,1567412196.3125
-1.98,1567412196.328125
-3.76,1567412196.34375
-7.24,1567412196.359375
-12.12,1567412196.375
-17.64,1567412196.390625
-22.75,1567412196.40625
-26.43,1567412196.421875
-28.03,1567412196.4375
-27.5,1567412196.453125
-25.38,1567412196.46875
-22.62,1567412196.484375
-20.26,1567412196.5
-19.06,1567412196.515625
-19.22,1567412196.53125
-20.41,1567412196.546875
-21.93,1567412196.5625
-22.97,1567412196.578125
-23.02,1567412196.59375
-21.92,1567412196.609375
-19.9,1567412196.625
-17.33,1567412196.640625
-14.56,1567412196.65625
-11.81,1567412196.671875
-9.18,1567412196.6875
-6.72,1567412196.703125
-4.5,1567412196.71875
-2.57,1567412196.734375
-0.96,1567412196.75
0.34,1567412196.765625
1.34,1567412196.78125
2.15,1567412196.796875
2.9,1567412196.8125
3.75,1567412196.828125
4.8,1567412196.84375
5.95,1567412196.859375
6.98,1567412196.875
7.48,1567412196.890625
7.17,1567412196.90625
6.02,1567412196.921875
4.28,1567412196.9375
2.42,1567412196.953125
0.85,1567412196.96875
-0.26,1567412196.984375
-1.08,1567412197.0
-1.98,1567412197.015625
-3.26,1567412197.03125
-4.99,1567412197.046875
-7.05,1567412197.0625
-9.2,1567412197.078125
-11.29,1567412197.09375
-13.33,1567412197.109375
-15.34,1567412197.125
-17.33,1567412197.140625
-19.08,1567412197.15625
-20.21,1567412197.171875
-20.36,1567412197.1875
-19.23,1567412197.203125
-16.86,1567412197.21875
-13.55,1567412197.234375
-9.76,1567412197.25
-5.93,1567412197.265625
-2.35,1567412197.28125
0.91,1567412197.296875
3.87,1567412197.3125
6.52,1567412197.328125
8.81,1567412197.34375
10.58,1567412197.359375
11.73,1567412197.375
12.27,1567412197.390625
12.33,1567412197.40625
12.18,1567412197.421875
12.04,1567412197.4375
12.08,1567412197.453125
12.36,1567412197.46875
12.89,1567412197.484375
13.68,1567412197.5
14.68,1567412197.515625
15.69,1567412197.53125
16.39,1567412197.546875
16.36,1567412197.5625
15.3,1567412197.578125
13.18,1567412197.59375
10.31,1567412197.609375
7.37,1567412197.625
5.12,1567412197.640625
4.17,1567412197.65625
4.6,1567412197.671875
5.96,1567412197.6875
7.4,1567412197.703125
8.01,1567412197.71875
7.19,1567412197.734375
4.97,1567412197.75
1.86,1567412197.765625
-1.4,1567412197.78125
-4.15,1567412197.796875
-6.06,1567412197.8125
-7.2,1567412197.828125
-7.79,1567412197.84375
-8.03,1567412197.859375
-8.09,1567412197.875
-8.1,1567412197.890625
-8.35,1567412197.90625
-9.24,1567412197.921875
-11.14,1567412197.9375
-14.08,1567412197.953125
-17.55,1567412197.96875
-20.59,1567412197.984375
-22.07,1567412198.0
-21.17,1567412198.015625
-17.67,1567412198.03125
-12.15,1567412198.046875
-5.72,1567412198.0625
0.37,1567412198.078125
5.17,1567412198.09375
8.23,1567412198.109375
9.68,1567412198.125
10.06,1567412198.140625
10.04,1567412198.15625
10.21,1567412198.171875
10.9,1567412198.1875
12.12,1567412198.203125
13.64,1567412198.21875
15.03,1567412198.234375
15.83,1567412198.25
15.69,1567412198.265625
14.54,1567412198.28125
12.59,1567412198.296875
10.44,1567412198.3125
8.78,1567412198.328125
8.25,1567412198.34375
9.11,1567412198.359375
11.19,1567412198.375
13.95,1567412198.390625
16.72,1567412198.40625
19.01,1567412198.421875
20.65,1567412198.4375
21.69,1567412198.453125
22.3,1567412198.46875
22.61,1567412198.484375
22.6,1567412198.5
22.2,1567412198.515625
21.39,1567412198.53125
20.23,1567412198.546875
18.9,1567412198.5625
17.53,1567412198.578125
16.22,1567412198.59375
15.01,1567412198.609375
13.85,1567412198.625
12.65,1567412198.640625
11.35,1567412198.65625
9.77,1567412198.671875
7.79,1567412198.6875
5.28,1567412198.703125
2.32,1567412198.71875
-0.82,1567412198.734375
-3.67,1567412198.75
-5.68,1567412198.765625
-6.5,1567412198.78125
-6.02,1567412198.796875
-4.54,1567412198.8125
-2.56,1567412198.828125
-0.65,1567412198.84375
0.77,1567412198.859375
1.54,1567412198.875
1.74,1567412198.890625
1.67,1567412198.90625
1.65,1567412198.921875
1.92,1567412198.9375
2.56,1567412198.953125
3.58,1567412198.96875
4.88,1567412198.984375
6.41,1567412199.0
8.15,1567412199.015625
10.0,1567412199.03125
11.85,1567412199.046875
13.52,1567412199.0625
14.82,1567412199.078125
15.6,1567412199.09375
15.83,1567412199.109375
15.56,1567412199.125
14.88,1567412199.140625
13.97,1567412199.15625
12.9,1567412199.171875
11.86,1567412199.1875
10.93,1567412199.203125
10.21,1567412199.21875
9.64,1567412199.234375
9.08,1567412199.25
8.28,1567412199.265625
7.01,1567412199.28125
5.13,1567412199.296875
2.67,1567412199.3125
-0.13,1567412199.328125
-2.94,1567412199.34375
-5.42,1567412199.359375
-7.35,1567412199.375
-8.75,1567412199.390625
-9.89,1567412199.40625
-11.13,1567412199.421875
-12.79,1567412199.4375
-15.0,1567412199.453125
-17.67,1567412199.46875
-20.47,1567412199.484375
-22.94,1567412199.5
-24.66,1567412199.515625
-25.31,1567412199.53125
-24.72,1567412199.546875
-22.9,1567412199.5625
-20.04,1567412199.578125
-16.46,1567412199.59375
-12.6,1567412199.609375
-8.96,1567412199.625
-5.88,1567412199.640625
-3.59,1567412199.65625
-2.09,1567412199.671875
-1.31,1567412199.6875
-1.15,1567412199.703125
-1.58,1567412199.71875
-2.51,1567412199.734375
-3.85,1567412199.75
-5.35,1567412199.765625
-6.68,1567412199.78125
-7.57,1567412199.796875
-7.85,1567412199.8125
-7.62,1567412199.828125
-7.12,1567412199.84375
-6.75,1567412199.859375
-6.76,1567412199.875
-7.14,1567412199.890625
-7.64,1567412199.90625
-7.8,1567412199.921875
-7.23,1567412199.9375
-5.75,1567412199.953125
-3.51,1567412199.96875
-0.96,1567412199.984375
1.32,1567412200.0
2.85,1567412200.015625
3.41,1567412200.03125
3.08,1567412200.046875
2.16,1567412200.0625
1.08,1567412200.078125
0.18,1567412200.09375
-0.37,1567412200.109375
-0.63,1567412200.125
-0.84,1567412200.140625
-1.39,1567412200.15625
-2.67,1567412200.171875
-4.91,1567412200.1875
-8.08,1567412200.203125
-11.83,1567412200.21875
-15.56,1567412200.234375
-18.6,1567412200.25
-20.37,1567412200.265625
-20.52,1567412200.28125
-19.05,1567412200.296875
-16.22,1567412200.3125
-12.44,1567412200.328125
-8.21,1567412200.34375
-3.98,1567412200.359375
-0.15,1567412200.375
3.05,1567412200.390625
5.54,1567412200.40625
7.39,1567412200.421875
8.8,1567412200.4375
9.99,1567412200.453125
11.16,1567412200.46875
12.33,1567412200.484375
13.42,1567412200.5
14.24,1567412200.515625
14.65,1567412200.53125
14.55,1567412200.546875
14.03,1567412200.5625
13.24,1567412200.578125
12.32,1567412200.59375
11.44,1567412200.609375
10.62,1567412200.625
9.94,1567412200.640625
9.46,1567412200.65625
9.28,1567412200.671875
9.43,1567412200.6875
9.81,1567412200.703125
10.12,1567412200.71875
9.91,1567412200.734375
8.87,1567412200.75
6.9,1567412200.765625
4.28,1567412200.78125
1.52,1567412200.796875
-0.85,1567412200.8125
-2.58,1567412200.828125
-3.67,1567412200.84375
-4.43,1567412200.859375
-5.19,1567412200.875
-6.16,1567412200.890625
-7.44,1567412200.90625
-9.05,1567412200.921875
-11.0,1567412200.9375
-13.31,1567412200.953125
-15.81,1567412200.96875
-18.14,1567412200.984375
-19.71,1567412201.0
-19.89,1567412201.015625
-18.25,1567412201.03125
-14.85,1567412201.046875
-10.21,1567412201.0625
-5.17,1567412201.078125
-0.58,1567412201.09375
3.0,1567412201.109375
5.49,1567412201.125
7.16,1567412201.140625
8.38,1567412201.15625
9.43,1567412201.171875
10.34,1567412201.1875
10.91,1567412201.203125
11.0,1567412201.21875
10.53,1567412201.234375
9.72,1567412201.25
8.87,1567412201.265625
8.3,1567412201.28125
8.09,1567412201.296875
8.18,1567412201.3125
8.35,1567412201.328125
8.4,1567412201.34375
8.16,1567412201.359375
7.61,1567412201.375
6.78,1567412201.390625
5.77,1567412201.40625
4.73,1567412201.421875
3.83,1567412201.4375
3.24,1567412201.453125
3.02,1567412201.46875
3.1,1567412201.484375
3.25,1567412201.5
3.18,1567412201.515625
2.71,1567412201.53125
1.87,1567412201.546875
0.9,1567412201.5625
0.1,1567412201.578125
-0.27,1567412201.59375
-0.24,1567412201.609375
-0.01,1567412201.625
0.15,1567412201.640625
-0.0,1567412201.65625
-0.56,1567412201.671875
-1.56,1567412201.6875
-2.95,1567412201.703125
-4.81,1567412201.71875
-7.11,1567412201.734375
-9.73,1567412201.75
-12.31,1567412201.765625
-14.3,1567412201.78125
-15.27,1567412201.796875
-15.05,1567412201.8125
-13.9,1567412201.828125
-12.37,1567412201.84375
-11.08,1567412201.859375
-10.34,1567412201.875
-10.11,1567412201.890625
-10.07,1567412201.90625
-9.83,1567412201.921875
-9.22,1567412201.9375
-8.32,1567412201.953125
-7.37,1567412201.96875
-6.5,1567412201.984375
-5.67,1567412202.0
-4.58,1567412202.015625
-2.9,1567412202.03125
-0.41,1567412202.046875
2.78,1567412202.0625
6.27,1567412202.078125
9.51,1567412202.09375
11.99,1567412202.109375
13.42,1567412202.125
13.83,1567412202.140625
13.46,1567412202.15625
12.64,1567412202.171875
11.57,1567412202.1875
10.3,1567412202.203125
8.67,1567412202.21875
6.57,1567412202.234375
3.92,1567412202.25
0.86,1567412202.265625
-2.31,1567412202.28125
-5.21,1567412202.296875
-7.49,1567412202.3125
-9.0,1567412202.328125
-9.73,1567412202.34375
-9.9,1567412202.359375
-9.81,1567412202.375
-9.78,1567412202.390625
-10.08,1567412202.40625
-10.87,1567412202.421875
-12.1,1567412202.4375
-13.51,1567412202.453125
-14.66,1567412202.46875
-15.04,1567412202.484375
-14.19,1567412202.5
-11.94,1567412202.515625
-8.53,1567412202.53125
-4.58,1567412202.546875
-0.89,1567412202.5625
1.78,1567412202.578125
3.09,1567412202.59375
3.15,1567412202.609375
2.42,1567412202.625
1.5,1567412202.640625
0.77,1567412202.65625
0.32,1567412202.671875
-0.03,1567412202.6875
-0.5,1567412202.703125
-1.21,1567412202.71875
-2.08,1567412202.734375
-2.83,1567412202.75
-3.28,1567412202.765625
-3.22,1567412202.78125
-2.62,1567412202.796875
-1.58,1567412202.8125
-0.28,1567412202.828125
1.07,1567412202.84375
2.27,1567412202.859375
3.09,1567412202.875
3.44,1567412202.890625
3.35,1567412202.90625
2.96,1567412202.921875
2.42,1567412202.9375
1.8,1567412202.953125
1.1,1567412202.96875
0.16,1567412202.984375
-1.09,1567412203.0
-2.57,1567412203.015625
-4.11,1567412203.03125
-5.48,1567412203.046875
-6.49,1567412203.0625
-7.11,1567412203.078125
-7.43,1567412203.09375
-7.59,1567412203.109375
-7.72,1567412203.125
-7.85,1567412203.140625
-8.0,1567412203.15625
-8.15,1567412203.171875
-8.29,1567412203.1875
-8.35,1567412203.203125
-8.21,1567412203.21875
-7.69,1567412203.234375
-6.66,1567412203.25
-5.13,1567412203.265625
-3.22,1567412203.28125
-1.17,1567412203.296875
0.84,1567412203.3125
2.74,1567412203.328125
4.57,1567412203.34375
6.45,1567412203.359375
8.38,1567412203.375
10.22,1567412203.390625
11.74,1567412203.40625
12.75,1567412203.421875
13.22,1567412203.4375
13.3,1567412203.453125
13.3,1567412203.46875
13.5,1567412203.484375
13.99,1567412203.5
14.68,1567412203.515625
15.26,1567412203.53125
15.5,1567412203.546875
15.24,1567412203.5625
14.48,1567412203.578125
13.34,1567412203.59375
12.03,1567412203.609375
10.67,1567412203.625
9.4,1567412203.640625
8.23,1567412203.65625
7.18,1567412203.671875
6.18,1567412203.6875
5.18,1567412203.703125
4.16,1567412203.71875
3.14,1567412203.734375
2.21,1567412203.75
1.48,1567412203.765625
1.06,1567412203.78125
0.93,1567412203.796875
1.0,1567412203.8125
1.08,1567412203.828125
0.99,1567412203.84375
0.55,1567412203.859375
-0.37,1567412203.875
-1.81,1567412203.890625
-3.72,1567412203.90625
-5.89,1567412203.921875
-7.98,1567412203.9375
-9.48,1567412203.953125
-10.03,1567412203.96875
-9.48,1567412203.984375
-8.06,1567412204.0
-6.27,1567412204.015625
-4.62,1567412204.03125
-3.45,1567412204.046875
-2.8,1567412204.0625
-2.5,1567412204.078125
-2.35,1567412204.09375
-2.21,1567412204.109375
-2.11,1567412204.125
-2.13,1567412204.140625
-2.31,1567412204.15625
-2.6,1567412204.171875
-2.91,1567412204.1875
-3.12,1567412204.203125
-3.19,1567412204.21875
-3.09,1567412204.234375
-2.83,1567412204.25
-2.35,1567412204.265625
-1.64,1567412204.28125
-0.72,1567412204.296875
0.32,1567412204.3125
1.31,1567412204.328125
2.13,1567412204.34375
2.8,1567412204.359375
3.39,1567412204.375
4.07,1567412204.390625
4.88,1567412204.40625
5.7,1567412204.421875
6.29,1567412204.4375
6.37,1567412204.453125
5.79,1567412204.46875
4.71,1567412204.484375
3.47,1567412204.5
2.41,1567412204.515625
1.71,1567412204.53125
1.21,1567412204.546875
0.53,1567412204.5625
-0.76,1567412204.578125
-2.88,1567412204.59375
-5.7,1567412204.609375
-8.89,1567412204.625
-12.01,1567412204.640625
-14.71,1567412204.65625
-16.73,1567412204.671875
-17.9,1567412204.6875
-18.07,1567412204.703125
-17.14,1567412204.71875
-15.09,1567412204.734375
-12.15,1567412204.75
-8.62,1567412204.765625
-4.98,1567412204.78125
-1.63,1567412204.796875
1.14,1567412204.8125
3.17,1567412204.828125
4.41,1567412204.84375
4.92,1567412204.859375
4.78,1567412204.875
4.28,1567412204.890625
3.72,1567412204.90625
3.48,1567412204.921875
3.82,1567412204.9375
4.85,1567412204.953125
6.4,1567412204.96875
8.07,1567412204.984375
9.41,1567412205.0
9.95,1567412205.015625
9.44,1567412205.03125
7.97,1567412205.046875
5.97,1567412205.0625
4.0,1567412205.078125
2.58,1567412205.09375
2.0,1567412205.109375
2.15,1567412205.125
2.72,1567412205.140625
3.32,1567412205.15625
3.67,1567412205.171875
3.78,1567412205.1875
3.77,1567412205.203125
3.78,1567412205.21875
3.82,1567412205.234375
3.82,1567412205.25
3.67,1567412205.265625
3.35,1567412205.28125
2.92,1567412205.296875
2.46,1567412205.3125
1.92,1567412205.328125
1.08,1567412205.34375
-0.29,1567412205.359375
-2.45,1567412205.375
-5.37,1567412205.390625
-8.79,1567412205.40625
-12.3,1567412205.421875
-15.46,1567412205.4375
-17.89,1567412205.453125
-19.33,1567412205.46875
-19.66,1567412205.484375
-18.83,1567412205.5
-16.95,1567412205.515625
-14.29,1567412205.53125
-11.25,1567412205.546875
-8.27,1567412205.5625
-5.68,1567412205.578125
-3.62,1567412205.59375
-2.02,1567412205.609375
-0.77,1567412205.625
0.22,1567412205.640625
0.96,1567412205.65625
1.44,1567412205.671875
1.74,1567412205.6875
2.08,1567412205.703125
2.7,1567412205.71875
3.83,1567412205.734375
5.44,1567412205.75
7.24,1567412205.765625
8.81,1567412205.78125
9.79,1567412205.796875
10.1,1567412205.8125
9.87,1567412205.828125
9.38,1567412205.84375
8.86,1567412205.859375
8.29,1567412205.875
7.45,1567412205.890625
6.14,1567412205.90625
4.34,1567412205.921875
2.25,1567412205.9375
0.22,1567412205.953125
-1.48,1567412205.96875
-2.76,1567412205.984375
-3.72,1567412206.0
-4.48,1567412206.015625
-5.04,1567412206.03125
-5.23,1567412206.046875
-4.91,1567412206.0625
-4.15,1567412206.078125
-3.27,1567412206.09375
-2.79,1567412206.109375
-3.13,1567412206.125
-4.38,1567412206.140625
-6.2,1567412206.15625
-7.96,1567412206.171875
-9.0,1567412206.1875
-8.91,1567412206.203125
-7.67,1567412206.21875
-5.61,1567412206.234375
-3.24,1567412206.25
-1.01,1567412206.265625
0.82,1567412206.28125
2.2,1567412206.296875
3.19,1567412206.3125
3.94,1567412206.328125
4.6,1567412206.34375
5.32,1567412206.359375
6.18,1567412206.375
7.25,1567412206.390625
8.43,1567412206.40625
9.54,1567412206.421875
10.35,1567412206.4375
10.69,1567412206.453125
10.58,1567412206.46875
10.24,1567412206.484375
9.97,1567412206.5
9.92,1567412206.515625
10.03,1567412206.53125
9.98,1567412206.546875
9.47,1567412206.5625
8.37,1567412206.578125
6.87,1567412206.59375
5.38,1567412206.609375
4.28,1567412206.625
3.69,1567412206.640625
3.36,1567412206.65625
2.8,1567412206.671875
1.61,1567412206.6875
-0.32,1567412206.703125
-2.68,1567412206.71875
-4.87,1567412206.734375
-6.44,1567412206.75
-7.27,1567412206.765625
-7.63,1567412206.78125
-8.04,1567412206.796875
-8.92,1567412206.8125
-10.38,1567412206.828125
-12.17,1567412206.84375
-13.85,1567412206.859375
-15.11,1567412206.875
-15.85,1567412206.890625
-16.16,1567412206.90625
-16.13,1567412206.921875
-15.68,1567412206.9375
-14.6,1567412206.953125
-12.68,1567412206.96875
-10.01,1567412206.984375
-6.94,1567412207.0
-3.96,1567412207.015625
-1.41,1567412207.03125
0.75,1567412207.046875
2.87,1567412207.0625
5.37,1567412207.078125
8.34,1567412207.09375
11.41,1567412207.109375
13.94,1567412207.125
15.26,1567412207.140625
15.1,1567412207.15625
13.71,1567412207.171875
11.69,1567412207.1875
9.67,1567412207.203125
8.11,1567412207.21875
7.13,1567412207.234375
6.75,1567412207.25
6.89,1567412207.265625
7.52,1567412207.28125
8.54,1567412207.296875
9.71,1567412207.3125
10.62,1567412207.328125
10.87,1567412207.34375
10.2,1567412207.359375
8.65,1567412207.375
6.43,1567412207.390625
3.97,1567412207.40625
1.62,1567412207.421875
-0.28,1567412207.4375
-1.51,1567412207.453125
-2.04,1567412207.46875
-2.01,1567412207.484375
-1.75,1567412207.5
-1.72,1567412207.515625
-2.31,1567412207.53125
-3.66,1567412207.546875
-5.66,1567412207.5625
-7.99,1567412207.578125
-10.29,1567412207.59375
-12.39,1567412207.609375
-14.31,1567412207.625
-16.13,1567412207.640625
-17.8,1567412207.65625
-19.1,1567412207.671875
-19.55,1567412207.6875
-18.81,1567412207.703125
-16.71,1567412207.71875
-13.49,1567412207.734375
-9.61,1567412207.75
-5.68,1567412207.765625
-2.29,1567412207.78125
0.27,1567412207.796875
2.0,1567412207.8125
3.17,1567412207.828125
4.14,1567412207.84375
5.19,1567412207.859375
6.38,1567412207.875
7.52,1567412207.890625
8.31,1567412207.90625
8.5,1567412207.921875
8.1,1567412207.9375
7.35,1567412207.953125
6.68,1567412207.96875
6.39,1567412207.984375
6.57,1567412208.0
7.02,1567412208.015625
7.42,1567412208.03125
7.58,1567412208.046875
7.53,1567412208.0625
7.5,1567412208.078125
7.69,1567412208.09375
8.17,1567412208.109375
8.75,1567412208.125
9.15,1567412208.140625
9.15,1567412208.15625
8.7,1567412208.171875
7.94,1567412208.1875
7.03,1567412208.203125
6.05,1567412208.21875
4.95,1567412208.234375
3.66,1567412208.25
2.13,1567412208.265625
0.47,1567412208.28125
-1.17,1567412208.296875
-2.68,1567412208.3125
-4.09,1567412208.328125
-5.51,1567412208.34375
-7.1,1567412208.359375
-8.9,1567412208.375
-10.83,1567412208.390625
-12.63,1567412208.40625
-14.0,1567412208.421875
-14.65,1567412208.4375
-14.36,1567412208.453125
-13.04,1567412208.46875
-10.76,1567412208.484375
-7.68,1567412208.5
-4.17,1567412208.515625
-0.6,1567412208.53125
2.6,1567412208.546875
5.12,1567412208.5625
6.76,1567412208.578125
7.54,1567412208.59375
7.58,1567412208.609375
7.08,1567412208.625
6.32,1567412208.640625
5.54,1567412208.65625
4.97,1567412208.671875
4.75,1567412208.6875
4.92,1567412208.703125
5.41,1567412208.71875
6.06,1567412208.734375
6.7,1567412208.75
7.21,1567412208.765625
7.56,1567412208.78125
7.79,1567412208.796875
8.03,1567412208.8125
8.39,1567412208.828125
8.81,1567412208.84375
9.13,1567412208.859375
9.03,1567412208.875
8.16,1567412208.890625
6.3,1567412208.90625
3.5,1567412208.921875
0.1,1567412208.9375
-3.31,1567412208.953125
-6.16,1567412208.96875
-8.08,1567412208.984375
-8.98,1567412209.0
-9.11,1567412209.015625
-8.86,1567412209.03125
-8.62,1567412209.046875
-8.68,1567412209.0625
-9.14,1567412209.078125
-10.07,1567412209.09375
-11.36,1567412209.109375
-12.82,1567412209.125
-14.09,1567412209.140625
-14.74,1567412209.15625
-14.36,1567412209.171875
-12.84,1567412209.1875
-10.3,1567412209.203125
-7.16,1567412209.21875
-3.94,1567412209.234375
-1.01,1567412209.25
1.43,1567412209.265625
3.42,1567412209.28125
5.05,1567412209.296875
6.45,1567412209.3125
7.64,1567412209.328125
8.56,1567412209.34375
9.1,1567412209.359375
9.21,1567412209.375
8.9,1567412209.390625
8.3,1567412209.40625
7.63,1567412209.421875
7.15,1567412209.4375
7.04,1567412209.453125
7.33,1567412209.46875
7.87,1567412209.484375
8.33,1567412209.5
8.37,1567412209.515625
7.73,1567412209.53125
6.34,1567412209.546875
4.26,1567412209.5625
1.8,1567412209.578125
-0.67,1567412209.59375
-2.81,1567412209.609375
-4.43,1567412209.625
-5.56,1567412209.640625
-6.46,1567412209.65625
-7.49,1567412209.671875
-8.87,1567412209.6875
-10.57,1567412209.703125
-12.22,1567412209.71875
-13.32,1567412209.734375
-13.46,1567412209.75
-12.55,1567412209.765625
-10.93,1567412209.78125
-9.15,1567412209.796875
-7.84,1567412209.8125
-7.38,1567412209.828125
-7.89,1567412209.84375
-9.19,1567412209.859375
-10.93,1567412209.875
-12.62,1567412209.890625
-13.75,1567412209.90625
-13.83,1567412209.921875
-12.46,1567412209.9375
-9.52,1567412209.953125
-5.16,1567412209.96875
0.03,1567412209.984375
5.17,1567412210.0
9.29,1567412210.015625
11.61,1567412210.03125
11.83,1567412210.046875
10.26,1567412210.0625
7.66,1567412210.078125
4.99,1567412210.09375
2.93,1567412210.109375
1.81,1567412210.125
1.5,1567412210.140625
1.64,1567412210.15625
1.92,1567412210.171875
2.25,1567412210.1875
2.7,1567412210.203125
3.45,1567412210.21875
4.56,1567412210.234375
5.93,1567412210.25
7.35,1567412210.265625
8.58,1567412210.28125
9.5,1567412210.296875
10.12,1567412210.3125
10.49,1567412210.328125
10.68,1567412210.34375
10.65,1567412210.359375
10.28,1567412210.375
9.37,1567412210.390625
7.76,1567412210.40625
5.51,1567412210.421875
2.82,1567412210.4375
0.04,1567412210.453125
-2.4,1567412210.46875
-4.17,1567412210.484375
-5.13,1567412210.5
-5.38,1567412210.515625
-5.28,1567412210.53125
-5.26,1567412210.546875
-5.74,1567412210.5625
-6.91,1567412210.578125
-8.61,1567412210.59375
-10.44,1567412210.609375
-11.87,1567412210.625
-12.43,1567412210.640625
-11.96,1567412210.65625
-10.56,1567412210.671875
-8.56,1567412210.6875
-6.3,1567412210.703125
-4.04,1567412210.71875
-1.94,1567412210.734375
-0.06,1567412210.75
1.53,1567412210.765625
2.8,1567412210.78125
3.78,1567412210.796875
4.57,1567412210.8125
5.39,1567412210.828125
6.38,1567412210.84375
7.52,1567412210.859375
8.65,1567412210.875
9.5,1567412210.890625
9.9,1567412210.90625
9.86,1567412210.921875
9.63,1567412210.9375
9.48,1567412210.953125
9.62,1567412210.96875
9.98,1567412210.984375
10.34,1567412211.0
10.47,1567412211.015625
10.25,1567412211.03125
9.78,1567412211.046875
9.19,1567412211.0625
8.64,1567412211.078125
8.11,1567412211.09375
7.45,1567412211.109375
6.51,1567412211.125
5.24,1567412211.140625
3.73,1567412211.15625
2.16,1567412211.171875
0.81,1567412211.1875
-0.19,1567412211.203125
-0.78,1567412211.21875
-1.1,1567412211.234375
-1.33,1567412211.25
-1.65,1567412211.265625
-2.24,1567412211.28125
-3.16,1567412211.296875
-4.45,1567412211.3125
-6.1,1567412211.328125
-8.07,1567412211.34375
-10.19,1567412211.359375
-12.19,1567412211.375
-13.69,1567412211.390625
-14.39,1567412211.40625
-14.17,1567412211.421875
-13.14,1567412211.4375
-11.66,1567412211.453125
-10.05,1567412211.46875
-8.57,1567412211.484375
-7.28,1567412211.5
-6.09,1567412211.515625
-4.87,1567412211.53125
-3.4,1567412211.546875
-1.6,1567412211.5625
0.6,1567412211.578125
3.1,1567412211.59375
5.73,1567412211.609375
8.2,1567412211.625
10.24,1567412211.640625
11.68,1567412211.65625
12.52,1567412211.671875
12.92,1567412211.6875
13.1,1567412211.703125
13.22,1567412211.71875
13.26,1567412211.734375
13.1,1567412211.75
12.55,1567412211.765625
11.51,1567412211.78125
10.06,1567412211.796875
8.39,1567412211.8125
6.76,1567412211.828125
5.34,1567412211.84375
4.16,1567412211.859375
2.98,1567412211.875
1.52,1567412211.890625
-0.51,1567412211.90625
-3.13,1567412211.921875
-6.04,1567412211.9375
-8.76,1567412211.953125
-10.85,1567412211.96875
-12.07,1567412211.984375
-12.59,1567412212.0
-12.79,1567412212.015625
-13.15,1567412212.03125
-13.97,1567412212.046875
-15.27,1567412212.0625
-16.78,1567412212.078125
-18.16,1567412212.09375
-19.14,1567412212.109375
-19.58,1567412212.125
-19.56,1567412212.140625
-19.17,1567412212.15625
-18.43,1567412212.171875
-17.22,1567412212.1875
-15.3,1567412212.203125
-12.5,1567412212.21875
-8.76,1567412212.234375
-4.25,1567412212.25
0.65,1567412212.265625
5.41,1567412212.28125
9.51,1567412212.296875
12.41,1567412212.3125
13.75,1567412212.328125
13.41,1567412212.34375
11.56,1567412212.359375
8.76,1567412212.375
5.84,1567412212.390625
3.63,1567412212.40625
2.7,1567412212.421875
3.01,1567412212.4375
4.01,1567412212.453125
4.87,1567412212.46875
4.88,1567412212.484375
3.83,1567412212.5
2.11,1567412212.515625
0.43,1567412212.53125
-0.51,1567412212.546875
-0.4,1567412212.5625
0.6,1567412212.578125
2.1,1567412212.59375
3.59,1567412212.609375
4.82,1567412212.625
5.7,1567412212.640625
6.34,1567412212.65625
6.71,1567412212.671875
6.66,1567412212.6875
6.01,1567412212.703125
4.66,1567412212.71875
2.74,1567412212.734375
0.64,1567412212.75
-1.2,1567412212.765625
-2.47,1567412212.78125
-3.19,1567412212.796875
-3.68,1567412212.8125
-4.38,1567412212.828125
-5.62,1567412212.84375
-7.36,1567412212.859375
-9.21,1567412212.875
-10.6,1567412212.890625
-11.03,1567412212.90625
-10.31,1567412212.921875
-8.56,1567412212.9375
-6.15,1567412212.953125
-3.44,1567412212.96875
-0.76,1567412212.984375
1.69,1567412213.0
3.73,1567412213.015625
5.22,1567412213.03125
6.03,1567412213.046875
6.18,1567412213.0625
5.87,1567412213.078125
5.4,1567412213.09375
5.04,1567412213.109375
4.93,1567412213.125
4.94,1567412213.140625
4.87,1567412213.15625
4.55,1567412213.171875
3.95,1567412213.1875
3.24,1567412213.203125
2.68,1567412213.21875
2.34,1567412213.234375
2.27,1567412213.25
2.31,1567412213.265625
2.35,1567412213.28125
2.33,1567412213.296875
2.33,1567412213.3125
2.44,1567412213.328125
2.72,1567412213.34375
3.11,1567412213.359375
3.46,1567412213.375
3.57,1567412213.390625
3.34,1567412213.40625
2.75,1567412213.421875
1.98,1567412213.4375
1.21,1567412213.453125
0.61,1567412213.46875
0.25,1567412213.484375
0.07,1567412213.5
-0.07,1567412213.515625
-0.37,1567412213.53125
-1.08,1567412213.546875
-2.36,1567412213.5625
-4.31,1567412213.578125
-6.83,1567412213.59375
-9.58,1567412213.609375
-11.96,1567412213.625
-13.3,1567412213.640625
-13.04,1567412213.65625
-11.02,1567412213.671875
-7.58,1567412213.6875
-3.47,1567412213.703125
0.45,1567412213.71875
3.58,1567412213.734375
5.65,1567412213.75
6.8,1567412213.765625
7.27,1567412213.78125
7.25,1567412213.796875
6.77,1567412213.8125
5.78,1567412213.828125
4.34,1567412213.84375
2.71,1567412213.859375
1.25,1567412213.875
0.3,1567412213.890625
-0.02,1567412213.90625
0.14,1567412213.921875
0.54,1567412213.9375
0.96,1567412213.953125
1.33,1567412213.96875
1.73,1567412213.984375
2.23,1567412214.0
2.82,1567412214.015625
3.33,1567412214.03125
3.55,1567412214.046875
3.42,1567412214.0625
3.02,1567412214.078125
2.59,1567412214.09375
2.33,1567412214.109375
2.3,1567412214.125
2.37,1567412214.140625
2.27,1567412214.15625
1.81,1567412214.171875
0.89,1567412214.1875
-0.36,1567412214.203125
-1.79,1567412214.21875
-3.19,1567412214.234375
-4.43,1567412214.25
-5.45,1567412214.265625
-6.19,1567412214.28125
-6.6,1567412214.296875
-6.68,1567412214.3125
-6.49,1567412214.328125
-6.19,1567412214.34375
-6.04,1567412214.359375
-6.18,1567412214.375
-6.69,1567412214.390625
-7.36,1567412214.40625
-7.81,1567412214.421875
-7.58,1567412214.4375
-6.32,1567412214.453125
-4.04,1567412214.46875
-1.06,1567412214.484375
1.98,1567412214.5
4.35,1567412214.515625
5.58,1567412214.53125
5.48,1567412214.546875
4.3,1567412214.5625
2.51,1567412214.578125
0.7,1567412214.59375
-0.74,1567412214.609375
-1.51,1567412214.625
-1.6,1567412214.640625
-1.06,1567412214.65625
-0.07,1567412214.671875
1.2,1567412214.6875
2.51,1567412214.703125
3.61,1567412214.71875
4.35,1567412214.734375
4.67,1567412214.75
4.64,1567412214.765625
4.42,1567412214.78125
4.27,1567412214.796875
4.35,1567412214.8125
4.76,1567412214.828125
5.46,1567412214.84375
6.36,1567412214.859375
7.3,1567412214.875
8.04,1567412214.890625
8.39,1567412214.90625
8.13,1567412214.921875
7.2,1567412214.9375
5.67,1567412214.953125
3.83,1567412214.96875
2.06,1567412214.984375
0.67,1567412215.0
-0.25,1567412215.015625
-0.81,1567412215.03125
-1.39,1567412215.046875
-2.39,1567412215.0625
-4.09,1567412215.078125
-6.51,1567412215.09375
-9.35,1567412215.109375
-12.1,1567412215.125
-14.16,1567412215.140625
-15.12,1567412215.15625
-14.86,1567412215.171875
-13.54,1567412215.1875
-11.53,1567412215.203125
-9.28,1567412215.21875
-7.19,1567412215.234375
-5.48,1567412215.25
-4.23,1567412215.265625
-3.36,1567412215.28125
-2.65,1567412215.296875
-1.7,1567412215.3125
-0.09,1567412215.328125
2.44,1567412215.34375
5.81,1567412215.359375
9.56,1567412215.375
12.95,1567412215.390625
15.34,1567412215.40625
16.45,1567412215.421875
16.43,1567412215.4375
15.82,1567412215.453125
15.1,1567412215.46875
14.53,1567412215.484375
14.02,1567412215.5
13.26,1567412215.515625
12.05,1567412215.53125
10.43,1567412215.546875
8.64,1567412215.5625
7.0,1567412215.578125
5.64,1567412215.59375
4.41,1567412215.609375
2.94,1567412215.625
0.96,1567412215.640625
-1.55,1567412215.65625
-4.28,1567412215.671875
-6.69,1567412215.6875
-8.25,1567412215.703125
-8.8,1567412215.71875
-8.54,1567412215.734375
-8.04,1567412215.75
-7.92,1567412215.765625
-8.54,1567412215.78125
-9.92,1567412215.796875
-11.72,1567412215.8125
-13.55,1567412215.828125
-15.05,1567412215.84375
-16.02,1567412215.859375
-16.29,1567412215.875
-15.76,1567412215.890625
-14.27,1567412215.90625
-11.81,1567412215.921875
-8.59,1567412215.9375
-5.04,1567412215.953125
-1.59,1567412215.96875
1.48,1567412215.984375
4.08,1567412216.0
6.25,1567412216.015625
8.03,1567412216.03125
9.28,1567412216.046875
9.73,1567412216.0625
9.23,1567412216.078125
7.83,1567412216.09375
5.88,1567412216.109375
3.93,1567412216.125
2.42,1567412216.140625
1.55,1567412216.15625
1.28,1567412216.171875
1.4,1567412216.1875
1.72,1567412216.203125
2.09,1567412216.21875
2.48,1567412216.234375
2.8,1567412216.25
2.9,1567412216.265625
2.68,1567412216.28125
2.11,1567412216.296875
1.31,1567412216.3125
0.43,1567412216.328125
-0.47,1567412216.34375
-1.42,1567412216.359375
-2.57,1567412216.375
-4.08,1567412216.390625
-5.87,1567412216.40625
-7.66,1567412216.421875
-8.98,1567412216.4375
-9.39,1567412216.453125
-8.64,1567412216.46875
-6.83,1567412216.484375
-4.38,1567412216.5
-1.91,1567412216.515625
-0.13,1567412216.53125
0.45,1567412216.546875
-0.38,1567412216.5625
-2.41,1567412216.578125
-5.07,1567412216.59375
-7.55,1567412216.609375
-9.03,1567412216.625
-8.97,1567412216.640625
-7.36,1567412216.65625
-4.65,1567412216.671875
-1.68,1567412216.6875
0.68,1567412216.703125
1.9,1567412216.71875
1.88,1567412216.734375
1.03,1567412216.75
-0.05,1567412216.765625
-0.8,1567412216.78125
-0.95,1567412216.796875
-0.57,1567412216.8125
0.1,1567412216.828125
0.85,1567412216.84375
1.64,1567412216.859375
2.65,1567412216.875
4.09,1567412216.890625
6.05,1567412216.90625
8.38,1567412216.921875
10.71,1567412216.9375
12.59,1567412216.953125
13.72,1567412216.96875
14.06,1567412216.984375
13.87,1567412217.0
13.5,1567412217.015625
13.31,1567412217.03125
13.34,1567412217.046875
13.42,1567412217.0625
13.24,1567412217.078125
12.45,1567412217.09375
10.97,1567412217.109375
8.9,1567412217.125
6.54,1567412217.140625
4.18,1567412217.15625
1.96,1567412217.171875
-0.06,1567412217.1875
-1.89,1567412217.203125
-3.45,1567412217.21875
-4.68,1567412217.234375
-5.54,1567412217.25
-6.12,1567412217.265625
-6.8,1567412217.28125
-8.07,1567412217.296875
-10.26,1567412217.3125
-13.3,1567412217.328125
-16.63,1567412217.34375
-19.39,1567412217.359375
-20.69,1567412217.375
-20.12,1567412217.390625
-17.91,1567412217.40625
-14.76,1567412217.421875
-11.53,1567412217.4375
-8.83,1567412217.453125
-6.82,1567412217.46875
-5.3,1567412217.484375
-3.94,1567412217.5
-2.58,1567412217.515625
-1.24,1567412217.53125
-0.08,1567412217.546875
0.77,1567412217.5625
1.38,1567412217.578125
1.97,1567412217.59375
2.77,1567412217.609375
3.82,1567412217.625
4.98,1567412217.640625
5.96,1567412217.65625
6.54,1567412217.671875
6.77,1567412217.6875
6.89,1567412217.703125
7.23,1567412217.71875
7.98,1567412217.734375
9.07,1567412217.75
10.19,1567412217.765625
11.02,1567412217.78125
11.37,1567412217.796875
11.28,1567412217.8125
10.94,1567412217.828125
10.51,1567412217.84375
10.0,1567412217.859375
9.32,1567412217.875
8.33,1567412217.890625
6.95,1567412217.90625
5.22,1567412217.921875
3.28,1567412217.9375
1.3,1567412217.953125
-0.56,1567412217.96875
-2.18,1567412217.984375
-3.42,1567412218.0
-4.28,1567412218.015625
-4.89,1567412218.03125
-5.52,1567412218.046875
-6.53,1567412218.0625
-8.1,1567412218.078125
-10.06,1567412218.09375
-11.9,1567412218.109375
-12.89,1567412218.125
-12.52,1567412218.140625
-10.69,1567412218.15625
-7.94,1567412218.171875
-5.08,1567412218.1875
-2.83,1567412218.203125
-1.5,1567412218.21875
-0.85,1567412218.234375
-0.38,1567412218.25
0.34,1567412218.265625
1.42,1567412218.28125
2.6,1567412218.296875
3.43,1567412218.3125
3.69,1567412218.328125
3.47,1567412218.34375
3.2,1567412218.359375
3.37,1567412218.375
4.21,1567412218.390625
5.51,1567412218.40625
6.76,1567412218.421875
7.48,1567412218.4375
7.44,1567412218.453125
6.8,1567412218.46875
5.98,1567412218.484375
5.42,1567412218.5
5.29,1567412218.515625
5.43,1567412218.53125
5.53,1567412218.546875
5.3,1567412218.5625
4.62,1567412218.578125
3.55,1567412218.59375
2.14,1567412218.609375
0.53,1567412218.625
-1.25,1567412218.640625
-3.15,1567412218.65625
-5.03,1567412218.671875
-6.73,1567412218.6875
-8.05,1567412218.703125
-8.89,1567412218.71875
-9.27,1567412218.734375
-9.35,1567412218.75
-9.38,1567412218.765625
-9.59,1567412218.78125
-10.12,1567412218.796875
-10.94,1567412218.8125
-11.89,1567412218.828125
-12.57,1567412218.84375
-12.56,1567412218.859375
-11.5,1567412218.875
-9.26,1567412218.890625
-6.01,1567412218.90625
-2.21,1567412218.921875
1.54,1567412218.9375
4.65,1567412218.953125
6.75,1567412218.96875
7.78,1567412218.984375
7.95,1567412219.0
7.61,1567412219.015625
7.11,1567412219.03125
6.6,1567412219.046875
6.05,1567412219.0625
5.23,1567412219.078125
4.06,1567412219.09375
2.53,1567412219.109375
0.94,1567412219.125
-0.27,1567412219.140625
-0.82,1567412219.15625
-0.65,1567412219.171875
-0.03,1567412219.1875
0.65,1567412219.203125
0.99,1567412219.21875
0.93,1567412219.234375
0.7,1567412219.25
0.65,1567412219.265625
1.04,1567412219.28125
1.82,1567412219.296875
2.73,1567412219.3125
3.39,1567412219.328125
3.52,1567412219.34375
3.15,1567412219.359375
2.44,1567412219.375
1.64,1567412219.390625
0.86,1567412219.40625
0.05,1567412219.421875
-0.88,1567412219.4375
-1.96,1567412219.453125
-3.01,1567412219.46875
-3.9,1567412219.484375
-4.48,1567412219.5
-4.91,1567412219.515625
-5.47,1567412219.53125
-6.4,1567412219.546875
-7.7,1567412219.5625
-9.08,1567412219.578125
-9.98,1567412219.59375
-9.89,1567412219.609375
-8.56,1567412219.625
-6.13,1567412219.640625
-3.08,1567412219.65625
0.03,1567412219.671875
2.69,1567412219.6875
4.72,1567412219.703125
6.18,1567412219.71875
7.27,1567412219.734375
8.17,1567412219.75
8.88,1567412219.765625
9.31,1567412219.78125
9.3,1567412219.796875
8.85,1567412219.8125
8.17,1567412219.828125
7.56,1567412219.84375
7.29,1567412219.859375
7.44,1567412219.875
7.87,1567412219.890625
8.29,1567412219.90625
8.42,1567412219.921875
8.12,1567412219.9375
7.41,1567412219.953125
6.42,1567412219.96875
5.2,1567412219.984375
3.87,1567412220.0
2.47,1567412220.015625
1.13,1567412220.03125
0.01,1567412220.046875
-0.72,1567412220.0625
-0.92,1567412220.078125
-0.63,1567412220.09375
0.02,1567412220.109375
0.89,1567412220.125
1.81,1567412220.140625
2.62,1567412220.15625
3.17,1567412220.171875
3.34,1567412220.1875
2.98,1567412220.203125
2.08,1567412220.21875
0.65,1567412220.234375
-1.19,1567412220.25
-3.29,1567412220.265625
-5.45,1567412220.28125
-7.43,1567412220.296875
-9.02,1567412220.3125
-10.02,1567412220.328125
-10.28,1567412220.34375
-9.76,1567412220.359375
-8.6,1567412220.375
-6.96,1567412220.390625
-5.09,1567412220.40625
-3.24,1567412220.421875
-1.56,1567412220.4375
-0.16,1567412220.453125
0.98,1567412220.46875
1.88,1567412220.484375
2.54,1567412220.5
2.9,1567412220.515625
2.93,1567412220.53125
2.59,1567412220.546875
1.99,1567412220.5625
1.41,1567412220.578125
1.18,1567412220.59375
1.56,1567412220.609375
2.6,1567412220.625
4.05,1567412220.640625
5.48,1567412220.65625
6.46,1567412220.671875
6.79,1567412220.6875
6.55,1567412220.703125
6.04,1567412220.71875
5.56,1567412220.734375
5.26,1567412220.75
5.03,1567412220.765625
4.52,1567412220.78125
3.39,1567412220.796875
1.45,1567412220.8125
-1.14,1567412220.828125
-3.92,1567412220.84375
-6.3,1567412220.859375
-7.79,1567412220.875
-8.28,1567412220.890625
-8.07,1567412220.90625
-7.7,1567412220.921875
-7.69,1567412220.9375
-8.39,1567412220.953125
-9.78,1567412220.96875
-11.67,1567412220.984375
-13.8,1567412221.0
-15.91,1567412221.015625
-17.78,1567412221.03125
-19.14,1567412221.046875
-19.63,1567412221.0625
-18.92,1567412221.078125
-16.77,1567412221.09375
-13.33,1567412221.109375
-9.06,1567412221.125
-4.7,1567412221.140625
-0.95,1567412221.15625
1.71,1567412221.171875
3.27,1567412221.1875
4.05,1567412221.203125
4.58,1567412221.21875
5.32,1567412221.234375
6.51,1567412221.25
8.02,1567412221.265625
9.53,1567412221.28125
10.65,1567412221.296875
11.12,1567412221.3125
10.96,1567412221.328125
10.43,1567412221.34375
9.85,1567412221.359375
9.47,1567412221.375
9.32,1567412221.390625
9.29,1567412221.40625
9.15,1567412221.421875
8.82,1567412221.4375
8.32,1567412221.453125
7.73,1567412221.46875
7.19,1567412221.484375
6.7,1567412221.5
6.21,1567412221.515625
5.66,1567412221.53125
5.01,1567412221.546875
4.34,1567412221.5625
3.72,1567412221.578125
3.21,1567412221.59375
2.85,1567412221.609375
2.61,1567412221.625
2.45,1567412221.640625
2.28,1567412221.65625
1.98,1567412221.671875
1.37,1567412221.6875
0.32,1567412221.703125
-1.21,1567412221.71875
-3.15,1567412221.734375
-5.27,1567412221.75
-7.29,1567412221.765625
-8.93,1567412221.78125
-9.92,1567412221.796875
-10.1,1567412221.8125
-9.34,1567412221.828125
-7.67,1567412221.84375
-5.29,1567412221.859375
-2.52,1567412221.875
0.25,1567412221.890625
2.66,1567412221.90625
4.48,1567412221.921875
5.68,1567412221.9375
6.38,1567412221.953125
6.82,1567412221.96875
7.2,1567412221.984375
7.63,1567412222.0
8.02,1567412222.015625
8.21,1567412222.03125
7.97,1567412222.046875
7.26,1567412222.0625
6.24,1567412222.078125
5.2,1567412222.09375
4.45,1567412222.109375
4.12,1567412222.125
4.11,1567412222.140625
4.12,1567412222.15625
3.83,1567412222.171875
3.03,1567412222.1875
1.76,1567412222.203125
0.31,1567412222.21875
-0.95,1567412222.234375
-1.71,1567412222.25
-1.83,1567412222.265625
-1.43,1567412222.28125
-0.79,1567412222.296875
-0.26,1567412222.3125
-0.12,1567412222.328125
-0.42,1567412222.34375
-1.06,1567412222.359375
-1.84,1567412222.375
-2.63,1567412222.390625
-3.43,1567412222.40625
-4.41,1567412222.421875
-5.79,1567412222.4375
-7.74,1567412222.453125
-10.21,1567412222.46875
-13.0,1567412222.484375
-15.74,1567412222.5
-18.07,1567412222.515625
-19.62,1567412222.53125
-20.11,1567412222.546875
-19.42,1567412222.5625
-17.49,1567412222.578125
-14.46,1567412222.59375
-10.58,1567412222.609375
-6.25,1567412222.625
-1.89,1567412222.640625
2.11,1567412222.65625
5.46,1567412222.671875
8.09,1567412222.6875
10.05,1567412222.703125
11.49,1567412222.71875
12.54,1567412222.734375
13.29,1567412222.75
13.72,1567412222.765625
13.71,1567412222.78125
13.2,1567412222.796875
12.09,1567412222.8125
10.46,1567412222.828125
8.45,1567412222.84375
6.34,1567412222.859375
4.39,1567412222.875
2.8,1567412222.890625
1.52,1567412222.90625
0.41,1567412222.921875
-0.66,1567412222.9375
-1.79,1567412222.953125
-2.88,1567412222.96875
-3.76,1567412222.984375
-4.29,1567412223.0
-4.53,1567412223.015625
-4.69,1567412223.03125
-5.03,1567412223.046875
-5.62,1567412223.0625
-6.28,1567412223.078125
-6.71,1567412223.09375
-6.64,1567412223.109375
-6.06,1567412223.125
-5.32,1567412223.140625
-4.82,1567412223.15625
-4.89,1567412223.171875
-5.53,1567412223.1875
-6.46,1567412223.203125
-7.36,1567412223.21875
-7.91,1567412223.234375
-8.05,1567412223.25
-7.76,1567412223.265625
-7.01,1567412223.28125
-5.8,1567412223.296875
-4.16,1567412223.3125
-2.33,1567412223.328125
-0.63,1567412223.34375
0.54,1567412223.359375
1.02,1567412223.375
0.99,1567412223.390625
0.94,1567412223.40625
1.36,1567412223.421875
2.57,1567412223.4375
4.5,1567412223.453125
6.74,1567412223.46875
8.71,1567412223.484375
9.95,1567412223.5
10.32,1567412223.515625
9.94,1567412223.53125
9.18,1567412223.546875
8.44,1567412223.5625
7.96,1567412223.578125
7.82,1567412223.59375
7.9,1567412223.609375
8.11,1567412223.625
8.28,1567412223.640625
8.31,1567412223.65625
8.13,1567412223.671875
7.71,1567412223.6875
7.09,1567412223.703125
6.34,1567412223.71875
5.59,1567412223.734375
4.94,1567412223.75
4.37,1567412223.765625
3.8,1567412223.78125
3.07,1567412223.796875
2.12,1567412223.8125
1.01,1567412223.828125
-0.09,1567412223.84375
-0.98,1567412223.859375
-1.6,1567412223.875
-2.06,1567412223.890625
-2.65,1567412223.90625
-3.64,1567412223.921875
-5.22,1567412223.9375
-7.3,1567412223.953125
-9.59,1567412223.96875
-11.81,1567412223.984375
-13.67,1567412224.0
-15.08,1567412224.015625
-15.96,1567412224.03125
-16.19,1567412224.046875
-15.61,1567412224.0625
-13.98,1567412224.078125
-11.24,1567412224.09375
-7.67,1567412224.109375
-3.78,1567412224.125
-0.18,1567412224.140625
2.64,1567412224.15625
4.65,1567412224.171875
6.17,1567412224.1875
7.68,1567412224.203125
9.49,1567412224.21875
11.58,1567412224.234375
13.55,1567412224.25
14.82,1567412224.265625
15.07,1567412224.28125
14.26,1567412224.296875
12.8,1567412224.3125
11.16,1567412224.328125
9.72,1567412224.34375
8.58,1567412224.359375
7.59,1567412224.375
6.57,1567412224.390625
5.45,1567412224.40625
4.36,1567412224.421875
3.49,1567412224.4375
2.89,1567412224.453125
2.49,1567412224.46875
2.03,1567412224.484375
1.28,1567412224.5
0.19,1567412224.515625
