bvp,time
40.55,1677485879.78125
43.03,1677485879.796875
44.17,1677485879.8125
44.03,1677485879.828125
42.83,1677485879.84375
40.97,1677485879.859375
38.9,1677485879.875
37.0,1677485879.890625
35.43,1677485879.90625
34.1,1677485879.921875
32.84,1677485879.9375
31.44,1677485879.953125
29.8,1677485879.96875
27.92,1677485879.984375
25.81,1677485880.0
23.36,1677485880.015625
20.41,1677485880.03125
16.75,1677485880.046875
12.33,1677485880.0625
7.34,1677485880.078125
2.24,1677485880.09375
-2.5,1677485880.109375
-6.49,1677485880.125
-9.67,1677485880.140625
-12.2,1677485880.15625
-14.37,1677485880.171875
-16.41,1677485880.1875
-18.36,1677485880.203125
-20.13,1677485880.21875
-21.58,1677485880.234375
-22.64,1677485880.25
-23.38,1677485880.265625
-23.99,1677485880.28125
-24.66,1677485880.296875
-25.59,1677485880.3125
-26.87,1677485880.328125
-28.52,1677485880.34375
-30.31,1677485880.359375
-31.77,1677485880.375
-32.2,1677485880.390625
-30.85,1677485880.40625
-27.22,1677485880.421875
-21.36,1677485880.4375
-13.98,1677485880.453125
-6.29,1677485880.46875
0.31,1677485880.484375
4.69,1677485880.5
6.23,1677485880.515625
4.96,1677485880.53125
1.46,1677485880.546875
-3.44,1677485880.5625
-8.81,1677485880.578125
-13.82,1677485880.59375
-17.78,1677485880.609375
-20.22,1677485880.625
-20.95,1677485880.640625
-20.02,1677485880.65625
-17.71,1677485880.671875
-14.42,1677485880.6875
-10.47,1677485880.703125
-6.09,1677485880.71875
-1.44,1677485880.734375
3.36,1677485880.75
8.11,1677485880.765625
12.66,1677485880.78125
17.07,1677485880.796875
21.72,1677485880.8125
27.36,1677485880.828125
34.87,1677485880.84375
44.92,1677485880.859375
57.5,1677485880.875
71.78,1677485880.890625
86.19,1677485880.90625
98.8,1677485880.921875
107.91,1677485880.9375
112.49,1677485880.953125
112.43,1677485880.96875
108.49,1677485880.984375
102.08,1677485881.0
94.75,1677485881.015625
87.68,1677485881.03125
81.2,1677485881.046875
74.39,1677485881.0625
65.23,1677485881.078125
51.06,1677485881.09375
29.58,1677485881.109375
-0.15,1677485881.125
-36.93,1677485881.140625
-77.21,1677485881.15625
-115.66,1677485881.171875
-146.47,1677485881.1875
-164.88,1677485881.203125
-168.41,1677485881.21875
-157.51,1677485881.234375
-135.29,1677485881.25
-106.49,1677485881.265625
-76.21,1677485881.28125
-48.68,1677485881.296875
-26.62,1677485881.3125
-11.08,1677485881.328125
-1.85,1677485881.34375
2.13,1677485881.359375
2.25,1677485881.375
0.07,1677485881.390625
-2.88,1677485881.40625
-5.19,1677485881.421875
-5.89,1677485881.4375
-4.64,1677485881.453125
-1.93,1677485881.46875
1.18,1677485881.484375
3.43,1677485881.5
3.89,1677485881.515625
2.34,1677485881.53125
-0.68,1677485881.546875
-4.15,1677485881.5625
-7.11,1677485881.578125
-9.06,1677485881.59375
-10.15,1677485881.609375
-10.97,1677485881.625
-12.22,1677485881.640625
-14.28,1677485881.65625
-17.06,1677485881.671875
-20.06,1677485881.6875
-22.66,1677485881.703125
-24.42,1677485881.71875
-25.26,1677485881.734375
-25.44,1677485881.75
-25.52,1677485881.765625
-26.17,1677485881.78125
-27.97,1677485881.796875
-31.15,1677485881.8125
-35.47,1677485881.828125
-40.05,1677485881.84375
-43.58,1677485881.859375
-44.63,1677485881.875
-42.1,1677485881.890625
-35.66,1677485881.90625
-25.88,1677485881.921875
-14.03,1677485881.9375
-1.69,1677485881.953125
9.75,1677485881.96875
19.46,1677485881.984375
27.13,1677485882.0
32.79,1677485882.015625
36.54,1677485882.03125
38.37,1677485882.046875
38.22,1677485882.0625
36.16,1677485882.078125
32.57,1677485882.09375
28.2,1677485882.109375
23.89,1677485882.125
20.33,1677485882.140625
17.79,1677485882.15625
16.12,1677485882.171875
14.95,1677485882.1875
13.94,1677485882.203125
12.87,1677485882.21875
11.61,1677485882.234375
9.92,1677485882.25
7.44,1677485882.265625
3.74,1677485882.28125
-1.47,1677485882.296875
-8.16,1677485882.3125
-15.9,1677485882.328125
-24.12,1677485882.34375
-32.27,1677485882.359375
-40.03,1677485882.375
-47.36,1677485882.390625
-54.39,1677485882.40625
-61.3,1677485882.421875
-68.35,1677485882.4375
-75.9,1677485882.453125
-84.37,1677485882.46875
-94.1,1677485882.484375
-104.93,1677485882.5
-115.87,1677485882.515625
-125.16,1677485882.53125
-130.72,1677485882.546875
-130.76,1677485882.5625
-124.55,1677485882.578125
-112.59,1677485882.59375
-96.32,1677485882.609375
-77.47,1677485882.625
-57.39,1677485882.640625
-36.77,1677485882.65625
-15.83,1677485882.671875
5.16,1677485882.6875
25.47,1677485882.703125
43.81,1677485882.71875
58.66,1677485882.734375
68.81,1677485882.75
73.9,1677485882.765625
74.51,1677485882.78125
72.02,1677485882.796875
68.18,1677485882.8125
64.58,1677485882.828125
62.4,1677485882.84375
62.2,1677485882.859375
64.05,1677485882.875
67.53,1677485882.890625
71.92,1677485882.90625
76.38,1677485882.921875
80.18,1677485882.9375
82.88,1677485882.953125
84.55,1677485882.96875
85.67,1677485882.984375
86.96,1677485883.0
89.02,1677485883.015625
91.89,1677485883.03125
94.97,1677485883.046875
96.98,1677485883.0625
96.43,1677485883.078125
92.0,1677485883.09375
83.01,1677485883.109375
69.57,1677485883.125
52.5,1677485883.140625
33.05,1677485883.15625
12.73,1677485883.171875
-6.9,1677485883.1875
-24.3,1677485883.203125
-38.06,1677485883.21875
-47.12,1677485883.234375
-51.02,1677485883.25
-50.16,1677485883.265625
-45.74,1677485883.28125
-39.38,1677485883.296875
-32.58,1677485883.3125
-26.34,1677485883.328125
-20.89,1677485883.34375
-15.95,1677485883.359375
-11.2,1677485883.375
-6.61,1677485883.390625
-2.58,1677485883.40625
0.17,1677485883.421875
0.97,1677485883.4375
-0.56,1677485883.453125
-4.29,1677485883.46875
-9.65,1677485883.484375
-15.78,1677485883.5
-21.73,1677485883.515625
-26.71,1677485883.53125
-30.22,1677485883.546875
-32.22,1677485883.5625
-33.07,1677485883.578125
-33.47,1677485883.59375
-34.24,1677485883.609375
-35.96,1677485883.625
-38.85,1677485883.640625
-42.72,1677485883.65625
-47.06,1677485883.671875
-51.28,1677485883.6875
-54.99,1677485883.703125
-58.05,1677485883.71875
-60.68,1677485883.734375
-63.34,1677485883.75
-66.7,1677485883.765625
-71.4,1677485883.78125
-77.8,1677485883.796875
-85.66,1677485883.8125
-93.98,1677485883.828125
-101.05,1677485883.84375
-104.86,1677485883.859375
-103.67,1677485883.875
-96.53,1677485883.890625
-83.59,1677485883.90625
-65.87,1677485883.921875
-44.95,1677485883.9375
-22.5,1677485883.953125
0.07,1677485883.96875
21.65,1677485883.984375
41.39,1677485884.0
58.58,1677485884.015625
72.62,1677485884.03125
83.11,1677485884.046875
89.89,1677485884.0625
93.18,1677485884.078125
93.57,1677485884.09375
91.84,1677485884.109375
88.86,1677485884.125
85.33,1677485884.140625
81.66,1677485884.15625
77.97,1677485884.171875
74.12,1677485884.1875
69.97,1677485884.203125
65.47,1677485884.21875
60.75,1677485884.234375
56.08,1677485884.25
51.61,1677485884.265625
47.25,1677485884.28125
42.64,1677485884.296875
37.23,1677485884.3125
30.61,1677485884.328125
22.71,1677485884.34375
13.86,1677485884.359375
4.62,1677485884.375
-4.43,1677485884.390625
-12.93,1677485884.40625
-20.84,1677485884.421875
-28.34,1677485884.4375
-35.71,1677485884.453125
-43.24,1677485884.46875
-51.3,1677485884.484375
-60.26,1677485884.5
-70.35,1677485884.515625
-81.33,1677485884.53125
-92.23,1677485884.546875
-101.3,1677485884.5625
-106.38,1677485884.578125
-105.59,1677485884.59375
-97.95,1677485884.609375
-83.74,1677485884.625
-64.4,1677485884.640625
-42.01,1677485884.65625
-18.73,1677485884.671875
3.65,1677485884.6875
23.92,1677485884.703125
41.4,1677485884.71875
55.81,1677485884.734375
67.09,1677485884.75
75.32,1677485884.765625
80.61,1677485884.78125
83.15,1677485884.796875
83.25,1677485884.8125
81.42,1677485884.828125
78.38,1677485884.84375
75.04,1677485884.859375
72.16,1677485884.875
70.16,1677485884.890625
68.94,1677485884.90625
67.96,1677485884.921875
66.57,1677485884.9375
64.3,1677485884.953125
61.13,1677485884.96875
57.33,1677485884.984375
53.23,1677485885.0
48.87,1677485885.015625
43.99,1677485885.03125
38.15,1677485885.046875
31.05,1677485885.0625
22.74,1677485885.078125
13.68,1677485885.09375
4.46,1677485885.109375
-4.46,1677485885.125
-12.97,1677485885.140625
-21.23,1677485885.15625
-29.58,1677485885.171875
-38.31,1677485885.1875
-47.59,1677485885.203125
-57.6,1677485885.21875
-68.54,1677485885.234375
-80.54,1677485885.25
-93.41,1677485885.265625
-106.27,1677485885.28125
-117.46,1677485885.296875
-124.83,1677485885.3125
-126.29,1677485885.328125
-120.53,1677485885.34375
-107.45,1677485885.359375
-88.2,1677485885.375
-64.76,1677485885.390625
-39.37,1677485885.40625
-14.01,1677485885.421875
9.96,1677485885.4375
31.65,1677485885.453125
50.55,1677485885.46875
66.24,1677485885.484375
78.31,1677485885.5
86.45,1677485885.515625
90.64,1677485885.53125
91.36,1677485885.546875
89.6,1677485885.5625
86.68,1677485885.578125
83.85,1677485885.59375
81.94,1677485885.609375
81.09,1677485885.625
80.78,1677485885.640625
80.1,1677485885.65625
78.18,1677485885.671875
74.54,1677485885.6875
69.19,1677485885.703125
62.59,1677485885.71875
55.36,1677485885.734375
48.01,1677485885.75
40.69,1677485885.765625
33.24,1677485885.78125
25.29,1677485885.796875
16.54,1677485885.8125
6.92,1677485885.828125
-3.3,1677485885.84375
-13.59,1677485885.859375
-23.32,1677485885.875
-31.95,1677485885.890625
-39.29,1677485885.90625
-45.47,1677485885.921875
-51.01,1677485885.9375
-56.64,1677485885.953125
-63.11,1677485885.96875
-70.99,1677485885.984375
-80.37,1677485886.0
-90.69,1677485886.015625
-100.65,1677485886.03125
-108.38,1677485886.046875
-111.82,1677485886.0625
-109.25,1677485886.078125
-99.88,1677485886.09375
-84.09,1677485886.109375
-63.36,1677485886.125
-39.89,1677485886.140625
-15.92,1677485886.15625
6.8,1677485886.171875
27.28,1677485886.1875
45.19,1677485886.203125
60.47,1677485886.21875
73.07,1677485886.234375
82.71,1677485886.25
89.06,1677485886.265625
92.0,1677485886.28125
91.85,1677485886.296875
89.43,1677485886.3125
85.84,1677485886.328125
82.12,1677485886.34375
78.93,1677485886.359375
76.39,1677485886.375
74.23,1677485886.390625
71.95,1677485886.40625
69.17,1677485886.421875
65.72,1677485886.4375
61.71,1677485886.453125
57.32,1677485886.46875
52.7,1677485886.484375
47.78,1677485886.5
42.28,1677485886.515625
35.83,1677485886.53125
28.08,1677485886.546875
18.92,1677485886.5625
8.56,1677485886.578125
-2.41,1677485886.59375
-13.26,1677485886.609375
-23.23,1677485886.625
-31.88,1677485886.640625
-39.19,1677485886.65625
-45.61,1677485886.671875
-51.91,1677485886.6875
-58.86,1677485886.703125
-67.05,1677485886.71875
-76.58,1677485886.734375
-86.95,1677485886.75
-97.02,1677485886.765625
-105.14,1677485886.78125
-109.44,1677485886.796875
-108.36,1677485886.8125
-101.06,1677485886.828125
-87.77,1677485886.84375
-69.78,1677485886.859375
-49.01,1677485886.875
-27.45,1677485886.890625
-6.61,1677485886.90625
12.69,1677485886.921875
30.18,1677485886.9375
45.79,1677485886.953125
59.3,1677485886.96875
70.27,1677485886.984375
78.16,1677485887.0
82.68,1677485887.015625
84.03,1677485887.03125
82.99,1677485887.046875
80.71,1677485887.0625
78.45,1677485887.078125
77.17,1677485887.09375
77.29,1677485887.109375
78.6,1677485887.125
80.47,1677485887.140625
82.08,1677485887.15625
82.81,1677485887.171875
82.37,1677485887.1875
80.87,1677485887.203125
78.61,1677485887.21875
75.76,1677485887.234375
72.27,1677485887.25
67.83,1677485887.265625
62.02,1677485887.28125
54.59,1677485887.296875
45.58,1677485887.3125
35.38,1677485887.328125
24.59,1677485887.34375
13.8,1677485887.359375
3.48,1677485887.375
-6.11,1677485887.390625
-14.88,1677485887.40625
-22.92,1677485887.421875
-30.55,1677485887.4375
-38.33,1677485887.453125
-46.96,1677485887.46875
-56.95,1677485887.484375
-68.23,1677485887.5
-79.81,1677485887.515625
-89.88,1677485887.53125
-96.32,1677485887.546875
-97.51,1677485887.5625
-93.0,1677485887.578125
-83.7,1677485887.59375
-71.49,1677485887.609375
-58.42,1677485887.625
-45.98,1677485887.640625
-34.74,1677485887.65625
-24.62,1677485887.671875
-15.42,1677485887.6875
-7.33,1677485887.703125
-0.87,1677485887.71875
3.38,1677485887.734375
5.27,1677485887.75
5.32,1677485887.765625
4.5,1677485887.78125
3.8,1677485887.796875
3.74,1677485887.8125
4.3,1677485887.828125
5.05,1677485887.84375
5.57,1677485887.859375
5.71,1677485887.875
5.6,1677485887.890625
5.42,1677485887.90625
5.11,1677485887.921875
4.31,1677485887.9375
2.41,1677485887.953125
-1.03,1677485887.96875
-6.16,1677485887.984375
-12.63,1677485888.0
-19.75,1677485888.015625
-26.75,1677485888.03125
-33.02,1677485888.046875
-38.31,1677485888.0625
-42.74,1677485888.078125
-46.79,1677485888.09375
-51.14,1677485888.109375
-56.46,1677485888.125
-63.27,1677485888.140625
-71.61,1677485888.15625
-80.89,1677485888.171875
-89.8,1677485888.1875
-96.5,1677485888.203125
-99.04,1677485888.21875
-95.89,1677485888.234375
-86.45,1677485888.25
-71.34,1677485888.265625
-52.23,1677485888.28125
-31.35,1677485888.296875
-10.88,1677485888.3125
7.65,1677485888.328125
23.51,1677485888.34375
36.69,1677485888.359375
47.54,1677485888.375
56.34,1677485888.390625
63.16,1677485888.40625
67.85,1677485888.421875
70.26,1677485888.4375
70.5,1677485888.453125
68.97,1677485888.46875
66.32,1677485888.484375
63.17,1677485888.5
59.98,1677485888.515625
56.84,1677485888.53125
53.67,1677485888.546875
50.36,1677485888.5625
46.9,1677485888.578125
43.41,1677485888.59375
40.03,1677485888.609375
36.71,1677485888.625
33.14,1677485888.640625
28.82,1677485888.65625
23.26,1677485888.671875
16.28,1677485888.6875
8.13,1677485888.703125
-0.57,1677485888.71875
-9.01,1677485888.734375
-16.55,1677485888.75
-22.96,1677485888.765625
-28.49,1677485888.78125
-33.74,1677485888.796875
-39.54,1677485888.8125
-46.54,1677485888.828125
-55.08,1677485888.84375
-64.86,1677485888.859375
-74.84,1677485888.875
-83.33,1677485888.890625
-88.37,1677485888.90625
-88.31,1677485888.921875
-82.33,1677485888.9375
-70.78,1677485888.953125
-55.03,1677485888.96875
-36.96,1677485888.984375
-18.35,1677485889.0
-0.43,1677485889.015625
16.23,1677485889.03125
31.44,1677485889.046875
45.04,1677485889.0625
56.7,1677485889.078125
65.89,1677485889.09375
72.16,1677485889.109375
75.31,1677485889.125
75.62,1677485889.140625
73.77,1677485889.15625
70.62,1677485889.171875
66.99,1677485889.1875
63.47,1677485889.203125
60.3,1677485889.21875
57.39,1677485889.234375
54.52,1677485889.25
51.48,1677485889.265625
48.24,1677485889.28125
44.91,1677485889.296875
41.67,1677485889.3125
38.52,1677485889.328125
35.24,1677485889.34375
31.41,1677485889.359375
26.58,1677485889.375
20.53,1677485889.390625
13.41,1677485889.40625
5.72,1677485889.421875
-1.89,1677485889.4375
-8.91,1677485889.453125
-15.17,1677485889.46875
-20.83,1677485889.484375
-26.29,1677485889.5
-32.07,1677485889.515625
-38.6,1677485889.53125
-46.24,1677485889.546875
-55.04,1677485889.5625
-64.66,1677485889.578125
-74.12,1677485889.59375
-81.94,1677485889.609375
-86.35,1677485889.625
-85.81,1677485889.640625
-79.58,1677485889.65625
-68.0,1677485889.671875
-52.38,1677485889.6875
-34.51,1677485889.703125
-16.12,1677485889.71875
1.54,1677485889.734375
17.78,1677485889.75
32.3,1677485889.765625
44.83,1677485889.78125
55.01,1677485889.796875
62.4,1677485889.8125
66.68,1677485889.828125
67.89,1677485889.84375
66.52,1677485889.859375
63.38,1677485889.875
59.39,1677485889.890625
55.3,1677485889.90625
51.53,1677485889.921875
48.16,1677485889.9375
45.03,1677485889.953125
42.02,1677485889.96875
39.09,1677485889.984375
36.38,1677485890.0
34.0,1677485890.015625
31.86,1677485890.03125
29.61,1677485890.046875
26.68,1677485890.0625
22.54,1677485890.078125
16.97,1677485890.09375
10.21,1677485890.109375
2.89,1677485890.125
-4.2,1677485890.140625
-10.44,1677485890.15625
-15.64,1677485890.171875
-20.05,1677485890.1875
-24.3,1677485890.203125
-29.12,1677485890.21875
-35.2,1677485890.234375
-42.93,1677485890.25
-52.27,1677485890.265625
-62.58,1677485890.28125
-72.54,1677485890.296875
-80.25,1677485890.3125
-83.75,1677485890.328125
-81.56,1677485890.34375
-73.22,1677485890.359375
-59.54,1677485890.375
-42.34,1677485890.390625
-23.83,1677485890.40625
-5.93,1677485890.421875
10.12,1677485890.4375
23.84,1677485890.453125
35.2,1677485890.46875
44.24,1677485890.484375
50.9,1677485890.5
54.98,1677485890.515625
56.35,1677485890.53125
55.21,1677485890.546875
52.09,1677485890.5625
47.79,1677485890.578125
43.12,1677485890.59375
38.65,1677485890.609375
34.63,1677485890.625
30.96,1677485890.640625
27.42,1677485890.65625
23.84,1677485890.671875
20.19,1677485890.6875
16.59,1677485890.703125
13.12,1677485890.71875
9.67,1677485890.734375
5.84,1677485890.75
1.09,1677485890.765625
-4.98,1677485890.78125
-12.44,1677485890.796875
-20.87,1677485890.8125
-29.45,1677485890.828125
-37.32,1677485890.84375
-43.87,1677485890.859375
-49.07,1677485890.875
-53.38,1677485890.890625
-57.7,1677485890.90625
-62.96,1677485890.921875
-69.8,1677485890.9375
-78.33,1677485890.953125
-87.99,1677485890.96875
-97.56,1677485890.984375
-105.4,1677485891.0
-109.72,1677485891.015625
-109.07,1677485891.03125
-102.76,1677485891.046875
-91.04,1677485891.0625
-75.08,1677485891.078125
-56.55,1677485891.09375
-37.13,1677485891.109375
-18.07,1677485891.125
-0.05,1677485891.140625
16.57,1677485891.15625
31.57,1677485891.171875
44.57,1677485891.1875
55.1,1677485891.203125
62.82,1677485891.21875
67.7,1677485891.234375
70.16,1677485891.25
70.89,1677485891.265625
70.58,1677485891.28125
69.74,1677485891.296875
68.52,1677485891.3125
66.92,1677485891.328125
64.88,1677485891.34375
62.45,1677485891.359375
59.83,1677485891.375
57.27,1677485891.390625
54.95,1677485891.40625
52.87,1677485891.421875
50.94,1677485891.4375
48.95,1677485891.453125
46.74,1677485891.46875
44.26,1677485891.484375
41.62,1677485891.5
39.13,1677485891.515625
37.16,1677485891.53125
35.94,1677485891.546875
35.44,1677485891.5625
35.23,1677485891.578125
34.64,1677485891.59375
32.92,1677485891.609375
29.53,1677485891.625
24.25,1677485891.640625
17.25,1677485891.65625
9.06,1677485891.671875
0.46,1677485891.6875
-7.47,1677485891.703125
-13.36,1677485891.71875
-15.81,1677485891.734375
-13.69,1677485891.75
-6.64,1677485891.765625
4.66,1677485891.78125
18.57,1677485891.796875
32.9,1677485891.8125
45.62,1677485891.828125
55.24,1677485891.84375
60.95,1677485891.859375
62.48,1677485891.875
59.77,1677485891.890625
52.9,1677485891.90625
42.21,1677485891.921875
28.56,1677485891.9375
13.36,1677485891.953125
-1.66,1677485891.96875
-14.89,1677485891.984375
-25.35,1677485892.0
-32.92,1677485892.015625
-38.19,1677485892.03125
-42.08,1677485892.046875
-45.31,1677485892.0625
-48.25,1677485892.078125
-50.83,1677485892.09375
-52.87,1677485892.109375
-54.33,1677485892.125
-55.44,1677485892.140625
-56.73,1677485892.15625
-58.72,1677485892.171875
-61.74,1677485892.1875
-65.7,1677485892.203125
-70.08,1677485892.21875
-74.16,1677485892.234375
-77.29,1677485892.25
-79.24,1677485892.265625
-80.26,1677485892.28125
-81.01,1677485892.296875
-82.34,1677485892.3125
-84.95,1677485892.328125
-89.17,1677485892.34375
-94.92,1677485892.359375
-101.6,1677485892.375
-108.2,1677485892.390625
-113.36,1677485892.40625
-115.55,1677485892.421875
-113.34,1677485892.4375
-105.76,1677485892.453125
-92.72,1677485892.46875
-75.09,1677485892.484375
-54.47,1677485892.5
-32.84,1677485892.515625
-12.01,1677485892.53125
6.76,1677485892.546875
22.76,1677485892.5625
35.69,1677485892.578125
45.42,1677485892.59375
51.9,1677485892.609375
55.2,1677485892.625
55.67,1677485892.640625
53.96,1677485892.65625
50.94,1677485892.671875
47.51,1677485892.6875
44.22,1677485892.703125
41.31,1677485892.71875
38.68,1677485892.734375
36.12,1677485892.75
33.48,1677485892.765625
30.77,1677485892.78125
27.99,1677485892.796875
25.09,1677485892.8125
21.82,1677485892.828125
17.77,1677485892.84375
12.53,1677485892.859375
5.87,1677485892.875
-2.14,1677485892.890625
-11.11,1677485892.90625
-20.43,1677485892.921875
-29.54,1677485892.9375
-38.05,1677485892.953125
-46.0,1677485892.96875
-53.87,1677485892.984375
-62.47,1677485893.0
-72.72,1677485893.015625
-85.23,1677485893.03125
-99.93,1677485893.046875
-115.79,1677485893.0625
-130.88,1677485893.078125
-142.71,1677485893.09375
-148.89,1677485893.109375
-147.8,1677485893.125
-139.04,1677485893.140625
-123.53,1677485893.15625
-103.18,1677485893.171875
-80.3,1677485893.1875
-56.97,1677485893.203125
-34.61,1677485893.21875
-13.92,1677485893.234375
4.93,1677485893.25
21.9,1677485893.265625
36.76,1677485893.28125
49.03,1677485893.296875
58.19,1677485893.3125
63.96,1677485893.328125
66.6,1677485893.34375
66.9,1677485893.359375
65.99,1677485893.375
64.88,1677485893.390625
64.13,1677485893.40625
63.68,1677485893.421875
62.97,1677485893.4375
61.34,1677485893.453125
58.38,1677485893.46875
54.22,1677485893.484375
49.4,1677485893.5
44.66,1677485893.515625
40.5,1677485893.53125
36.97,1677485893.546875
33.62,1677485893.5625
29.75,1677485893.578125
24.8,1677485893.59375
18.64,1677485893.609375
11.64,1677485893.625
4.48,1677485893.640625
-2.18,1677485893.65625
-7.97,1677485893.671875
-12.98,1677485893.6875
-17.66,1677485893.703125
-22.7,1677485893.71875
-28.83,1677485893.734375
-36.58,1677485893.75
-46.12,1677485893.765625
-56.99,1677485893.78125
-67.98,1677485893.796875
-77.22,1677485893.8125
-82.48,1677485893.828125
-81.71,1677485893.84375
-73.66,1677485893.859375
-58.29,1677485893.875
-36.76,1677485893.890625
-11.19,1677485893.90625
15.9,1677485893.921875
42.24,1677485893.9375
66.14,1677485893.953125
86.69,1677485893.96875
103.64,1677485893.984375
117.07,1677485894.0
127.18,1677485894.015625
134.0,1677485894.03125
137.47,1677485894.046875
137.61,1677485894.0625
134.67,1677485894.078125
129.25,1677485894.09375
122.16,1677485894.109375
114.22,1677485894.125
105.97,1677485894.140625
97.59,1677485894.15625
89.06,1677485894.171875
80.31,1677485894.1875
71.51,1677485894.203125
63.1,1677485894.21875
55.57,1677485894.234375
49.2,1677485894.25
43.83,1677485894.265625
38.77,1677485894.28125
33.03,1677485894.296875
25.67,1677485894.3125
16.2,1677485894.328125
4.75,1677485894.34375
-7.91,1677485894.359375
-20.65,1677485894.375
-32.47,1677485894.390625
-42.74,1677485894.40625
-51.55,1677485894.421875
-59.56,1677485894.4375
-67.75,1677485894.453125
-77.08,1677485894.46875
-88.15,1677485894.484375
-100.91,1677485894.5
-114.5,1677485894.515625
-127.33,1677485894.53125
-137.27,1677485894.546875
-142.14,1677485894.5625
-140.25,1677485894.578125
-130.91,1677485894.59375
-114.64,1677485894.609375
-93.0,1677485894.625
-68.13,1677485894.640625
-42.12,1677485894.65625
-16.67,1677485894.671875
7.19,1677485894.6875
28.88,1677485894.703125
48.06,1677485894.71875
64.36,1677485894.734375
77.41,1677485894.75
86.94,1677485894.765625
92.85,1677485894.78125
95.47,1677485894.796875
95.45,1677485894.8125
93.64,1677485894.828125
90.91,1677485894.84375
87.88,1677485894.859375
84.79,1677485894.875
81.62,1677485894.890625
78.16,1677485894.90625
74.3,1677485894.921875
70.16,1677485894.9375
66.03,1677485894.953125
62.19,1677485894.96875
58.72,1677485894.984375
55.32,1677485895.0
51.42,1677485895.015625
46.33,1677485895.03125
39.63,1677485895.046875
31.33,1677485895.0625
21.99,1677485895.078125
12.43,1677485895.09375
3.44,1677485895.109375
-4.54,1677485895.125
-11.59,1677485895.140625
-18.21,1677485895.15625
-25.09,1677485895.171875
-32.91,1677485895.1875
-42.15,1677485895.203125
-52.93,1677485895.21875
-65.0,1677485895.234375
-77.51,1677485895.25
-88.96,1677485895.265625
-97.38,1677485895.28125
-100.73,1677485895.296875
-97.54,1677485895.3125
-87.46,1677485895.328125
-71.39,1677485895.34375
-51.17,1677485895.359375
-29.01,1677485895.375
-6.75,1677485895.390625
14.36,1677485895.40625
33.68,1677485895.421875
50.8,1677485895.4375
65.31,1677485895.453125
76.66,1677485895.46875
84.4,1677485895.484375
88.44,1677485895.5
89.17,1677485895.515625
87.44,1677485895.53125
84.22,1677485895.546875
80.35,1677485895.5625
76.3,1677485895.578125
72.19,1677485895.59375
67.97,1677485895.609375
63.6,1677485895.625
59.17,1677485895.640625
54.9,1677485895.65625
50.94,1677485895.671875
47.22,1677485895.6875
43.41,1677485895.703125
38.98,1677485895.71875
33.44,1677485895.734375
26.54,1677485895.75
18.48,1677485895.765625
9.81,1677485895.78125
1.24,1677485895.796875
-6.62,1677485895.8125
-13.53,1677485895.828125
-19.7,1677485895.84375
-25.77,1677485895.859375
-32.57,1677485895.875
-40.85,1677485895.890625
-50.96,1677485895.90625
-62.52,1677485895.921875
-74.34,1677485895.9375
-84.55,1677485895.953125
-90.94,1677485895.96875
-91.64,1677485895.984375
-85.64,1677485896.0
-73.19,1677485896.015625
-55.64,1677485896.03125
-35.11,1677485896.046875
-13.78,1677485896.0625
6.62,1677485896.078125
24.99,1677485896.09375
40.86,1677485896.109375
54.05,1677485896.125
64.38,1677485896.140625
71.62,1677485896.15625
75.57,1677485896.171875
76.3,1677485896.1875
74.31,1677485896.203125
70.51,1677485896.21875
65.95,1677485896.234375
61.44,1677485896.25
57.38,1677485896.265625
53.64,1677485896.28125
49.88,1677485896.296875
45.81,1677485896.3125
41.46,1677485896.328125
37.19,1677485896.34375
33.41,1677485896.359375
30.26,1677485896.375
27.43,1677485896.390625
24.21,1677485896.40625
19.79,1677485896.421875
13.61,1677485896.4375
5.62,1677485896.453125
-3.69,1677485896.46875
-13.51,1677485896.484375
-22.97,1677485896.5
-31.48,1677485896.515625
-38.87,1677485896.53125
-45.42,1677485896.546875
-51.8,1677485896.5625
-58.82,1677485896.578125
-67.16,1677485896.59375
-76.97,1677485896.609375
-87.65,1677485896.625
-97.74,1677485896.640625
-105.2,1677485896.65625
-107.9,1677485896.671875
-104.28,1677485896.6875
-93.89,1677485896.703125
-77.56,1677485896.71875
-57.13,1677485896.734375
-34.86,1677485896.75
-12.76,1677485896.765625
7.77,1677485896.78125
26.04,1677485896.796875
41.74,1677485896.8125
54.73,1677485896.828125
64.79,1677485896.84375
71.72,1677485896.859375
75.52,1677485896.875
76.53,1677485896.890625
75.47,1677485896.90625
73.2,1677485896.921875
70.4,1677485896.9375
67.4,1677485896.953125
64.14,1677485896.96875
60.37,1677485896.984375
55.92,1677485897.0
50.92,1677485897.015625
45.74,1677485897.03125
40.89,1677485897.046875
36.62,1677485897.0625
32.82,1677485897.078125
29.0,1677485897.09375
24.5,1677485897.109375
18.85,1677485897.125
11.95,1677485897.140625
4.11,1677485897.15625
-4.08,1677485897.171875
-12.02,1677485897.1875
-19.33,1677485897.203125
-25.91,1677485897.21875
-31.95,1677485897.234375
-37.85,1677485897.25
-44.12,1677485897.265625
-51.34,1677485897.28125
-59.94,1677485897.296875
-69.97,1677485897.3125
-80.75,1677485897.328125
-90.83,1677485897.34375
-98.13,1677485897.359375
-100.52,1677485897.375
-96.57,1677485897.390625
-86.01,1677485897.40625
-69.95,1677485897.421875
-50.41,1677485897.4375
-29.69,1677485897.453125
-9.76,1677485897.46875
8.2,1677485897.484375
23.63,1677485897.5
36.44,1677485897.515625
46.63,1677485897.53125
54.16,1677485897.546875
58.99,1677485897.5625
61.19,1677485897.578125
61.05,1677485897.59375
59.13,1677485897.609375
56.1,1677485897.625
52.56,1677485897.640625
48.9,1677485897.65625
45.25,1677485897.671875
41.6,1677485897.6875
37.89,1677485897.703125
34.2,1677485897.71875
30.72,1677485897.734375
27.58,1677485897.75
24.69,1677485897.765625
21.66,1677485897.78125
17.92,1677485897.796875
12.98,1677485897.8125
6.68,1677485897.828125
-0.67,1677485897.84375
-8.4,1677485897.859375
-15.81,1677485897.875
-22.45,1677485897.890625
-28.3,1677485897.90625
-33.79,1677485897.921875
-39.57,1677485897.9375
-46.34,1677485897.953125
-54.51,1677485897.96875
-63.98,1677485897.984375
-73.98,1677485898.0
-83.06,1677485898.015625
-89.29,1677485898.03125
-90.8,1677485898.046875
-86.34,1677485898.0625
-75.69,1677485898.078125
-59.83,1677485898.09375
-40.62,1677485898.109375
-20.17,1677485898.125
-0.37,1677485898.140625
17.54,1677485898.15625
32.89,1677485898.171875
45.43,1677485898.1875
55.05,1677485898.203125
61.7,1677485898.21875
65.43,1677485898.234375
66.53,1677485898.25
65.53,1677485898.265625
63.06,1677485898.28125
59.7,1677485898.296875
55.86,1677485898.3125
51.74,1677485898.328125
47.43,1677485898.34375
43.02,1677485898.359375
38.66,1677485898.375
34.51,1677485898.390625
30.7,1677485898.40625
27.2,1677485898.421875
23.8,1677485898.4375
20.14,1677485898.453125
15.79,1677485898.46875
10.37,1677485898.484375
3.7,1677485898.5
-4.1,1677485898.515625
-12.61,1677485898.53125
-21.19,1677485898.546875
-29.19,1677485898.5625
-36.21,1677485898.578125
-42.27,1677485898.59375
-47.86,1677485898.609375
-53.79,1677485898.625
-60.91,1677485898.640625
-69.68,1677485898.65625
-79.89,1677485898.671875
-90.45,1677485898.6875
-99.51,1677485898.703125
-104.85,1677485898.71875
-104.56,1677485898.734375
-97.64,1677485898.75
-84.35,1677485898.765625
-66.16,1677485898.78125
-45.2,1677485898.796875
-23.72,1677485898.8125
-3.42,1677485898.828125
14.75,1677485898.84375
30.43,1677485898.859375
43.64,1677485898.875
54.39,1677485898.890625
62.63,1677485898.90625
68.25,1677485898.921875
71.21,1677485898.9375
71.75,1677485898.953125
70.31,1677485898.96875
67.48,1677485898.984375
63.89,1677485899.0
60.03,1677485899.015625
56.24,1677485899.03125
52.7,1677485899.046875
49.48,1677485899.0625
46.63,1677485899.078125
44.16,1677485899.09375
41.99,1677485899.109375
39.92,1677485899.125
37.68,1677485899.140625
34.95,1677485899.15625
31.55,1677485899.171875
27.45,1677485899.1875
22.81,1677485899.203125
17.92,1677485899.21875
13.09,1677485899.234375
8.53,1677485899.25
4.32,1677485899.265625
0.39,1677485899.28125
-3.43,1677485899.296875
-7.38,1677485899.3125
-11.65,1677485899.328125
-16.29,1677485899.34375
-21.16,1677485899.359375
-25.79,1677485899.375
-29.36,1677485899.390625
-30.73,1677485899.40625
-28.71,1677485899.421875
-22.27,1677485899.4375
-10.97,1677485899.453125
4.91,1677485899.46875
24.38,1677485899.484375
46.03,1677485899.5
68.31,1677485899.515625
89.69,1677485899.53125
108.54,1677485899.546875
123.01,1677485899.5625
131.02,1677485899.578125
130.6,1677485899.59375
120.55,1677485899.609375
101.1,1677485899.625
74.22,1677485899.640625
43.22,1677485899.65625
11.9,1677485899.671875
-16.47,1677485899.6875
-39.85,1677485899.703125
-57.59,1677485899.71875
-70.13,1677485899.734375
-78.37,1677485899.75
-83.29,1677485899.765625
-85.66,1677485899.78125
-86.11,1677485899.796875
-85.21,1677485899.8125
-83.47,1677485899.828125
-81.4,1677485899.84375
-79.39,1677485899.859375
-77.72,1677485899.875
-76.49,1677485899.890625
-75.71,1677485899.90625
-75.25,1677485899.921875
-74.99,1677485899.9375
-74.8,1677485899.953125
-74.62,1677485899.96875
-74.48,1677485899.984375
-74.49,1677485900.0
-74.79,1677485900.015625
-75.51,1677485900.03125
-76.8,1677485900.046875
-78.86,1677485900.0625
-81.91,1677485900.078125
-86.04,1677485900.09375
-90.93,1677485900.109375
-95.62,1677485900.125
-98.55,1677485900.140625
-97.86,1677485900.15625
-92.02,1677485900.171875
-80.4,1677485900.1875
-63.62,1677485900.203125
-43.35,1677485900.21875
-21.73,1677485900.234375
-0.76,1677485900.25
18.16,1677485900.265625
34.3,1677485900.28125
47.44,1677485900.296875
57.59,1677485900.3125
64.8,1677485900.328125
69.15,1677485900.34375
70.87,1677485900.359375
70.42,1677485900.375
68.44,1677485900.390625
65.66,1677485900.40625
62.69,1677485900.421875
59.88,1677485900.4375
57.34,1677485900.453125
54.98,1677485900.46875
52.67,1677485900.484375
50.32,1677485900.5
47.91,1677485900.515625
45.45,1677485900.53125
42.89,1677485900.546875
40.05,1677485900.5625
36.67,1677485900.578125
32.55,1677485900.59375
27.66,1677485900.609375
22.26,1677485900.625
16.86,1677485900.640625
11.98,1677485900.65625
8.0,1677485900.671875
4.96,1677485900.6875
2.54,1677485900.703125
0.1,1677485900.71875
-3.1,1677485900.734375
-7.64,1677485900.75
-13.64,1677485900.765625
-20.52,1677485900.78125
-26.98,1677485900.796875
-31.22,1677485900.8125
-31.46,1677485900.828125
-26.56,1677485900.84375
-16.51,1677485900.859375
-2.53,1677485900.875
13.34,1677485900.890625
28.84,1677485900.90625
42.26,1677485900.921875
52.78,1677485900.9375
60.45,1677485900.953125
65.79,1677485900.96875
69.29,1677485900.984375
71.12,1677485901.0
71.09,1677485901.015625
68.9,1677485901.03125
64.44,1677485901.046875
57.95,1677485901.0625
49.95,1677485901.078125
41.13,1677485901.09375
32.1,1677485901.109375
23.4,1677485901.125
15.43,1677485901.140625
8.51,1677485901.15625
2.82,1677485901.171875
-1.77,1677485901.1875
-5.73,1677485901.203125
-9.81,1677485901.21875
-14.78,1677485901.234375
-21.11,1677485901.25
-28.69,1677485901.265625
-36.92,1677485901.28125
-44.92,1677485901.296875
-51.94,1677485901.3125
-57.6,1677485901.328125
-61.96,1677485901.34375
-65.39,1677485901.359375
-68.43,1677485901.375
-71.61,1677485901.390625
-75.45,1677485901.40625
-80.36,1677485901.421875
-86.49,1677485901.4375
-93.56,1677485901.453125
-100.66,1677485901.46875
-106.37,1677485901.484375
-109.09,1677485901.5
-107.5,1677485901.515625
-101.01,1677485901.53125
-89.94,1677485901.546875
-75.37,1677485901.5625
-58.77,1677485901.578125
-41.57,1677485901.59375
-24.9,1677485901.609375
-9.48,1677485901.625
4.32,1677485901.640625
16.27,1677485901.65625
26.16,1677485901.671875
33.73,1677485901.6875
38.75,1677485901.703125
41.11,1677485901.71875
40.92,1677485901.734375
38.65,1677485901.75
35.04,1677485901.765625
30.98,1677485901.78125
27.24,1677485901.796875
24.31,1677485901.8125
22.39,1677485901.828125
21.36,1677485901.84375
21.02,1677485901.859375
21.17,1677485901.875
21.61,1677485901.890625
22.05,1677485901.90625
22.1,1677485901.921875
21.34,1677485901.9375
19.51,1677485901.953125
16.66,1677485901.96875
13.2,1677485901.984375
9.76,1677485902.0
6.84,1677485902.015625
4.57,1677485902.03125
2.52,1677485902.046875
-0.1,1677485902.0625
-4.15,1677485902.078125
-10.11,1677485902.09375
-17.7,1677485902.109375
-25.79,1677485902.125
-32.6,1677485902.140625
-36.13,1677485902.15625
-34.85,1677485902.171875
-28.16,1677485902.1875
-16.6,1677485902.203125
-1.66,1677485902.21875
14.69,1677485902.234375
30.58,1677485902.25
44.68,1677485902.265625
56.28,1677485902.28125
65.15,1677485902.296875
71.28,1677485902.3125
74.61,1677485902.328125
75.11,1677485902.34375
72.82,1677485902.359375
67.98,1677485902.375
61.15,1677485902.390625
53.08,1677485902.40625
44.59,1677485902.421875
36.32,1677485902.4375
28.72,1677485902.453125
21.99,1677485902.46875
16.22,1677485902.484375
11.43,1677485902.5
7.58,1677485902.515625
4.46,1677485902.53125
1.68,1677485902.546875
-1.35,1677485902.5625
-5.25,1677485902.578125
-10.44,1677485902.59375
-16.96,1677485902.609375
-24.49,1677485902.625
-32.42,1677485902.640625
-40.13,1677485902.65625
-47.2,1677485902.671875
-53.56,1677485902.6875
-59.52,1677485902.703125
-65.63,1677485902.71875
-72.57,1677485902.734375
-80.75,1677485902.75
-90.12,1677485902.765625
-99.87,1677485902.78125
-108.4,1677485902.796875
-113.63,1677485902.8125
-113.6,1677485902.828125
-107.12,1677485902.84375
-94.23,1677485902.859375
-76.27,1677485902.875
-55.41,1677485902.890625
-33.95,1677485902.90625
-13.73,1677485902.921875
4.21,1677485902.9375
19.54,1677485902.953125
32.27,1677485902.96875
42.42,1677485902.984375
49.77,1677485903.0
53.99,1677485903.015625
54.84,1677485903.03125
52.44,1677485903.046875
47.44,1677485903.0625
40.97,1677485903.078125
34.35,1677485903.09375
28.81,1677485903.109375
25.06,1677485903.125
23.21,1677485903.140625
22.74,1677485903.15625
22.77,1677485903.171875
22.45,1677485903.1875
21.22,1677485903.203125
18.87,1677485903.21875
15.53,1677485903.234375
11.46,1677485903.25
6.92,1677485903.265625
2.12,1677485903.28125
-2.78,1677485903.296875
-7.64,1677485903.3125
-12.45,1677485903.328125
-17.34,1677485903.34375
-22.67,1677485903.359375
-28.92,1677485903.375
-36.45,1677485903.390625
-45.19,1677485903.40625
-54.35,1677485903.421875
-62.49,1677485903.4375
-67.82,1677485903.453125
-68.77,1677485903.46875
-64.54,1677485903.484375
-55.4,1677485903.5
-42.58,1677485903.515625
-27.78,1677485903.53125
-12.64,1677485903.546875
1.77,1677485903.5625
15.02,1677485903.578125
27.15,1677485903.59375
38.2,1677485903.609375
48.0,1677485903.625
56.05,1677485903.640625
61.81,1677485903.65625
64.97,1677485903.671875
65.77,1677485903.6875
64.86,1677485903.703125
63.1,1677485903.71875
61.17,1677485903.734375
59.37,1677485903.75
57.61,1677485903.765625
55.65,1677485903.78125
53.32,1677485903.796875
50.69,1677485903.8125
47.94,1677485903.828125
45.2,1677485903.84375
42.35,1677485903.859375
38.99,1677485903.875
34.6,1677485903.890625
28.76,1677485903.90625
21.35,1677485903.921875
12.65,1677485903.9375
3.22,1677485903.953125
-6.31,1677485903.96875
-15.34,1677485903.984375
-23.59,1677485904.0
-31.08,1677485904.015625
-38.14,1677485904.03125
-45.33,1677485904.046875
-53.32,1677485904.0625
-62.62,1677485904.078125
-73.31,1677485904.09375
-84.79,1677485904.109375
-95.64,1677485904.125
-103.77,1677485904.140625
-107.02,1677485904.15625
-103.73,1677485904.171875
-93.47,1677485904.1875
-77.15,1677485904.203125
-56.75,1677485904.21875
-34.68,1677485904.234375
-13.0,1677485904.25
7.01,1677485904.265625
24.89,1677485904.28125
40.58,1677485904.296875
53.99,1677485904.3125
64.7,1677485904.328125
72.1,1677485904.34375
75.73,1677485904.359375
75.73,1677485904.375
72.88,1677485904.390625
68.46,1677485904.40625
63.66,1677485904.421875
59.27,1677485904.4375
55.38,1677485904.453125
51.58,1677485904.46875
47.32,1677485904.484375
42.3,1677485904.5
36.66,1677485904.515625
30.89,1677485904.53125
25.56,1677485904.546875
21.0,1677485904.5625
17.14,1677485904.578125
13.52,1677485904.59375
9.5,1677485904.609375
4.53,1677485904.625
-1.62,1677485904.640625
-8.75,1677485904.65625
-16.35,1677485904.671875
-23.83,1677485904.6875
-30.71,1677485904.703125
-36.87,1677485904.71875
-42.56,1677485904.734375
-48.23,1677485904.75
-54.44,1677485904.765625
-61.57,1677485904.78125
-69.79,1677485904.796875
-78.86,1677485904.8125
-88.07,1677485904.828125
-96.15,1677485904.84375
-101.39,1677485904.859375
-102.0,1677485904.875
-96.69,1677485904.890625
-85.08,1677485904.90625
-68.0,1677485904.921875
-47.24,1677485904.9375
-24.98,1677485904.953125
-3.16,1677485904.96875
16.91,1677485904.984375
34.64,1677485905.0
49.8,1677485905.015625
62.26,1677485905.03125
71.76,1677485905.046875
77.97,1677485905.0625
80.71,1677485905.078125
80.13,1677485905.09375
76.81,1677485905.109375
71.59,1677485905.125
65.35,1677485905.140625
58.81,1677485905.15625
52.42,1677485905.171875
46.35,1677485905.1875
40.66,1677485905.203125
35.38,1677485905.21875
30.58,1677485905.234375
26.39,1677485905.25
22.81,1677485905.265625
19.71,1677485905.28125
16.67,1677485905.296875
13.14,1677485905.3125
8.59,1677485905.328125
2.74,1677485905.34375
-4.3,1677485905.359375
-11.98,1677485905.375
-19.52,1677485905.390625
-26.21,1677485905.40625
-31.69,1677485905.421875
-36.14,1677485905.4375
-40.17,1677485905.453125
-44.65,1677485905.46875
-50.39,1677485905.484375
-57.9,1677485905.5
-67.2,1677485905.515625
-77.7,1677485905.53125
-88.06,1677485905.546875
-96.39,1677485905.5625
-100.6,1677485905.578125
-98.89,1677485905.59375
-90.41,1677485905.609375
-75.54,1677485905.625
-55.91,1677485905.640625
-33.79,1677485905.65625
-11.5,1677485905.671875
9.26,1677485905.6875
27.5,1677485905.703125
42.86,1677485905.71875
55.22,1677485905.734375
64.41,1677485905.75
70.23,1677485905.765625
72.65,1677485905.78125
72.05,1677485905.796875
69.19,1677485905.8125
65.1,1677485905.828125
60.66,1677485905.84375
56.39,1677485905.859375
52.37,1677485905.875
48.4,1677485905.890625
44.32,1677485905.90625
40.16,1677485905.921875
36.19,1677485905.9375
32.68,1677485905.953125
29.66,1677485905.96875
26.77,1677485905.984375
23.35,1677485906.0
18.74,1677485906.015625
12.53,1677485906.03125
4.81,1677485906.046875
-3.92,1677485906.0625
-12.9,1677485906.078125
-21.43,1677485906.09375
-29.06,1677485906.109375
-35.74,1677485906.125
-41.8,1677485906.140625
-47.89,1677485906.15625
-54.79,1677485906.171875
-63.09,1677485906.1875
-72.78,1677485906.203125
-83.03,1677485906.21875
-92.11,1677485906.234375
-97.73,1677485906.25
-97.75,1677485906.265625
-90.89,1677485906.28125
-77.23,1677485906.296875
-58.21,1677485906.3125
-36.14,1677485906.328125
-13.5,1677485906.34375
7.72,1677485906.359375
26.25,1677485906.375
41.53,1677485906.390625
53.36,1677485906.40625
61.64,1677485906.421875
66.31,1677485906.4375
67.45,1677485906.453125
65.45,1677485906.46875
61.13,1677485906.484375
55.6,1677485906.5
49.96,1677485906.515625
45.02,1677485906.53125
41.03,1677485906.546875
37.76,1677485906.5625
34.66,1677485906.578125
31.28,1677485906.59375
27.42,1677485906.609375
23.32,1677485906.625
19.43,1677485906.640625
16.19,1677485906.65625
13.69,1677485906.671875
11.5,1677485906.6875
8.84,1677485906.703125
4.71,1677485906.71875
-1.56,1677485906.734375
-9.99,1677485906.75
-19.82,1677485906.765625
-29.6,1677485906.78125
-37.68,1677485906.796875
-42.65,1677485906.8125
-43.88,1677485906.828125
-41.63,1677485906.84375
-36.99,1677485906.859375
-31.52,1677485906.875
-26.81,1677485906.890625
-24.06,1677485906.90625
-23.83,1677485906.921875
-25.84,1677485906.9375
-29.05,1677485906.953125
-31.95,1677485906.96875
-32.93,1677485906.984375
-30.88,1677485907.0
-25.48,1677485907.015625
-17.27,1677485907.03125
-7.39,1677485907.046875
2.83,1677485907.0625
12.3,1677485907.078125
20.31,1677485907.09375
26.52,1677485907.109375
30.8,1677485907.125
33.1,1677485907.140625
33.5,1677485907.15625
32.23,1677485907.171875
29.75,1677485907.1875
26.71,1677485907.203125
23.8,1677485907.21875
21.6,1677485907.234375
20.38,1677485907.25
20.06,1677485907.265625
20.26,1677485907.28125
20.36,1677485907.296875
19.66,1677485907.3125
17.63,1677485907.328125
14.02,1677485907.34375
8.96,1677485907.359375
2.91,1677485907.375
-3.47,1677485907.390625
-9.6,1677485907.40625
-15.16,1677485907.421875
-20.18,1677485907.4375
-25.07,1677485907.453125
-30.46,1677485907.46875
-37.04,1677485907.484375
-45.26,1677485907.5
-55.09,1677485907.515625
-65.83,1677485907.53125
-76.05,1677485907.546875
-83.85,1677485907.5625
-87.26,1677485907.578125
-84.79,1677485907.59375
-75.86,1677485907.609375
-60.99,1677485907.625
-41.64,1677485907.640625
-19.8,1677485907.65625
2.53,1677485907.671875
23.66,1677485907.6875
42.52,1677485907.703125
58.48,1677485907.71875
71.33,1677485907.734375
80.98,1677485907.75
87.42,1677485907.765625
90.64,1677485907.78125
90.75,1677485907.796875
88.03,1677485907.8125
83.02,1677485907.828125
76.48,1677485907.84375
69.25,1677485907.859375
62.06,1677485907.875
55.48,1677485907.890625
49.79,1677485907.90625
45.02,1677485907.921875
41.01,1677485907.9375
37.43,1677485907.953125
33.87,1677485907.96875
29.91,1677485907.984375
25.17,1677485908.0
19.47,1677485908.015625
12.83,1677485908.03125
5.47,1677485908.046875
-2.32,1677485908.0625
-10.24,1677485908.078125
-18.08,1677485908.09375
-25.78,1677485908.109375
-33.37,1677485908.125
-41.09,1677485908.140625
-49.29,1677485908.15625
-58.34,1677485908.171875
-68.27,1677485908.1875
-78.43,1677485908.203125
-87.32,1677485908.21875
-92.81,1677485908.234375
-92.73,1677485908.25
-85.68,1677485908.265625
-71.67,1677485908.28125
-52.18,1677485908.296875
-29.7,1677485908.3125
-6.87,1677485908.328125
14.21,1677485908.34375
32.37,1677485908.359375
47.17,1677485908.375
58.59,1677485908.390625
66.64,1677485908.40625
71.3,1677485908.421875
72.64,1677485908.4375
70.99,1677485908.453125
66.96,1677485908.46875
61.3,1677485908.484375
54.66,1677485908.5
47.56,1677485908.515625
40.33,1677485908.53125
33.25,1677485908.546875
26.63,1677485908.5625
20.81,1677485908.578125
15.98,1677485908.59375
12.11,1677485908.609375
8.87,1677485908.625
5.7,1677485908.640625
1.98,1677485908.65625
-2.87,1677485908.671875
-9.22,1677485908.6875
-17.1,1677485908.703125
-26.13,1677485908.71875
-35.35,1677485908.734375
-43.32,1677485908.75
-48.44,1677485908.765625
-49.44,1677485908.78125
-46.01,1677485908.796875
-39.07,1677485908.8125
-30.65,1677485908.828125
-23.23,1677485908.84375
-18.8,1677485908.859375
-18.11,1677485908.875
-20.37,1677485908.890625
-23.76,1677485908.90625
-26.18,1677485908.921875
-26.11,1677485908.9375
-23.03,1677485908.953125
-17.32,1677485908.96875
-9.81,1677485908.984375
-1.29,1677485909.0
7.67,1677485909.015625
16.63,1677485909.03125
25.01,1677485909.046875
31.98,1677485909.0625
36.66,1677485909.078125
38.43,1677485909.09375
37.29,1677485909.109375
33.96,1677485909.125
29.62,1677485909.140625
25.45,1677485909.15625
22.19,1677485909.171875
19.93,1677485909.1875
18.16,1677485909.203125
16.11,1677485909.21875
13.08,1677485909.234375
8.82,1677485909.25
3.52,1677485909.265625
-2.23,1677485909.28125
-7.8,1677485909.296875
-12.77,1677485909.3125
-17.13,1677485909.328125
-21.28,1677485909.34375
-25.85,1677485909.359375
-31.45,1677485909.375
-38.47,1677485909.390625
-46.86,1677485909.40625
-56.0,1677485909.421875
-64.63,1677485909.4375
-71.01,1677485909.453125
-73.31,1677485909.46875
-70.07,1677485909.484375
-60.79,1677485909.5
-46.17,1677485909.515625
-27.94,1677485909.53125
-8.4,1677485909.546875
10.33,1677485909.5625
26.79,1677485909.578125
40.34,1677485909.59375
50.9,1677485909.609375
58.52,1677485909.625
63.09,1677485909.640625
64.39,1677485909.65625
62.26,1677485909.671875
57.02,1677485909.6875
49.52,1677485909.703125
41.02,1677485909.71875
32.82,1677485909.734375
25.84,1677485909.75
20.38,1677485909.765625
16.12,1677485909.78125
12.38,1677485909.796875
8.51,1677485909.8125
4.2,1677485909.828125
-0.44,1677485909.84375
-4.99,1677485909.859375
-9.04,1677485909.875
-12.44,1677485909.890625
-15.44,1677485909.90625
-18.64,1677485909.921875
-22.71,1677485909.9375
-28.26,1677485909.953125
-35.53,1677485909.96875
-44.3,1677485909.984375
-53.76,1677485910.0
-62.51,1677485910.015625
-68.72,1677485910.03125
-70.53,1677485910.046875
-66.57,1677485910.0625
-56.53,1677485910.078125
-41.32,1677485910.09375
-22.93,1677485910.109375
-3.75,1677485910.125
14.17,1677485910.140625
29.54,1677485910.15625
41.92,1677485910.171875
51.31,1677485910.1875
57.74,1677485910.203125
60.99,1677485910.21875
60.77,1677485910.234375
57.08,1677485910.25
50.54,1677485910.265625
42.38,1677485910.28125
34.15,1677485910.296875
27.13,1677485910.3125
21.85,1677485910.328125
18.06,1677485910.34375
14.9,1677485910.359375
11.47,1677485910.375
7.23,1677485910.390625
2.19,1677485910.40625
-3.24,1677485910.421875
-8.59,1677485910.4375
-13.61,1677485910.453125
-18.42,1677485910.46875
-23.38,1677485910.484375
-28.94,1677485910.5
-35.42,1677485910.515625
-43.0,1677485910.53125
-51.71,1677485910.546875
-61.24,1677485910.5625
-70.81,1677485910.578125
-79.02,1677485910.59375
-83.95,1677485910.609375
-83.74,1677485910.625
-77.14,1677485910.640625
-64.2,1677485910.65625
-46.33,1677485910.671875
-25.85,1677485910.6875
-5.32,1677485910.703125
13.26,1677485910.71875
28.79,1677485910.734375
40.98,1677485910.75
50.01,1677485910.765625
56.1,1677485910.78125
59.37,1677485910.796875
59.84,1677485910.8125
57.67,1677485910.828125
53.21,1677485910.84375
47.13,1677485910.859375
40.28,1677485910.875
33.46,1677485910.890625
27.21,1677485910.90625
21.68,1677485910.921875
16.56,1677485910.9375
11.28,1677485910.953125
5.33,1677485910.96875
-1.47,1677485910.984375
-8.86,1677485911.0
-16.28,1677485911.015625
-23.11,1677485911.03125
-29.09,1677485911.046875
-34.39,1677485911.0625
-39.58,1677485911.078125
-45.38,1677485911.09375
-52.44,1677485911.109375
-61.16,1677485911.125
-71.55,1677485911.140625
-83.14,1677485911.15625
-94.83,1677485911.171875
-104.85,1677485911.1875
-110.99,1677485911.203125
-111.08,1677485911.21875
-103.67,1677485911.234375
-88.58,1677485911.25
-67.05,1677485911.265625
-41.45,1677485911.28125
-14.52,1677485911.296875
11.35,1677485911.3125
34.63,1677485911.328125
54.67,1677485911.34375
71.41,1677485911.359375
84.91,1677485911.375
95.13,1677485911.390625
101.84,1677485911.40625
104.81,1677485911.421875
104.06,1677485911.4375
99.97,1677485911.453125
93.29,1677485911.46875
84.99,1677485911.484375
76.07,1677485911.5
67.35,1677485911.515625
59.34,1677485911.53125
52.23,1677485911.546875
45.86,1677485911.5625
39.87,1677485911.578125
33.86,1677485911.59375
27.52,1677485911.609375
20.72,1677485911.625
13.44,1677485911.640625
5.77,1677485911.65625
-2.26,1677485911.671875
-10.62,1677485911.6875
-19.29,1677485911.703125
-28.26,1677485911.71875
-37.58,1677485911.734375
-47.49,1677485911.75
-58.34,1677485911.765625
-70.4,1677485911.78125
-83.4,1677485911.796875
-96.15,1677485911.8125
-106.54,1677485911.828125
-111.92,1677485911.84375
-110.02,1677485911.859375
-99.68,1677485911.875
-81.4,1677485911.890625
-57.07,1677485911.90625
-29.46,1677485911.921875
-1.35,1677485911.9375
25.08,1677485911.953125
48.42,1677485911.96875
67.94,1677485911.984375
83.34,1677485912.0
94.53,1677485912.015625
101.57,1677485912.03125
104.73,1677485912.046875
104.55,1677485912.0625
101.75,1677485912.078125
97.14,1677485912.09375
91.36,1677485912.109375
84.87,1677485912.125
77.89,1677485912.140625
70.5,1677485912.15625
62.86,1677485912.171875
55.28,1677485912.1875
48.22,1677485912.203125
42.06,1677485912.21875
36.89,1677485912.234375
32.34,1677485912.25
27.6,1677485912.265625
21.78,1677485912.28125
14.22,1677485912.296875
4.87,1677485912.3125
-5.74,1677485912.328125
-16.63,1677485912.34375
-26.81,1677485912.359375
-35.63,1677485912.375
-43.04,1677485912.390625
-49.58,1677485912.40625
-56.24,1677485912.421875
-64.12,1677485912.4375
-73.98,1677485912.453125
-85.89,1677485912.46875
-98.89,1677485912.484375
-110.93,1677485912.5
-119.23,1677485912.515625
-121.1,1677485912.53125
-114.75,1677485912.546875
-99.95,1677485912.5625
-78.16,1677485912.578125
-51.97,1677485912.59375
-24.28,1677485912.609375
2.46,1677485912.625
26.75,1677485912.640625
47.91,1677485912.65625
65.75,1677485912.671875
80.11,1677485912.6875
90.73,1677485912.703125
97.29,1677485912.71875
99.74,1677485912.734375
98.45,1677485912.75
94.33,1677485912.765625
88.55,1677485912.78125
82.33,1677485912.796875
76.51,1677485912.8125
71.41,1677485912.828125
66.84,1677485912.84375
62.31,1677485912.859375
57.38,1677485912.875
51.91,1677485912.890625
46.1,1677485912.90625
40.43,1677485912.921875
35.25,1677485912.9375
30.59,1677485912.953125
26.05,1677485912.96875
20.89,1677485912.984375
14.39,1677485913.0
6.18,1677485913.015625
-3.59,1677485913.03125
-14.23,1677485913.046875
-24.8,1677485913.0625
-34.41,1677485913.078125
-42.53,1677485913.09375
-49.11,1677485913.109375
-54.58,1677485913.125
-59.7,1677485913.140625
-65.43,1677485913.15625
-72.63,1677485913.171875
-81.79,1677485913.1875
-92.69,1677485913.203125
-104.12,1677485913.21875
-113.94,1677485913.234375
-119.5,1677485913.25
-118.4,1677485913.265625
-109.28,1677485913.28125
-92.32,1677485913.296875
-69.25,1677485913.3125
-42.67,1677485913.328125
-15.34,1677485913.34375
10.57,1677485913.359375
33.74,1677485913.375
53.6,1677485913.390625
69.95,1677485913.40625
82.67,1677485913.421875
91.62,1677485913.4375
96.72,1677485913.453125
98.12,1677485913.46875
96.3,1677485913.484375
92.12,1677485913.5
86.57,1677485913.515625
80.62,1677485913.53125
74.92,1677485913.546875
69.75,1677485913.5625
64.96,1677485913.578125
60.26,1677485913.59375
55.32,1677485913.609375
50.08,1677485913.625
44.73,1677485913.640625
39.55,1677485913.65625
34.75,1677485913.671875
30.22,1677485913.6875
25.53,1677485913.703125
20.11,1677485913.71875
13.52,1677485913.734375
5.64,1677485913.75
-3.2,1677485913.765625
-12.34,1677485913.78125
-21.08,1677485913.796875
-28.92,1677485913.8125
-35.73,1677485913.828125
-41.75,1677485913.84375
-47.45,1677485913.859375
-53.35,1677485913.875
-59.92,1677485913.890625
-67.52,1677485913.90625
-76.2,1677485913.921875
-85.56,1677485913.9375
-94.51,1677485913.953125
-101.26,1677485913.96875
-103.62,1677485913.984375
-99.7,1677485914.0
-88.61,1677485914.015625
-70.88,1677485914.03125
-48.39,1677485914.046875
-23.7,1677485914.0625
0.74,1677485914.078125
23.26,1677485914.09375
43.06,1677485914.109375
59.95,1677485914.125
73.81,1677485914.140625
84.33,1677485914.15625
91.04,1677485914.171875
93.65,1677485914.1875
92.46,1677485914.203125
88.41,1677485914.21875
82.87,1677485914.234375
77.33,1677485914.25
72.83,1677485914.265625
69.73,1677485914.28125
67.7,1677485914.296875
65.89,1677485914.3125
63.4,1677485914.328125
59.66,1677485914.34375
54.7,1677485914.359375
49.16,1677485914.375
43.96,1677485914.390625
39.92,1677485914.40625
37.3,1677485914.421875
35.63,1677485914.4375
33.85,1677485914.453125
30.75,1677485914.46875
25.47,1677485914.484375
17.82,1677485914.5
8.33,1677485914.515625
-2.01,1677485914.53125
-12.15,1677485914.546875
-21.29,1677485914.5625
-29.01,1677485914.578125
-35.29,1677485914.59375
-40.47,1677485914.609375
-45.26,1677485914.625
-50.67,1677485914.640625
-57.64,1677485914.65625
-66.59,1677485914.671875
-76.88,1677485914.6875
-86.6,1677485914.703125
-93.04,1677485914.71875
-93.61,1677485914.734375
-86.93,1677485914.75
-73.39,1677485914.765625
-54.97,1677485914.78125
-34.4,1677485914.796875
-14.22,1677485914.8125
3.9,1677485914.828125
19.13,1677485914.84375
31.04,1677485914.859375
39.22,1677485914.875
43.15,1677485914.890625
42.52,1677485914.90625
37.69,1677485914.921875
29.87,1677485914.9375
20.91,1677485914.953125
12.75,1677485914.96875
6.81,1677485914.984375
3.62,1677485915.0
2.83,1677485915.015625
3.68,1677485915.03125
5.45,1677485915.046875
7.83,1677485915.0625
10.95,1677485915.078125
15.03,1677485915.09375
20.07,1677485915.109375
25.58,1677485915.125
30.59,1677485915.140625
33.93,1677485915.15625
34.71,1677485915.171875
32.62,1677485915.1875
28.1,1677485915.203125
22.1,1677485915.21875
15.8,1677485915.234375
10.1,1677485915.25
5.38,1677485915.265625
1.5,1677485915.28125
-1.99,1677485915.296875
-5.57,1677485915.3125
-9.46,1677485915.328125
-13.64,1677485915.34375
-17.89,1677485915.359375
-22.03,1677485915.375
-26.06,1677485915.390625
-30.16,1677485915.40625
-34.64,1677485915.421875
-39.71,1677485915.4375
-45.43,1677485915.453125
-51.64,1677485915.46875
-57.99,1677485915.484375
-63.93,1677485915.5
-68.78,1677485915.515625
-71.88,1677485915.53125
-72.65,1677485915.546875
-70.86,1677485915.5625
-66.66,1677485915.578125
-60.61,1677485915.59375
-53.54,1677485915.609375
-46.35,1677485915.625
-39.78,1677485915.640625
-34.29,1677485915.65625
-30.06,1677485915.671875
-27.08,1677485915.6875
-25.31,1677485915.703125
-24.71,1677485915.71875
-25.26,1677485915.734375
-26.88,1677485915.75
-29.35,1677485915.765625
-32.31,1677485915.78125
-35.33,1677485915.796875
-38.03,1677485915.8125
-40.22,1677485915.828125
-41.96,1677485915.84375
-43.54,1677485915.859375
-45.41,1677485915.875
-47.95,1677485915.890625
-51.33,1677485915.90625
-55.48,1677485915.921875
-60.03,1677485915.9375
-64.54,1677485915.953125
-68.61,1677485915.96875
-72.06,1677485915.984375
-74.93,1677485916.0
-77.52,1677485916.015625
-80.25,1677485916.03125
-83.62,1677485916.046875
-88.07,1677485916.0625
-93.81,1677485916.078125
-100.49,1677485916.09375
-107.06,1677485916.109375
-111.76,1677485916.125
-112.49,1677485916.140625
-107.41,1677485916.15625
-95.58,1677485916.171875
-77.29,1677485916.1875
-53.97,1677485916.203125
-27.75,1677485916.21875
-0.82,1677485916.234375
24.95,1677485916.25
48.18,1677485916.265625
67.95,1677485916.28125
83.63,1677485916.296875
94.92,1677485916.3125
101.87,1677485916.328125
104.96,1677485916.34375
105.07,1677485916.359375
103.3,1677485916.375
100.69,1677485916.390625
97.98,1677485916.40625
95.51,1677485916.421875
93.21,1677485916.4375
90.84,1677485916.453125
88.08,1677485916.46875
84.76,1677485916.484375
80.83,1677485916.5
76.33,1677485916.515625
71.35,1677485916.53125
65.87,1677485916.546875
59.83,1677485916.5625
53.09,1677485916.578125
45.56,1677485916.59375
37.3,1677485916.609375
28.58,1677485916.625
19.74,1677485916.640625
11.05,1677485916.65625
2.49,1677485916.671875
-6.33,1677485916.6875
-16.18,1677485916.703125
-27.92,1677485916.71875
-42.15,1677485916.734375
-58.85,1677485916.75
-77.08,1677485916.765625
-95.02,1677485916.78125
-110.25,1677485916.796875
-120.28,1677485916.8125
-123.24,1677485916.828125
-118.25,1677485916.84375
-105.73,1677485916.859375
-87.19,1677485916.875
-64.82,1677485916.890625
-40.91,1677485916.90625
-17.53,1677485916.921875
3.83,1677485916.9375
22.17,1677485916.953125
36.95,1677485916.96875
47.89,1677485916.984375
54.98,1677485917.0
58.51,1677485917.015625
59.02,1677485917.03125
57.29,1677485917.046875
54.19,1677485917.0625
50.57,1677485917.078125
47.06,1677485917.09375
43.99,1677485917.109375
41.39,1677485917.125
39.0,1677485917.140625
36.48,1677485917.15625
33.48,1677485917.171875
29.8,1677485917.1875
25.35,1677485917.203125
20.17,1677485917.21875
14.26,1677485917.234375
7.63,1677485917.25
0.33,1677485917.265625
-7.54,1677485917.28125
-15.68,1677485917.296875
-23.7,1677485917.3125
-31.2,1677485917.328125
-37.95,1677485917.34375
-44.04,1677485917.359375
-49.99,1677485917.375
-56.59,1677485917.390625
-64.69,1677485917.40625
-74.81,1677485917.421875
-86.77,1677485917.4375
-99.44,1677485917.453125
-110.74,1677485917.46875
-118.08,1677485917.484375
-118.96,1677485917.5
-111.75,1677485917.515625
-96.25,1677485917.53125
-73.7,1677485917.546875
-46.44,1677485917.5625
-17.15,1677485917.578125
11.76,1677485917.59375
38.61,1677485917.609375
62.45,1677485917.625
82.82,1677485917.640625
99.43,1677485917.65625
112.06,1677485917.671875
120.53,1677485917.6875
124.85,1677485917.703125
125.38,1677485917.71875
122.78,1677485917.734375
117.91,1677485917.75
111.68,1677485917.765625
104.85,1677485917.78125
97.97,1677485917.796875
91.42,1677485917.8125
85.36,1677485917.828125
79.75,1677485917.84375
74.4,1677485917.859375
68.92,1677485917.875
62.79,1677485917.890625
55.48,1677485917.90625
46.61,1677485917.921875
36.03,1677485917.9375
23.93,1677485917.953125
10.74,1677485917.96875
-2.94,1677485917.984375
-16.51,1677485918.0
-29.56,1677485918.015625
-41.99,1677485918.03125
-54.06,1677485918.046875
-66.31,1677485918.0625
-79.28,1677485918.078125
-93.01,1677485918.09375
-106.72,1677485918.109375
-118.65,1677485918.125
-126.42,1677485918.140625
-127.76,1677485918.15625
-121.36,1677485918.171875
-107.34,1677485918.1875
-87.28,1677485918.203125
-63.62,1677485918.21875
-38.88,1677485918.234375
-14.97,1677485918.25
7.0,1677485918.265625
26.5,1677485918.28125
43.21,1677485918.296875
56.68,1677485918.3125
66.35,1677485918.328125
71.86,1677485918.34375
73.34,1677485918.359375
71.54,1677485918.375
67.6,1677485918.390625
62.76,1677485918.40625
58.04,1677485918.421875
54.01,1677485918.4375
50.86,1677485918.453125
48.48,1677485918.46875
46.59,1677485918.484375
44.85,1677485918.5
42.85,1677485918.515625
40.16,1677485918.53125
36.38,1677485918.546875
31.27,1677485918.5625
24.8,1677485918.578125
17.21,1677485918.59375
8.87,1677485918.609375
0.19,1677485918.625
-8.5,1677485918.640625
-17.07,1677485918.65625
-25.63,1677485918.671875
-34.54,1677485918.6875
-44.24,1677485918.703125
-55.08,1677485918.71875
-66.96,1677485918.734375
-79.06,1677485918.75
-89.79,1677485918.765625
-97.06,1677485918.78125
-98.73,1677485918.796875
-93.31,1677485918.8125
-80.39,1677485918.828125
-60.85,1677485918.84375
-36.6,1677485918.859375
-10.06,1677485918.875
16.46,1677485918.890625
41.16,1677485918.90625
62.97,1677485918.921875
81.42,1677485918.9375
96.38,1677485918.953125
107.84,1677485918.96875
115.82,1677485918.984375
120.36,1677485919.0
121.72,1677485919.015625
120.46,1677485919.03125
117.41,1677485919.046875
113.49,1677485919.0625
109.55,1677485919.078125
106.12,1677485919.09375
103.44,1677485919.109375
101.55,1677485919.125
100.41,1677485919.140625
99.96,1677485919.15625
100.04,1677485919.171875
100.33,1677485919.1875
100.25,1677485919.203125
99.14,1677485919.21875
96.44,1677485919.234375
92.02,1677485919.25
86.2,1677485919.265625
79.7,1677485919.28125
73.26,1677485919.296875
67.35,1677485919.3125
61.92,1677485919.328125
56.35,1677485919.34375
49.64,1677485919.359375
40.73,1677485919.375
29.0,1677485919.390625
14.71,1677485919.40625
-0.68,1677485919.421875
-14.53,1677485919.4375
-23.6,1677485919.453125
-24.96,1677485919.46875
-16.94,1677485919.484375
0.14,1677485919.5
23.96,1677485919.515625
50.9,1677485919.53125
77.03,1677485919.546875
99.19,1677485919.5625
115.51,1677485919.578125
125.46,1677485919.59375
129.46,1677485919.609375
128.29,1677485919.625
122.69,1677485919.640625
113.16,1677485919.65625
100.01,1677485919.671875
83.45,1677485919.6875
63.7,1677485919.703125
41.15,1677485919.71875
16.48,1677485919.734375
-9.26,1677485919.75
-34.58,1677485919.765625
-57.66,1677485919.78125
-76.75,1677485919.796875
-90.55,1677485919.8125
-98.72,1677485919.828125
-102.01,1677485919.84375
-102.14,1677485919.859375
-101.18,1677485919.875
-100.97,1677485919.890625
-102.55,1677485919.90625
-106.02,1677485919.921875
-110.78,1677485919.9375
-115.96,1677485919.953125
-120.75,1677485919.96875
-124.73,1677485919.984375
-127.79,1677485920.0
-130.15,1677485920.015625
-132.24,1677485920.03125
-134.64,1677485920.046875
-137.88,1677485920.0625
-142.11,1677485920.078125
-146.84,1677485920.09375
-150.68,1677485920.109375
-151.64,1677485920.125
-147.69,1677485920.140625
-137.5,1677485920.15625
-120.97,1677485920.171875
-99.3,1677485920.1875
-74.58,1677485920.203125
-49.14,1677485920.21875
-25.03,1677485920.234375
-3.62,1677485920.25
14.24,1677485920.265625
28.15,1677485920.28125
37.92,1677485920.296875
43.59,1677485920.3125
45.47,1677485920.328125
44.31,1677485920.34375
41.1,1677485920.359375
37.05,1677485920.375
33.24,1677485920.390625
30.45,1677485920.40625
29.03,1677485920.421875
28.97,1677485920.4375
29.98,1677485920.453125
31.61,1677485920.46875
33.25,1677485920.484375
34.2,1677485920.5
33.67,1677485920.515625
30.96,1677485920.53125
25.58,1677485920.546875
17.6,1677485920.5625
7.61,1677485920.578125
-3.37,1677485920.59375
-14.24,1677485920.609375
-24.14,1677485920.625
-32.71,1677485920.640625
-40.08,1677485920.65625
-46.79,1677485920.671875
-53.63,1677485920.6875
-61.35,1677485920.703125
-70.49,1677485920.71875
-80.97,1677485920.734375
-91.9,1677485920.75
-101.47,1677485920.765625
-107.24,1677485920.78125
-106.84,1677485920.796875
-98.7,1677485920.8125
-82.73,1677485920.828125
-60.32,1677485920.84375
-33.98,1677485920.859375
-6.49,1677485920.875
19.82,1677485920.890625
43.54,1677485920.90625
64.14,1677485920.921875
81.59,1677485920.9375
95.93,1677485920.953125
107.05,1677485920.96875
114.7,1677485920.984375
118.76,1677485921.0
119.44,1677485921.015625
117.31,1677485921.03125
113.21,1677485921.046875
108.02,1677485921.0625
102.47,1677485921.078125
97.03,1677485921.09375
91.97,1677485921.109375
87.44,1677485921.125
83.5,1677485921.140625
80.13,1677485921.15625
77.17,1677485921.171875
74.28,1677485921.1875
71.07,1677485921.203125
67.29,1677485921.21875
62.96,1677485921.234375
58.45,1677485921.25
54.28,1677485921.265625
50.93,1677485921.28125
48.58,1677485921.296875
47.02,1677485921.3125
45.67,1677485921.328125
43.75,1677485921.34375
40.47,1677485921.359375
35.31,1677485921.375
28.27,1677485921.390625
20.05,1677485921.40625
12.1,1677485921.421875
6.34,1677485921.4375
4.68,1677485921.453125
8.4,1677485921.46875
17.6,1677485921.484375
31.07,1677485921.5
46.66,1677485921.515625
61.96,1677485921.53125
75.07,1677485921.546875
85.01,1677485921.5625
91.7,1677485921.578125
95.49,1677485921.59375
96.66,1677485921.609375
94.94,1677485921.625
89.57,1677485921.640625
79.57,1677485921.65625
64.32,1677485921.671875
43.99,1677485921.6875
19.62,1677485921.703125
-7.01,1677485921.71875
-33.81,1677485921.734375
-58.87,1677485921.75
-80.72,1677485921.765625
-98.45,1677485921.78125
-111.7,1677485921.796875
-120.52,1677485921.8125
-125.41,1677485921.828125
-127.21,1677485921.84375
-127.04,1677485921.859375
-126.17,1677485921.875
-125.65,1677485921.890625
-126.15,1677485921.90625
-127.8,1677485921.921875
-130.26,1677485921.9375
-132.96,1677485921.953125
-135.34,1677485921.96875
-137.04,1677485921.984375
-138.0,1677485922.0
-138.37,1677485922.015625
-138.49,1677485922.03125
-138.79,1677485922.046875
-139.66,1677485922.0625
-141.17,1677485922.078125
-142.82,1677485922.09375
-143.42,1677485922.109375
-141.17,1677485922.125
-134.1,1677485922.140625
-120.76,1677485922.15625
-100.73,1677485922.171875
-74.92,1677485922.1875
-45.27,1677485922.203125
-14.25,1677485922.21875
15.88,1677485922.234375
43.54,1677485922.25
67.85,1677485922.265625
88.41,1677485922.28125
104.97,1677485922.296875
117.24,1677485922.3125
124.9,1677485922.328125
127.98,1677485922.34375
127.03,1677485922.359375
123.13,1677485922.375
117.61,1677485922.390625
111.7,1677485922.40625
106.12,1677485922.421875
101.06,1677485922.4375
96.32,1677485922.453125
91.57,1677485922.46875
86.61,1677485922.484375
81.46,1677485922.5
76.23,1677485922.515625
71.08,1677485922.53125
66.08,1677485922.546875
61.29,1677485922.5625
56.72,1677485922.578125
52.33,1677485922.59375
48.03,1677485922.609375
43.65,1677485922.625
39.03,1677485922.640625
33.99,1677485922.65625
28.4,1677485922.671875
22.02,1677485922.6875
14.41,1677485922.703125
5.07,1677485922.71875
-6.33,1677485922.734375
-19.49,1677485922.75
-33.19,1677485922.765625
-45.33,1677485922.78125
-53.47,1677485922.796875
-55.65,1677485922.8125
-51.14,1677485922.828125
-40.73,1677485922.84375
-26.46,1677485922.859375
-10.8,1677485922.875
4.1,1677485922.890625
16.96,1677485922.90625
27.38,1677485922.921875
35.48,1677485922.9375
41.49,1677485922.953125
45.38,1677485922.96875
46.91,1677485922.984375
45.87,1677485923.0
42.36,1677485923.015625
36.91,1677485923.03125
30.44,1677485923.046875
23.94,1677485923.0625
18.17,1677485923.078125
13.4,1677485923.09375
9.45,1677485923.109375
5.92,1677485923.125
2.42,1677485923.140625
-1.27,1677485923.15625
-5.24,1677485923.171875
-9.55,1677485923.1875
-14.43,1677485923.203125
-20.23,1677485923.21875
-27.26,1677485923.234375
-35.52,1677485923.25
-44.59,1677485923.265625
-53.69,1677485923.28125
-62.04,1677485923.296875
-69.22,1677485923.3125
-75.38,1677485923.328125
-81.25,1677485923.34375
-87.79,1677485923.359375
-95.83,1677485923.375
-105.52,1677485923.390625
-116.05,1677485923.40625
-125.71,1677485923.421875
-132.18,1677485923.4375
-133.17,1677485923.453125
-127.05,1677485923.46875
-113.34,1677485923.484375
-92.82,1677485923.5
-67.29,1677485923.515625
-38.99,1677485923.53125
-10.08,1677485923.546875
17.85,1677485923.5625
43.81,1677485923.578125
67.37,1677485923.59375
88.3,1677485923.609375
106.3,1677485923.625
120.97,1677485923.640625
131.77,1677485923.65625
138.23,1677485923.671875
140.18,1677485923.6875
137.77,1677485923.703125
131.45,1677485923.71875
121.88,1677485923.734375
109.73,1677485923.75
95.65,1677485923.765625
80.26,1677485923.78125
64.11,1677485923.796875
47.72,1677485923.8125
31.52,1677485923.828125
15.85,1677485923.84375
0.94,1677485923.859375
-13.07,1677485923.875
-26.09,1677485923.890625
-37.97,1677485923.90625
-48.48,1677485923.921875
-57.34,1677485923.9375
-64.27,1677485923.953125
-69.06,1677485923.96875
-71.74,1677485923.984375
-72.59,1677485924.0
-72.26,1677485924.015625
-71.7,1677485924.03125
-71.99,1677485924.046875
-74.07,1677485924.0625
-78.5,1677485924.078125
-85.11,1677485924.09375
-92.84,1677485924.109375
-99.85,1677485924.125
-103.84,1677485924.140625
-102.63,1677485924.15625
-94.91,1677485924.171875
-80.67,1677485924.1875
-61.23,1677485924.203125
-38.86,1677485924.21875
-16.0,1677485924.234375
5.41,1677485924.25
24.25,1677485924.265625
40.22,1677485924.28125
53.46,1677485924.296875
64.14,1677485924.3125
72.3,1677485924.328125
77.8,1677485924.34375
80.56,1677485924.359375
80.73,1677485924.375
78.8,1677485924.390625
75.5,1677485924.40625
71.73,1677485924.421875
68.21,1677485924.4375
65.36,1677485924.453125
63.18,1677485924.46875
61.3,1677485924.484375
59.14,1677485924.5
56.19,1677485924.515625
52.29,1677485924.53125
47.62,1677485924.546875
42.52,1677485924.5625
37.31,1677485924.578125
31.93,1677485924.59375
26.03,1677485924.609375
19.12,1677485924.625
10.85,1677485924.640625
1.3,1677485924.65625
-9.05,1677485924.671875
-19.46,1677485924.6875
-29.27,1677485924.703125
-38.1,1677485924.71875
-45.97,1677485924.734375
-53.23,1677485924.75
-60.44,1677485924.765625
-68.17,1677485924.78125
-76.92,1677485924.796875
-86.92,1677485924.8125
-97.87,1677485924.828125
-108.76,1677485924.84375
-117.86,1677485924.859375
-123.01,1677485924.875
-122.26,1677485924.890625
-114.47,1677485924.90625
-99.81,1677485924.921875
-79.72,1677485924.9375
-56.46,1677485924.953125
-32.38,1677485924.96875
-9.34,1677485924.984375
11.54,1677485925.0
29.8,1677485925.015625
45.29,1677485925.03125
57.88,1677485925.046875
67.38,1677485925.0625
73.53,1677485925.078125
76.31,1677485925.09375
75.98,1677485925.109375
73.15,1677485925.125
68.64,1677485925.140625
63.35,1677485925.15625
58.06,1677485925.171875
53.31,1677485925.1875
49.33,1677485925.203125
46.1,1677485925.21875
43.37,1677485925.234375
40.82,1677485925.25
38.19,1677485925.265625
35.29,1677485925.28125
32.03,1677485925.296875
28.33,1677485925.3125
24.08,1677485925.328125
19.14,1677485925.34375
13.42,1677485925.359375
7.03,1677485925.375
0.27,1677485925.390625
-6.33,1677485925.40625
-12.16,1677485925.421875
-16.75,1677485925.4375
-19.95,1677485925.453125
-21.97,1677485925.46875
-23.43,1677485925.484375
-25.1,1677485925.5
-27.68,1677485925.515625
-31.56,1677485925.53125
-36.7,1677485925.546875
-42.7,1677485925.5625
-48.89,1677485925.578125
-54.53,1677485925.59375
-58.97,1677485925.609375
-61.74,1677485925.625
-62.5,1677485925.640625
-61.07,1677485925.65625
-57.37,1677485925.671875
-51.48,1677485925.6875
-43.63,1677485925.703125
-34.31,1677485925.71875
-24.14,1677485925.734375
-13.9,1677485925.75
-4.36,1677485925.765625
3.84,1677485925.78125
10.21,1677485925.796875
14.59,1677485925.8125
17.09,1677485925.828125
18.03,1677485925.84375
17.87,1677485925.859375
17.12,1677485925.875
16.21,1677485925.890625
15.37,1677485925.90625
14.67,1677485925.921875
13.9,1677485925.9375
12.78,1677485925.953125
11.04,1677485925.96875
8.66,1677485925.984375
5.78,1677485926.0
2.75,1677485926.015625
-0.17,1677485926.03125
-2.97,1677485926.046875
-5.92,1677485926.0625
-9.48,1677485926.078125
-14.07,1677485926.09375
-19.82,1677485926.109375
-26.44,1677485926.125
-33.38,1677485926.140625
-40.06,1677485926.15625
-46.09,1677485926.171875
-51.4,1677485926.1875
-56.2,1677485926.203125
-60.89,1677485926.21875
-66.05,1677485926.234375
-72.31,1677485926.25
-80.22,1677485926.265625
-89.87,1677485926.28125
-100.57,1677485926.296875
-110.64,1677485926.3125
-117.59,1677485926.328125
-118.87,1677485926.34375
-112.72,1677485926.359375
-98.81,1677485926.375
-78.45,1677485926.390625
-54.13,1677485926.40625
-28.61,1677485926.421875
-4.13,1677485926.4375
18.01,1677485926.453125
37.45,1677485926.46875
54.28,1677485926.484375
68.54,1677485926.5
79.97,1677485926.515625
88.08,1677485926.53125
92.49,1677485926.546875
93.29,1677485926.5625
91.2,1677485926.578125
87.41,1677485926.59375
83.2,1677485926.609375
79.43,1677485926.625
76.32,1677485926.640625
73.51,1677485926.65625
70.41,1677485926.671875
66.6,1677485926.6875
62.11,1677485926.703125
57.25,1677485926.71875
52.44,1677485926.734375
47.84,1677485926.75
43.27,1677485926.765625
38.28,1677485926.78125
32.42,1677485926.796875
25.44,1677485926.8125
17.39,1677485926.828125
8.56,1677485926.84375
-0.61,1677485926.859375
-9.7,1677485926.875
-18.4,1677485926.890625
-26.56,1677485926.90625
-34.19,1677485926.921875
-41.39,1677485926.9375
-48.44,1677485926.953125
-55.69,1677485926.96875
-63.61,1677485926.984375
-72.61,1677485927.0
-82.8,1677485927.015625
-93.69,1677485927.03125
-103.94,1677485927.046875
-111.51,1677485927.0625
-114.07,1677485927.078125
-109.78,1677485927.09375
-97.99,1677485927.109375
-79.52,1677485927.125
-56.44,1677485927.140625
-31.34,1677485927.15625
-6.55,1677485927.171875
16.36,1677485927.1875
36.67,1677485927.203125
54.18,1677485927.21875
68.81,1677485927.234375
80.3,1677485927.25
88.31,1677485927.265625
92.6,1677485927.28125
93.3,1677485927.296875
91.09,1677485927.3125
87.02,1677485927.328125
82.22,1677485927.34375
77.6,1677485927.359375
73.51,1677485927.375
69.76,1677485927.390625
65.83,1677485927.40625
61.27,1677485927.421875
55.98,1677485927.4375
50.25,1677485927.453125
44.66,1677485927.46875
39.63,1677485927.484375
35.23,1677485927.5
31.0,1677485927.515625
26.18,1677485927.53125
20.03,1677485927.546875
12.19,1677485927.5625
2.86,1677485927.578125
-7.26,1677485927.59375
-17.25,1677485927.609375
-26.35,1677485927.625
-34.23,1677485927.640625
-41.09,1677485927.65625
-47.52,1677485927.671875
-54.24,1677485927.6875
-61.88,1677485927.703125
-70.84,1677485927.71875
-81.2,1677485927.734375
-92.62,1677485927.75
-104.24,1677485927.765625
-114.47,1677485927.78125
-121.16,1677485927.796875
-122.07,1677485927.8125
-115.53,1677485927.828125
-101.2,1677485927.84375
-80.28,1677485927.859375
-55.21,1677485927.875
-28.82,1677485927.890625
-3.52,1677485927.90625
19.22,1677485927.921875
38.87,1677485927.9375
55.33,1677485927.953125
68.52,1677485927.96875
78.2,1677485927.984375
84.07,1677485928.0
86.15,1677485928.015625
85.03,1677485928.03125
81.78,1677485928.046875
77.65,1677485928.0625
73.59,1677485928.078125
70.04,1677485928.09375
66.87,1677485928.109375
63.65,1677485928.125
60.03,1677485928.140625
55.92,1677485928.15625
51.61,1677485928.171875
47.48,1677485928.1875
43.77,1677485928.203125
40.34,1677485928.21875
36.66,1677485928.234375
31.95,1677485928.25
25.56,1677485928.265625
17.24,1677485928.28125
7.27,1677485928.296875
-3.55,1677485928.3125
-14.22,1677485928.328125
-23.85,1677485928.34375
-32.02,1677485928.359375
-38.83,1677485928.375
-44.93,1677485928.390625
-51.3,1677485928.40625
-58.91,1677485928.421875
-68.44,1677485928.4375
-79.91,1677485928.453125
-92.43,1677485928.46875
-104.19,1677485928.484375
-112.74,1677485928.5
-115.66,1677485928.515625
-111.19,1677485928.53125
-98.91,1677485928.546875
-79.85,1677485928.5625
-56.25,1677485928.578125
-30.71,1677485928.59375
-5.58,1677485928.609375
17.6,1677485928.625
38.07,1677485928.640625
55.53,1677485928.65625
69.73,1677485928.671875
80.3,1677485928.6875
86.83,1677485928.703125
89.23,1677485928.71875
87.98,1677485928.734375
84.14,1677485928.75
79.04,1677485928.765625
73.87,1677485928.78125
69.24,1677485928.796875
65.07,1677485928.8125
60.79,1677485928.828125
55.84,1677485928.84375
49.97,1677485928.859375
43.49,1677485928.875
37.07,1677485928.890625
31.33,1677485928.90625
26.51,1677485928.921875
22.24,1677485928.9375
17.71,1677485928.953125
12.0,1677485928.96875
4.55,1677485928.984375
-4.61,1677485929.0
-14.89,1677485929.015625
-25.38,1677485929.03125
-35.24,1677485929.046875
-44.02,1677485929.0625
-51.73,1677485929.078125
-58.8,1677485929.09375
-65.83,1677485929.109375
-73.5,1677485929.125
-82.33,1677485929.140625
-92.66,1677485929.15625
-104.39,1677485929.171875
-116.64,1677485929.1875
-127.62,1677485929.203125
-134.83,1677485929.21875
-135.63,1677485929.234375
-128.14,1677485929.25
-111.98,1677485929.265625
-88.57,1677485929.28125
-60.64,1677485929.296875
-31.39,1677485929.3125
-3.45,1677485929.328125
21.6,1677485929.34375
43.31,1677485929.359375
61.79,1677485929.375
77.23,1677485929.390625
89.49,1677485929.40625
98.18,1677485929.421875
103.06,1677485929.4375
104.26,1677485929.453125
102.58,1677485929.46875
99.23,1677485929.484375
95.43,1677485929.5
91.97,1677485929.515625
88.99,1677485929.53125
86.02,1677485929.546875
82.41,1677485929.5625
77.78,1677485929.578125
72.29,1677485929.59375
66.6,1677485929.609375
61.49,1677485929.625
57.4,1677485929.640625
54.18,1677485929.65625
51.11,1677485929.671875
47.19,1677485929.6875
41.64,1677485929.703125
34.22,1677485929.71875
25.23,1677485929.734375
15.43,1677485929.75
5.61,1677485929.765625
-3.66,1677485929.78125
-12.28,1677485929.796875
-20.53,1677485929.8125
-29.03,1677485929.828125
-38.51,1677485929.84375
-49.71,1677485929.859375
-63.23,1677485929.875
-79.47,1677485929.890625
-98.33,1677485929.90625
-118.91,1677485929.921875
-139.29,1677485929.9375
-156.56,1677485929.953125
-167.43,1677485929.96875
-169.16,1677485929.984375
-160.51,1677485930.0
-142.18,1677485930.015625
-116.65,1677485930.03125
-87.22,1677485930.046875
-57.0,1677485930.0625
-28.09,1677485930.078125
-1.49,1677485930.09375
22.45,1677485930.109375
43.36,1677485930.125
60.52,1677485930.140625
72.91,1677485930.15625
79.87,1677485930.171875
81.58,1677485930.1875
79.26,1677485930.203125
74.88,1677485930.21875
70.33,1677485930.234375
66.84,1677485930.25
64.55,1677485930.265625
62.78,1677485930.28125
60.52,1677485930.296875
57.13,1677485930.3125
52.6,1677485930.328125
47.5,1677485930.34375
42.54,1677485930.359375
38.13,1677485930.375
34.02,1677485930.390625
29.49,1677485930.40625
23.63,1677485930.421875
15.88,1677485930.4375
6.31,1677485930.453125
-4.37,1677485930.46875
-15.12,1677485930.484375
-24.98,1677485930.5
-33.44,1677485930.515625
-40.58,1677485930.53125
-47.02,1677485930.546875
-53.67,1677485930.5625
-61.47,1677485930.578125
-71.07,1677485930.59375
-82.68,1677485930.609375
-95.76,1677485930.625
-108.95,1677485930.640625
-120.12,1677485930.65625
-126.7,1677485930.671875
-126.32,1677485930.6875
-117.58,1677485930.703125
-100.51,1677485930.71875
-76.65,1677485930.734375
-48.61,1677485930.75
-19.21,1677485930.765625
9.18,1677485930.78125
35.1,1677485930.796875
57.86,1677485930.8125
77.18,1677485930.828125
92.78,1677485930.84375
104.19,1677485930.859375
111.0,1677485930.875
113.14,1677485930.890625
111.27,1677485930.90625
106.62,1677485930.921875
100.78,1677485930.9375
95.05,1677485930.953125
90.1,1677485930.96875
85.84,1677485930.984375
81.67,1677485931.0
76.97,1677485931.015625
71.45,1677485931.03125
65.37,1677485931.046875
59.31,1677485931.0625
53.8,1677485931.078125
48.94,1677485931.09375
44.24,1677485931.109375
38.83,1677485931.125
31.78,1677485931.140625
22.56,1677485931.15625
11.26,1677485931.171875
-1.35,1677485931.1875
-14.17,1677485931.203125
-26.08,1677485931.21875
-36.39,1677485931.234375
-45.01,1677485931.25
-52.43,1677485931.265625
-59.6,1677485931.28125
-67.62,1677485931.296875
-77.4,1677485931.3125
-89.37,1677485931.328125
-103.19,1677485931.34375
-117.56,1677485931.359375
-130.25,1677485931.375
-138.51,1677485931.390625
-139.75,1677485931.40625
-132.28,1677485931.421875
-115.98,1677485931.4375
-92.31,1677485931.453125
-63.88,1677485931.46875
-33.64,1677485931.484375
-4.08,1677485931.5
23.22,1677485931.515625
47.56,1677485931.53125
68.67,1677485931.546875
86.31,1677485931.5625
99.99,1677485931.578125
109.21,1677485931.59375
113.68,1677485931.609375
113.76,1677485931.625
110.39,1677485931.640625
104.89,1677485931.65625
98.57,1677485931.671875
92.35,1677485931.6875
86.68,1677485931.703125
81.58,1677485931.71875
76.79,1677485931.734375
72.03,1677485931.75
67.01,1677485931.765625
61.56,1677485931.78125
55.59,1677485931.796875
49.13,1677485931.8125
42.25,1677485931.828125
35.03,1677485931.84375
27.46,1677485931.859375
19.49,1677485931.875
10.96,1677485931.890625
1.76,1677485931.90625
-8.07,1677485931.921875
-18.25,1677485931.9375
-28.34,1677485931.953125
-37.92,1677485931.96875
-46.72,1677485931.984375
-54.71,1677485932.0
-62.13,1677485932.015625
-69.38,1677485932.03125
-77.06,1677485932.046875
-85.8,1677485932.0625
-96.21,1677485932.078125
-108.47,1677485932.09375
-122.02,1677485932.109375
-135.24,1677485932.125
-145.57,1677485932.140625
-150.09,1677485932.15625
-146.4,1677485932.171875
-133.48,1677485932.1875
-112.05,1677485932.203125
-84.38,1677485932.21875
-53.44,1677485932.234375
-22.1,1677485932.25
7.52,1677485932.265625
34.22,1677485932.28125
57.43,1677485932.296875
76.86,1677485932.3125
92.27,1677485932.328125
103.41,1677485932.34375
110.22,1677485932.359375
112.97,1677485932.375
112.29,1677485932.390625
109.05,1677485932.40625
104.19,1677485932.421875
98.55,1677485932.4375
92.79,1677485932.453125
87.29,1677485932.46875
82.26,1677485932.484375
77.67,1677485932.5
73.34,1677485932.515625
69.0,1677485932.53125
64.33,1677485932.546875
59.07,1677485932.5625
53.08,1677485932.578125
46.31,1677485932.59375
38.84,1677485932.609375
30.75,1677485932.625
22.11,1677485932.640625
13.0,1677485932.65625
3.51,1677485932.671875
-6.17,1677485932.6875
-15.78,1677485932.703125
-25.05,1677485932.71875
-33.74,1677485932.734375
-41.73,1677485932.75
-49.05,1677485932.765625
-55.88,1677485932.78125
-62.49,1677485932.796875
-69.32,1677485932.8125
-76.92,1677485932.828125
-85.89,1677485932.84375
-96.73,1677485932.859375
-109.36,1677485932.875
-122.82,1677485932.890625
-135.1,1677485932.90625
-143.37,1677485932.921875
-144.73,1677485932.9375
-137.19,1677485932.953125
-120.39,1677485932.96875
-95.81,1677485932.984375
-66.32,1677485933.0
-35.22,1677485933.015625
-5.3,1677485933.03125
21.7,1677485933.046875
45.08,1677485933.0625
64.76,1677485933.078125
80.72,1677485933.09375
92.83,1677485933.109375
100.85,1677485933.125
104.71,1677485933.140625
104.81,1677485933.15625
102.07,1677485933.171875
97.72,1677485933.1875
93.0,1677485933.203125
88.76,1677485933.21875
85.28,1677485933.234375
82.37,1677485933.25
79.48,1677485933.265625
76.1,1677485933.28125
71.95,1677485933.296875
67.16,1677485933.3125
62.1,1677485933.328125
57.16,1677485933.34375
52.49,1677485933.359375
47.77,1677485933.375
42.36,1677485933.390625
35.55,1677485933.40625
26.95,1677485933.421875
16.79,1677485933.4375
5.82,1677485933.453125
-4.91,1677485933.46875
-14.53,1677485933.484375
-22.65,1677485933.5
-29.51,1677485933.515625
-35.76,1677485933.53125
-42.31,1677485933.546875
-50.0,1677485933.5625
-59.49,1677485933.578125
-71.11,1677485933.59375
-84.49,1677485933.609375
-98.46,1677485933.625
-110.82,1677485933.640625
-118.75,1677485933.65625
-119.48,1677485933.671875
-111.22,1677485933.6875
-93.88,1677485933.703125
-69.25,1677485933.71875
-40.44,1677485933.734375
-10.92,1677485933.75
16.43,1677485933.765625
39.98,1677485933.78125
59.3,1677485933.796875
74.68,1677485933.8125
86.53,1677485933.828125
95.02,1677485933.84375
100.06,1677485933.859375
101.59,1677485933.875
99.99,1677485933.890625
96.2,1677485933.90625
91.62,1677485933.921875
87.56,1677485933.9375
84.77,1677485933.953125
83.12,1677485933.96875
81.79,1677485933.984375
79.76,1677485934.0
76.42,1677485934.015625
71.86,1677485934.03125
66.87,1677485934.046875
62.44,1677485934.0625
59.17,1677485934.078125
56.89,1677485934.09375
54.71,1677485934.109375
51.34,1677485934.125
45.68,1677485934.140625
37.18,1677485934.15625
26.04,1677485934.171875
12.94,1677485934.1875
-1.24,1677485934.203125
-15.64,1677485934.21875
-29.61,1677485934.234375
-42.69,1677485934.25
-54.64,1677485934.265625
-65.46,1677485934.28125
-75.54,1677485934.296875
-85.54,1677485934.3125
-96.19,1677485934.328125
-107.74,1677485934.34375
-119.35,1677485934.359375
-129.0,1677485934.375
-133.82,1677485934.390625
-131.07,1677485934.40625
-119.22,1677485934.421875
-98.73,1677485934.4375
-71.98,1677485934.453125
-42.52,1677485934.46875
-13.87,1677485934.484375
11.41,1677485934.5
32.22,1677485934.515625
48.61,1677485934.53125
61.1,1677485934.546875
70.08,1677485934.5625
75.53,1677485934.578125
77.25,1677485934.59375
75.31,1677485934.609375
70.39,1677485934.625
63.79,1677485934.640625
57.08,1677485934.65625
51.52,1677485934.671875
47.62,1677485934.6875
45.05,1677485934.703125
42.92,1677485934.71875
40.31,1677485934.734375
36.7,1677485934.75
32.21,1677485934.765625
27.36,1677485934.78125
22.67,1677485934.796875
18.35,1677485934.8125
14.06,1677485934.828125
9.13,1677485934.84375
2.88,1677485934.859375
-5.07,1677485934.875
-14.57,1677485934.890625
-24.95,1677485934.90625
-35.33,1677485934.921875
-44.85,1677485934.9375
-52.99,1677485934.953125
-59.72,1677485934.96875
-65.5,1677485934.984375
-71.11,1677485935.0
-77.48,1677485935.015625
-85.44,1677485935.03125
-95.52,1677485935.046875
-107.7,1677485935.0625
-121.26,1677485935.078125
-134.6,1677485935.09375
-145.4,1677485935.109375
-151.04,1677485935.125
-149.23,1677485935.140625
-138.78,1677485935.15625
-120.04,1677485935.171875
-94.8,1677485935.1875
-65.81,1677485935.203125
-35.9,1677485935.21875
-7.31,1677485935.234375
18.62,1677485935.25
41.3,1677485935.265625
60.51,1677485935.28125
76.01,1677485935.296875
87.45,1677485935.3125
94.57,1677485935.328125
97.43,1677485935.34375
96.6,1677485935.359375
93.08,1677485935.375
88.06,1677485935.390625
82.61,1677485935.40625
77.43,1677485935.421875
72.8,1677485935.4375
68.63,1677485935.453125
64.71,1677485935.46875
60.83,1677485935.484375
56.9,1677485935.5
52.98,1677485935.515625
49.12,1677485935.53125
45.33,1677485935.546875
41.45,1677485935.5625
37.14,1677485935.578125
31.98,1677485935.59375
25.6,1677485935.609375
17.92,1677485935.625
9.24,1677485935.640625
0.2,1677485935.65625
-8.44,1677485935.671875
-16.08,1677485935.6875
-22.51,1677485935.703125
-28.03,1677485935.71875
-33.25,1677485935.734375
-38.89,1677485935.75
-45.47,1677485935.765625
-53.28,1677485935.78125
-62.23,1677485935.796875
-71.83,1677485935.8125
-81.04,1677485935.828125
-88.29,1677485935.84375
-91.58,1677485935.859375
-89.08,1677485935.875
-79.76,1677485935.890625
-64.02,1677485935.90625
-43.73,1677485935.921875
-21.72,1677485935.9375
-0.78,1677485935.953125
17.29,1677485935.96875
32.04,1677485935.984375
44.05,1677485936.0
54.18,1677485936.015625
62.8,1677485936.03125
69.49,1677485936.046875
73.36,1677485936.0625
73.72,1677485936.078125
70.67,1677485936.09375
65.27,1677485936.109375
59.12,1677485936.125
53.69,1677485936.140625
49.86,1677485936.15625
47.6,1677485936.171875
46.43,1677485936.1875
45.74,1677485936.203125
45.26,1677485936.21875
45.0,1677485936.234375
45.05,1677485936.25
45.18,1677485936.265625
44.63,1677485936.28125
42.3,1677485936.296875
37.09,1677485936.3125
28.37,1677485936.328125
16.31,1677485936.34375
1.84,1677485936.359375
-13.62,1677485936.375
-28.59,1677485936.390625
-41.94,1677485936.40625
-53.24,1677485936.421875
-62.7,1677485936.4375
-71.11,1677485936.453125
-79.46,1677485936.46875
-88.75,1677485936.484375
-99.61,1677485936.5
-112.12,1677485936.515625
-125.56,1677485936.53125
-138.25,1677485936.546875
-147.75,1677485936.5625
-151.29,1677485936.578125
-146.65,1677485936.59375
-132.96,1677485936.609375
-111.11,1677485936.625
-83.57,1677485936.640625
-53.56,1677485936.65625
-24.07,1677485936.671875
2.9,1677485936.6875
26.5,1677485936.703125
46.61,1677485936.71875
63.21,1677485936.734375
76.02,1677485936.75
84.49,1677485936.765625
88.27,1677485936.78125
87.58,1677485936.796875
83.38,1677485936.8125
77.25,1677485936.828125
70.77,1677485936.84375
65.09,1677485936.859375
60.56,1677485936.875
56.78,1677485936.890625
53.0,1677485936.90625
48.5,1677485936.921875
43.09,1677485936.9375
37.08,1677485936.953125
31.07,1677485936.96875
25.56,1677485936.984375
20.58,1677485937.0
15.62,1677485937.015625
9.84,1677485937.03125
2.47,1677485937.046875
-6.76,1677485937.0625
-17.46,1677485937.078125
-28.66,1677485937.09375
-39.26,1677485937.109375
-48.44,1677485937.125
-56.01,1677485937.140625
-62.45,1677485937.15625
-68.69,1677485937.171875
-75.79,1677485937.1875
-84.6,1677485937.203125
-95.55,1677485937.21875
-108.44,1677485937.234375
-122.28,1677485937.25
-135.26,1677485937.265625
-144.85,1677485937.28125
-148.28,1677485937.296875
-143.31,1677485937.3125
-129.04,1677485937.328125
-106.31,1677485937.34375
-77.49,1677485937.359375
-45.71,1677485937.375
-13.79,1677485937.390625
16.42,1677485937.40625
44.23,1677485937.421875
69.56,1677485937.4375
92.34,1677485937.453125
112.02,1677485937.46875
127.56,1677485937.484375
137.96,1677485937.5
142.73,1677485937.515625
142.35,1677485937.53125
138.13,1677485937.546875
131.87,1677485937.5625
125.21,1677485937.578125
119.24,1677485937.59375
114.16,1677485937.609375
109.46,1677485937.625
104.19,1677485937.640625
97.46,1677485937.65625
88.79,1677485937.671875
78.23,1677485937.6875
66.31,1677485937.703125
53.72,1677485937.71875
41.0,1677485937.734375
28.36,1677485937.75
15.63,1677485937.765625
2.51,1677485937.78125
-11.22,1677485937.796875
-25.39,1677485937.8125
-39.39,1677485937.828125
-52.32,1677485937.84375
-63.33,1677485937.859375
-71.88,1677485937.875
-78.01,1677485937.890625
-82.3,1677485937.90625
-85.63,1677485937.921875
-88.99,1677485937.9375
-93.3,1677485937.953125
-99.29,1677485937.96875
-107.36,1677485937.984375
-117.39,1677485938.0
-128.42,1677485938.015625
-138.58,1677485938.03125
-145.3,1677485938.046875
-145.97,1677485938.0625
-138.75,1677485938.078125
-123.18,1677485938.09375
-100.42,1677485938.109375
-72.78,1677485938.125
-43.02,1677485938.140625
-13.6,1677485938.15625
13.72,1677485938.171875
37.88,1677485938.1875
58.3,1677485938.203125
74.54,1677485938.21875
86.24,1677485938.234375
93.23,1677485938.25
95.78,1677485938.265625
94.74,1677485938.28125
91.49,1677485938.296875
87.52,1677485938.3125
84.07,1677485938.328125
81.73,1677485938.34375
80.31,1677485938.359375
79.03,1677485938.375
76.92,1677485938.390625
73.22,1677485938.40625
67.68,1677485938.421875
60.59,1677485938.4375
52.6,1677485938.453125
44.4,1677485938.46875
36.44,1677485938.484375
28.75,1677485938.5
21.0,1677485938.515625
12.72,1677485938.53125
3.49,1677485938.546875
-6.77,1677485938.5625
-17.76,1677485938.578125
-28.82,1677485938.59375
-39.27,1677485938.609375
-48.62,1677485938.625
-56.8,1677485938.640625
-64.2,1677485938.65625
-71.48,1677485938.671875
-79.41,1677485938.6875
-88.66,1677485938.703125
-99.72,1677485938.71875
-112.75,1677485938.734375
-127.37,1677485938.75
-142.39,1677485938.765625
-155.76,1677485938.78125
-164.68,1677485938.796875
-166.31,1677485938.8125
-158.6,1677485938.828125
-141.07,1677485938.84375
-115.05,1677485938.859375
-83.31,1677485938.875
-49.15,1677485938.890625
-15.49,1677485938.90625
15.76,1677485938.921875
43.74,1677485938.9375
68.19,1677485938.953125
88.94,1677485938.96875
105.55,1677485938.984375
117.46,1677485939.0
124.26,1677485939.015625
126.09,1677485939.03125
123.81,1677485939.046875
118.87,1677485939.0625
112.83,1677485939.078125
106.96,1677485939.09375
101.88,1677485939.109375
97.5,1677485939.125
93.3,1677485939.140625
88.71,1677485939.15625
83.41,1677485939.171875
77.5,1677485939.1875
71.32,1677485939.203125
65.16,1677485939.21875
59.01,1677485939.234375
52.42,1677485939.25
44.67,1677485939.265625
35.17,1677485939.28125
23.76,1677485939.296875
10.92,1677485939.3125
-2.39,1677485939.328125
-15.06,1677485939.34375
-26.35,1677485939.359375
-36.09,1677485939.375
-44.81,1677485939.390625
-53.48,1677485939.40625
-63.14,1677485939.421875
-74.64,1677485939.4375
-88.35,1677485939.453125
-104.06,1677485939.46875
-120.82,1677485939.484375
-136.89,1677485939.5
-149.86,1677485939.515625
-156.95,1677485939.53125
-155.7,1677485939.546875
-144.7,1677485939.5625
-124.2,1677485939.578125
-96.1,1677485939.59375
-63.51,1677485939.609375
-29.76,1677485939.625
2.39,1677485939.640625
31.32,1677485939.65625
56.4,1677485939.671875
77.56,1677485939.6875
94.69,1677485939.703125
107.43,1677485939.71875
115.34,1677485939.734375
118.22,1677485939.75
116.55,1677485939.765625
111.54,1677485939.78125
104.82,1677485939.796875
97.98,1677485939.8125
92.06,1677485939.828125
87.36,1677485939.84375
83.53,1677485939.859375
79.92,1677485939.875
75.93,1677485939.890625
71.29,1677485939.90625
66.06,1677485939.921875
60.5,1677485939.9375
54.81,1677485939.953125
48.99,1677485939.96875
42.7,1677485939.984375
35.44,1677485940.0
26.67,1677485940.015625
16.16,1677485940.03125
4.17,1677485940.046875
-8.59,1677485940.0625
-21.17,1677485940.078125
-32.65,1677485940.09375
-42.56,1677485940.109375
-50.94,1677485940.125
-58.38,1677485940.140625
-65.73,1677485940.15625
-73.88,1677485940.171875
-83.56,1677485940.1875
-95.16,1677485940.203125
-108.56,1677485940.21875
-122.9,1677485940.234375
-136.4,1677485940.25
-146.49,1677485940.265625
-150.31,1677485940.28125
-145.56,1677485940.296875
-131.33,1677485940.3125
-108.49,1677485940.328125
-79.45,1677485940.34375
-47.42,1677485940.359375
-15.38,1677485940.375
14.56,1677485940.390625
41.38,1677485940.40625
64.83,1677485940.421875
84.91,1677485940.4375
101.48,1677485940.453125
114.18,1677485940.46875
122.64,1677485940.484375
126.83,1677485940.5
127.14,1677485940.515625
124.44,1677485940.53125
119.75,1677485940.546875
114.05,1677485940.5625
108.02,1677485940.578125
102.09,1677485940.59375
96.37,1677485940.609375
90.83,1677485940.625
85.33,1677485940.640625
79.75,1677485940.65625
73.95,1677485940.671875
67.86,1677485940.6875
61.47,1677485940.703125
54.77,1677485940.71875
47.66,1677485940.734375
40.0,1677485940.75
31.5,1677485940.765625
21.93,1677485940.78125
11.2,1677485940.796875
-0.49,1677485940.8125
-12.63,1677485940.828125
-24.58,1677485940.84375
-35.78,1677485940.859375
-45.91,1677485940.875
-55.02,1677485940.890625
-63.41,1677485940.90625
-71.58,1677485940.921875
-80.11,1677485940.9375
-89.63,1677485940.953125
-100.71,1677485940.96875
-113.6,1677485940.984375
-127.85,1677485941.0
-141.9,1677485941.015625
-153.17,1677485941.03125
-158.53,1677485941.046875
-155.29,1677485941.0625
-142.2,1677485941.078125
-119.97,1677485941.09375
-91.11,1677485941.109375
-59.05,1677485941.125
-27.07,1677485941.140625
2.55,1677485941.15625
28.74,1677485941.171875
51.36,1677485941.1875
70.55,1677485941.203125
86.3,1677485941.21875
98.27,1677485941.234375
106.07,1677485941.25
109.61,1677485941.265625
109.33,1677485941.28125
106.23,1677485941.296875
101.54,1677485941.3125
96.41,1677485941.328125
91.47,1677485941.34375
86.86,1677485941.359375
82.31,1677485941.375
77.48,1677485941.390625
72.16,1677485941.40625
66.46,1677485941.421875
60.67,1677485941.4375
55.05,1677485941.453125
49.7,1677485941.46875
44.37,1677485941.484375
38.63,1677485941.5
32.0,1677485941.515625
24.2,1677485941.53125
15.22,1677485941.546875
5.44,1677485941.5625
-4.58,1677485941.578125
-14.24,1677485941.59375
-23.12,1677485941.609375
-31.1,1677485941.625
-38.38,1677485941.640625
-45.44,1677485941.65625
-52.91,1677485941.671875
-61.42,1677485941.6875
-71.44,1677485941.703125
-83.06,1677485941.71875
-95.76,1677485941.734375
-108.25,1677485941.75
-118.57,1677485941.765625
-124.44,1677485941.78125
-123.78,1677485941.796875
-115.4,1677485941.8125
-99.32,1677485941.828125
-76.87,1677485941.84375
-50.27,1677485941.859375
-22.09,1677485941.875
5.36,1677485941.890625
30.34,1677485941.90625
51.71,1677485941.921875
68.82,1677485941.9375
81.37,1677485941.953125
89.33,1677485941.96875
93.01,1677485941.984375
93.06,1677485942.0
90.43,1677485942.015625
86.18,1677485942.03125
81.22,1677485942.046875
76.2,1677485942.0625
71.39,1677485942.078125
66.82,1677485942.09375
62.31,1677485942.109375
57.73,1677485942.125
53.06,1677485942.140625
48.39,1677485942.15625
43.86,1677485942.171875
39.49,1677485942.1875
35.08,1677485942.203125
30.17,1677485942.21875
24.2,1677485942.234375
16.76,1677485942.25
7.84,1677485942.265625
-2.12,1677485942.28125
-12.34,1677485942.296875
-22.02,1677485942.3125
-30.65,1677485942.328125
-38.24,1677485942.34375
-45.32,1677485942.359375
-52.67,1677485942.375
-61.18,1677485942.390625
-71.39,1677485942.40625
-83.3,1677485942.421875
-96.06,1677485942.4375
-107.95,1677485942.453125
-116.6,1677485942.46875
-119.49,1677485942.484375
-114.8,1677485942.5
-101.99,1677485942.515625
-82.14,1677485942.53125
-57.62,1677485942.546875
-31.33,1677485942.5625
-5.8,1677485942.578125
17.33,1677485942.59375
37.38,1677485942.609375
54.29,1677485942.625
68.06,1677485942.640625
78.5,1677485942.65625
85.31,1677485942.671875
88.33,1677485942.6875
87.88,1677485942.703125
84.8,1677485942.71875
80.2,1677485942.734375
75.15,1677485942.75
70.28,1677485942.765625
65.71,1677485942.78125
61.19,1677485942.796875
56.39,1677485942.8125
51.2,1677485942.828125
45.78,1677485942.84375
40.51,1677485942.859375
35.62,1677485942.875
31.04,1677485942.890625
26.28,1677485942.90625
20.57,1677485942.921875
13.32,1677485942.9375
4.37,1677485942.953125
-5.84,1677485942.96875
-16.42,1677485942.984375
-26.36,1677485943.0
-34.99,1677485943.015625
-42.22,1677485943.03125
-48.58,1677485943.046875
-55.02,1677485943.0625
-62.59,1677485943.078125
-72.05,1677485943.09375
-83.62,1677485943.109375
-96.66,1677485943.125
-109.62,1677485943.140625
-120.21,1677485943.15625
-125.87,1677485943.171875
-124.48,1677485943.1875
-115.04,1677485943.203125
-97.96,1677485943.21875
-75.06,1677485943.234375
-48.9,1677485943.25
-22.14,1677485943.265625
3.14,1677485943.28125
25.65,1677485943.296875
44.84,1677485943.3125
60.52,1677485943.328125
72.64,1677485943.34375
81.16,1677485943.359375
86.12,1677485943.375
87.81,1677485943.390625
86.75,1677485943.40625
83.69,1677485943.421875
79.4,1677485943.4375
74.47,1677485943.453125
69.28,1677485943.46875
63.92,1677485943.484375
58.43,1677485943.5
52.82,1677485943.515625
47.3,1677485943.53125
42.15,1677485943.546875
37.57,1677485943.5625
33.48,1677485943.578125
29.4,1677485943.59375
24.51,1677485943.609375
18.0,1677485943.625
9.42,1677485943.640625
-0.99,1677485943.65625
-12.39,1677485943.671875
-23.57,1677485943.6875
-33.48,1677485943.703125
-41.61,1677485943.71875
-48.16,1677485943.734375
-53.96,1677485943.75
-60.1,1677485943.765625
-67.64,1677485943.78125
-77.21,1677485943.796875
-88.77,1677485943.8125
-101.37,1677485943.828125
-113.12,1677485943.84375
-121.47,1677485943.859375
-123.87,1677485943.875
-118.52,1677485943.890625
-105.07,1677485943.90625
-84.8,1677485943.921875
-60.26,1677485943.9375
-34.39,1677485943.953125
-9.68,1677485943.96875
12.4,1677485943.984375
31.31,1677485944.0
47.09,1677485944.015625
59.79,1677485944.03125
69.25,1677485944.046875
75.17,1677485944.0625
77.44,1677485944.078125
76.39,1677485944.09375
72.85,1677485944.109375
67.9,1677485944.125
62.52,1677485944.140625
57.31,1677485944.15625
52.37,1677485944.171875
47.52,1677485944.1875
42.57,1677485944.203125
37.49,1677485944.21875
32.55,1677485944.234375
28.0,1677485944.25
23.92,1677485944.265625
19.95,1677485944.28125
15.41,1677485944.296875
9.63,1677485944.3125
2.28,1677485944.328125
-6.41,1677485944.34375
-15.71,1677485944.359375
-24.67,1677485944.375
-32.61,1677485944.390625
-39.4,1677485944.40625
-45.51,1677485944.421875
-51.89,1677485944.4375
-59.56,1677485944.453125
-69.17,1677485944.46875
-80.66,1677485944.484375
-92.97,1677485944.5
-104.18,1677485944.515625
-111.83,1677485944.53125
-113.58,1677485944.546875
-107.91,1677485944.5625
-94.68,1677485944.578125
-75.09,1677485944.59375
-51.42,1677485944.609375
-26.21,1677485944.625
-1.66,1677485944.640625
20.77,1677485944.65625
40.32,1677485944.671875
56.64,1677485944.6875
69.54,1677485944.703125
78.74,1677485944.71875
84.1,1677485944.734375
85.75,1677485944.75
84.24,1677485944.765625
80.47,1677485944.78125
75.46,1677485944.796875
70.05,1677485944.8125
64.74,1677485944.828125
59.65,1677485944.84375
54.68,1677485944.859375
49.73,1677485944.875
44.77,1677485944.890625
39.91,1677485944.90625
35.27,1677485944.921875
30.79,1677485944.9375
26.22,1677485944.953125
21.04,1677485944.96875
14.75,1677485944.984375
7.01,1677485945.0
-2.16,1677485945.015625
-12.26,1677485945.03125
-22.5,1677485945.046875
-32.03,1677485945.0625
-40.33,1677485945.078125
-47.43,1677485945.09375
-53.95,1677485945.109375
-60.91,1677485945.125
-69.36,1677485945.140625
-79.88,1677485945.15625
-92.16,1677485945.171875
-104.82,1677485945.1875
-115.56,1677485945.203125
-121.66,1677485945.21875
-120.78,1677485945.234375
-111.68,1677485945.25
-94.64,1677485945.265625
-71.36,1677485945.28125
-44.41,1677485945.296875
-16.4,1677485945.3125
10.67,1677485945.328125
35.62,1677485945.34375
57.96,1677485945.359375
77.45,1677485945.375
93.71,1677485945.390625
106.17,1677485945.40625
114.26,1677485945.421875
117.85,1677485945.4375
117.52,1677485945.453125
114.44,1677485945.46875
110.13,1677485945.484375
105.93,1677485945.5
102.72,1677485945.515625
100.76,1677485945.53125
99.89,1677485945.546875
99.69,1677485945.5625
99.58,1677485945.578125
98.87,1677485945.59375
96.74,1677485945.609375
92.25,1677485945.625
84.56,1677485945.640625
73.1,1677485945.65625
57.75,1677485945.671875
38.95,1677485945.6875
17.55,1677485945.703125
-5.24,1677485945.71875
-28.1,1677485945.734375
-49.69,1677485945.75
-69.01,1677485945.765625
-85.54,1677485945.78125
-99.42,1677485945.796875
-111.49,1677485945.8125
-122.9,1677485945.828125
-134.76,1677485945.84375
-147.62,1677485945.859375
-161.17,1677485945.875
-174.11,1677485945.890625
-184.4,1677485945.90625
-189.71,1677485945.921875
-188.04,1677485945.9375
-178.26,1677485945.953125
-160.5,1677485945.96875
-136.12,1677485945.984375
-107.38,1677485946.0
-76.82,1677485946.015625
-46.55,1677485946.03125
-18.05,1677485946.046875
7.92,1677485946.0625
30.94,1677485946.078125
50.59,1677485946.09375
66.3,1677485946.109375
77.51,1677485946.125
84.02,1677485946.140625
86.26,1677485946.15625
85.28,1677485946.171875
82.45,1677485946.1875
79.01,1677485946.203125
75.69,1677485946.21875
72.61,1677485946.234375
69.44,1677485946.25
65.81,1677485946.265625
61.58,1677485946.28125
56.92,1677485946.296875
52.17,1677485946.3125
47.52,1677485946.328125
42.86,1677485946.34375
37.75,1677485946.359375
31.59,1677485946.375
24.02,1677485946.390625
15.15,1677485946.40625
5.52,1677485946.421875
-4.06,1677485946.4375
-12.9,1677485946.453125
-20.73,1677485946.46875
-27.78,1677485946.484375
-34.72,1677485946.5
-42.43,1677485946.515625
-51.68,1677485946.53125
-62.9,1677485946.546875
-75.91,1677485946.5625
-89.78,1677485946.578125
-102.72,1677485946.59375
-112.34,1677485946.609375
-116.13,1677485946.625
-112.22,1677485946.640625
-100.04,1677485946.65625
-80.54,1677485946.671875
-56.0,1677485946.6875
-29.22,1677485946.703125
-2.74,1677485946.71875
21.77,1677485946.734375
43.56,1677485946.75
62.49,1677485946.765625
78.46,1677485946.78125
91.11,1677485946.796875
99.9,1677485946.8125
104.4,1677485946.828125
104.73,1677485946.84375
101.69,1677485946.859375
96.57,1677485946.875
90.73,1677485946.890625
85.11,1677485946.90625
80.07,1677485946.921875
75.45,1677485946.9375
70.9,1677485946.953125
66.21,1677485946.96875
61.42,1677485946.984375
56.74,1677485947.0
52.32,1677485947.015625
47.98,1677485947.03125
43.2,1677485947.046875
37.29,1677485947.0625
29.73,1677485947.078125
20.47,1677485947.09375
10.04,1677485947.109375
-0.61,1677485947.125
-10.45,1677485947.140625
-18.77,1677485947.15625
-25.46,1677485947.171875
-31.11,1677485947.1875
-36.8,1677485947.203125
-43.79,1677485947.21875
-53.04,1677485947.234375
-64.77,1677485947.25
-78.08,1677485947.265625
-90.96,1677485947.28125
-100.62,1677485947.296875
-104.19,1677485947.3125
-99.64,1677485947.328125
-86.43,1677485947.34375
-65.7,1677485947.359375
-39.81,1677485947.375
-11.51,1677485947.390625
16.85,1677485947.40625
43.79,1677485947.421875
68.62,1677485947.4375
91.06,1677485947.453125
110.76,1677485947.46875
127.06,1677485947.484375
139.09,1677485947.5
145.98,1677485947.515625
147.26,1677485947.53125
143.01,1677485947.546875
133.88,1677485947.5625
120.9,1677485947.578125
105.27,1677485947.59375
88.07,1677485947.609375
70.16,1677485947.625
52.14,1677485947.640625
34.49,1677485947.65625
17.64,1677485947.671875
2.11,1677485947.6875
-11.59,1677485947.703125
-23.16,1677485947.71875
-32.65,1677485947.734375
-40.55,1677485947.75
-47.6,1677485947.765625
-54.56,1677485947.78125
-61.84,1677485947.796875
-69.36,1677485947.8125
-76.58,1677485947.828125
-82.83,1677485947.84375
-87.61,1677485947.859375
-90.94,1677485947.875
-93.38,1677485947.890625
-95.89,1677485947.90625
-99.45,1677485947.921875
-104.83,1677485947.9375
-112.33,1677485947.953125
-121.61,1677485947.96875
-131.59,1677485947.984375
-140.49,1677485948.0
-145.97,1677485948.015625
-145.7,1677485948.03125
-137.93,1677485948.046875
-122.18,1677485948.0625
-99.46,1677485948.078125
-71.97,1677485948.09375
-42.45,1677485948.109375
-13.38,1677485948.125
13.64,1677485948.140625
37.82,1677485948.15625
58.97,1677485948.171875
76.95,1677485948.1875
91.41,1677485948.203125
101.83,1677485948.21875
107.84,1677485948.234375
109.48,1677485948.25
107.41,1677485948.265625
102.85,1677485948.28125
97.15,1677485948.296875
91.51,1677485948.3125
86.58,1677485948.328125
82.39,1677485948.34375
78.49,1677485948.359375
74.3,1677485948.375
69.47,1677485948.390625
64.04,1677485948.40625
58.43,1677485948.421875
53.1,1677485948.4375
48.21,1677485948.453125
43.44,1677485948.46875
38.11,1677485948.484375
31.47,1677485948.5
23.09,1677485948.515625
13.14,1677485948.53125
2.28,1677485948.546875
-8.58,1677485948.5625
-18.63,1677485948.578125
-27.52,1677485948.59375
-35.35,1677485948.609375
-42.61,1677485948.625
-50.01,1677485948.640625
-58.23,1677485948.65625
-67.79,1677485948.671875
-78.89,1677485948.6875
-91.21,1677485948.703125
-103.75,1677485948.71875
-114.8,1677485948.734375
-122.13,1677485948.75
-123.54,1677485948.765625
-117.5,1677485948.78125
-103.71,1677485948.796875
-83.25,1677485948.8125
-58.28,1677485948.828125
-31.39,1677485948.84375
-4.93,1677485948.859375
19.45,1677485948.875
40.82,1677485948.890625
58.81,1677485948.90625
73.22,1677485948.921875
83.87,1677485948.9375
90.68,1677485948.953125
93.73,1677485948.96875
93.5,1677485948.984375
90.8,1677485949.0
86.63,1677485949.015625
81.85,1677485949.03125
76.98,1677485949.046875
72.13,1677485949.0625
67.15,1677485949.078125
61.85,1677485949.09375
56.27,1677485949.109375
50.66,1677485949.125
45.43,1677485949.140625
40.83,1677485949.15625
36.73,1677485949.171875
32.57,1677485949.1875
27.57,1677485949.203125
21.04,1677485949.21875
12.77,1677485949.234375
3.13,1677485949.25
-6.99,1677485949.265625
-16.61,1677485949.28125
-25.0,1677485949.296875
-32.05,1677485949.3125
-38.25,1677485949.328125
-44.56,1677485949.34375
-52.0,1677485949.359375
-61.22,1677485949.375
-72.22,1677485949.390625
-84.17,1677485949.40625
-95.44,1677485949.421875
-103.8,1677485949.4375
-106.97,1677485949.453125
-103.2,1677485949.46875
-91.81,1677485949.484375
-73.52,1677485949.5
-50.26,1677485949.515625
-24.66,1677485949.53125
0.67,1677485949.546875
23.75,1677485949.5625
43.4,1677485949.578125
59.22,1677485949.59375
71.18,1677485949.609375
79.39,1677485949.625
83.92,1677485949.640625
84.94,1677485949.65625
82.89,1677485949.671875
78.51,1677485949.6875
72.77,1677485949.703125
66.65,1677485949.71875
60.85,1677485949.734375
55.64,1677485949.75
50.94,1677485949.765625
46.45,1677485949.78125
41.93,1677485949.796875
37.29,1677485949.8125
32.58,1677485949.828125
27.83,1677485949.84375
22.92,1677485949.859375
17.53,1677485949.875
11.33,1677485949.890625
4.07,1677485949.90625
-4.14,1677485949.921875
-12.95,1677485949.9375
-21.81,1677485949.953125
-30.25,1677485949.96875
-38.07,1677485949.984375
-45.37,1677485950.0
-52.63,1677485950.015625
-60.49,1677485950.03125
-69.57,1677485950.046875
-80.05,1677485950.0625
-91.48,1677485950.078125
-102.44,1677485950.09375
-110.85,1677485950.109375
-114.35,1677485950.125
-111.12,1677485950.140625
-100.46,1677485950.15625
-83.06,1677485950.171875
-60.8,1677485950.1875
-36.07,1677485950.203125
-11.19,1677485950.21875
12.08,1677485950.234375
32.64,1677485950.25
49.83,1677485950.265625
63.3,1677485950.28125
72.88,1677485950.296875
78.59,1677485950.3125
80.76,1677485950.328125
79.97,1677485950.34375
76.97,1677485950.359375
72.46,1677485950.375
66.96,1677485950.390625
60.77,1677485950.40625
54.1,1677485950.421875
47.16,1677485950.4375
40.25,1677485950.453125
33.77,1677485950.46875
28.06,1677485950.484375
23.21,1677485950.5
19.03,1677485950.515625
15.04,1677485950.53125
10.64,1677485950.546875
5.33,1677485950.5625
-1.1,1677485950.578125
-8.5,1677485950.59375
-16.45,1677485950.609375
-24.45,1677485950.625
-32.12,1677485950.640625
-39.31,1677485950.65625
-46.2,1677485950.671875
-53.23,1677485950.6875
-61.01,1677485950.703125
-70.1,1677485950.71875
-80.67,1677485950.734375
-92.2,1677485950.75
-103.32,1677485950.765625
-111.92,1677485950.78125
-115.62,1677485950.796875
-112.49,1677485950.8125
-101.65,1677485950.828125
-83.65,1677485950.84375
-60.3,1677485950.859375
-34.1,1677485950.875
-7.57,1677485950.890625
17.29,1677485950.90625
39.2,1677485950.921875
57.54,1677485950.9375
72.13,1677485950.953125
83.01,1677485950.96875
90.41,1677485950.984375
94.71,1677485951.0
96.43,1677485951.015625
96.22,1677485951.03125
94.68,1677485951.046875
92.28,1677485951.0625
89.35,1677485951.078125
86.07,1677485951.09375
82.6,1677485951.109375
79.16,1677485951.125
75.99,1677485951.140625
73.38,1677485951.15625
71.47,1677485951.171875
70.17,1677485951.1875
69.15,1677485951.203125
67.84,1677485951.21875
65.5,1677485951.234375
61.45,1677485951.25
55.2,1677485951.265625
46.58,1677485951.28125
35.98,1677485951.296875
24.12,1677485951.3125
11.95,1677485951.328125
0.14,1677485951.34375
-11.25,1677485951.359375
-22.97,1677485951.375
-36.21,1677485951.390625
-51.98,1677485951.40625
-70.28,1677485951.421875
-89.59,1677485951.4375
-107.06,1677485951.453125
-119.25,1677485951.46875
-123.32,1677485951.484375
-117.98,1677485951.5
-103.8,1677485951.515625
-82.92,1677485951.53125
-58.22,1677485951.546875
-32.43,1677485951.5625
-7.58,1677485951.578125
15.04,1677485951.59375
34.75,1677485951.609375
51.05,1677485951.625
63.51,1677485951.640625
71.76,1677485951.65625
75.65,1677485951.671875
75.39,1677485951.6875
71.67,1677485951.703125
65.51,1677485951.71875
58.04,1677485951.734375
50.17,1677485951.75
42.42,1677485951.765625
34.86,1677485951.78125
27.27,1677485951.796875
19.44,1677485951.8125
11.45,1677485951.828125
3.65,1677485951.84375
-3.5,1677485951.859375
-9.74,1677485951.875
-15.18,1677485951.890625
-20.28,1677485951.90625
-25.59,1677485951.921875
-31.44,1677485951.9375
-37.72,1677485951.953125
-44.03,1677485951.96875
-49.93,1677485951.984375
-55.25,1677485952.0
-60.31,1677485952.015625
-65.81,1677485952.03125
-72.52,1677485952.046875
-80.85,1677485952.0625
-90.38,1677485952.078125
-99.77,1677485952.09375
-106.87,1677485952.109375
-109.31,1677485952.125
-105.26,1677485952.140625
-94.04,1677485952.15625
-76.42,1677485952.171875
-54.36,1677485952.1875
-30.44,1677485952.203125
-7.09,1677485952.21875
13.91,1677485952.234375
31.57,1677485952.25
45.54,1677485952.265625
55.77,1677485952.28125
62.29,1677485952.296875
65.17,1677485952.3125
64.66,1677485952.328125
61.35,1677485952.34375
56.13,1677485952.359375
50.07,1677485952.375
44.1,1677485952.390625
38.78,1677485952.40625
34.23,1677485952.421875
30.22,1677485952.4375
26.35,1677485952.453125
22.24,1677485952.46875
17.65,1677485952.484375
12.46,1677485952.5
6.65,1677485952.515625
0.2,1677485952.53125
-6.79,1677485952.546875
-14.19,1677485952.5625
-21.72,1677485952.578125
-29.1,1677485952.59375
-36.08,1677485952.609375
-42.64,1677485952.625
-49.01,1677485952.640625
-55.72,1677485952.65625
-63.43,1677485952.671875
-72.62,1677485952.6875
-83.23,1677485952.703125
-94.37,1677485952.71875
-104.22,1677485952.734375
-110.36,1677485952.75
-110.44,1677485952.765625
-102.95,1677485952.78125
-87.79,1677485952.796875
-66.37,1677485952.8125
-41.21,1677485952.828125
-15.2,1677485952.84375
9.24,1677485952.859375
30.56,1677485952.875
48.17,1677485952.890625
62.08,1677485952.90625
72.48,1677485952.921875
79.48,1677485952.9375
83.08,1677485952.953125
83.29,1677485952.96875
80.42,1677485952.984375
75.1,1677485953.0
68.17,1677485953.015625
60.57,1677485953.03125
53.05,1677485953.046875
46.1,1677485953.0625
39.94,1677485953.078125
34.54,1677485953.09375
29.76,1677485953.109375
25.3,1677485953.125
20.72,1677485953.140625
15.51,1677485953.15625
9.26,1677485953.171875
1.75,1677485953.1875
-6.93,1677485953.203125
-16.36,1677485953.21875
-25.97,1677485953.234375
-35.2,1677485953.25
-43.7,1677485953.265625
-51.49,1677485953.28125
-59.04,1677485953.296875
-67.13,1677485953.3125
-76.51,1677485953.328125
-87.48,1677485953.34375
-99.34,1677485953.359375
-110.27,1677485953.375
-117.66,1677485953.390625
-118.83,1677485953.40625
-112.04,1677485953.421875
-97.07,1677485953.4375
-75.38,1677485953.453125
-49.55,1677485953.46875
-22.46,1677485953.484375
3.53,1677485953.5
26.88,1677485953.515625
46.86,1677485953.53125
63.16,1677485953.546875
75.57,1677485953.5625
83.91,1677485953.578125
88.11,1677485953.59375
88.52,1677485953.609375
85.86,1677485953.625
81.2,1677485953.640625
75.55,1677485953.65625
69.67,1677485953.671875
63.84,1677485953.6875
57.99,1677485953.703125
52.04,1677485953.71875
46.03,1677485953.734375
40.29,1677485953.75
35.2,1677485953.765625
30.92,1677485953.78125
27.18,1677485953.796875
23.31,1677485953.8125
18.51,1677485953.828125
12.27,1677485953.84375
4.56,1677485953.859375
-4.14,1677485953.875
-13.11,1677485953.890625
-21.68,1677485953.90625
-29.55,1677485953.921875
-36.8,1677485953.9375
-43.88,1677485953.953125
-51.46,1677485953.96875
-60.25,1677485953.984375
-70.75,1677485954.0
-82.99,1677485954.015625
-96.16,1677485954.03125
-108.51,1677485954.046875
-117.57,1677485954.0625
-120.74,1677485954.078125
-116.13,1677485954.09375
-103.25,1677485954.109375
-83.13,1677485954.125
-58.03,1677485954.140625
-30.68,1677485954.15625
-3.51,1677485954.171875
21.69,1677485954.1875
43.89,1677485954.203125
62.45,1677485954.21875
76.97,1677485954.234375
87.11,1677485954.25
92.78,1677485954.265625
94.25,1677485954.28125
92.26,1677485954.296875
87.83,1677485954.3125
82.07,1677485954.328125
75.86,1677485954.34375
69.75,1677485954.359375
63.92,1677485954.375
58.37,1677485954.390625
53.05,1677485954.40625
48.01,1677485954.421875
43.34,1677485954.4375
39.04,1677485954.453125
34.97,1677485954.46875
30.75,1677485954.484375
25.9,1677485954.5
20.0,1677485954.515625
12.83,1677485954.53125
4.55,1677485954.546875
-4.39,1677485954.5625
-13.39,1677485954.578125
-21.93,1677485954.59375
-29.76,1677485954.609375
-37.05,1677485954.625
-44.39,1677485954.640625
-52.61,1677485954.65625
-62.44,1677485954.671875
-74.14,1677485954.6875
-87.02,1677485954.703125
-99.37,1677485954.71875
-108.61,1677485954.734375
-112.0,1677485954.75
-107.54,1677485954.765625
-94.6,1677485954.78125
-74.28,1677485954.796875
-49.04,1677485954.8125
-21.96,1677485954.828125
4.16,1677485954.84375
27.37,1677485954.859375
46.76,1677485954.875
62.14,1677485954.890625
73.58,1677485954.90625
81.14,1677485954.921875
84.8,1677485954.9375
84.67,1677485954.953125
81.19,1677485954.96875
75.25,1677485954.984375
68.05,1677485955.0
60.78,1677485955.015625
54.33,1677485955.03125
49.04,1677485955.046875
44.82,1677485955.0625
41.26,1677485955.078125
37.92,1677485955.09375
34.41,1677485955.109375
30.41,1677485955.125
25.65,1677485955.140625
19.91,1677485955.15625
13.1,1677485955.171875
5.31,1677485955.1875
-3.17,1677485955.203125
-11.92,1677485955.21875
-20.57,1677485955.234375
-28.97,1677485955.25
-37.25,1677485955.265625
-45.85,1677485955.28125
-55.41,1677485955.296875
-66.53,1677485955.3125
-79.44,1677485955.328125
-93.61,1677485955.34375
-107.49,1677485955.359375
-118.58,1677485955.375
-124.04,1677485955.390625
-121.51,1677485955.40625
-109.92,1677485955.421875
-90.01,1677485955.4375
-64.05,1677485955.453125
-35.16,1677485955.46875
-6.36,1677485955.484375
20.09,1677485955.5
42.92,1677485955.515625
61.62,1677485955.53125
76.05,1677485955.546875
86.24,1677485955.5625
92.26,1677485955.578125
94.42,1677485955.59375
93.31,1677485955.609375
89.76,1677485955.625
84.66,1677485955.640625
78.76,1677485955.65625
72.59,1677485955.671875
66.45,1677485955.6875
60.54,1677485955.703125
54.98,1677485955.71875
49.85,1677485955.734375
45.14,1677485955.75
40.61,1677485955.765625
35.89,1677485955.78125
30.5,1677485955.796875
23.97,1677485955.8125
16.04,1677485955.828125
6.77,1677485955.84375
-3.54,1677485955.859375
-14.31,1677485955.875
-24.88,1677485955.890625
-34.74,1677485955.90625
-43.69,1677485955.921875
-52.01,1677485955.9375
-60.45,1677485955.953125
-69.92,1677485955.96875
-81.17,1677485955.984375
-94.2,1677485956.0
-107.89,1677485956.015625
-120.04,1677485956.03125
-127.74,1677485956.046875
-128.27,1677485956.0625
-119.95,1677485956.078125
-102.73,1677485956.09375
-78.3,1677485956.109375
-49.51,1677485956.125
-19.54,1677485956.140625
8.97,1677485956.15625
34.35,1677485956.171875
55.91,1677485956.1875
73.54,1677485956.203125
87.27,1677485956.21875
97.02,1677485956.234375
102.68,1677485956.25
104.34,1677485956.265625
102.44,1677485956.28125
97.91,1677485956.296875
91.81,1677485956.3125
85.15,1677485956.328125
78.52,1677485956.34375
72.08,1677485956.359375
65.77,1677485956.375
59.5,1677485956.390625
53.45,1677485956.40625
47.91,1677485956.421875
43.12,1677485956.4375
38.93,1677485956.453125
34.75,1677485956.46875
29.7,1677485956.484375
23.04,1677485956.5
