PPG GREEN,time
2348882.0,1677485879.775
2348759.0,1677485879.815
2348583.0,1677485879.856
2348264.0,1677485879.895
2348814.0,1677485879.935
2349188.0,1677485879.976
2349359.0,1677485880.015
2349388.0,1677485880.056
2350317.0,1677485880.096
2350781.0,1677485880.135
2350940.0,1677485880.175
2350790.0,1677485880.216
2348114.0,1677485880.295
2346125.0,1677485880.376
2345765.0,1677485880.416
2349340.0,1677485880.256
2346995.0,1677485880.337
2345758.0,1677485880.457
2345225.0,1677485880.496
2345273.0,1677485880.536
2345085.0,1677485880.616
2344924.0,1677485880.577
2345739.0,1677485880.657
2346052.0,1677485880.697
2346323.0,1677485880.736
2347202.0,1677485880.776
2347626.0,1677485880.817
2348858.0,1677485880.897
2348891.0,1677485880.938
2347885.0,1677485880.857
2348748.0,1677485880.977
2347396.0,1677485881.017
2346658.0,1677485881.058
2345478.0,1677485881.097
2344740.0,1677485881.137
2344697.0,1677485881.178
2344301.0,1677485881.217
2344297.0,1677485881.258
2344213.0,1677485881.298
2344553.0,1677485881.337
2344839.0,1677485881.377
2344849.0,1677485881.418
2345597.0,1677485881.458
2345583.0,1677485881.497
2346024.0,1677485881.538
2346583.0,1677485881.577
2346853.0,1677485881.618
2346943.0,1677485881.659
2347672.0,1677485881.698
2347649.0,1677485881.738
2346712.0,1677485881.779
2345647.0,1677485881.818
2345081.0,1677485881.859
2344437.0,1677485881.899
2344047.0,1677485881.938
2344147.0,1677485881.978
2343051.0,1677485882.059
2343324.0,1677485882.019
2342985.0,1677485882.098
2343361.0,1677485882.14
2343648.0,1677485882.179
2344145.0,1677485882.219
2344856.0,1677485882.261
2345411.0,1677485882.299
2346864.0,1677485882.339
2347822.0,1677485882.38
2348911.0,1677485882.419
2349898.0,1677485882.46
2349513.0,1677485882.5
2348555.0,1677485882.539
2347756.0,1677485882.579
2347195.0,1677485882.62
2346543.0,1677485882.66
2346854.0,1677485882.7
2346048.0,1677485882.741
2341843.0,1677485882.78
2337144.0,1677485882.82
2337611.0,1677485882.862
2339977.0,1677485882.9
2338278.0,1677485882.94
2332200.0,1677485882.981
2321622.0,1677485883.02
2310891.0,1677485883.061
2299788.0,1677485883.101
2285112.0,1677485883.14
2270806.0,1677485883.18
2254927.0,1677485883.221
2245753.0,1677485883.261
2240805.0,1677485883.301
2238374.0,1677485883.342
2239842.0,1677485883.381
2235552.0,1677485883.421
2230532.0,1677485883.463
2226188.0,1677485883.501
2223874.0,1677485883.541
2225703.0,1677485883.582
2233827.0,1677485883.621
2255727.0,1677485883.741
2260274.0,1677485883.781
2243286.0,1677485883.662
2250707.0,1677485883.702
2270658.0,1677485883.862
2265402.0,1677485883.822
2275303.0,1677485883.901
2279734.0,1677485883.942
2283347.0,1677485883.982
2286555.0,1677485884.022
2288909.0,1677485884.063
2289616.0,1677485884.102
2289965.0,1677485884.142
2290495.0,1677485884.183
2292038.0,1677485884.222
2293514.0,1677485884.263
2295079.0,1677485884.303
2296892.0,1677485884.342
2299350.0,1677485884.382
2301224.0,1677485884.423
2303120.0,1677485884.463
2303627.0,1677485884.502
2304059.0,1677485884.543
2304344.0,1677485884.582
2304270.0,1677485884.622
2304780.0,1677485884.664
2306086.0,1677485884.702
2307340.0,1677485884.742
2308597.0,1677485884.784
2310128.0,1677485884.823
2311097.0,1677485884.863
2311724.0,1677485884.904
2312582.0,1677485884.943
2313600.0,1677485884.983
2314164.0,1677485885.024
2315215.0,1677485885.064
2316651.0,1677485885.103
2317599.0,1677485885.144
2317822.0,1677485885.183
2317752.0,1677485885.223
2317106.0,1677485885.265
2316344.0,1677485885.303
2315927.0,1677485885.343
2316267.0,1677485885.384
2316113.0,1677485885.423
2315574.0,1677485885.464
2312101.0,1677485885.504
2304026.0,1677485885.543
2289212.0,1677485885.583
2277356.0,1677485885.625
2270941.0,1677485885.664
2270831.0,1677485885.704
2272950.0,1677485885.745
2268969.0,1677485885.784
2256449.0,1677485885.824
2246319.0,1677485885.866
2243421.0,1677485885.904
2244076.0,1677485885.944
2238043.0,1677485885.985
2241222.0,1677485886.024
2245147.0,1677485886.065
2240204.0,1677485886.105
2235007.0,1677485886.144
2229375.0,1677485886.184
2224156.0,1677485886.225
2221597.0,1677485886.265
2222088.0,1677485886.304
2226574.0,1677485886.345
2231634.0,1677485886.384
2236739.0,1677485886.425
2241483.0,1677485886.466
2246673.0,1677485886.505
2251519.0,1677485886.545
2259627.0,1677485886.586
2268828.0,1677485886.625
2275015.0,1677485886.666
2280793.0,1677485886.706
2285184.0,1677485886.745
2288715.0,1677485886.785
2291357.0,1677485886.826
2293592.0,1677485886.866
2296210.0,1677485886.905
2297764.0,1677485886.946
2300125.0,1677485886.985
2302362.0,1677485887.025
2304447.0,1677485887.067
2306493.0,1677485887.105
2308237.0,1677485887.145
2309611.0,1677485887.186
2311253.0,1677485887.225
2312466.0,1677485887.266
2313778.0,1677485887.307
2314946.0,1677485887.346
2316345.0,1677485887.386
2317528.0,1677485887.427
2318618.0,1677485887.466
2319321.0,1677485887.506
2319617.0,1677485887.547
2320442.0,1677485887.586
2320929.0,1677485887.626
2321032.0,1677485887.668
2316616.0,1677485887.706
2303749.0,1677485887.746
2290840.0,1677485887.787
2285507.0,1677485887.826
2284546.0,1677485887.867
2284333.0,1677485887.907
2286865.0,1677485887.946
2290696.0,1677485887.986
2293109.0,1677485888.028
2295044.0,1677485888.067
2296482.0,1677485888.107
2300282.0,1677485888.148
2304883.0,1677485888.187
2309064.0,1677485888.227
2312859.0,1677485888.268
2316287.0,1677485888.307
2319784.0,1677485888.347
2322949.0,1677485888.388
2325213.0,1677485888.427
2327399.0,1677485888.468
2329295.0,1677485888.508
2330929.0,1677485888.547
2332651.0,1677485888.587
2334316.0,1677485888.628
2335951.0,1677485888.668
2337412.0,1677485888.707
2339135.0,1677485888.748
2341017.0,1677485888.787
2341911.0,1677485888.827
2342680.0,1677485888.869
2342791.0,1677485888.907
2343451.0,1677485888.947
2343610.0,1677485888.988
2344983.0,1677485889.068
2344360.0,1677485889.027
2346323.0,1677485889.147
2345910.0,1677485889.108
2347311.0,1677485889.228
2348281.0,1677485889.268
2346707.0,1677485889.187
2348974.0,1677485889.307
2349938.0,1677485889.349
2350711.0,1677485889.388
2351912.0,1677485889.428
2352420.0,1677485889.507
2353163.0,1677485889.546
2353532.0,1677485889.586
2353570.0,1677485889.627
2353399.0,1677485889.666
2352847.0,1677485889.706
2353115.0,1677485889.747
2354021.0,1677485889.786
2353463.0,1677485889.826
2350161.0,1677485889.867
2339913.0,1677485889.907
2329637.0,1677485889.946
2328334.0,1677485889.987
2331264.0,1677485890.026
2335636.0,1677485890.066
2341013.0,1677485890.108
2345914.0,1677485890.146
2349469.0,1677485890.186
2351515.0,1677485890.227
2352868.0,1677485890.266
2354151.0,1677485890.307
2354505.0,1677485890.347
2355549.0,1677485890.386
2356107.0,1677485890.426
2357295.0,1677485890.468
2358200.0,1677485890.507
2358781.0,1677485890.547
2360009.0,1677485890.588
2359961.0,1677485890.627
2361004.0,1677485890.667
2361678.0,1677485890.709
2362302.0,1677485890.747
2363550.0,1677485890.787
2365056.0,1677485890.828
2366439.0,1677485890.867
2367775.0,1677485890.908
2368729.0,1677485890.948
2369023.0,1677485890.987
2369047.0,1677485891.027
2369286.0,1677485891.068
2369254.0,1677485891.108
2369611.0,1677485891.147
2369661.0,1677485891.188
2369924.0,1677485891.227
2370691.0,1677485891.267
2371358.0,1677485891.309
2371713.0,1677485891.347
2371999.0,1677485891.387
2372203.0,1677485891.428
2372772.0,1677485891.467
2372738.0,1677485891.508
2373794.0,1677485891.548
2374202.0,1677485891.587
2374542.0,1677485891.628
2374439.0,1677485891.669
2373273.0,1677485891.708
2372738.0,1677485891.748
2371765.0,1677485891.789
2370873.0,1677485891.828
2369798.0,1677485891.868
2368618.0,1677485891.91
2365821.0,1677485891.948
2361530.0,1677485891.988
2359003.0,1677485892.029
2357275.0,1677485892.068
2354991.0,1677485892.109
2340178.0,1677485892.149
2322538.0,1677485892.188
2317797.0,1677485892.228
2320443.0,1677485892.269
2321519.0,1677485892.309
2321132.0,1677485892.348
2324279.0,1677485892.39
2328729.0,1677485892.429
2332480.0,1677485892.469
2334778.0,1677485892.51
2336152.0,1677485892.549
2336658.0,1677485892.589
2337859.0,1677485892.63
2339963.0,1677485892.669
2341581.0,1677485892.71
2343948.0,1677485892.75
2344930.0,1677485892.789
2345878.0,1677485892.829
2346577.0,1677485892.87
2347728.0,1677485892.91
2349363.0,1677485892.949
2350245.0,1677485892.99
2351250.0,1677485893.029
2351910.0,1677485893.069
2351812.0,1677485893.111
2351951.0,1677485893.149
2351115.0,1677485893.189
2350661.0,1677485893.231
2351028.0,1677485893.27
2350874.0,1677485893.31
2350806.0,1677485893.351
2350180.0,1677485893.39
2350171.0,1677485893.43
2350517.0,1677485893.471
2350755.0,1677485893.51
2351266.0,1677485893.55
2352453.0,1677485893.591
2352073.0,1677485893.63
2349578.0,1677485893.67
2331184.0,1677485893.712
2301864.0,1677485893.75
2290527.0,1677485893.79
2287407.0,1677485893.831
2285111.0,1677485893.87
2282667.0,1677485893.911
2279332.0,1677485893.951
2275828.0,1677485893.99
2273189.0,1677485894.03
2269575.0,1677485894.071
2266535.0,1677485894.111
2264752.0,1677485894.15
2263245.0,1677485894.192
2262361.0,1677485894.271
2262503.0,1677485894.312
2262301.0,1677485894.351
2262292.0,1677485894.391
2262809.0,1677485894.231
2262938.0,1677485894.432
2263935.0,1677485894.471
2264007.0,1677485894.512
2263700.0,1677485894.552
2263014.0,1677485894.591
2261102.0,1677485894.631
2259164.0,1677485894.672
2257713.0,1677485894.712
2256914.0,1677485894.751
2255878.0,1677485894.792
2255385.0,1677485894.831
2254634.0,1677485894.871
2254439.0,1677485894.913
2254469.0,1677485894.951
2254749.0,1677485894.991
2253732.0,1677485895.033
2252368.0,1677485895.071
2251940.0,1677485895.112
2256279.0,1677485895.153
2259478.0,1677485895.192
2258404.0,1677485895.232
2259153.0,1677485895.273
2255534.0,1677485895.312
2249500.0,1677485895.352
2244870.0,1677485895.393
2242518.0,1677485895.432
2238093.0,1677485895.472
2234391.0,1677485895.514
2230065.0,1677485895.552
2223806.0,1677485895.592
2216083.0,1677485895.633
2213448.0,1677485895.672
2211458.0,1677485895.713
2206449.0,1677485895.753
2201946.0,1677485895.792
2199649.0,1677485895.832
2198284.0,1677485895.873
2208577.0,1677485895.913
2224020.0,1677485895.952
2235657.0,1677485895.993
2243758.0,1677485896.032
2249094.0,1677485896.072
2249035.0,1677485896.114
2249411.0,1677485896.152
2252748.0,1677485896.193
2256443.0,1677485896.234
2255750.0,1677485896.273
2248673.0,1677485896.313
2238081.0,1677485896.354
2227976.0,1677485896.393
2224115.0,1677485896.433
2223368.0,1677485896.474
2224972.0,1677485896.513
2229309.0,1677485896.553
2234542.0,1677485896.594
2237837.0,1677485896.633
2239178.0,1677485896.673
2238936.0,1677485896.753
2239844.0,1677485896.715
2237630.0,1677485896.793
2237715.0,1677485896.834
2237089.0,1677485896.873
2237043.0,1677485896.914
2237497.0,1677485896.954
2238267.0,1677485896.993
2238879.0,1677485897.033
2239472.0,1677485897.074
2240144.0,1677485897.114
2240923.0,1677485897.153
2241900.0,1677485897.194
2243031.0,1677485897.233
2243772.0,1677485897.273
2244018.0,1677485897.315
2244379.0,1677485897.354
2244126.0,1677485897.394
2243967.0,1677485897.435
2243349.0,1677485897.474
2242064.0,1677485897.514
2242147.0,1677485897.555
2243669.0,1677485897.594
2248301.0,1677485897.634
2253676.0,1677485897.675
2260204.0,1677485897.715
2262910.0,1677485897.754
2251219.0,1677485897.795
2242498.0,1677485897.834
2239432.0,1677485897.874
2243102.0,1677485897.916
2246158.0,1677485897.954
2248352.0,1677485897.994
2249893.0,1677485898.035
2251518.0,1677485898.074
2251407.0,1677485898.115
2248716.0,1677485898.155
2247114.0,1677485898.194
2245614.0,1677485898.234
2242281.0,1677485898.275
2240833.0,1677485898.315
2241673.0,1677485898.354
2243623.0,1677485898.395
2244452.0,1677485898.434
2244710.0,1677485898.474
2245444.0,1677485898.516
2245895.0,1677485898.554
2247099.0,1677485898.594
2248186.0,1677485898.636
2248896.0,1677485898.675
2250063.0,1677485898.715
2249983.0,1677485898.756
2248985.0,1677485898.795
2247666.0,1677485898.832
2247126.0,1677485898.873
2246674.0,1677485898.913
2245881.0,1677485898.952
2245715.0,1677485898.995
2245157.0,1677485899.034
2245558.0,1677485899.073
2246147.0,1677485899.115
2246879.0,1677485899.154
2247123.0,1677485899.194
2247217.0,1677485899.235
2247909.0,1677485899.275
2247476.0,1677485899.315
2247245.0,1677485899.356
2250138.0,1677485899.436
2248787.0,1677485899.395
2251927.0,1677485899.475
2252987.0,1677485899.554
2252100.0,1677485899.515
2253326.0,1677485899.595
2253154.0,1677485899.635
2254914.0,1677485899.675
2255623.0,1677485899.717
2255825.0,1677485899.755
2255563.0,1677485899.796
2253155.0,1677485899.835
2247510.0,1677485899.874
2247884.0,1677485899.915
2254425.0,1677485899.956
2259074.0,1677485899.995
2261159.0,1677485900.035
2263096.0,1677485900.077
2264144.0,1677485900.117
2262963.0,1677485900.154
2258093.0,1677485900.195
2251271.0,1677485900.235
2246119.0,1677485900.275
2241679.0,1677485900.317
2238882.0,1677485900.355
2236388.0,1677485900.396
2233913.0,1677485900.437
2231907.0,1677485900.476
2229897.0,1677485900.515
2229254.0,1677485900.556
2228545.0,1677485900.595
2227502.0,1677485900.635
2226868.0,1677485900.676
2226100.0,1677485900.716
2225574.0,1677485900.756
2224856.0,1677485900.797
2223732.0,1677485900.836
2222035.0,1677485900.875
2217950.0,1677485900.917
2214415.0,1677485900.955
2211318.0,1677485900.996
2209205.0,1677485901.037
2207562.0,1677485901.076
2207623.0,1677485901.117
2207288.0,1677485901.158
2207085.0,1677485901.197
2208145.0,1677485901.235
2209077.0,1677485901.276
2210901.0,1677485901.316
2212652.0,1677485901.356
2215828.0,1677485901.397
2218731.0,1677485901.434
2221415.0,1677485901.474
2221771.0,1677485901.51
2221454.0,1677485901.548
2220798.0,1677485901.589
2219531.0,1677485901.63
2219227.0,1677485901.669
2219227.0,1677485901.709
2218882.0,1677485901.75
2217903.0,1677485901.789
2215648.0,1677485901.829
2212208.0,1677485901.87
2208128.0,1677485901.91
2205039.0,1677485901.949
2203044.0,1677485901.983
2201587.0,1677485902.022
2200254.0,1677485902.056
2199517.0,1677485902.096
2198764.0,1677485902.135
2197210.0,1677485902.175
2193178.0,1677485902.216
2187691.0,1677485902.256
2182595.0,1677485902.296
2178415.0,1677485902.337
2174958.0,1677485902.376
2172139.0,1677485902.416
2169998.0,1677485902.456
2168223.0,1677485902.496
2167144.0,1677485902.535
2167340.0,1677485902.577
2167698.0,1677485902.616
2169334.0,1677485902.656
2170591.0,1677485902.698
2171933.0,1677485902.737
2172711.0,1677485902.777
2172691.0,1677485902.816
2171901.0,1677485902.855
2169472.0,1677485902.896
2165879.0,1677485902.937
2162637.0,1677485902.976
2160457.0,1677485903.016
2158843.0,1677485903.058
2158137.0,1677485903.098
2157559.0,1677485903.135
2157209.0,1677485903.177
2156384.0,1677485903.216
2155646.0,1677485903.256
2155327.0,1677485903.298
2156362.0,1677485903.336
2156959.0,1677485903.377
2157857.0,1677485903.418
2158570.0,1677485903.457
2158653.0,1677485903.496
2155720.0,1677485903.537
2151678.0,1677485903.576
2148231.0,1677485903.616
2144624.0,1677485903.658
2141464.0,1677485903.697
2139130.0,1677485903.737
2137218.0,1677485903.779
2134708.0,1677485903.817
2132901.0,1677485903.856
2131929.0,1677485903.898
2131397.0,1677485903.936
2131264.0,1677485903.976
2130505.0,1677485904.015
2129849.0,1677485904.055
2128804.0,1677485904.096
2126016.0,1677485904.137
2119822.0,1677485904.176
2112348.0,1677485904.216
2105371.0,1677485904.258
2099949.0,1677485904.297
2095505.0,1677485904.337
2091676.0,1677485904.378
2088761.0,1677485904.417
2086807.0,1677485904.458
2085005.0,1677485904.5
2083741.0,1677485904.536
2083222.0,1677485904.576
2083655.0,1677485904.618
2084168.0,1677485904.657
2085677.0,1677485904.698
2086068.0,1677485904.739
2086854.0,1677485904.778
2085860.0,1677485904.818
2081831.0,1677485904.86
2075793.0,1677485904.897
2069498.0,1677485904.937
2063847.0,1677485904.978
2060280.0,1677485905.017
2057421.0,1677485905.058
2055499.0,1677485905.1
2054074.0,1677485905.138
2053260.0,1677485905.178
2052163.0,1677485905.218
2052397.0,1677485905.257
2052725.0,1677485905.298
2053899.0,1677485905.339
2055440.0,1677485905.378
2056649.0,1677485905.418
2058719.0,1677485905.46
2060620.0,1677485905.499
2060765.0,1677485905.539
2058117.0,1677485905.578
2049283.0,1677485905.657
2054449.0,1677485905.617
2046290.0,1677485905.7
2043844.0,1677485905.738
2042656.0,1677485905.778
2042336.0,1677485905.82
2041903.0,1677485905.859
2041485.0,1677485905.9
2040581.0,1677485905.939
2040358.0,1677485905.978
2041510.0,1677485906.018
2039623.0,1677485906.059
2033352.0,1677485906.099
2023748.0,1677485906.139
2014284.0,1677485906.18
2006145.0,1677485906.219
2003535.0,1677485906.257
1999422.0,1677485906.3
1995794.0,1677485906.338
1992642.0,1677485906.378
1988928.0,1677485906.42
1986621.0,1677485906.459
1987435.0,1677485906.5
1986540.0,1677485906.54
1985665.0,1677485906.579
1984319.0,1677485906.619
1983901.0,1677485906.659
1983375.0,1677485906.699
1984171.0,1677485906.738
1991796.0,1677485906.78
2002692.0,1677485906.819
2011151.0,1677485906.859
2012497.0,1677485906.901
2008788.0,1677485906.94
2011680.0,1677485906.978
2020451.0,1677485907.019
2027747.0,1677485907.058
2030155.0,1677485907.099
2033982.0,1677485907.14
2038110.0,1677485907.179
2037174.0,1677485907.219
2031745.0,1677485907.261
2033985.0,1677485907.301
2045298.0,1677485907.338
2054450.0,1677485907.38
2061028.0,1677485907.419
2066670.0,1677485907.459
2071536.0,1677485907.501
2075554.0,1677485907.539
2077252.0,1677485907.58
2077250.0,1677485907.621
2075383.0,1677485907.658
2073885.0,1677485907.699
2071889.0,1677485907.74
2069260.0,1677485907.779
2064466.0,1677485907.819
2059746.0,1677485907.861
2057488.0,1677485907.901
2056331.0,1677485907.94
2055654.0,1677485907.98
2053385.0,1677485908.019
2050144.0,1677485908.059
2046780.0,1677485908.101
2043971.0,1677485908.14
2042904.0,1677485908.18
2042656.0,1677485908.221
2041630.0,1677485908.261
2040049.0,1677485908.301
2038389.0,1677485908.34
2037822.0,1677485908.379
2039033.0,1677485908.419
2040231.0,1677485908.461
2043286.0,1677485908.501
2046579.0,1677485908.54
2050410.0,1677485908.582
2055763.0,1677485908.621
2061884.0,1677485908.661
2067592.0,1677485908.701
2072321.0,1677485908.739
2076988.0,1677485908.78
2081421.0,1677485908.821
2087353.0,1677485908.86
2090935.0,1677485908.901
2090974.0,1677485908.942
2089877.0,1677485908.981
2091198.0,1677485909.019
2092587.0,1677485909.061
2095206.0,1677485909.103
2097881.0,1677485909.142
2098181.0,1677485909.185
2095206.0,1677485909.221
2094000.0,1677485909.26
2095340.0,1677485909.302
2095923.0,1677485909.34
2096148.0,1677485909.38
2093960.0,1677485909.422
2093187.0,1677485909.461
2094443.0,1677485909.502
2094119.0,1677485909.543
2093106.0,1677485909.582
2092745.0,1677485909.62
2093701.0,1677485909.661
2096821.0,1677485909.701
2099064.0,1677485909.74
2101738.0,1677485909.782
2102472.0,1677485909.821
2102830.0,1677485909.861
2103370.0,1677485909.903
2104833.0,1677485909.942
2105293.0,1677485909.98
2105997.0,1677485910.022
2107596.0,1677485910.061
2109783.0,1677485910.101
2111799.0,1677485910.142
2113404.0,1677485910.181
2114971.0,1677485910.222
2115900.0,1677485910.263
2116612.0,1677485910.303
2117675.0,1677485910.34
2119819.0,1677485910.382
2122248.0,1677485910.421
2124731.0,1677485910.461
2125986.0,1677485910.503
2127416.0,1677485910.542
2128722.0,1677485910.582
2129783.0,1677485910.623
2131856.0,1677485910.663
2133635.0,1677485910.701
2135417.0,1677485910.742
2135224.0,1677485910.781
2134862.0,1677485910.821
2135391.0,1677485910.863
2136309.0,1677485910.903
2137603.0,1677485910.942
2138981.0,1677485910.984
2140668.0,1677485911.021
2142168.0,1677485911.061
2139085.0,1677485911.103
2136224.0,1677485911.142
2136086.0,1677485911.182
2138788.0,1677485911.223
2138049.0,1677485911.262
2128582.0,1677485911.303
2113642.0,1677485911.344
2102606.0,1677485911.381
2095939.0,1677485911.421
2093589.0,1677485911.463
2091844.0,1677485911.503
2093304.0,1677485911.542
2093640.0,1677485911.584
2093777.0,1677485911.623
2098565.0,1677485911.667
2099654.0,1677485911.701
2100834.0,1677485911.741
2103402.0,1677485911.781
2104763.0,1677485911.823
2107310.0,1677485911.862
2110453.0,1677485911.902
2110792.0,1677485911.944
2109819.0,1677485911.983
2110978.0,1677485912.023
2112741.0,1677485912.064
2114676.0,1677485912.104
2118423.0,1677485912.141
2123335.0,1677485912.183
2127566.0,1677485912.222
2131041.0,1677485912.262
2132795.0,1677485912.305
2134473.0,1677485912.343
2137732.0,1677485912.383
2141306.0,1677485912.425
2144100.0,1677485912.464
2147211.0,1677485912.502
2149176.0,1677485912.543
2148259.0,1677485912.582
2146640.0,1677485912.623
2146584.0,1677485912.664
2148551.0,1677485912.704
2149351.0,1677485912.743
2151537.0,1677485912.785
2153004.0,1677485912.824
2154938.0,1677485912.862
2157485.0,1677485912.904
2158506.0,1677485912.943
2159917.0,1677485912.983
2160759.0,1677485913.024
2162868.0,1677485913.064
2163826.0,1677485913.104
2164107.0,1677485913.145
2163642.0,1677485913.184
2160941.0,1677485913.222
2152739.0,1677485913.264
2143848.0,1677485913.304
2141340.0,1677485913.343
2137562.0,1677485913.385
2134510.0,1677485913.424
2134895.0,1677485913.464
2135885.0,1677485913.507
2134914.0,1677485913.545
2133023.0,1677485913.626
2133292.0,1677485913.665
2134225.0,1677485913.706
2135941.0,1677485913.747
2133401.0,1677485913.585
2137676.0,1677485913.826
2136946.0,1677485913.786
2139313.0,1677485913.867
2140809.0,1677485913.907
2142726.0,1677485913.946
2144272.0,1677485913.987
2144707.0,1677485914.026
2145009.0,1677485914.066
2145454.0,1677485914.108
2146855.0,1677485914.146
2147216.0,1677485914.186
2148159.0,1677485914.227
2149263.0,1677485914.264
2150010.0,1677485914.305
2151055.0,1677485914.346
2152346.0,1677485914.385
2153245.0,1677485914.425
2153772.0,1677485914.467
2154355.0,1677485914.507
2155406.0,1677485914.546
2157269.0,1677485914.588
2158691.0,1677485914.627
2159852.0,1677485914.667
2159437.0,1677485914.709
2158914.0,1677485914.745
2158134.0,1677485914.786
2157884.0,1677485914.827
2158866.0,1677485914.866
2159974.0,1677485914.907
2161270.0,1677485914.948
2162683.0,1677485914.987
2163352.0,1677485915.027
2164008.0,1677485915.069
2165201.0,1677485915.106
2166035.0,1677485915.146
2164383.0,1677485915.187
2163622.0,1677485915.226
2164938.0,1677485915.267
2167036.0,1677485915.309
2168263.0,1677485915.347
2168711.0,1677485915.387
2168295.0,1677485915.429
2166279.0,1677485915.466
2163120.0,1677485915.507
2159544.0,1677485915.548
2156226.0,1677485915.587
2152535.0,1677485915.627
2149588.0,1677485915.669
2146216.0,1677485915.708
2144052.0,1677485915.748
2143846.0,1677485915.789
2143683.0,1677485915.826
2144024.0,1677485915.867
2143810.0,1677485915.909
2142730.0,1677485915.947
2142541.0,1677485915.987
2142197.0,1677485916.029
2143128.0,1677485916.068
2145990.0,1677485916.109
2151984.0,1677485916.148
2167545.0,1677485916.187
2187425.0,1677485916.227
2202913.0,1677485916.269
2210718.0,1677485916.308
2198762.0,1677485916.348
2194264.0,1677485916.389
2199515.0,1677485916.428
2204993.0,1677485916.469
2209789.0,1677485916.509
2211699.0,1677485916.547
2212642.0,1677485916.587
2217619.0,1677485916.629
2221469.0,1677485916.668
2224899.0,1677485916.709
2228161.0,1677485916.75
2231069.0,1677485916.788
2233629.0,1677485916.825
2235749.0,1677485916.867
2237238.0,1677485916.907
2238992.0,1677485916.947
2240587.0,1677485916.988
2243070.0,1677485917.027
2245757.0,1677485917.068
2248322.0,1677485917.11
2251725.0,1677485917.148
2255644.0,1677485917.188
2259872.0,1677485917.23
2263469.0,1677485917.269
2266263.0,1677485917.31
2267650.0,1677485917.349
2269397.0,1677485917.388
2270186.0,1677485917.428
2271958.0,1677485917.469
2272489.0,1677485917.509
2272359.0,1677485917.549
2271253.0,1677485917.59
2269080.0,1677485917.629
2265788.0,1677485917.669
2260826.0,1677485917.71
2253618.0,1677485917.748
2246200.0,1677485917.788
2237394.0,1677485917.83
2226006.0,1677485917.869
2216958.0,1677485917.91
2210897.0,1677485917.951
2209708.0,1677485917.99
2207926.0,1677485918.028
2207494.0,1677485918.109
2207333.0,1677485918.069
2206080.0,1677485918.148
2204670.0,1677485918.19
2204798.0,1677485918.229
2205586.0,1677485918.269
2205678.0,1677485918.312
2206735.0,1677485918.35
2208688.0,1677485918.388
2212785.0,1677485918.43
2216706.0,1677485918.469
2219569.0,1677485918.509
2220056.0,1677485918.55
2219687.0,1677485918.589
2217321.0,1677485918.63
2214839.0,1677485918.671
2213576.0,1677485918.711
2213100.0,1677485918.748
2211632.0,1677485918.79
2209313.0,1677485918.829
2206222.0,1677485918.869
2203446.0,1677485918.911
2201092.0,1677485918.95
2199907.0,1677485918.99
2198214.0,1677485919.032
2196885.0,1677485919.069
2195656.0,1677485919.109
2194308.0,1677485919.15
2193141.0,1677485919.189
2192270.0,1677485919.229
2191438.0,1677485919.271
2191195.0,1677485919.311
2190392.0,1677485919.349
2189935.0,1677485919.388
2188333.0,1677485919.427
2185515.0,1677485919.467
2182113.0,1677485919.51
2178876.0,1677485919.548
2176007.0,1677485919.589
2174360.0,1677485919.63
2173338.0,1677485919.669
2172008.0,1677485919.71
2170902.0,1677485919.751
2169184.0,1677485919.79
2167316.0,1677485919.83
2165084.0,1677485919.872
2162773.0,1677485919.911
2160791.0,1677485919.951
2158834.0,1677485919.99
2156626.0,1677485920.029
2154174.0,1677485920.07
2151208.0,1677485920.112
2147008.0,1677485920.15
2143507.0,1677485920.19
2140227.0,1677485920.232
2136606.0,1677485920.271
2133910.0,1677485920.312
2131178.0,1677485920.351
2128569.0,1677485920.39
2126399.0,1677485920.43
2124691.0,1677485920.472
2122989.0,1677485920.511
2121508.0,1677485920.551
2120595.0,1677485920.592
2120169.0,1677485920.631
2119562.0,1677485920.672
2119521.0,1677485920.712
2118811.0,1677485920.75
2116374.0,1677485920.79
2113511.0,1677485920.832
2110177.0,1677485920.871
2107442.0,1677485920.912
2105304.0,1677485920.953
2102956.0,1677485920.992
2101426.0,1677485921.03
2100440.0,1677485921.072
2099321.0,1677485921.111
2098423.0,1677485921.151
2097062.0,1677485921.192
2096278.0,1677485921.231
2094971.0,1677485921.272
2093990.0,1677485921.314
2093136.0,1677485921.352
2092221.0,1677485921.39
2090539.0,1677485921.432
2086984.0,1677485921.471
2083467.0,1677485921.512
2080022.0,1677485921.552
2076865.0,1677485921.592
2074417.0,1677485921.632
2072175.0,1677485921.673
2070165.0,1677485921.713
2068651.0,1677485921.75
2067580.0,1677485921.792
2066886.0,1677485921.831
2065751.0,1677485921.871
2065588.0,1677485921.912
2065042.0,1677485921.951
2064516.0,1677485921.992
2063546.0,1677485922.033
2063289.0,1677485922.072
2061681.0,1677485922.113
2058513.0,1677485922.154
2054805.0,1677485922.191
2051451.0,1677485922.231
2048214.0,1677485922.273
2045700.0,1677485922.312
2043730.0,1677485922.352
2042224.0,1677485922.393
2041619.0,1677485922.432
2040804.0,1677485922.473
2040005.0,1677485922.515
2040131.0,1677485922.551
2040229.0,1677485922.591
2040487.0,1677485922.633
2041118.0,1677485922.672
2041087.0,1677485922.713
2041144.0,1677485922.754
2039817.0,1677485922.793
2037195.0,1677485922.833
2034464.0,1677485922.874
2032413.0,1677485922.912
2030131.0,1677485922.952
2029888.0,1677485922.993
2030753.0,1677485923.032
2031143.0,1677485923.073
2031525.0,1677485923.115
2032289.0,1677485923.153
2032134.0,1677485923.193
2032391.0,1677485923.233
2032654.0,1677485923.272
2033395.0,1677485923.313
2033770.0,1677485923.354
2034490.0,1677485923.393
2033831.0,1677485923.433
2031719.0,1677485923.474
2028997.0,1677485923.514
2026353.0,1677485923.554
2023539.0,1677485923.593
2021929.0,1677485923.632
2021103.0,1677485923.672
2020023.0,1677485923.715
2019440.0,1677485923.753
2019381.0,1677485923.793
2019138.0,1677485923.835
2018719.0,1677485923.915
2019192.0,1677485923.874
2015324.0,1677485923.992
2017201.0,1677485923.953
2014157.0,1677485924.033
2012088.0,1677485924.074
2008015.0,1677485924.114
1999188.0,1677485924.195
1993206.0,1677485924.272
2003676.0,1677485924.153
1996146.0,1677485924.234
1991119.0,1677485924.314
1988774.0,1677485924.353
1983406.0,1677485924.435
1986055.0,1677485924.393
1979542.0,1677485924.511
1981350.0,1677485924.473
1978915.0,1677485924.553
1978345.0,1677485924.592
1978955.0,1677485924.674
1978725.0,1677485924.632
1979665.0,1677485924.714
1980639.0,1677485924.753
1980351.0,1677485924.795
1978795.0,1677485924.834
1976380.0,1677485924.874
1973094.0,1677485924.916
1970541.0,1677485924.954
1969309.0,1677485924.993
1968992.0,1677485925.034
1968688.0,1677485925.073
1968764.0,1677485925.114
1969916.0,1677485925.155
1969921.0,1677485925.194
1970514.0,1677485925.234
1970880.0,1677485925.276
1971761.0,1677485925.316
1972791.0,1677485925.353
1973232.0,1677485925.395
1974224.0,1677485925.434
1975093.0,1677485925.474
1975010.0,1677485925.517
1974034.0,1677485925.555
1972205.0,1677485925.595
1970238.0,1677485925.636
1967889.0,1677485925.675
1966945.0,1677485925.716
1966212.0,1677485925.757
1965941.0,1677485925.796
1966243.0,1677485925.836
1966766.0,1677485925.877
1967443.0,1677485925.916
1967509.0,1677485925.956
1968305.0,1677485925.996
1969972.0,1677485926.035
1971305.0,1677485926.075
1973807.0,1677485926.117
1975565.0,1677485926.156
1976805.0,1677485926.196
1977158.0,1677485926.238
1975577.0,1677485926.277
1974142.0,1677485926.317
1972811.0,1677485926.358
1971738.0,1677485926.397
1970626.0,1677485926.438
1970309.0,1677485926.477
1970778.0,1677485926.517
1970655.0,1677485926.556
1971488.0,1677485926.598
1972587.0,1677485926.637
1974392.0,1677485926.677
1976102.0,1677485926.719
1977684.0,1677485926.758
1979755.0,1677485926.798
1981536.0,1677485926.837
1983105.0,1677485926.876
1984432.0,1677485926.917
1986111.0,1677485926.958
1986773.0,1677485926.997
1986020.0,1677485927.037
1985482.0,1677485927.077
1984702.0,1677485927.116
1984473.0,1677485927.156
1984707.0,1677485927.198
1985100.0,1677485927.237
1985864.0,1677485927.277
1986337.0,1677485927.319
1987369.0,1677485927.357
1988262.0,1677485927.398
1989343.0,1677485927.439
1990622.0,1677485927.478
1991651.0,1677485927.519
1992938.0,1677485927.558
1994329.0,1677485927.597
1995622.0,1677485927.637
1997070.0,1677485927.679
1997470.0,1677485927.718
1997032.0,1677485927.758
1996155.0,1677485927.8
1995564.0,1677485927.838
1994754.0,1677485927.879
1994367.0,1677485927.919
1994694.0,1677485927.957
1994931.0,1677485927.997
1993886.0,1677485928.039
1992038.0,1677485928.078
1991702.0,1677485928.119
1990748.0,1677485928.16
1990215.0,1677485928.199
1991659.0,1677485928.237
1992523.0,1677485928.279
1993942.0,1677485928.318
1997843.0,1677485928.358
2005158.0,1677485928.399
2012506.0,1677485928.438
2013703.0,1677485928.479
2020797.0,1677485928.521
2024048.0,1677485928.559
2022205.0,1677485928.597
2020255.0,1677485928.639
2020912.0,1677485928.678
2021243.0,1677485928.719
2022368.0,1677485928.76
2024155.0,1677485928.799
2026857.0,1677485928.839
2029114.0,1677485928.881
2031090.0,1677485928.92
2034104.0,1677485928.958
2035907.0,1677485928.999
2038711.0,1677485929.038
2041255.0,1677485929.079
2043492.0,1677485929.121
2044916.0,1677485929.159
2045395.0,1677485929.199
2045494.0,1677485929.241
2045689.0,1677485929.278
2046577.0,1677485929.319
2049113.0,1677485929.36
2052220.0,1677485929.399
2055108.0,1677485929.439
2057291.0,1677485929.481
2058889.0,1677485929.52
2060886.0,1677485929.56
2063314.0,1677485929.6
2065476.0,1677485929.64
2068124.0,1677485929.678
2070688.0,1677485929.72
2073911.0,1677485929.759
2077817.0,1677485929.799
2080933.0,1677485929.84
2083712.0,1677485929.88
2085552.0,1677485929.92
2087289.0,1677485929.961
2088702.0,1677485929.998
2090231.0,1677485930.039
2091016.0,1677485930.08
2092313.0,1677485930.12
2091053.0,1677485930.159
2088901.0,1677485930.201
2087037.0,1677485930.24
2089329.0,1677485930.28
2092304.0,1677485930.322
2095626.0,1677485930.359
2096532.0,1677485930.399
2096967.0,1677485930.44
2097072.0,1677485930.48
2097295.0,1677485930.52
2097959.0,1677485930.561
2097456.0,1677485930.6
2095626.0,1677485930.64
2094197.0,1677485930.682
2091611.0,1677485930.72
2090415.0,1677485930.759
2088886.0,1677485930.801
2089279.0,1677485930.84
2089464.0,1677485930.88
2090118.0,1677485930.922
2091379.0,1677485930.961
2092648.0,1677485931.001
2093439.0,1677485931.04
2095577.0,1677485931.079
2097755.0,1677485931.12
2100248.0,1677485931.161
2102332.0,1677485931.2
2104902.0,1677485931.24
2108006.0,1677485931.282
2108328.0,1677485931.322
2107860.0,1677485931.361
2107330.0,1677485931.401
2105666.0,1677485931.44
2103410.0,1677485931.48
2102305.0,1677485931.522
2101824.0,1677485931.56
2101163.0,1677485931.601
2100533.0,1677485931.642
2100869.0,1677485931.681
2100527.0,1677485931.722
2101180.0,1677485931.761
2100983.0,1677485931.8
2101586.0,1677485931.84
2102511.0,1677485931.882
2103463.0,1677485931.921
2104111.0,1677485931.961
2105095.0,1677485932.003
2104487.0,1677485932.042
2102635.0,1677485932.08
2099710.0,1677485932.122
2096115.0,1677485932.159
2092467.0,1677485932.2
2089944.0,1677485932.242
2089632.0,1677485932.281
2092846.0,1677485932.322
2100231.0,1677485932.363
2109170.0,1677485932.402
2117351.0,1677485932.442
2128206.0,1677485932.481
2142456.0,1677485932.521
2148787.0,1677485932.561
2139724.0,1677485932.602
2131824.0,1677485932.641
2143461.0,1677485932.681
2162211.0,1677485932.724
2177291.0,1677485932.762
2177294.0,1677485932.802
2163386.0,1677485932.842
2154297.0,1677485932.881
2158712.0,1677485932.922
2166155.0,1677485932.963
2172453.0,1677485933.002
2177958.0,1677485933.042
2180626.0,1677485933.083
2182776.0,1677485933.123
2184957.0,1677485933.161
2185175.0,1677485933.202
2184049.0,1677485933.241
2178179.0,1677485933.281
2169258.0,1677485933.324
2161299.0,1677485933.362
2157327.0,1677485933.402
2155660.0,1677485933.444
2155776.0,1677485933.483
2155571.0,1677485933.522
2155992.0,1677485933.562
2154526.0,1677485933.601
2152124.0,1677485933.642
2148773.0,1677485933.683
2146630.0,1677485933.723
2143636.0,1677485933.762
2141665.0,1677485933.804
2140162.0,1677485933.843
2139302.0,1677485933.881
2138538.0,1677485933.923
2138205.0,1677485933.962
2138861.0,1677485934.002
2140763.0,1677485934.044
2141786.0,1677485934.083
2142847.0,1677485934.123
2144232.0,1677485934.164
2145700.0,1677485934.201
2146037.0,1677485934.242
2146298.0,1677485934.283
2147230.0,1677485934.323
2147145.0,1677485934.362
2144660.0,1677485934.404
2140549.0,1677485934.443
2137215.0,1677485934.483
2137973.0,1677485934.525
2139924.0,1677485934.562
2141656.0,1677485934.602
2141845.0,1677485934.643
2139153.0,1677485934.683
2136815.0,1677485934.722
2137652.0,1677485934.762
2140028.0,1677485934.801
2142101.0,1677485934.841
2143768.0,1677485934.883
2145062.0,1677485934.923
2145277.0,1677485934.962
2145949.0,1677485935.004
2145754.0,1677485935.043
2144575.0,1677485935.083
2142442.0,1677485935.125
2139828.0,1677485935.164
2138130.0,1677485935.202
2137132.0,1677485935.244
2136413.0,1677485935.283
2136178.0,1677485935.324
2135702.0,1677485935.364
2135421.0,1677485935.403
2135348.0,1677485935.444
2135768.0,1677485935.485
2136629.0,1677485935.525
2136933.0,1677485935.562
2137467.0,1677485935.604
2138642.0,1677485935.643
2139555.0,1677485935.683
2140933.0,1677485935.725
2141729.0,1677485935.764
2140877.0,1677485935.804
2139343.0,1677485935.845
2137165.0,1677485935.885
2135246.0,1677485935.923
2133572.0,1677485935.964
2133136.0,1677485936.003
2132385.0,1677485936.043
2132138.0,1677485936.085
2132309.0,1677485936.125
2132721.0,1677485936.164
2132731.0,1677485936.206
2133975.0,1677485936.243
2134353.0,1677485936.283
2135318.0,1677485936.325
2136127.0,1677485936.364
2136717.0,1677485936.404
2137253.0,1677485936.445
2137972.0,1677485936.484
2138068.0,1677485936.525
2135903.0,1677485936.566
2133672.0,1677485936.603
2132130.0,1677485936.643
2130249.0,1677485936.685
2129175.0,1677485936.725
2128634.0,1677485936.764
2128570.0,1677485936.806
2128021.0,1677485936.845
2127500.0,1677485936.885
2127356.0,1677485936.927
2127129.0,1677485936.963
2127537.0,1677485937.004
2126875.0,1677485937.045
2127345.0,1677485937.084
2127271.0,1677485937.125
2127562.0,1677485937.166
2128157.0,1677485937.205
2126832.0,1677485937.245
2124894.0,1677485937.286
2122888.0,1677485937.326
2120547.0,1677485937.364
2119126.0,1677485937.405
2118509.0,1677485937.444
2118630.0,1677485937.484
2118534.0,1677485937.527
2118505.0,1677485937.565
2119058.0,1677485937.605
2120107.0,1677485937.646
2120203.0,1677485937.685
2120900.0,1677485937.726
2122319.0,1677485937.766
2122783.0,1677485937.805
2123992.0,1677485937.845
2124753.0,1677485937.886
2124791.0,1677485937.965
2125496.0,1677485937.926
2122134.0,1677485938.008
2119140.0,1677485938.047
2115922.0,1677485938.087
2113849.0,1677485938.129
2112062.0,1677485938.165
2110994.0,1677485938.205
2110186.0,1677485938.247
2109550.0,1677485938.286
2109376.0,1677485938.327
2109016.0,1677485938.368
2109562.0,1677485938.407
2109618.0,1677485938.447
2109940.0,1677485938.489
2110863.0,1677485938.526
2111541.0,1677485938.566
2112104.0,1677485938.607
2112837.0,1677485938.646
2112605.0,1677485938.687
2111187.0,1677485938.729
2108241.0,1677485938.767
2105349.0,1677485938.807
2102029.0,1677485938.849
2099278.0,1677485938.886
2098074.0,1677485938.927
2097534.0,1677485938.968
2096445.0,1677485939.007
2096039.0,1677485939.047
2096172.0,1677485939.089
2095907.0,1677485939.128
2096320.0,1677485939.168
2096972.0,1677485939.207
2097547.0,1677485939.246
2098114.0,1677485939.287
2099744.0,1677485939.329
2100764.0,1677485939.367
2101562.0,1677485939.407
2102092.0,1677485939.449
2100105.0,1677485939.488
2097975.0,1677485939.529
2095330.0,1677485939.567
2092667.0,1677485939.607
2090990.0,1677485939.647
2090315.0,1677485939.688
2090136.0,1677485939.728
2089502.0,1677485939.767
2090309.0,1677485939.809
2090195.0,1677485939.845
2090469.0,1677485939.885
2091650.0,1677485939.926
2092499.0,1677485939.966
2093347.0,1677485940.006
2094032.0,1677485940.048
2094783.0,1677485940.087
2095312.0,1677485940.127
2096618.0,1677485940.168
2095102.0,1677485940.207
2092900.0,1677485940.248
2092242.0,1677485940.289
2088725.0,1677485940.329
2082756.0,1677485940.368
2076097.0,1677485940.41
2071112.0,1677485940.447
2072704.0,1677485940.487
2084402.0,1677485940.529
2100911.0,1677485940.568
2110811.0,1677485940.608
2117910.0,1677485940.649
2124847.0,1677485940.689
2111478.0,1677485940.729
2101563.0,1677485940.77
2099177.0,1677485940.807
2101385.0,1677485940.846
2107918.0,1677485940.888
2112600.0,1677485940.928
2112506.0,1677485940.968
2111243.0,1677485941.009
2108509.0,1677485941.048
2107320.0,1677485941.089
2107157.0,1677485941.131
2107769.0,1677485941.169
2109062.0,1677485941.207
2110210.0,1677485941.249
2111499.0,1677485941.288
2113680.0,1677485941.329
2114894.0,1677485941.37
2116829.0,1677485941.409
2118271.0,1677485941.449
2119722.0,1677485941.491
2122439.0,1677485941.53
2124449.0,1677485941.568
2126166.0,1677485941.609
2128389.0,1677485941.648
2130116.0,1677485941.688
2130669.0,1677485941.731
2131314.0,1677485941.769
2130485.0,1677485941.809
2129904.0,1677485941.851
2130880.0,1677485941.89
2131947.0,1677485941.929
2133545.0,1677485941.97
2135213.0,1677485942.009
2137340.0,1677485942.049
2139348.0,1677485942.09
2141316.0,1677485942.13
2142784.0,1677485942.17
2143089.0,1677485942.211
2143642.0,1677485942.248
2145498.0,1677485942.288
2148383.0,1677485942.331
2151320.0,1677485942.369
2152777.0,1677485942.41
2141616.0,1677485942.447
2131107.0,1677485942.486
2126786.0,1677485942.527
2127343.0,1677485942.568
2130537.0,1677485942.608
2129827.0,1677485942.648
2126932.0,1677485942.69
2125168.0,1677485942.729
2124559.0,1677485942.769
2125232.0,1677485942.81
2126183.0,1677485942.849
2128730.0,1677485942.89
2132527.0,1677485942.932
2137084.0,1677485942.97
2141175.0,1677485943.011
2145533.0,1677485943.05
2152556.0,1677485943.089
2160176.0,1677485943.13
2163437.0,1677485943.171
2165518.0,1677485943.21
2168233.0,1677485943.25
2169502.0,1677485943.292
2170500.0,1677485943.331
2170617.0,1677485943.371
2171506.0,1677485943.41
2171812.0,1677485943.449
2173398.0,1677485943.49
2174984.0,1677485943.532
2177173.0,1677485943.57
2178770.0,1677485943.61
2180333.0,1677485943.652
2182271.0,1677485943.691
2183706.0,1677485943.732
2185264.0,1677485943.77
2186919.0,1677485943.81
2187166.0,1677485943.85
2186878.0,1677485943.891
2186182.0,1677485943.931
2185501.0,1677485943.971
2185346.0,1677485944.012
2185334.0,1677485944.051
2184917.0,1677485944.089
2185034.0,1677485944.132
2185386.0,1677485944.17
2186277.0,1677485944.21
2187446.0,1677485944.252
2186446.0,1677485944.291
2180491.0,1677485944.332
2177451.0,1677485944.373
2179422.0,1677485944.412
2192135.0,1677485944.45
2214027.0,1677485944.491
2228214.0,1677485944.531
2236904.0,1677485944.57
2246065.0,1677485944.612
2243660.0,1677485944.651
2241057.0,1677485944.691
2243767.0,1677485944.733
2248243.0,1677485944.772
2253597.0,1677485944.81
2256508.0,1677485944.851
2256262.0,1677485944.891
2254359.0,1677485944.931
2251964.0,1677485944.971
2244630.0,1677485945.011
2235186.0,1677485945.051
2227262.0,1677485945.093
2221319.0,1677485945.132
2218591.0,1677485945.172
2214801.0,1677485945.25
2216643.0,1677485945.212
2211445.0,1677485945.333
2212898.0,1677485945.291
2207645.0,1677485945.412
2209092.0,1677485945.371
2205639.0,1677485945.453
2204640.0,1677485945.492
2204062.0,1677485945.533
2202308.0,1677485945.572
2201544.0,1677485945.611
2200284.0,1677485945.651
2199274.0,1677485945.693
2198096.0,1677485945.732
2197690.0,1677485945.772
2196973.0,1677485945.813
2196883.0,1677485945.852
2195119.0,1677485945.893
2192971.0,1677485945.933
2189754.0,1677485945.971
2187466.0,1677485946.011
2185285.0,1677485946.053
2183484.0,1677485946.092
2182648.0,1677485946.133
2183013.0,1677485946.174
2182534.0,1677485946.213
2183280.0,1677485946.251
2184051.0,1677485946.293
2185737.0,1677485946.332
2187445.0,1677485946.372
2189591.0,1677485946.413
2191967.0,1677485946.452
2194205.0,1677485946.493
2196920.0,1677485946.535
2198097.0,1677485946.573
2198315.0,1677485946.611
2196895.0,1677485946.653
2194699.0,1677485946.692
2192958.0,1677485946.733
2191999.0,1677485946.774
2191922.0,1677485946.853
2194315.0,1677485946.934
2195539.0,1677485947.013
2197210.0,1677485947.052
2199841.0,1677485947.093
2192983.0,1677485946.894
2191694.0,1677485946.813
2194668.0,1677485946.972
2203855.0,1677485947.173
2201844.0,1677485947.135
2204790.0,1677485947.213
2207395.0,1677485947.255
2208089.0,1677485947.292
2207679.0,1677485947.333
2206650.0,1677485947.374
2205377.0,1677485947.413
2204613.0,1677485947.453
2203400.0,1677485947.494
2202277.0,1677485947.533
2201828.0,1677485947.571
2200714.0,1677485947.613
2200217.0,1677485947.652
2201553.0,1677485947.692
2202245.0,1677485947.734
2203032.0,1677485947.772
2204083.0,1677485947.813
2203780.0,1677485947.854
2200791.0,1677485947.893
2198757.0,1677485947.934
2199485.0,1677485947.975
2198809.0,1677485948.014
2192933.0,1677485948.052
2182131.0,1677485948.094
2177068.0,1677485948.134
2178264.0,1677485948.173
2181038.0,1677485948.215
2184413.0,1677485948.254
2185495.0,1677485948.294
2186307.0,1677485948.336
2186569.0,1677485948.374
2187084.0,1677485948.412
2187526.0,1677485948.454
2188051.0,1677485948.493
2188866.0,1677485948.534
2189764.0,1677485948.575
2190844.0,1677485948.614
2191610.0,1677485948.654
2191477.0,1677485948.696
2189688.0,1677485948.735
2187462.0,1677485948.773
2185411.0,1677485948.814
2184866.0,1677485948.853
2184678.0,1677485948.894
2185077.0,1677485948.936
2186075.0,1677485948.974
2187019.0,1677485949.014
2187643.0,1677485949.056
2191071.0,1677485949.134
2189486.0,1677485949.093
2193059.0,1677485949.175
2195285.0,1677485949.214
2197890.0,1677485949.254
2199883.0,1677485949.296
2202368.0,1677485949.335
2204118.0,1677485949.375
2205932.0,1677485949.416
2206980.0,1677485949.453
2206493.0,1677485949.494
2204607.0,1677485949.537
2203481.0,1677485949.575
2202956.0,1677485949.615
2203184.0,1677485949.656
2203423.0,1677485949.695
2204619.0,1677485949.736
2205513.0,1677485949.776
2203005.0,1677485949.815
2196266.0,1677485949.855
2189367.0,1677485949.896
2183430.0,1677485949.936
2178217.0,1677485949.975
2170621.0,1677485950.018
2164522.0,1677485950.056
2160593.0,1677485950.094
2161824.0,1677485950.137
2166980.0,1677485950.175
2166742.0,1677485950.216
2167646.0,1677485950.257
2170351.0,1677485950.296
2172897.0,1677485950.337
2178314.0,1677485950.378
2183045.0,1677485950.417
2185849.0,1677485950.457
2188923.0,1677485950.499
2193358.0,1677485950.538
2200245.0,1677485950.578
2207261.0,1677485950.619
2212906.0,1677485950.656
2216707.0,1677485950.696
2216550.0,1677485950.739
2215427.0,1677485950.777
2215281.0,1677485950.817
2214747.0,1677485950.859
2214584.0,1677485950.898
2215180.0,1677485950.939
2215461.0,1677485950.98
2216513.0,1677485951.016
2217529.0,1677485951.057
2217422.0,1677485951.098
2219274.0,1677485951.138
2221259.0,1677485951.177
2222355.0,1677485951.219
2223705.0,1677485951.258
2225394.0,1677485951.298
2227375.0,1677485951.34
2229329.0,1677485951.377
2229488.0,1677485951.417
2228584.0,1677485951.458
2228208.0,1677485951.538
2225958.0,1677485951.618
2224502.0,1677485951.658
2223573.0,1677485951.7
2227335.0,1677485951.579
2227679.0,1677485951.498
2221148.0,1677485951.777
2222936.0,1677485951.738
2217326.0,1677485951.819
2213822.0,1677485951.858
2218170.0,1677485951.94
2215408.0,1677485951.898
2219886.0,1677485951.979
2221539.0,1677485952.019
2226562.0,1677485952.098
2224422.0,1677485952.058
2227227.0,1677485952.179
2227166.0,1677485952.138
2224634.0,1677485952.218
2221247.0,1677485952.3
2221442.0,1677485952.258
2223463.0,1677485952.34
2226322.0,1677485952.379
2229238.0,1677485952.419
2231236.0,1677485952.458
2233178.0,1677485952.498
2234652.0,1677485952.54
2236275.0,1677485952.578
2238220.0,1677485952.619
2240251.0,1677485952.657
2241546.0,1677485952.697
2243252.0,1677485952.738
2243973.0,1677485952.779
2243824.0,1677485952.818
2243569.0,1677485952.858
2242406.0,1677485952.9
2242314.0,1677485952.939
2241910.0,1677485952.979
2242132.0,1677485953.02
2242849.0,1677485953.059
2244160.0,1677485953.1
2245096.0,1677485953.14
2245522.0,1677485953.178
2246213.0,1677485953.218
2247162.0,1677485953.26
2248041.0,1677485953.299
2248815.0,1677485953.34
2248782.0,1677485953.381
2248020.0,1677485953.42
2247228.0,1677485953.46
2244388.0,1677485953.5
2240918.0,1677485953.539
2239474.0,1677485953.579
2239065.0,1677485953.62
2235821.0,1677485953.659
2233318.0,1677485953.7
2232837.0,1677485953.742
2231136.0,1677485953.78
2228032.0,1677485953.82
2224763.0,1677485953.86
2220379.0,1677485953.899
2217723.0,1677485953.94
2214666.0,1677485953.981
2210883.0,1677485954.02
2203269.0,1677485954.06
2195261.0,1677485954.102
2197579.0,1677485954.141
2208070.0,1677485954.179
2227818.0,1677485954.22
2233513.0,1677485954.259
2239977.0,1677485954.3
2249193.0,1677485954.342
2246273.0,1677485954.38
2235836.0,1677485954.42
2230748.0,1677485954.462
2233009.0,1677485954.501
2237932.0,1677485954.54
2239133.0,1677485954.581
2238274.0,1677485954.62
2237983.0,1677485954.66
2238808.0,1677485954.701
2237404.0,1677485954.741
2234518.0,1677485954.78
2227259.0,1677485954.822
2220883.0,1677485954.861
2218830.0,1677485954.899
2217376.0,1677485954.941
2218025.0,1677485954.98
2221514.0,1677485955.02
2225163.0,1677485955.062
2227074.0,1677485955.101
2228181.0,1677485955.142
2229879.0,1677485955.182
2232163.0,1677485955.22
2233116.0,1677485955.261
2235436.0,1677485955.301
2236345.0,1677485955.34
2235517.0,1677485955.38
2235175.0,1677485955.422
2234135.0,1677485955.461
2232579.0,1677485955.501
2231474.0,1677485955.543
2230319.0,1677485955.581
2228948.0,1677485955.622
2228520.0,1677485955.661
2228947.0,1677485955.7
2228682.0,1677485955.741
2228034.0,1677485955.782
2223921.0,1677485955.821
2220489.0,1677485955.861
2222038.0,1677485955.903
2227294.0,1677485955.982
2225401.0,1677485955.942
2231495.0,1677485956.021
2233869.0,1677485956.06
2223910.0,1677485956.101
2213931.0,1677485956.143
2209968.0,1677485956.181
2212569.0,1677485956.221
2217610.0,1677485956.263
2220723.0,1677485956.302
2222840.0,1677485956.343
2223338.0,1677485956.382
2223794.0,1677485956.421
2224762.0,1677485956.461
2225624.0,1677485956.503
2226965.0,1677485956.542
2228059.0,1677485956.582
2229653.0,1677485956.623
2231042.0,1677485956.662
2231120.0,1677485956.703
2229600.0,1677485956.743
2228254.0,1677485956.781
2226330.0,1677485956.821
2223637.0,1677485956.863
2220493.0,1677485956.902
2218392.0,1677485956.943
2217681.0,1677485956.984
2216693.0,1677485957.023
2215325.0,1677485957.061
2214662.0,1677485957.102
2214107.0,1677485957.142
2213168.0,1677485957.182
2213304.0,1677485957.223
2212641.0,1677485957.262
2212188.0,1677485957.302
2212203.0,1677485957.345
2210392.0,1677485957.383
2207607.0,1677485957.421
2205407.0,1677485957.463
2203262.0,1677485957.502
2202265.0,1677485957.542
2201737.0,1677485957.583
2200881.0,1677485957.622
2201500.0,1677485957.662
2202230.0,1677485957.704
2201665.0,1677485957.745
2201151.0,1677485957.78
2202007.0,1677485957.822
2203256.0,1677485957.861
2203883.0,1677485957.901
2204766.0,1677485957.944
2206234.0,1677485957.982
2207298.0,1677485958.022
2207002.0,1677485958.064
2206299.0,1677485958.103
2204580.0,1677485958.144
2203135.0,1677485958.185
2202133.0,1677485958.222
2201765.0,1677485958.262
2201698.0,1677485958.304
2202126.0,1677485958.343
2202658.0,1677485958.383
2203495.0,1677485958.424
2205019.0,1677485958.463
2206043.0,1677485958.504
2206937.0,1677485958.546
2207758.0,1677485958.582
2208062.0,1677485958.622
2208530.0,1677485958.664
2209215.0,1677485958.703
2208395.0,1677485958.744
2206419.0,1677485958.784
2204429.0,1677485958.824
2203541.0,1677485958.864
2201820.0,1677485958.905
2201107.0,1677485958.943
2201692.0,1677485958.983
2201353.0,1677485959.024
2201925.0,1677485959.063
2203609.0,1677485959.103
2204689.0,1677485959.146
2205535.0,1677485959.184
2206944.0,1677485959.224
2208110.0,1677485959.264
2208908.0,1677485959.303
2208289.0,1677485959.344
2206685.0,1677485959.384
2204748.0,1677485959.424
2202679.0,1677485959.464
2202172.0,1677485959.505
2201219.0,1677485959.545
2198638.0,1677485959.584
2195547.0,1677485959.624
2195148.0,1677485959.663
2194878.0,1677485959.703
2195907.0,1677485959.745
2196903.0,1677485959.784
2197178.0,1677485959.824
2198209.0,1677485959.866
2199545.0,1677485959.905
2201064.0,1677485959.945
2202121.0,1677485959.984
2201288.0,1677485960.023
2199909.0,1677485960.064
2198263.0,1677485960.105
2196082.0,1677485960.145
2195355.0,1677485960.184
2194395.0,1677485960.226
2194227.0,1677485960.265
2194248.0,1677485960.303
2194822.0,1677485960.344
2194952.0,1677485960.383
2195580.0,1677485960.423
2196852.0,1677485960.465
2197007.0,1677485960.504
2197809.0,1677485960.545
2199012.0,1677485960.585
2200367.0,1677485960.665
2200446.0,1677485960.625
2199107.0,1677485960.706
2197060.0,1677485960.746
2194305.0,1677485960.783
2191275.0,1677485960.864
2192378.0,1677485960.825
2190032.0,1677485960.947
2190653.0,1677485960.904
2190109.0,1677485960.985
2190836.0,1677485961.025
2191281.0,1677485961.067
2192832.0,1677485961.145
2191983.0,1677485961.104
2193614.0,1677485961.225
2193016.0,1677485961.185
2192983.0,1677485961.306
2193875.0,1677485961.265
2190820.0,1677485961.346
2187100.0,1677485961.385
2183270.0,1677485961.427
2185106.0,1677485961.464
2186342.0,1677485961.504
2194252.0,1677485961.583
2191915.0,1677485961.544
2173006.0,1677485961.664
2182383.0,1677485961.623
2170993.0,1677485961.703
2176141.0,1677485961.744
2184338.0,1677485961.784
2190950.0,1677485961.823
2195128.0,1677485961.863
2198546.0,1677485961.904
2201049.0,1677485961.944
2202262.0,1677485961.983
2202296.0,1677485962.063
2201966.0,1677485962.103
2201137.0,1677485962.145
2202395.0,1677485962.024
2201109.0,1677485962.184
2201710.0,1677485962.224
2203899.0,1677485962.305
2202261.0,1677485962.266
2206368.0,1677485962.387
2204928.0,1677485962.346
2208133.0,1677485962.424
2210773.0,1677485962.506
2208953.0,1677485962.464
2213307.0,1677485962.585
2216570.0,1677485962.665
2211577.0,1677485962.545
2214620.0,1677485962.626
2217630.0,1677485962.706
2217192.0,1677485962.748
2215902.0,1677485962.784
2214084.0,1677485962.824
2211795.0,1677485962.867
2210431.0,1677485962.903
2209975.0,1677485962.944
2210100.0,1677485962.985
2210983.0,1677485963.024
2212175.0,1677485963.064
2212619.0,1677485963.106
2212808.0,1677485963.146
2213702.0,1677485963.185
2214267.0,1677485963.227
2215492.0,1677485963.266
2215706.0,1677485963.385
2214285.0,1677485963.425
2212613.0,1677485963.466
2215701.0,1677485963.306
2211285.0,1677485963.506
2216519.0,1677485963.346
2206621.0,1677485963.587
2209063.0,1677485963.546
2196444.0,1677485963.666
2200379.0,1677485963.626
2195788.0,1677485963.706
2197037.0,1677485963.746
2198268.0,1677485963.785
2198651.0,1677485963.827
2201230.0,1677485963.906
2199753.0,1677485963.866
2203744.0,1677485963.987
2202671.0,1677485963.948
2204877.0,1677485964.025
2206278.0,1677485964.066
2207259.0,1677485964.105
2208111.0,1677485964.146
2208217.0,1677485964.187
2207208.0,1677485964.226
2206717.0,1677485964.266
2205319.0,1677485964.308
2204402.0,1677485964.348
2204294.0,1677485964.385
2203289.0,1677485964.427
2201780.0,1677485964.466
2197019.0,1677485964.506
2195018.0,1677485964.548
2193311.0,1677485964.586
2192072.0,1677485964.627
2191638.0,1677485964.668
2193139.0,1677485964.707
2194102.0,1677485964.746
2195048.0,1677485964.787
2195811.0,1677485964.826
2194972.0,1677485964.866
2192917.0,1677485964.908
2189766.0,1677485964.947
2186295.0,1677485964.987
2183672.0,1677485965.029
2181642.0,1677485965.065
2180907.0,1677485965.106
2181814.0,1677485965.148
2178762.0,1677485965.186
2175042.0,1677485965.227
2175559.0,1677485965.268
2177086.0,1677485965.307
2177768.0,1677485965.348
2179334.0,1677485965.389
2179908.0,1677485965.425
2180676.0,1677485965.465
2180163.0,1677485965.507
2178726.0,1677485965.547
2177478.0,1677485965.586
2175995.0,1677485965.628
2174770.0,1677485965.667
2173456.0,1677485965.707
2172242.0,1677485965.75
2172520.0,1677485965.788
2173157.0,1677485965.826
2173638.0,1677485965.868
2172577.0,1677485965.907
2171559.0,1677485965.948
2170005.0,1677485965.989
2165978.0,1677485966.028
2163808.0,1677485966.068
2163913.0,1677485966.109
2162993.0,1677485966.147
2161912.0,1677485966.186
2160472.0,1677485966.228
2159435.0,1677485966.267
2159272.0,1677485966.307
2159606.0,1677485966.35
2159175.0,1677485966.388
2158694.0,1677485966.428
2156652.0,1677485966.47
2152376.0,1677485966.507
2150506.0,1677485966.547
2150302.0,1677485966.588
2149831.0,1677485966.627
2149974.0,1677485966.668
2150449.0,1677485966.709
2150327.0,1677485966.749
2149653.0,1677485966.788
2147555.0,1677485966.83
2145691.0,1677485966.867
2143090.0,1677485966.907
2140393.0,1677485966.949
2139266.0,1677485966.988
2137350.0,1677485967.028
2135196.0,1677485967.07
2133639.0,1677485967.109
2133072.0,1677485967.149
2132796.0,1677485967.188
2132205.0,1677485967.227
2132460.0,1677485967.268
2131333.0,1677485967.309
2129737.0,1677485967.349
2127985.0,1677485967.388
2125746.0,1677485967.43
2128662.0,1677485967.469
2129576.0,1677485967.509
2127488.0,1677485967.549
2123733.0,1677485967.588
2119879.0,1677485967.628
2118582.0,1677485967.669
2118786.0,1677485967.709
2119185.0,1677485967.749
2120036.0,1677485967.79
2120258.0,1677485967.829
2119729.0,1677485967.869
2119511.0,1677485967.909
2116918.0,1677485967.949
2114267.0,1677485967.987
2111758.0,1677485968.028
2109972.0,1677485968.067
2107591.0,1677485968.107
2107209.0,1677485968.15
2106126.0,1677485968.189
2104876.0,1677485968.229
2104519.0,1677485968.27
2104208.0,1677485968.31
2104542.0,1677485968.35
2104323.0,1677485968.389
2103788.0,1677485968.428
2103510.0,1677485968.468
2101786.0,1677485968.51
2099482.0,1677485968.55
2097033.0,1677485968.589
2095011.0,1677485968.631
2092974.0,1677485968.67
2091973.0,1677485968.71
2091802.0,1677485968.75
2091100.0,1677485968.788
2090314.0,1677485968.829
2089992.0,1677485968.87
2090207.0,1677485968.909
2089848.0,1677485968.95
2090357.0,1677485968.991
2090468.0,1677485969.03
2090729.0,1677485969.068
2089258.0,1677485969.11
2087141.0,1677485969.15
2085180.0,1677485969.189
2084154.0,1677485969.231
2087649.0,1677485969.27
2094608.0,1677485969.31
2101439.0,1677485969.352
2102995.0,1677485969.391
2100065.0,1677485969.429
2098330.0,1677485969.47
2098934.0,1677485969.509
2099525.0,1677485969.55
2100538.0,1677485969.591
2101061.0,1677485969.63
2100289.0,1677485969.67
2098855.0,1677485969.712
2096713.0,1677485969.751
2094897.0,1677485969.789
2093390.0,1677485969.83
2092635.0,1677485969.869
2092511.0,1677485969.91
2091869.0,1677485969.952
2091756.0,1677485969.99
2091033.0,1677485970.031
2091286.0,1677485970.072
2091040.0,1677485970.109
2091515.0,1677485970.15
2092303.0,1677485970.23
2090138.0,1677485970.312
2091754.0,1677485970.191
2091574.0,1677485970.27
2087821.0,1677485970.351
2086654.0,1677485970.391
2084923.0,1677485970.433
2083945.0,1677485970.469
2083494.0,1677485970.51
2083753.0,1677485970.555
2083412.0,1677485970.588
2083165.0,1677485970.629
2083286.0,1677485970.671
2083199.0,1677485970.71
2083512.0,1677485970.751
2083749.0,1677485970.791
2084070.0,1677485970.83
2084876.0,1677485970.871
2085048.0,1677485970.912
2084292.0,1677485970.952
2082566.0,1677485970.992
2080887.0,1677485971.031
2080575.0,1677485971.07
2079030.0,1677485971.11
2078521.0,1677485971.153
2078453.0,1677485971.191
2077547.0,1677485971.231
2077736.0,1677485971.273
2078643.0,1677485971.312
2075232.0,1677485971.353
2071560.0,1677485971.391
2069910.0,1677485971.43
2070764.0,1677485971.471
2071210.0,1677485971.512
2072158.0,1677485971.552
2074067.0,1677485971.591
2075791.0,1677485971.633
2076882.0,1677485971.672
2079564.0,1677485971.712
2082156.0,1677485971.752
2081439.0,1677485971.791
2082008.0,1677485971.831
2082765.0,1677485971.872
2083139.0,1677485971.911
2082901.0,1677485971.952
2083781.0,1677485971.993
2085085.0,1677485972.032
2085954.0,1677485972.071
2086303.0,1677485972.112
2087379.0,1677485972.152
2088400.0,1677485972.191
2089418.0,1677485972.233
2090451.0,1677485972.272
2092336.0,1677485972.312
2093796.0,1677485972.354
2095118.0,1677485972.393
2095392.0,1677485972.431
2094721.0,1677485972.472
2093881.0,1677485972.511
2093404.0,1677485972.552
2093429.0,1677485972.593
2094434.0,1677485972.632
2094996.0,1677485972.672
2095640.0,1677485972.714
2096181.0,1677485972.754
2097467.0,1677485972.791
2098401.0,1677485972.833
2099415.0,1677485972.872
2100297.0,1677485972.912
2100571.0,1677485972.954
2100938.0,1677485972.992
2099927.0,1677485973.033
2100471.0,1677485973.074
2099675.0,1677485973.11
2096765.0,1677485973.151
2094163.0,1677485973.193
2092968.0,1677485973.232
2092477.0,1677485973.272
2092901.0,1677485973.314
2093427.0,1677485973.353
2093567.0,1677485973.393
2093837.0,1677485973.434
2093976.0,1677485973.473
2094083.0,1677485973.513
2094290.0,1677485973.548
2094656.0,1677485973.586
2094900.0,1677485973.626
2095280.0,1677485973.667
2095791.0,1677485973.706
2096599.0,1677485973.747
2096323.0,1677485973.787
2095902.0,1677485973.826
2094150.0,1677485973.866
2093096.0,1677485973.907
2092231.0,1677485973.947
2091773.0,1677485973.986
2091622.0,1677485974.026
2091358.0,1677485974.065
2091955.0,1677485974.105
2092179.0,1677485974.148
2092283.0,1677485974.186
2092860.0,1677485974.226
2093395.0,1677485974.268
2093714.0,1677485974.307
2094726.0,1677485974.348
2095226.0,1677485974.386
2095953.0,1677485974.426
2095464.0,1677485974.466
2093972.0,1677485974.507
2092950.0,1677485974.547
2091434.0,1677485974.586
2090924.0,1677485974.628
2090819.0,1677485974.667
2090744.0,1677485974.707
2090673.0,1677485974.747
2090303.0,1677485974.786
2090368.0,1677485974.826
2090659.0,1677485974.868
2090846.0,1677485974.906
2091717.0,1677485974.946
2092669.0,1677485974.987
2092766.0,1677485975.026
2093867.0,1677485975.066
2093594.0,1677485975.107
2092164.0,1677485975.147
2089997.0,1677485975.186
2087622.0,1677485975.227
2086418.0,1677485975.266
2086015.0,1677485975.306
2085636.0,1677485975.348
2085811.0,1677485975.386
2085835.0,1677485975.426
2084970.0,1677485975.467
2084987.0,1677485975.507
2085023.0,1677485975.547
2085215.0,1677485975.588
2085076.0,1677485975.625
2085365.0,1677485975.668
2085945.0,1677485975.706
2086231.0,1677485975.746
2084482.0,1677485975.786
2082213.0,1677485975.827
2079911.0,1677485975.866
2077938.0,1677485975.907
2076218.0,1677485975.949
2074986.0,1677485975.987
2074487.0,1677485976.028
2073871.0,1677485976.069
2073423.0,1677485976.108
2073201.0,1677485976.147
2072792.0,1677485976.188
2072870.0,1677485976.227
2073228.0,1677485976.267
2073872.0,1677485976.309
2074262.0,1677485976.348
2074163.0,1677485976.388
2075251.0,1677485976.43
2073891.0,1677485976.469
2071838.0,1677485976.507
2068949.0,1677485976.549
2066505.0,1677485976.587
2064093.0,1677485976.627
2062371.0,1677485976.669
2061617.0,1677485976.708
2060478.0,1677485976.749
2060067.0,1677485976.79
2059316.0,1677485976.829
2059433.0,1677485976.867
2059499.0,1677485976.909
2060100.0,1677485976.948
2060533.0,1677485976.988
2060553.0,1677485977.029
2061290.0,1677485977.068
2060005.0,1677485977.109
2058921.0,1677485977.151
2058843.0,1677485977.187
2058889.0,1677485977.227
2060780.0,1677485977.269
2068089.0,1677485977.308
2078161.0,1677485977.349
2085893.0,1677485977.39
2077499.0,1677485977.429
2070092.0,1677485977.469
2068405.0,1677485977.511
2070322.0,1677485977.548
2070590.0,1677485977.588
2070094.0,1677485977.629
2069252.0,1677485977.668
2069337.0,1677485977.708
2070497.0,1677485977.751
2071318.0,1677485977.789
2072392.0,1677485977.829
2071607.0,1677485977.871
2070348.0,1677485977.908
2068403.0,1677485977.949
2065825.0,1677485977.99
2065025.0,1677485978.029
2064047.0,1677485978.069
2063690.0,1677485978.111
2063240.0,1677485978.15
2062893.0,1677485978.19
2062866.0,1677485978.228
2062778.0,1677485978.267
2062515.0,1677485978.307
2062537.0,1677485978.35
2063527.0,1677485978.388
2063943.0,1677485978.428
2064542.0,1677485978.47
2065953.0,1677485978.509
2066332.0,1677485978.55
2065134.0,1677485978.591
2063115.0,1677485978.63
2061167.0,1677485978.67
2058830.0,1677485978.71
2057851.0,1677485978.749
2057068.0,1677485978.789
2056484.0,1677485978.83
2056357.0,1677485978.869
2055618.0,1677485978.91
2055602.0,1677485978.952
2055130.0,1677485978.99
2053612.0,1677485979.028
2052883.0,1677485979.07
2053351.0,1677485979.109
2054640.0,1677485979.15
2055558.0,1677485979.191
2055792.0,1677485979.23
2054095.0,1677485979.27
2051264.0,1677485979.312
2049201.0,1677485979.351
2046512.0,1677485979.389
2045087.0,1677485979.43
2043143.0,1677485979.469
2042371.0,1677485979.51
2041210.0,1677485979.552
2040049.0,1677485979.59
2038862.0,1677485979.63
2038528.0,1677485979.672
2037062.0,1677485979.711
2034129.0,1677485979.75
2032113.0,1677485979.79
2032377.0,1677485979.83
2032809.0,1677485979.87
2032679.0,1677485979.911
2031380.0,1677485979.951
2031024.0,1677485979.991
2030152.0,1677485980.032
2029482.0,1677485980.069
2028571.0,1677485980.109
2028828.0,1677485980.152
2029120.0,1677485980.19
2029661.0,1677485980.23
2030725.0,1677485980.272
2031766.0,1677485980.311
2032300.0,1677485980.352
2033235.0,1677485980.393
2034177.0,1677485980.429
2035169.0,1677485980.47
2037002.0,1677485980.511
2038034.0,1677485980.551
2038626.0,1677485980.59
2038176.0,1677485980.632
2037052.0,1677485980.671
2035883.0,1677485980.711
2035085.0,1677485980.754
2034494.0,1677485980.789
2034725.0,1677485980.829
2034980.0,1677485980.87
2035504.0,1677485980.909
2035760.0,1677485980.95
2036333.0,1677485980.991
2037095.0,1677485981.03
2037976.0,1677485981.071
2039288.0,1677485981.112
2040381.0,1677485981.152
2041948.0,1677485981.191
2043170.0,1677485981.233
2043644.0,1677485981.27
2042887.0,1677485981.31
2041683.0,1677485981.353
2040928.0,1677485981.391
2038884.0,1677485981.431
2037848.0,1677485981.473
2038379.0,1677485981.512
2038784.0,1677485981.552
2038569.0,1677485981.593
2038487.0,1677485981.63
2038424.0,1677485981.67
2039088.0,1677485981.712
2039509.0,1677485981.752
2040207.0,1677485981.791
2042120.0,1677485981.833
2043074.0,1677485981.872
2043686.0,1677485981.912
2044014.0,1677485981.954
2043113.0,1677485981.991
2041899.0,1677485982.031
2040543.0,1677485982.072
2040195.0,1677485982.112
2039988.0,1677485982.152
2039758.0,1677485982.193
2040169.0,1677485982.232
2040214.0,1677485982.272
2040819.0,1677485982.312
2041487.0,1677485982.352
2042694.0,1677485982.391
2044049.0,1677485982.433
2045286.0,1677485982.472
2047618.0,1677485982.512
2049311.0,1677485982.554
2050001.0,1677485982.593
2050504.0,1677485982.633
2049629.0,1677485982.672
2049349.0,1677485982.711
2048481.0,1677485982.752
2048447.0,1677485982.793
2048586.0,1677485982.832
2049702.0,1677485982.872
2050511.0,1677485982.911
2051356.0,1677485982.95
2052333.0,1677485982.99
2053527.0,1677485983.031
2054535.0,1677485983.07
2055715.0,1677485983.11
2056989.0,1677485983.152
2058486.0,1677485983.19
2059603.0,1677485983.23
2059215.0,1677485983.271
2057345.0,1677485983.31
2055956.0,1677485983.351
2054249.0,1677485983.391
2053302.0,1677485983.43
2052926.0,1677485983.47
2049633.0,1677485983.511
2047611.0,1677485983.551
2046656.0,1677485983.59
2048869.0,1677485983.633
2052527.0,1677485983.672
2053323.0,1677485983.712
2054668.0,1677485983.754
2055481.0,1677485983.792
2055852.0,1677485983.833
2055208.0,1677485983.874
2055197.0,1677485983.913
2054888.0,1677485983.954
2054108.0,1677485983.995
2054007.0,1677485984.032
2053398.0,1677485984.072
2052957.0,1677485984.114
2052006.0,1677485984.153
2051845.0,1677485984.193
2052427.0,1677485984.235
2053344.0,1677485984.274
2053959.0,1677485984.314
2055231.0,1677485984.356
2055895.0,1677485984.392
2057137.0,1677485984.432
2058546.0,1677485984.474
2059703.0,1677485984.513
2060773.0,1677485984.554
2061253.0,1677485984.595
2061942.0,1677485984.634
2060990.0,1677485984.674
2060187.0,1677485984.716
2058608.0,1677485984.753
2058432.0,1677485984.793
2058660.0,1677485984.834
2058940.0,1677485984.873
2059536.0,1677485984.914
2060460.0,1677485984.956
2061120.0,1677485984.994
2061832.0,1677485985.034
2062431.0,1677485985.074
2063736.0,1677485985.113
2064602.0,1677485985.154
2066582.0,1677485985.195
2067826.0,1677485985.234
2068978.0,1677485985.274
2069820.0,1677485985.316
2069804.0,1677485985.355
2069255.0,1677485985.395
2067859.0,1677485985.434
2066694.0,1677485985.473
2067378.0,1677485985.514
2068056.0,1677485985.554
2068864.0,1677485985.592
2069497.0,1677485985.632
2069435.0,1677485985.673
2069918.0,1677485985.712
2070781.0,1677485985.753
2071294.0,1677485985.793
2071719.0,1677485985.832
2072497.0,1677485985.872
2073510.0,1677485985.913
2074033.0,1677485985.953
2073437.0,1677485985.993
2072785.0,1677485986.035
2071500.0,1677485986.074
2070267.0,1677485986.114
2070291.0,1677485986.156
2070183.0,1677485986.195
2070120.0,1677485986.235
2069038.0,1677485986.277
2068165.0,1677485986.316
2066222.0,1677485986.356
2065706.0,1677485986.397
2066696.0,1677485986.477
2066600.0,1677485986.436
2067024.0,1677485986.516
2067395.0,1677485986.556
2067718.0,1677485986.595
2068343.0,1677485986.637
2068021.0,1677485986.676
2066099.0,1677485986.716
2064840.0,1677485986.758
2063463.0,1677485986.797
2062894.0,1677485986.837
2063125.0,1677485986.876
2062656.0,1677485986.915
2062226.0,1677485986.956
2062422.0,1677485986.997
2062003.0,1677485987.036
2061951.0,1677485987.076
2061851.0,1677485987.118
2061859.0,1677485987.158
2061699.0,1677485987.195
2061901.0,1677485987.237
2061997.0,1677485987.276
2061284.0,1677485987.316
2059259.0,1677485987.358
2057484.0,1677485987.397
2057210.0,1677485987.437
2062170.0,1677485987.478
2065880.0,1677485987.517
2064475.0,1677485987.556
2055053.0,1677485987.597
2052495.0,1677485987.636
2052794.0,1677485987.676
2053520.0,1677485987.718
2052721.0,1677485987.757
2052269.0,1677485987.797
2052464.0,1677485987.839
2053232.0,1677485987.878
2054330.0,1677485987.916
2053483.0,1677485987.958
2053676.0,1677485987.996
2052929.0,1677485988.037
2050902.0,1677485988.078
2048879.0,1677485988.117
2048201.0,1677485988.158
2047082.0,1677485988.199
2047171.0,1677485988.236
2047348.0,1677485988.276
2048718.0,1677485988.318
2049486.0,1677485988.357
2050759.0,1677485988.397
2051571.0,1677485988.439
2050397.0,1677485988.477
2048985.0,1677485988.515
2048201.0,1677485988.557
2046256.0,1677485988.596
2043939.0,1677485988.636
2042196.0,1677485988.678
2039973.0,1677485988.717
2038933.0,1677485988.758
2038076.0,1677485988.799
2038108.0,1677485988.838
2038193.0,1677485988.878
2037989.0,1677485988.919
2037949.0,1677485988.959
2037762.0,1677485988.997
2038028.0,1677485989.038
2038525.0,1677485989.077
2039225.0,1677485989.118
2040021.0,1677485989.16
2040671.0,1677485989.198
2039763.0,1677485989.238
2038234.0,1677485989.28
2037172.0,1677485989.317
2034703.0,1677485989.358
2033008.0,1677485989.399
2031238.0,1677485989.438
2030625.0,1677485989.478
2029837.0,1677485989.519
2030042.0,1677485989.559
2032938.0,1677485989.599
2034797.0,1677485989.64
2035411.0,1677485989.677
2035021.0,1677485989.717
2034878.0,1677485989.76
2034721.0,1677485989.798
2032946.0,1677485989.838
2032620.0,1677485989.88
2032538.0,1677485989.919
2033136.0,1677485989.96
2033797.0,1677485990.001
2032612.0,1677485990.037
2031199.0,1677485990.077
2029844.0,1677485990.119
2028849.0,1677485990.159
2028432.0,1677485990.198
2028347.0,1677485990.24
2028417.0,1677485990.279
2028762.0,1677485990.319
2029310.0,1677485990.361
2030136.0,1677485990.397
2030125.0,1677485990.438
2030890.0,1677485990.479
2032195.0,1677485990.518
2033997.0,1677485990.559
2037240.0,1677485990.639
2035210.0,1677485990.6
2037721.0,1677485990.721
2038162.0,1677485990.679
2036928.0,1677485990.758
2036819.0,1677485990.798
2035877.0,1677485990.84
2035833.0,1677485990.879
2036580.0,1677485990.919
2036834.0,1677485990.961
2038085.0,1677485990.999
2038329.0,1677485991.039
2039212.0,1677485991.08
2040209.0,1677485991.116
2041212.0,1677485991.158
2043065.0,1677485991.199
2044732.0,1677485991.238
2046690.0,1677485991.278
2048518.0,1677485991.32
2049613.0,1677485991.359
2049648.0,1677485991.399
2049272.0,1677485991.44
2049074.0,1677485991.479
2048838.0,1677485991.52
2048869.0,1677485991.562
2048786.0,1677485991.6
2048756.0,1677485991.638
2049444.0,1677485991.68
2049515.0,1677485991.719
2049911.0,1677485991.76
2050821.0,1677485991.801
2051445.0,1677485991.84
2052079.0,1677485991.88
2053144.0,1677485991.922
2053777.0,1677485991.961
2055256.0,1677485991.999
2056140.0,1677485992.04
2056682.0,1677485992.079
2056330.0,1677485992.12
2055842.0,1677485992.162
2055335.0,1677485992.2
2055575.0,1677485992.24
2054992.0,1677485992.282
2055127.0,1677485992.319
2055969.0,1677485992.36
2056790.0,1677485992.401
2057240.0,1677485992.44
2058027.0,1677485992.48
2058751.0,1677485992.522
2059365.0,1677485992.561
2060942.0,1677485992.601
2061854.0,1677485992.642
2063120.0,1677485992.679
2064057.0,1677485992.719
2065831.0,1677485992.762
2066182.0,1677485992.8
2065508.0,1677485992.84
2064918.0,1677485992.882
2064242.0,1677485992.921
2063644.0,1677485992.962
2063518.0,1677485993.003
2064037.0,1677485993.039
2063986.0,1677485993.08
2064042.0,1677485993.121
2064044.0,1677485993.161
2064540.0,1677485993.2
2064799.0,1677485993.242
2065652.0,1677485993.281
2066730.0,1677485993.321
2067540.0,1677485993.363
2068645.0,1677485993.4
2069448.0,1677485993.44
2068535.0,1677485993.481
2067575.0,1677485993.521
2065338.0,1677485993.561
2062710.0,1677485993.601
2060727.0,1677485993.639
2058886.0,1677485993.679
2058740.0,1677485993.721
2068734.0,1677485993.76
2079818.0,1677485993.8
2085265.0,1677485993.841
2093516.0,1677485993.88
2102631.0,1677485993.921
2103496.0,1677485993.963
2091500.0,1677485994.001
2089728.0,1677485994.042
2089786.0,1677485994.083
2093283.0,1677485994.12
2094635.0,1677485994.161
2092099.0,1677485994.202
2090000.0,1677485994.241
2089556.0,1677485994.281
2089665.0,1677485994.323
2089521.0,1677485994.362
2088104.0,1677485994.402
2087367.0,1677485994.444
2086621.0,1677485994.48
2085459.0,1677485994.521
2085143.0,1677485994.563
2083814.0,1677485994.601
2082949.0,1677485994.641
2081954.0,1677485994.683
2080918.0,1677485994.722
2078496.0,1677485994.763
2074970.0,1677485994.804
2071416.0,1677485994.841
2069122.0,1677485994.881
2067593.0,1677485994.923
2066881.0,1677485994.962
2066186.0,1677485995.002
2065778.0,1677485995.043
2065372.0,1677485995.082
2065019.0,1677485995.123
2064975.0,1677485995.163
2064700.0,1677485995.201
2064697.0,1677485995.241
2064711.0,1677485995.283
2064316.0,1677485995.322
2064550.0,1677485995.363
2063828.0,1677485995.404
2062838.0,1677485995.443
2059778.0,1677485995.483
2057353.0,1677485995.523
2055721.0,1677485995.562
2054221.0,1677485995.602
2053845.0,1677485995.643
2053495.0,1677485995.682
2052771.0,1677485995.722
2052312.0,1677485995.765
2051176.0,1677485995.803
2048053.0,1677485995.843
2044619.0,1677485995.883
2042868.0,1677485995.922
2046674.0,1677485995.963
2048895.0,1677485996.004
2053568.0,1677485996.043
2051119.0,1677485996.083
2046211.0,1677485996.125
2040427.0,1677485996.163
2036260.0,1677485996.203
2033998.0,1677485996.243
2033455.0,1677485996.282
2034504.0,1677485996.322
2035526.0,1677485996.364
2036450.0,1677485996.403
2037088.0,1677485996.443
2038138.0,1677485996.484
2038187.0,1677485996.524
2039194.0,1677485996.564
2040360.0,1677485996.603
2041561.0,1677485996.642
2042826.0,1677485996.682
2044297.0,1677485996.724
2044633.0,1677485996.764
2043641.0,1677485996.803
2041760.0,1677485996.845
2039496.0,1677485996.884
2037955.0,1677485996.924
2035351.0,1677485996.964
2034193.0,1677485997.003
2032427.0,1677485997.043
2031429.0,1677485997.084
2030941.0,1677485997.123
2031038.0,1677485997.164
2030399.0,1677485997.205
2030219.0,1677485997.244
2030787.0,1677485997.282
2030717.0,1677485997.324
2030611.0,1677485997.364
2030829.0,1677485997.445
2031299.0,1677485997.403
2029099.0,1677485997.484
2027063.0,1677485997.524
2022054.0,1677485997.603
2024778.0,1677485997.565
2020678.0,1677485997.643
2019899.0,1677485997.685
2019581.0,1677485997.724
2017710.0,1677485997.764
2016942.0,1677485997.805
2016573.0,1677485997.844
2015035.0,1677485997.884
2013284.0,1677485997.925
2012585.0,1677485997.965
2012925.0,1677485998.004
2012539.0,1677485998.045
2012415.0,1677485998.084
2011342.0,1677485998.124
2009780.0,1677485998.166
2006869.0,1677485998.204
2004787.0,1677485998.245
2002670.0,1677485998.287
2002438.0,1677485998.326
2003093.0,1677485998.367
2003477.0,1677485998.408
2003862.0,1677485998.447
2004128.0,1677485998.487
2004668.0,1677485998.528
2004711.0,1677485998.566
2005039.0,1677485998.605
2004943.0,1677485998.647
2004620.0,1677485998.686
2004910.0,1677485998.725
2005927.0,1677485998.768
2006660.0,1677485998.807
2006901.0,1677485998.847
2006010.0,1677485998.888
2004589.0,1677485998.928
2002903.0,1677485999.046
2003258.0,1677485999.086
2003746.0,1677485999.128
2003826.0,1677485999.168
2003702.0,1677485998.966
2004039.0,1677485999.207
2005761.0,1677485999.286
2006594.0,1677485999.326
2007215.0,1677485999.368
2004820.0,1677485999.249
2003143.0,1677485999.007
2008470.0,1677485999.407
2010211.0,1677485999.447
2011140.0,1677485999.488
2010324.0,1677485999.527
2008635.0,1677485999.568
2007021.0,1677485999.609
2005232.0,1677485999.646
2003902.0,1677485999.686
2003326.0,1677485999.728
2002374.0,1677485999.767
2002542.0,1677485999.807
2002174.0,1677485999.849
2002456.0,1677485999.888
2002050.0,1677485999.928
2002694.0,1677485999.97
2003152.0,1677486000.006
2004019.0,1677486000.047
2004935.0,1677486000.088
2006069.0,1677486000.127
2006267.0,1677486000.168
2005121.0,1677486000.209
2003695.0,1677486000.248
2002609.0,1677486000.288
2001583.0,1677486000.328
2000894.0,1677486000.367
2000835.0,1677486000.407
2001229.0,1677486000.449
2001294.0,1677486000.488
2001904.0,1677486000.57
2001858.0,1677486000.528
2004206.0,1677486000.688
2005362.0,1677486000.727
2003450.0,1677486000.649
2006162.0,1677486000.768
2002385.0,1677486000.608
2002071.0,1677486000.969
2003351.0,1677486000.929
2006095.0,1677486000.847
2006873.0,1677486000.809
2001095.0,1677486001.008
2004820.0,1677486000.887
2001499.0,1677486001.05
2001681.0,1677486001.087
2002335.0,1677486001.127
2002812.0,1677486001.17
2002965.0,1677486001.208
2003540.0,1677486001.248
2004314.0,1677486001.289
2005274.0,1677486001.325
2005682.0,1677486001.366
2006391.0,1677486001.407
2006149.0,1677486001.447
2004977.0,1677486001.487
2001391.0,1677486001.568
1999784.0,1677486001.608
1999174.0,1677486001.649
1998707.0,1677486001.688
1998408.0,1677486001.729
1998314.0,1677486001.771
2003453.0,1677486001.529
1998625.0,1677486001.809
1998942.0,1677486001.849
1999523.0,1677486001.889
2000315.0,1677486001.928
2001961.0,1677486001.969
2003069.0,1677486002.01
2004296.0,1677486002.049
2005538.0,1677486002.089
2005373.0,1677486002.17
2005717.0,1677486002.131
2003968.0,1677486002.208
2002455.0,1677486002.249
2001285.0,1677486002.288
2000905.0,1677486002.329
2000655.0,1677486002.371
2001296.0,1677486002.409
2001565.0,1677486002.449
2002258.0,1677486002.491
2002477.0,1677486002.53
2003783.0,1677486002.569
2004249.0,1677486002.61
2005510.0,1677486002.649
2007137.0,1677486002.689
2007890.0,1677486002.73
2009529.0,1677486002.77
2010371.0,1677486002.81
2009332.0,1677486002.851
2007597.0,1677486002.89
2006584.0,1677486002.928
2004958.0,1677486002.971
2003959.0,1677486003.009
2003655.0,1677486003.049
2003552.0,1677486003.091
2003791.0,1677486003.13
2004104.0,1677486003.171
2004908.0,1677486003.212
2004440.0,1677486003.249
2003793.0,1677486003.289
2006724.0,1677486003.33
2014660.0,1677486003.37
2028221.0,1677486003.409
2041670.0,1677486003.451
2041305.0,1677486003.49
2036203.0,1677486003.53
2034175.0,1677486003.573
2032894.0,1677486003.609
2031876.0,1677486003.649
2030816.0,1677486003.691
2029963.0,1677486003.73
2030213.0,1677486003.771
2030105.0,1677486003.811
2030652.0,1677486003.847
2031887.0,1677486003.888
2032632.0,1677486003.93
2033532.0,1677486003.97
2034774.0,1677486004.009
2035346.0,1677486004.051
2036062.0,1677486004.09
2037802.0,1677486004.13
2038892.0,1677486004.172
2040263.0,1677486004.211
2040534.0,1677486004.251
2039890.0,1677486004.292
2038853.0,1677486004.329
2037595.0,1677486004.37
2036579.0,1677486004.411
2036642.0,1677486004.45
2037796.0,1677486004.49
2038083.0,1677486004.532
2038637.0,1677486004.572
2038958.0,1677486004.611
2039446.0,1677486004.653
2040371.0,1677486004.69
2041063.0,1677486004.73
2041424.0,1677486004.772
2042341.0,1677486004.81
2043505.0,1677486004.851
2044256.0,1677486004.892
2044799.0,1677486004.931
2043843.0,1677486004.972
2043164.0,1677486005.013
2041586.0,1677486005.05
2039874.0,1677486005.09
2038981.0,1677486005.132
2037638.0,1677486005.171
2037499.0,1677486005.211
2036776.0,1677486005.252
2035865.0,1677486005.291
2040671.0,1677486005.332
2041998.0,1677486005.374
2042743.0,1677486005.41
2043610.0,1677486005.45
2043792.0,1677486005.492
2044371.0,1677486005.531
2046580.0,1677486005.572
2049614.0,1677486005.613
2050566.0,1677486005.652
2050720.0,1677486005.692
2050089.0,1677486005.734
2048873.0,1677486005.771
2045947.0,1677486005.81
2044470.0,1677486005.852
2044481.0,1677486005.891
2045023.0,1677486005.931
2045838.0,1677486005.974
2046101.0,1677486006.012
2046892.0,1677486006.052
2047681.0,1677486006.092
2048550.0,1677486006.131
2049572.0,1677486006.172
2050687.0,1677486006.213
2051802.0,1677486006.252
2053424.0,1677486006.292
2054561.0,1677486006.333
2055262.0,1677486006.373
2055051.0,1677486006.412
2054434.0,1677486006.454
2053383.0,1677486006.491
2052131.0,1677486006.531
2051946.0,1677486006.573
2051809.0,1677486006.612
2051679.0,1677486006.652
2051337.0,1677486006.693
2051351.0,1677486006.733
2051461.0,1677486006.773
2051937.0,1677486006.814
2052039.0,1677486006.851
2052344.0,1677486006.891
2052950.0,1677486006.933
2052995.0,1677486006.973
2053641.0,1677486007.012
2053283.0,1677486007.054
2052396.0,1677486007.093
2050621.0,1677486007.133
2049874.0,1677486007.173
2049440.0,1677486007.212
2049881.0,1677486007.252
2050077.0,1677486007.293
2050035.0,1677486007.332
2050534.0,1677486007.373
2050874.0,1677486007.414
2051524.0,1677486007.453
2052005.0,1677486007.493
2053155.0,1677486007.533
2054943.0,1677486007.612
2053912.0,1677486007.573
2055896.0,1677486007.654
2055572.0,1677486007.693
2054420.0,1677486007.733
2053356.0,1677486007.775
2052272.0,1677486007.813
2050570.0,1677486007.854
2050676.0,1677486007.893
2050823.0,1677486007.932
2049945.0,1677486007.973
2050318.0,1677486008.014
2050510.0,1677486008.053
2050994.0,1677486008.093
2051842.0,1677486008.135
2053237.0,1677486008.175
2053750.0,1677486008.212
2055740.0,1677486008.293
2056164.0,1677486008.333
2054974.0,1677486008.254
2054961.0,1677486008.375
2053054.0,1677486008.413
2051319.0,1677486008.454
2050005.0,1677486008.495
2048662.0,1677486008.534
2048454.0,1677486008.573
2047422.0,1677486008.614
2047025.0,1677486008.653
2047173.0,1677486008.693
2046845.0,1677486008.735
2046946.0,1677486008.774
2047600.0,1677486008.855
2048037.0,1677486008.894
2051584.0,1677486008.974
2048555.0,1677486008.933
2047134.0,1677486008.814
2053435.0,1677486009.013
2055836.0,1677486009.053
2055183.0,1677486009.095
2046761.0,1677486009.175
2044937.0,1677486009.216
2044941.0,1677486009.255
2044168.0,1677486009.293
2043290.0,1677486009.334
2051252.0,1677486009.134
2043494.0,1677486009.374
2044499.0,1677486009.413
2044942.0,1677486009.455
2045230.0,1677486009.494
2046127.0,1677486009.534
2047355.0,1677486009.578
2048416.0,1677486009.617
2049316.0,1677486009.657
2050171.0,1677486009.698
2050242.0,1677486009.737
2049229.0,1677486009.778
2047707.0,1677486009.818
2045837.0,1677486009.857
2044896.0,1677486009.897
2043412.0,1677486009.938
2042439.0,1677486009.978
2042226.0,1677486010.017
2041831.0,1677486010.059
2041711.0,1677486010.096
2041993.0,1677486010.137
2042255.0,1677486010.179
2042457.0,1677486010.217
2043008.0,1677486010.257
2043704.0,1677486010.338
2043234.0,1677486010.299
2044371.0,1677486010.379
2044476.0,1677486010.42
2043066.0,1677486010.457
2041311.0,1677486010.497
2038950.0,1677486010.538
2037054.0,1677486010.578
2035668.0,1677486010.659
2035500.0,1677486010.698
2035870.0,1677486010.618
2035197.0,1677486010.738
2034411.0,1677486010.781
2034825.0,1677486010.857
2033998.0,1677486010.817
2035111.0,1677486010.899
2035815.0,1677486010.938
2037366.0,1677486011.02
2037887.0,1677486011.059
2036710.0,1677486010.979
2037343.0,1677486011.099
2035955.0,1677486011.138
2034370.0,1677486011.178
2033118.0,1677486011.218
2031955.0,1677486011.259
2031656.0,1677486011.298
2031696.0,1677486011.338
2031572.0,1677486011.381
2032085.0,1677486011.419
2032664.0,1677486011.459
2033610.0,1677486011.499
2034920.0,1677486011.537
2035795.0,1677486011.577
2036450.0,1677486011.618
2037152.0,1677486011.658
2037871.0,1677486011.698
2038612.0,1677486011.779
2037892.0,1677486011.819
2035922.0,1677486011.86
2033194.0,1677486011.98
2033037.0,1677486012.018
2033426.0,1677486012.058
2033427.0,1677486012.1
2034637.0,1677486011.899
2034020.0,1677486012.139
2034581.0,1677486012.18
2034717.0,1677486012.221
2035616.0,1677486012.26
2033584.0,1677486011.94
2036334.0,1677486012.298
2037323.0,1677486012.339
2039341.0,1677486012.419
2039726.0,1677486012.46
2039255.0,1677486012.499
2039069.0,1677486011.74
2037453.0,1677486012.539
2035889.0,1677486012.582
2034098.0,1677486012.62
2031685.0,1677486012.658
2031121.0,1677486012.7
2031155.0,1677486012.739
2031747.0,1677486012.78
2031007.0,1677486012.82
2038322.0,1677486012.379
2030276.0,1677486012.859
2029894.0,1677486012.9
2033536.0,1677486012.941
2036589.0,1677486012.981
2036232.0,1677486013.018
2035548.0,1677486013.06
2033604.0,1677486013.099
2033512.0,1677486013.139
2032584.0,1677486013.182
2031209.0,1677486013.22
2029679.0,1677486013.26
2027359.0,1677486013.302
2026569.0,1677486013.339
2025881.0,1677486013.38
2026390.0,1677486013.42
2025972.0,1677486013.459
2027520.0,1677486013.5
2028350.0,1677486013.541
2030207.0,1677486013.581
2032197.0,1677486013.62
2033248.0,1677486013.662
2034671.0,1677486013.699
2035762.0,1677486013.739
2037605.0,1677486013.781
2039119.0,1677486013.82
2042476.0,1677486013.981
2041425.0,1677486013.86
2042525.0,1677486013.901
2042721.0,1677486013.941
2041762.0,1677486014.022
2040977.0,1677486014.059
2041176.0,1677486014.098
2041715.0,1677486014.141
2042569.0,1677486014.18
2042941.0,1677486014.22
2044165.0,1677486014.261
2045141.0,1677486014.3
2046327.0,1677486014.382
2047778.0,1677486014.42
2049241.0,1677486014.46
2050444.0,1677486014.502
2051623.0,1677486014.541
2052343.0,1677486014.582
2051382.0,1677486014.66
2045477.0,1677486014.341
2050145.0,1677486014.7
2048329.0,1677486014.742
2046461.0,1677486014.781
2045515.0,1677486014.821
2046932.0,1677486014.901
2046792.0,1677486014.942
2047118.0,1677486014.982
2045931.0,1677486014.862
2048255.0,1677486015.02
2048215.0,1677486015.06
2049002.0,1677486015.102
2050444.0,1677486015.182
2051146.0,1677486015.223
2051779.0,1677486015.262
2049844.0,1677486015.141
2052498.0,1677486014.621
2052295.0,1677486015.3
2051051.0,1677486015.342
2048499.0,1677486015.381
2046039.0,1677486015.421
2044589.0,1677486015.462
2043372.0,1677486015.501
2043220.0,1677486015.542
2043155.0,1677486015.584
2042387.0,1677486015.622
2040966.0,1677486015.66
2040368.0,1677486015.702
2039751.0,1677486015.741
2039461.0,1677486015.782
2038906.0,1677486015.823
2039235.0,1677486015.862
2039406.0,1677486015.902
2039559.0,1677486015.943
2037337.0,1677486016.021
2034010.0,1677486016.101
2032676.0,1677486016.141
2032200.0,1677486016.184
2031895.0,1677486016.222
2031063.0,1677486016.262
2038980.0,1677486015.983
2030891.0,1677486016.304
2030859.0,1677486016.341
2030522.0,1677486016.382
2035803.0,1677486016.062
2030256.0,1677486016.423
2030938.0,1677486016.462
2031610.0,1677486016.502
2032811.0,1677486016.543
2032671.0,1677486016.583
2031473.0,1677486016.622
2030171.0,1677486016.66
2028818.0,1677486016.7
2027213.0,1677486016.741
2026285.0,1677486016.783
2025605.0,1677486016.821
2025187.0,1677486016.861
2025049.0,1677486016.903
2024460.0,1677486016.942
2024126.0,1677486016.983
2024291.0,1677486017.024
2024384.0,1677486017.103
2025115.0,1677486017.143
2024412.0,1677486017.222
2020855.0,1677486017.302
2022811.0,1677486017.263
2024191.0,1677486017.063
2025457.0,1677486017.182
2019424.0,1677486017.343
2017474.0,1677486017.423
2017909.0,1677486017.503
2018376.0,1677486017.542
2018479.0,1677486017.583
2019198.0,1677486017.623
2018321.0,1677486017.385
2017869.0,1677486017.463
2020569.0,1677486017.702
2021155.0,1677486017.743
2019847.0,1677486017.662
2021858.0,1677486017.783
2022491.0,1677486017.823
2019893.0,1677486017.903
2021586.0,1677486017.864
2018582.0,1677486017.943
2016427.0,1677486018.022
2015762.0,1677486018.104
2015936.0,1677486018.143
2015942.0,1677486018.184
2016063.0,1677486018.225
2016402.0,1677486018.264
2017303.0,1677486017.986
2015819.0,1677486018.062
2017624.0,1677486018.343
2017225.0,1677486018.304
2018744.0,1677486018.383
2020653.0,1677486018.464
2019807.0,1677486018.423
2021025.0,1677486018.503
2019817.0,1677486018.543
2018563.0,1677486018.586
2018992.0,1677486018.664
2035508.0,1677486018.743
2017750.0,1677486018.624
2026180.0,1677486018.704
2042706.0,1677486018.784
2047120.0,1677486018.824
2053365.0,1677486018.863
2055724.0,1677486018.904
2053053.0,1677486018.945
2051884.0,1677486018.985
2051832.0,1677486019.025
2051763.0,1677486019.064
2051966.0,1677486019.103
2051204.0,1677486019.143
2049938.0,1677486019.184
2049010.0,1677486019.223
2048044.0,1677486019.264
2046519.0,1677486019.305
2042741.0,1677486019.385
2040265.0,1677486019.463
2044152.0,1677486019.344
2040976.0,1677486019.426
2040021.0,1677486019.503
2040317.0,1677486019.545
2039654.0,1677486019.624
2039253.0,1677486019.665
2039053.0,1677486019.704
2039158.0,1677486019.745
2039935.0,1677486019.584
2040229.0,1677486019.787
2040290.0,1677486019.863
2040259.0,1677486019.823
2041505.0,1677486019.905
2042446.0,1677486019.985
2041751.0,1677486019.944
2042737.0,1677486020.026
2041083.0,1677486020.105
2039880.0,1677486020.145
2038515.0,1677486020.184
2042269.0,1677486020.065
2038707.0,1677486020.224
2039241.0,1677486020.265
2040321.0,1677486020.304
2040777.0,1677486020.345
2041114.0,1677486020.387
2041618.0,1677486020.425
2042695.0,1677486020.465
2043355.0,1677486020.505
2044336.0,1677486020.544
2045572.0,1677486020.585
2046402.0,1677486020.626
2047210.0,1677486020.665
2049424.0,1677486020.786
2049138.0,1677486020.826
2049242.0,1677486020.747
2048364.0,1677486020.865
2048399.0,1677486020.705
2047577.0,1677486020.987
2047970.0,1677486021.025
2047403.0,1677486020.944
2047827.0,1677486020.904
2048049.0,1677486021.065
2048933.0,1677486021.107
2049408.0,1677486021.146
2050404.0,1677486021.185
2051034.0,1677486021.226
2053268.0,1677486021.305
2052432.0,1677486021.265
2054379.0,1677486021.346
2055822.0,1677486021.386
2057490.0,1677486021.426
2059215.0,1677486021.467
2059598.0,1677486021.506
2059942.0,1677486021.544
2059440.0,1677486021.583
2059382.0,1677486021.622
2059249.0,1677486021.662
2059923.0,1677486021.703
2060645.0,1677486021.742
2061289.0,1677486021.783
2062555.0,1677486021.823
2064805.0,1677486021.902
2063571.0,1677486021.862
2065423.0,1677486021.943
2066651.0,1677486021.983
2067958.0,1677486022.022
2069638.0,1677486022.065
2071230.0,1677486022.104
2072012.0,1677486022.144
2072609.0,1677486022.187
2071681.0,1677486022.225
2071305.0,1677486022.265
2071535.0,1677486022.307
2070700.0,1677486022.346
2070568.0,1677486022.387
2070569.0,1677486022.427
2071434.0,1677486022.467
2071769.0,1677486022.507
2071720.0,1677486022.546
2072093.0,1677486022.586
2072748.0,1677486022.625
2073613.0,1677486022.667
2074697.0,1677486022.706
2075305.0,1677486022.746
2076500.0,1677486022.789
2077109.0,1677486022.827
2075731.0,1677486022.867
2073249.0,1677486022.907
2071434.0,1677486022.946
2070923.0,1677486022.986
2069704.0,1677486023.027
2066638.0,1677486023.066
2063529.0,1677486023.107
2061950.0,1677486023.148
2061659.0,1677486023.188
2061380.0,1677486023.225
2060577.0,1677486023.267
2060076.0,1677486023.306
2059529.0,1677486023.346
2059635.0,1677486023.388
2058642.0,1677486023.427
2058289.0,1677486023.467
2057972.0,1677486023.509
2057602.0,1677486023.548
2055842.0,1677486023.586
2053505.0,1677486023.627
2051680.0,1677486023.666
2050056.0,1677486023.706
2048632.0,1677486023.748
2047840.0,1677486023.788
2048260.0,1677486023.827
2048455.0,1677486023.869
2048746.0,1677486023.908
2049849.0,1677486023.946
2052155.0,1677486023.988
2053049.0,1677486024.027
2054398.0,1677486024.067
2055707.0,1677486024.108
2057243.0,1677486024.148
2058829.0,1677486024.188
2059448.0,1677486024.229
2060828.0,1677486024.266
2061780.0,1677486024.31
2061246.0,1677486024.346
2060025.0,1677486024.386
2059304.0,1677486024.426
2058194.0,1677486024.468
2057613.0,1677486024.507
2057651.0,1677486024.547
2057835.0,1677486024.589
2058252.0,1677486024.627
2058184.0,1677486024.668
2058516.0,1677486024.709
2058620.0,1677486024.748
2058643.0,1677486024.789
2058689.0,1677486024.828
2059559.0,1677486024.867
2059914.0,1677486024.907
2060716.0,1677486024.949
2060678.0,1677486024.988
2059972.0,1677486025.028
2057712.0,1677486025.07
2055019.0,1677486025.109
2052655.0,1677486025.147
2050495.0,1677486025.188
2048599.0,1677486025.226
2047448.0,1677486025.267
2046493.0,1677486025.308
2046522.0,1677486025.347
2047279.0,1677486025.388
2047222.0,1677486025.429
2048016.0,1677486025.468
2049120.0,1677486025.508
2049770.0,1677486025.55
2051144.0,1677486025.589
2051525.0,1677486025.629
2051194.0,1677486025.668
2049116.0,1677486025.707
2047115.0,1677486025.748
2044810.0,1677486025.79
2043646.0,1677486025.828
2043241.0,1677486025.868
2042521.0,1677486025.91
2041538.0,1677486025.949
2041771.0,1677486025.99
2041489.0,1677486026.029
2041048.0,1677486026.068
2041325.0,1677486026.108
2041561.0,1677486026.15
2041529.0,1677486026.189
2042406.0,1677486026.229
2043161.0,1677486026.27
2043358.0,1677486026.309
2040956.0,1677486026.348
2038906.0,1677486026.39
2036621.0,1677486026.428
2034835.0,1677486026.468
2033062.0,1677486026.51
2032672.0,1677486026.549
2031898.0,1677486026.59
2032154.0,1677486026.631
2031756.0,1677486026.67
2031687.0,1677486026.708
2031667.0,1677486026.749
2031945.0,1677486026.789
2032468.0,1677486026.829
2032873.0,1677486026.869
2032858.0,1677486026.908
2032392.0,1677486026.949
2030658.0,1677486026.991
2028211.0,1677486027.03
2024946.0,1677486027.07
2022243.0,1677486027.109
2019858.0,1677486027.149
2018241.0,1677486027.189
2017480.0,1677486027.23
2016228.0,1677486027.269
2016016.0,1677486027.309
2015156.0,1677486027.351
2014842.0,1677486027.391
2014161.0,1677486027.43
2014342.0,1677486027.47
2014417.0,1677486027.509
2015405.0,1677486027.549
2015793.0,1677486027.591
2016622.0,1677486027.629
2016627.0,1677486027.67
2014494.0,1677486027.711
2011825.0,1677486027.75
2009905.0,1677486027.791
2007621.0,1677486027.83
2006101.0,1677486027.869
2005419.0,1677486027.909
2004744.0,1677486027.951
2004807.0,1677486027.99
2004544.0,1677486028.03
2004283.0,1677486028.072
2004596.0,1677486028.111
2004758.0,1677486028.149
2005829.0,1677486028.191
2007018.0,1677486028.229
2007744.0,1677486028.27
2009146.0,1677486028.311
2010228.0,1677486028.35
2010981.0,1677486028.391
2010595.0,1677486028.432
2008335.0,1677486028.471
2006689.0,1677486028.509
2005208.0,1677486028.551
2004252.0,1677486028.59
2003861.0,1677486028.63
2003955.0,1677486028.671
2004186.0,1677486028.71
2004065.0,1677486028.751
2004621.0,1677486028.793
2004386.0,1677486028.831
2004835.0,1677486028.869
2005878.0,1677486028.911
2007155.0,1677486028.95
2008680.0,1677486028.991
2009568.0,1677486029.032
2011064.0,1677486029.071
2012233.0,1677486029.111
2012171.0,1677486029.153
2012353.0,1677486029.19
2019456.0,1677486029.23
2026417.0,1677486029.271
2031852.0,1677486029.31
2029562.0,1677486029.351
2023467.0,1677486029.393
2021737.0,1677486029.43
2022149.0,1677486029.468
2023443.0,1677486029.51
2023959.0,1677486029.55
2024395.0,1677486029.59
2025792.0,1677486029.631
2026780.0,1677486029.67
2028742.0,1677486029.71
2030645.0,1677486029.752
2031554.0,1677486029.792
2033447.0,1677486029.831
2034706.0,1677486029.873
2033829.0,1677486029.912
2032442.0,1677486029.952
2031284.0,1677486029.992
2030313.0,1677486030.031
2029625.0,1677486030.071
2030097.0,1677486030.112
2029729.0,1677486030.152
2030365.0,1677486030.192
2030868.0,1677486030.233
2031482.0,1677486030.272
2032415.0,1677486030.31
2033121.0,1677486030.352
2034200.0,1677486030.392
2035479.0,1677486030.431
2036338.0,1677486030.473
2037803.0,1677486030.512
2038566.0,1677486030.552
2039838.0,1677486030.594
2039354.0,1677486030.633
2038372.0,1677486030.671
2037176.0,1677486030.712
2035756.0,1677486030.751
2035045.0,1677486030.792
2035297.0,1677486030.833
2035317.0,1677486030.872
2035999.0,1677486030.912
2036160.0,1677486030.954
2036361.0,1677486030.993
2037344.0,1677486031.031
2040667.0,1677486031.073
2048274.0,1677486031.112
2055503.0,1677486031.152
2059519.0,1677486031.194
2058322.0,1677486031.232
2056148.0,1677486031.273
2055146.0,1677486031.314
2054615.0,1677486031.351
2053168.0,1677486031.392
2051743.0,1677486031.433
2050179.0,1677486031.472
2049915.0,1677486031.512
2049784.0,1677486031.554
2050092.0,1677486031.593
2050055.0,1677486031.633
2049832.0,1677486031.675
2050284.0,1677486031.711
2051011.0,1677486031.752
2051436.0,1677486031.794
2052503.0,1677486031.832
2053114.0,1677486031.872
2054011.0,1677486031.914
2055143.0,1677486031.953
2054974.0,1677486031.993
2054430.0,1677486032.031
2053319.0,1677486032.07
2052465.0,1677486032.11
2051492.0,1677486032.152
2051146.0,1677486032.192
2051917.0,1677486032.232
2052148.0,1677486032.273
2052833.0,1677486032.312
2053087.0,1677486032.352
2053144.0,1677486032.395
2054211.0,1677486032.433
2054324.0,1677486032.473
2055408.0,1677486032.515
2055921.0,1677486032.554
2056808.0,1677486032.595
2057341.0,1677486032.633
2056179.0,1677486032.672
2054758.0,1677486032.713
2052993.0,1677486032.754
2051339.0,1677486032.794
2050080.0,1677486032.833
2049993.0,1677486032.875
2050432.0,1677486032.914
2061160.0,1677486032.994
2056698.0,1677486032.954
2062210.0,1677486033.033
2059801.0,1677486033.073
2055792.0,1677486033.115
2053900.0,1677486033.154
2054190.0,1677486033.195
2056263.0,1677486033.235
2056717.0,1677486033.274
2054614.0,1677486033.312
2052096.0,1677486033.354
2049498.0,1677486033.394
2047064.0,1677486033.433
2046227.0,1677486033.475
2045271.0,1677486033.514
2045224.0,1677486033.554
2045505.0,1677486033.596
2045026.0,1677486033.635
2044453.0,1677486033.675
2043720.0,1677486033.716
2043503.0,1677486033.755
2043663.0,1677486033.795
2044910.0,1677486033.836
2046083.0,1677486033.875
2047911.0,1677486033.915
2049025.0,1677486033.956
2049099.0,1677486033.996
2046797.0,1677486034.035
2044453.0,1677486034.077
2043050.0,1677486034.116
2041659.0,1677486034.156
2040899.0,1677486034.199
2040326.0,1677486034.237
2040243.0,1677486034.277
2040272.0,1677486034.319
2039930.0,1677486034.358
2039628.0,1677486034.399
2039625.0,1677486034.439
2040247.0,1677486034.476
2040547.0,1677486034.517
2041187.0,1677486034.557
2041348.0,1677486034.597
2041920.0,1677486034.637
2041601.0,1677486034.679
2039856.0,1677486034.717
2038540.0,1677486034.758
2036979.0,1677486034.8
2035834.0,1677486034.838
2035627.0,1677486034.879
2035690.0,1677486034.918
2035334.0,1677486034.957
2035279.0,1677486034.998
2035464.0,1677486035.039
2035589.0,1677486035.078
2036151.0,1677486035.118
2037397.0,1677486035.16
2037811.0,1677486035.199
2039224.0,1677486035.237
2039783.0,1677486035.278
2041244.0,1677486035.317
2042315.0,1677486035.358
2041749.0,1677486035.4
2040363.0,1677486035.438
2038950.0,1677486035.478
2037710.0,1677486035.52
2036617.0,1677486035.559
2036186.0,1677486035.598
2036305.0,1677486035.639
2037060.0,1677486035.678
2037262.0,1677486035.718
2037810.0,1677486035.76
2038401.0,1677486035.799
2038994.0,1677486035.839
2040270.0,1677486035.88
2041337.0,1677486035.919
2042621.0,1677486035.957
2043629.0,1677486036.0
2044756.0,1677486036.038
2045903.0,1677486036.078
2046495.0,1677486036.12
2045464.0,1677486036.159
2044294.0,1677486036.2
2042891.0,1677486036.241
2041819.0,1677486036.278
2041915.0,1677486036.318
2041814.0,1677486036.359
2042073.0,1677486036.399
2042441.0,1677486036.439
2043066.0,1677486036.48
2043240.0,1677486036.519
2043829.0,1677486036.559
2044559.0,1677486036.602
2044906.0,1677486036.638
2044768.0,1677486036.678
2045053.0,1677486036.72
2046153.0,1677486036.759
2047210.0,1677486036.8
2048343.0,1677486036.84
2048339.0,1677486036.879
2047480.0,1677486036.92
2046323.0,1677486036.961
2045616.0,1677486036.999
2045074.0,1677486037.038
2045325.0,1677486037.08
2045643.0,1677486037.118
2045792.0,1677486037.159
2046874.0,1677486037.201
2047533.0,1677486037.24
2047779.0,1677486037.28
2048933.0,1677486037.321
2050257.0,1677486037.358
2051154.0,1677486037.399
2052679.0,1677486037.44
2053907.0,1677486037.479
2055703.0,1677486037.519
2057354.0,1677486037.561
2059005.0,1677486037.601
2060422.0,1677486037.64
2060931.0,1677486037.682
2060575.0,1677486037.719
2060432.0,1677486037.759
2060808.0,1677486037.801
2060592.0,1677486037.839
2061126.0,1677486037.88
2062616.0,1677486037.921
2063129.0,1677486037.96
2064498.0,1677486038.001
2065432.0,1677486038.042
2066367.0,1677486038.079
2067866.0,1677486038.119
2068933.0,1677486038.161
2070326.0,1677486038.2
2071820.0,1677486038.24
2073523.0,1677486038.281
2074764.0,1677486038.32
2075453.0,1677486038.361
2075531.0,1677486038.403
2075369.0,1677486038.439
2075109.0,1677486038.479
2074765.0,1677486038.521
2075109.0,1677486038.56
2075255.0,1677486038.601
2075856.0,1677486038.642
2076685.0,1677486038.681
2077694.0,1677486038.721
2078906.0,1677486038.763
2080124.0,1677486038.8
2080959.0,1677486038.84
2082451.0,1677486038.881
2083840.0,1677486038.92
2085132.0,1677486038.96
2086835.0,1677486039.003
2087496.0,1677486039.041
2087296.0,1677486039.081
2086968.0,1677486039.121
2087023.0,1677486039.16
2086790.0,1677486039.201
2086529.0,1677486039.242
2087145.0,1677486039.281
2087666.0,1677486039.321
2088305.0,1677486039.363
2088679.0,1677486039.402
2089278.0,1677486039.442
2090323.0,1677486039.481
2091281.0,1677486039.52
2092077.0,1677486039.56
2093194.0,1677486039.603
2094433.0,1677486039.641
2095750.0,1677486039.68
2096427.0,1677486039.72
2096153.0,1677486039.759
2095769.0,1677486039.8
2094988.0,1677486039.841
2094282.0,1677486039.88
2094286.0,1677486039.92
2094920.0,1677486039.962
2095599.0,1677486040.002
2095858.0,1677486040.041
2096644.0,1677486040.083
2096901.0,1677486040.122
2097718.0,1677486040.16
2098707.0,1677486040.203
2099329.0,1677486040.241
2100232.0,1677486040.281
2101899.0,1677486040.323
2102418.0,1677486040.362
2102050.0,1677486040.403
2101618.0,1677486040.443
2100273.0,1677486040.482
2098993.0,1677486040.52
2097661.0,1677486040.562
2097396.0,1677486040.602
2097392.0,1677486040.641
2095620.0,1677486040.683
2094221.0,1677486040.722
2094676.0,1677486040.762
2095542.0,1677486040.804
2094933.0,1677486040.843
2095775.0,1677486040.881
2098247.0,1677486040.922
2099521.0,1677486040.961
2099613.0,1677486041.002
2097932.0,1677486041.043
2094693.0,1677486041.082
2091282.0,1677486041.122
2088789.0,1677486041.164
2087022.0,1677486041.202
2086015.0,1677486041.241
2085790.0,1677486041.283
2086487.0,1677486041.322
2087110.0,1677486041.362
2087768.0,1677486041.404
2088378.0,1677486041.443
2089532.0,1677486041.483
2090311.0,1677486041.524
2091224.0,1677486041.561
2092020.0,1677486041.602
2092708.0,1677486041.643
2094142.0,1677486041.682
2093202.0,1677486041.722
2092463.0,1677486041.764
2090402.0,1677486041.803
2088687.0,1677486041.843
2086444.0,1677486041.885
2085314.0,1677486041.921
2084526.0,1677486041.962
2084588.0,1677486042.004
2084082.0,1677486042.042
2084039.0,1677486042.083
2083331.0,1677486042.163
2083601.0,1677486042.124
2084167.0,1677486042.204
2084369.0,1677486042.242
2084489.0,1677486042.281
2085190.0,1677486042.321
2086112.0,1677486042.362
2086646.0,1677486042.403
2085805.0,1677486042.442
2084138.0,1677486042.484
2081392.0,1677486042.523
2078960.0,1677486042.563
2077459.0,1677486042.605
2075694.0,1677486042.643
2077553.0,1677486042.684
2077961.0,1677486042.725
2077367.0,1677486042.762
2076717.0,1677486042.803
2075357.0,1677486042.844
2073535.0,1677486042.883
2072281.0,1677486042.923
2072806.0,1677486042.965
2072961.0,1677486043.004
2073512.0,1677486043.044
2074932.0,1677486043.084
2076140.0,1677486043.123
2075407.0,1677486043.163
2074490.0,1677486043.205
2072882.0,1677486043.243
2070717.0,1677486043.284
2069526.0,1677486043.325
2069549.0,1677486043.364
2068824.0,1677486043.405
2069207.0,1677486043.444
2069721.0,1677486043.483
2071605.0,1677486043.523
2072784.0,1677486043.565
2073047.0,1677486043.604
2073310.0,1677486043.644
2074493.0,1677486043.685
2076034.0,1677486043.724
2076526.0,1677486043.765
2077590.0,1677486043.805
2078615.0,1677486043.843
2079394.0,1677486043.883
2079119.0,1677486043.925
2078386.0,1677486043.964
2077194.0,1677486044.005
2077084.0,1677486044.046
2076237.0,1677486044.085
2076375.0,1677486044.123
2076120.0,1677486044.165
2076067.0,1677486044.204
2076763.0,1677486044.244
2076602.0,1677486044.285
2076220.0,1677486044.324
2076797.0,1677486044.365
2078798.0,1677486044.407
2079829.0,1677486044.445
2080021.0,1677486044.483
2078968.0,1677486044.525
2077202.0,1677486044.564
2076641.0,1677486044.605
2075981.0,1677486044.646
2075069.0,1677486044.685
2074339.0,1677486044.725
2073986.0,1677486044.766
2073192.0,1677486044.805
2071986.0,1677486044.845
2071732.0,1677486044.885
2072149.0,1677486044.924
2072202.0,1677486044.964
2072330.0,1677486045.006
2072876.0,1677486045.045
2073195.0,1677486045.085
2074161.0,1677486045.127
2075488.0,1677486045.166
2076002.0,1677486045.204
2076974.0,1677486045.245
2077971.0,1677486045.284
2078785.0,1677486045.324
2078814.0,1677486045.366
2077571.0,1677486045.406
2076157.0,1677486045.445
2075303.0,1677486045.487
2074562.0,1677486045.526
2074347.0,1677486045.564
2074462.0,1677486045.592
2075045.0,1677486045.63
2075444.0,1677486045.67
2075870.0,1677486045.712
2076518.0,1677486045.751
2076847.0,1677486045.791
2077305.0,1677486045.832
2078274.0,1677486045.871
2079043.0,1677486045.911
2080170.0,1677486045.952
2081630.0,1677486045.992
2082457.0,1677486046.031
2082422.0,1677486046.072
2081802.0,1677486046.111
2080787.0,1677486046.151
2080573.0,1677486046.193
2080431.0,1677486046.231
2079960.0,1677486046.271
2080243.0,1677486046.312
2080754.0,1677486046.351
2080845.0,1677486046.392
2081128.0,1677486046.433
2081659.0,1677486046.472
2082103.0,1677486046.512
2083366.0,1677486046.553
2083916.0,1677486046.592
2084987.0,1677486046.632
2086553.0,1677486046.673
2087808.0,1677486046.712
2087760.0,1677486046.752
2087239.0,1677486046.794
2086567.0,1677486046.832
2085736.0,1677486046.872
2085704.0,1677486046.913
2085525.0,1677486046.952
2085599.0,1677486046.993
2086085.0,1677486047.033
2086181.0,1677486047.072
2086208.0,1677486047.112
2086416.0,1677486047.153
2086875.0,1677486047.193
2087796.0,1677486047.232
2088400.0,1677486047.273
2089200.0,1677486047.312
2089667.0,1677486047.352
2089528.0,1677486047.394
2088612.0,1677486047.432
2088068.0,1677486047.472
2086874.0,1677486047.514
2086057.0,1677486047.553
2085891.0,1677486047.593
2086196.0,1677486047.634
2086183.0,1677486047.673
2086664.0,1677486047.713
2086527.0,1677486047.754
2086900.0,1677486047.793
2087046.0,1677486047.833
2087221.0,1677486047.874
2087634.0,1677486047.913
2087879.0,1677486047.953
2089210.0,1677486047.995
2094624.0,1677486048.033
2094764.0,1677486048.073
2091787.0,1677486048.114
2087081.0,1677486048.153
2083201.0,1677486048.194
2080317.0,1677486048.234
2078464.0,1677486048.273
2077890.0,1677486048.313
2079062.0,1677486048.354
2079432.0,1677486048.394
2080692.0,1677486048.433
2081155.0,1677486048.475
2082281.0,1677486048.514
2082781.0,1677486048.554
2083390.0,1677486048.595
2083883.0,1677486048.634
2084200.0,1677486048.674
2083652.0,1677486048.715
2082495.0,1677486048.754
2081062.0,1677486048.795
2079131.0,1677486048.835
2078242.0,1677486048.914
2077947.0,1677486048.995
2078062.0,1677486048.955
2078402.0,1677486048.874
2078037.0,1677486049.034
2078424.0,1677486049.075
2078972.0,1677486049.156
2078608.0,1677486049.115
2079829.0,1677486049.236
2079224.0,1677486049.198
2080576.0,1677486049.276
2081556.0,1677486049.357
2080954.0,1677486049.318
2078593.0,1677486049.439
2076986.0,1677486049.478
2080295.0,1677486049.398
2075388.0,1677486049.516
2074010.0,1677486049.557
2071448.0,1677486049.636
2073395.0,1677486049.597
2070454.0,1677486049.678
2070839.0,1677486049.717
2069962.0,1677486049.757
2069385.0,1677486049.8
2069105.0,1677486049.838
2070254.0,1677486049.919
2069581.0,1677486049.876
2071305.0,1677486049.997
2070570.0,1677486050.038
2068938.0,1677486050.077
2067640.0,1677486050.117
2065755.0,1677486050.158
2064797.0,1677486050.198
2070524.0,1677486049.956
2064010.0,1677486050.279
2064146.0,1677486050.237
2064166.0,1677486050.318
2064415.0,1677486050.358
2064786.0,1677486050.398
2064728.0,1677486050.437
2065276.0,1677486050.477
2066841.0,1677486050.558
2066280.0,1677486050.518
2067616.0,1677486050.598
2068457.0,1677486050.639
2069374.0,1677486050.678
2070326.0,1677486050.718
2069761.0,1677486050.758
2067619.0,1677486050.798
2065486.0,1677486050.837
2063896.0,1677486050.879
2062953.0,1677486050.918
2062989.0,1677486050.958
2062152.0,1677486051.0
2061884.0,1677486051.039
2061953.0,1677486051.077
2062163.0,1677486051.118
2062082.0,1677486051.158
2062470.0,1677486051.198
2062991.0,1677486051.239
2063815.0,1677486051.278
2064730.0,1677486051.318
2065474.0,1677486051.36
2066075.0,1677486051.4
2066372.0,1677486051.437
2065654.0,1677486051.479
2064444.0,1677486051.518
2062998.0,1677486051.558
2061295.0,1677486051.6
2061578.0,1677486051.638
2062717.0,1677486051.679
2065103.0,1677486051.72
2070736.0,1677486051.759
2077892.0,1677486051.798
2081143.0,1677486051.839
2078417.0,1677486051.878
2075631.0,1677486051.918
2075018.0,1677486051.96
2075163.0,1677486051.999
2075475.0,1677486052.039
2076125.0,1677486052.081
2076460.0,1677486052.118
2077137.0,1677486052.158
2077841.0,1677486052.2
2078838.0,1677486052.238
2078337.0,1677486052.279
2077575.0,1677486052.32
2076465.0,1677486052.359
2075648.0,1677486052.4
2075419.0,1677486052.441
2075790.0,1677486052.477
2075919.0,1677486052.517
2075822.0,1677486052.559
2076804.0,1677486052.599
2077678.0,1677486052.638
2077971.0,1677486052.68
2078748.0,1677486052.719
2079356.0,1677486052.759
2080157.0,1677486052.801
2081130.0,1677486052.84
2082498.0,1677486052.88
2083595.0,1677486052.919
2084480.0,1677486052.958
2083734.0,1677486052.999
2082745.0,1677486053.04
2082190.0,1677486053.079
2082184.0,1677486053.119
2082204.0,1677486053.161
2082384.0,1677486053.201
2083202.0,1677486053.238
2083898.0,1677486053.28
2084439.0,1677486053.319
2085753.0,1677486053.359
2086863.0,1677486053.401
2089717.0,1677486053.44
2094993.0,1677486053.48
2101287.0,1677486053.521
2107604.0,1677486053.561
2110207.0,1677486053.599
2107141.0,1677486053.64
2104206.0,1677486053.679
2101287.0,1677486053.719
2099972.0,1677486053.761
2098472.0,1677486053.801
2098272.0,1677486053.84
2098071.0,1677486053.882
2099109.0,1677486053.921
2099574.0,1677486053.959
2100625.0,1677486054.001
2100633.0,1677486054.039
2101377.0,1677486054.08
2101900.0,1677486054.121
2103059.0,1677486054.16
2103668.0,1677486054.201
2104936.0,1677486054.242
2105674.0,1677486054.279
2106617.0,1677486054.319
2106836.0,1677486054.361
2106362.0,1677486054.4
2105614.0,1677486054.44
2104797.0,1677486054.482
2103932.0,1677486054.521
2104030.0,1677486054.561
2104478.0,1677486054.603
2104482.0,1677486054.639
2104694.0,1677486054.679
2105369.0,1677486054.721
2106017.0,1677486054.76
2106716.0,1677486054.801
2107532.0,1677486054.842
2107613.0,1677486054.881
2108370.0,1677486054.921
2109523.0,1677486054.963
2110195.0,1677486055.0
2110235.0,1677486055.039
2109679.0,1677486055.08
2108108.0,1677486055.119
2107210.0,1677486055.16
2106604.0,1677486055.202
2105890.0,1677486055.24
2105882.0,1677486055.281
2105630.0,1677486055.322
2105745.0,1677486055.361
2105922.0,1677486055.402
2106086.0,1677486055.443
2106093.0,1677486055.48
2106906.0,1677486055.52
2107345.0,1677486055.562
2107794.0,1677486055.601
2108038.0,1677486055.641
2108689.0,1677486055.682
2108353.0,1677486055.721
2107804.0,1677486055.762
2106872.0,1677486055.804
2105374.0,1677486055.84
2105008.0,1677486055.88
2104394.0,1677486055.922
2104466.0,1677486055.961
2105105.0,1677486056.002
2105436.0,1677486056.043
2105783.0,1677486056.082
2106116.0,1677486056.122
2106839.0,1677486056.162
2107360.0,1677486056.201
2108241.0,1677486056.241
2109271.0,1677486056.282
2109636.0,1677486056.321
2110636.0,1677486056.362
2109469.0,1677486056.404
2108530.0,1677486056.442
2107182.0,1677486056.482
2105904.0,1677486056.522
2105103.0,1677486056.561
2104747.0,1677486056.602
2104650.0,1677486056.643
2104648.0,1677486056.682
2104637.0,1677486056.722
2104743.0,1677486056.763
2104624.0,1677486056.803
2104497.0,1677486056.843
2104098.0,1677486056.882
2104318.0,1677486056.921
2105190.0,1677486056.961
2105112.0,1677486057.004
2105074.0,1677486057.042
2103872.0,1677486057.082
2102646.0,1677486057.124
2101260.0,1677486057.163
2098438.0,1677486057.202
2095660.0,1677486057.243
2094252.0,1677486057.282
2095797.0,1677486057.322
2100280.0,1677486057.363
2108812.0,1677486057.403
2115523.0,1677486057.442
2113969.0,1677486057.484
2110113.0,1677486057.523
2108284.0,1677486057.564
2108280.0,1677486057.616
2109101.0,1677486057.655
2109303.0,1677486057.695
2108754.0,1677486057.736
2107233.0,1677486057.775
2105052.0,1677486057.815
2103082.0,1677486057.856
2102116.0,1677486057.895
2101625.0,1677486057.935
2100990.0,1677486057.976
2099726.0,1677486058.016
2099107.0,1677486058.055
2098740.0,1677486058.097
2098140.0,1677486058.136
2098113.0,1677486058.176
2097938.0,1677486058.219
2098420.0,1677486058.257
2099052.0,1677486058.297
2099529.0,1677486058.339
2099563.0,1677486058.376
2098715.0,1677486058.417
2097421.0,1677486058.458
2095791.0,1677486058.497
2094649.0,1677486058.537
2093414.0,1677486058.578
2093230.0,1677486058.618
2092777.0,1677486058.658
2093030.0,1677486058.699
2092412.0,1677486058.736
2092545.0,1677486058.776
2092775.0,1677486058.819
2092719.0,1677486058.857
2092752.0,1677486058.897
2092721.0,1677486058.939
2093510.0,1677486058.978
2093497.0,1677486059.019
2092750.0,1677486059.06
2091365.0,1677486059.096
2089432.0,1677486059.136
2086110.0,1677486059.178
2081522.0,1677486059.218
2078477.0,1677486059.257
2077075.0,1677486059.299
2079026.0,1677486059.338
2078547.0,1677486059.378
2077457.0,1677486059.42
2075709.0,1677486059.456
2073075.0,1677486059.497
2071862.0,1677486059.538
2070863.0,1677486059.577
2069861.0,1677486059.618
2071901.0,1677486059.659
2073420.0,1677486059.698
2073598.0,1677486059.738
2074147.0,1677486059.78
2074141.0,1677486059.817
2073947.0,1677486059.857
2074100.0,1677486059.899
2074740.0,1677486059.938
2074758.0,1677486059.978
2074773.0,1677486060.02
2075699.0,1677486060.058
2076161.0,1677486060.099
2076794.0,1677486060.138
2077030.0,1677486060.176
2078807.0,1677486060.218
2079251.0,1677486060.259
2080650.0,1677486060.298
2081642.0,1677486060.338
2081391.0,1677486060.38
2081435.0,1677486060.419
2080601.0,1677486060.459
2078741.0,1677486060.5
2078362.0,1677486060.537
2078770.0,1677486060.578
2079166.0,1677486060.62
2079341.0,1677486060.658
2080307.0,1677486060.698
2081240.0,1677486060.74
2081143.0,1677486060.779
2081709.0,1677486060.819
2081681.0,1677486060.859
2082158.0,1677486060.899
2082566.0,1677486060.939
2082637.0,1677486060.979
2082843.0,1677486061.018
2082647.0,1677486061.057
2081918.0,1677486061.094
2080692.0,1677486061.133
2079192.0,1677486061.173
2078032.0,1677486061.215
2077447.0,1677486061.253
2077498.0,1677486061.293
2077299.0,1677486061.334
2077400.0,1677486061.373
2077361.0,1677486061.414
2077487.0,1677486061.455
2077944.0,1677486061.494
2077920.0,1677486061.534
2078095.0,1677486061.575
2078527.0,1677486061.614
2079174.0,1677486061.654
2080016.0,1677486061.695
2079844.0,1677486061.734
2078987.0,1677486061.774
2077832.0,1677486061.816
2077297.0,1677486061.854
2077126.0,1677486061.894
2077429.0,1677486061.935
2077782.0,1677486061.974
2078640.0,1677486062.015
2078753.0,1677486062.055
2079870.0,1677486062.094
2080408.0,1677486062.134
2081171.0,1677486062.175
2081711.0,1677486062.215
2082267.0,1677486062.254
2083094.0,1677486062.296
2083929.0,1677486062.334
2083364.0,1677486062.375
2082281.0,1677486062.416
2082199.0,1677486062.455
2081209.0,1677486062.495
2080951.0,1677486062.536
2081276.0,1677486062.575
2082202.0,1677486062.616
2082737.0,1677486062.656
2083304.0,1677486062.695
2083617.0,1677486062.735
2084591.0,1677486062.776
2084997.0,1677486062.816
2086033.0,1677486062.855
2086543.0,1677486062.896
2087601.0,1677486062.935
2088326.0,1677486062.975
2088269.0,1677486063.017
2087206.0,1677486063.056
2086153.0,1677486063.096
2085356.0,1677486063.137
2084204.0,1677486063.176
2084087.0,1677486063.216
2084487.0,1677486063.257
2084539.0,1677486063.296
2084266.0,1677486063.336
2084287.0,1677486063.377
2084783.0,1677486063.417
2085689.0,1677486063.456
2086214.0,1677486063.497
2086721.0,1677486063.536
2087461.0,1677486063.576
2088105.0,1677486063.618
2088199.0,1677486063.656
2087591.0,1677486063.696
2086161.0,1677486063.739
2085317.0,1677486063.778
2084428.0,1677486063.819
2083944.0,1677486063.86
2083899.0,1677486063.899
2083594.0,1677486063.939
2084004.0,1677486063.981
2084145.0,1677486064.02
2084643.0,1677486064.06
2085151.0,1677486064.102
2085252.0,1677486064.141
2085996.0,1677486064.181
2086791.0,1677486064.223
2087426.0,1677486064.262
2087348.0,1677486064.3
2086596.0,1677486064.341
2085372.0,1677486064.38
2084380.0,1677486064.421
2083635.0,1677486064.462
2082908.0,1677486064.501
2082942.0,1677486064.541
2082677.0,1677486064.583
2082819.0,1677486064.623
2082924.0,1677486064.66
2083373.0,1677486064.702
2084076.0,1677486064.74
2084097.0,1677486064.781
2085094.0,1677486064.823
2086225.0,1677486064.861
2087151.0,1677486064.902
2087645.0,1677486064.943
2085808.0,1677486064.982
2083584.0,1677486065.021
2081635.0,1677486065.062
2084679.0,1677486065.101
2087621.0,1677486065.141
2087840.0,1677486065.183
2086532.0,1677486065.222
2084909.0,1677486065.262
2083513.0,1677486065.302
2083419.0,1677486065.342
2083001.0,1677486065.38
