PPG GREEN,time
1935418.0,1709208780.022
1935896.0,1709208780.062
1936283.0,1709208780.102
1936968.0,1709208780.143
1937560.0,1709208780.183
1938475.0,1709208780.222
1939326.0,1709208780.263
1937948.0,1709208780.302
1933424.0,1709208780.342
1927719.0,1709208780.384
1922628.0,1709208780.422
1918942.0,1709208780.462
1915503.0,1709208780.503
1913114.0,1709208780.542
1911569.0,1709208780.584
1909444.0,1709208780.624
1906965.0,1709208780.663
1904224.0,1709208780.703
1901836.0,1709208780.744
1900076.0,1709208780.784
1898949.0,1709208780.823
1897975.0,1709208780.864
1897681.0,1709208780.903
1897608.0,1709208780.943
1897308.0,1709208780.986
1897354.0,1709208781.024
1897355.0,1709208781.064
1897483.0,1709208781.105
1897617.0,1709208781.144
1898032.0,1709208781.185
1898601.0,1709208781.225
1899277.0,1709208781.264
1900186.0,1709208781.304
1901125.0,1709208781.346
1902303.0,1709208781.386
1903621.0,1709208781.425
1902556.0,1709208781.466
1897830.0,1709208781.505
1892121.0,1709208781.545
1887487.0,1709208781.587
1884299.0,1709208781.625
1882349.0,1709208781.665
1881072.0,1709208781.706
1880504.0,1709208781.745
1879740.0,1709208781.787
1877938.0,1709208781.827
1876439.0,1709208781.866
1875247.0,1709208781.906
1874678.0,1709208781.947
1874746.0,1709208781.987
1875112.0,1709208782.026
1875729.0,1709208782.067
1876576.0,1709208782.106
1877655.0,1709208782.147
1878529.0,1709208782.189
1879521.0,1709208782.227
1880634.0,1709208782.267
1881516.0,1709208782.308
1882878.0,1709208782.347
1884352.0,1709208782.388
1885902.0,1709208782.428
1887432.0,1709208782.467
1889430.0,1709208782.508
1889463.0,1709208782.549
1886554.0,1709208782.589
1883110.0,1709208782.628
1880839.0,1709208782.669
1879902.0,1709208782.708
1879902.0,1709208782.748
1880700.0,1709208782.791
1880495.0,1709208782.829
1878856.0,1709208782.869
1875951.0,1709208782.91
1873716.0,1709208782.949
1873113.0,1709208782.99
1873726.0,1709208783.03
1875828.0,1709208783.069
1879307.0,1709208783.109
1883369.0,1709208783.15
1888028.0,1709208783.191
1894108.0,1709208783.23
1902025.0,1709208783.271
1911620.0,1709208783.31
1922981.0,1709208783.35
1934376.0,1709208783.392
1945418.0,1709208783.43
1956511.0,1709208783.47
1967374.0,1709208783.511
1976978.0,1709208783.551
1984827.0,1709208783.592
1988449.0,1709208783.632
1990896.0,1709208783.671
1993838.0,1709208783.711
1997922.0,1709208783.752
2002408.0,1709208783.792
2007750.0,1709208783.831
2013299.0,1709208783.872
2018004.0,1709208783.911
2022278.0,1709208783.951
2026493.0,1709208783.993
2031008.0,1709208784.031
2035743.0,1709208784.071
2040865.0,1709208784.112
2046006.0,1709208784.152
2050659.0,1709208784.192
2055454.0,1709208784.233
2060294.0,1709208784.272
2064499.0,1709208784.312
2068785.0,1709208784.353
2073062.0,1709208784.393
2076739.0,1709208784.433
2080232.0,1709208784.473
2083941.0,1709208784.512
2087721.0,1709208784.552
2091114.0,1709208784.594
2094686.0,1709208784.632
2098289.0,1709208784.672
2100533.0,1709208784.713
2100361.0,1709208784.752
2100445.0,1709208784.794
2101625.0,1709208784.834
2103803.0,1709208784.873
2105825.0,1709208784.913
2108200.0,1709208784.956
2110865.0,1709208784.996
2113415.0,1709208785.035
2115315.0,1709208785.076
2117159.0,1709208785.115
2119083.0,1709208785.155
2121135.0,1709208785.197
2124555.0,1709208785.276
2126852.0,1709208785.317
2122869.0,1709208785.235
2128986.0,1709208785.356
2130709.0,1709208785.397
2132075.0,1709208785.437
2133855.0,1709208785.476
2135736.0,1709208785.516
2137028.0,1709208785.557
2138481.0,1709208785.597
2140068.0,1709208785.636
2141588.0,1709208785.677
2142637.0,1709208785.716
2143704.0,1709208785.756
2144718.0,1709208785.799
2145112.0,1709208785.837
2145686.0,1709208785.877
2145276.0,1709208785.918
2141200.0,1709208785.957
2134452.0,1709208785.998
2126525.0,1709208786.038
2118238.0,1709208786.077
2110463.0,1709208786.117
2102578.0,1709208786.158
2095592.0,1709208786.198
2088220.0,1709208786.237
2080070.0,1709208786.278
2070639.0,1709208786.317
2059980.0,1709208786.358
2050074.0,1709208786.4
2040462.0,1709208786.438
2032177.0,1709208786.478
2024502.0,1709208786.519
2017513.0,1709208786.558
2011059.0,1709208786.599
1999587.0,1709208786.678
1993990.0,1709208786.718
1988624.0,1709208786.759
2005135.0,1709208786.639
1983584.0,1709208786.799
1978950.0,1709208786.838
1974386.0,1709208786.88
1970510.0,1709208786.919
1966988.0,1709208786.959
1960747.0,1709208787.039
1963528.0,1709208787.001
1957920.0,1709208787.079
1953281.0,1709208787.12
1943247.0,1709208787.159
1931340.0,1709208787.2
1919798.0,1709208787.24
1910526.0,1709208787.279
1903170.0,1709208787.319
1897516.0,1709208787.361
1893046.0,1709208787.401
1887987.0,1709208787.441
1882002.0,1709208787.481
1876116.0,1709208787.52
1870385.0,1709208787.56
1859959.0,1709208787.68
1862629.0,1709208787.64
1858032.0,1709208787.721
1855927.0,1709208787.76
1866005.0,1709208787.602
1854149.0,1709208787.802
1852487.0,1709208787.842
1850957.0,1709208787.881
1849739.0,1709208787.921
1848835.0,1709208788.002
1848997.0,1709208787.962
1849431.0,1709208788.082
1848980.0,1709208788.041
1846688.0,1709208788.121
1840944.0,1709208788.161
1834737.0,1709208788.203
1829902.0,1709208788.241
1827115.0,1709208788.281
1825798.0,1709208788.323
1826120.0,1709208788.362
1826581.0,1709208788.403
1826153.0,1709208788.443
1825782.0,1709208788.482
1825684.0,1709208788.522
1826227.0,1709208788.563
1827044.0,1709208788.603
1828565.0,1709208788.642
1830206.0,1709208788.684
1831964.0,1709208788.723
1833664.0,1709208788.763
1835637.0,1709208788.805
1837519.0,1709208788.843
1839497.0,1709208788.883
1841571.0,1709208788.924
1843673.0,1709208788.963
1845864.0,1709208789.004
1846127.0,1709208789.044
1843263.0,1709208789.083
1839165.0,1709208789.124
1836240.0,1709208789.165
1834508.0,1709208789.205
1834183.0,1709208789.244
1835363.0,1709208789.285
1836682.0,1709208789.324
1837293.0,1709208789.364
1837473.0,1709208789.406
1837210.0,1709208789.444
1837223.0,1709208789.484
1837397.0,1709208789.525
1838080.0,1709208789.565
1838896.0,1709208789.606
1840184.0,1709208789.646
1841504.0,1709208789.685
1842993.0,1709208789.725
1844658.0,1709208789.766
1845966.0,1709208789.806
1847339.0,1709208789.845
1848719.0,1709208789.886
1849617.0,1709208789.925
1848969.0,1709208789.966
1846968.0,1709208790.008
1845831.0,1709208790.046
1845286.0,1709208790.086
1845283.0,1709208790.127
1845819.0,1709208790.166
1847721.0,1709208790.207
1849851.0,1709208790.247
1852284.0,1709208790.286
1854619.0,1709208790.327
1857646.0,1709208790.368
1861012.0,1709208790.408
1864813.0,1709208790.447
1868547.0,1709208790.488
1872444.0,1709208790.527
1876262.0,1709208790.567
1880426.0,1709208790.609
1884270.0,1709208790.647
1888364.0,1709208790.687
1892341.0,1709208790.728
1896175.0,1709208790.768
1900419.0,1709208790.809
1904661.0,1709208790.849
1906346.0,1709208790.888
1906612.0,1709208790.928
1907561.0,1709208790.969
1909159.0,1709208791.009
1910830.0,1709208791.048
1912576.0,1709208791.089
1914929.0,1709208791.128
1916774.0,1709208791.169
1918571.0,1709208791.211
1920252.0,1709208791.249
1922104.0,1709208791.289
1923987.0,1709208791.33
1926791.0,1709208791.369
1929160.0,1709208791.41
1931975.0,1709208791.45
1935062.0,1709208791.489
1938049.0,1709208791.529
1941543.0,1709208791.57
1944810.0,1709208791.611
1948275.0,1709208791.65
1952056.0,1709208791.691
1955379.0,1709208791.73
1957118.0,1709208791.77
1958495.0,1709208791.812
1960303.0,1709208791.85
1962795.0,1709208791.89
1965860.0,1709208791.931
1968504.0,1709208791.97
1971630.0,1709208792.011
1974439.0,1709208792.052
1976679.0,1709208792.091
1978363.0,1709208792.131
1980102.0,1709208792.172
1982372.0,1709208792.212
1984329.0,1709208792.251
1986411.0,1709208792.292
1988527.0,1709208792.331
1990637.0,1709208792.371
1992842.0,1709208792.413
1995138.0,1709208792.451
1997392.0,1709208792.491
2000009.0,1709208792.533
2001809.0,1709208792.572
2002400.0,1709208792.613
2002227.0,1709208792.653
2002461.0,1709208792.692
2003537.0,1709208792.732
2004790.0,1709208792.773
2006008.0,1709208792.813
2007553.0,1709208792.852
2008839.0,1709208792.893
2009637.0,1709208792.932
2010521.0,1709208792.973
2011429.0,1709208793.015
2012459.0,1709208793.053
2013958.0,1709208793.093
2015248.0,1709208793.134
2016651.0,1709208793.173
2018210.0,1709208793.214
2019664.0,1709208793.254
2022548.0,1709208793.333
2020998.0,1709208793.293
2023747.0,1709208793.374
2025345.0,1709208793.414
2025293.0,1709208793.454
2023755.0,1709208793.495
2022713.0,1709208793.574
2022787.0,1709208793.534
2023062.0,1709208793.616
2023782.0,1709208793.654
2024907.0,1709208793.694
2025444.0,1709208793.735
2025653.0,1709208793.774
2025843.0,1709208793.815
2026193.0,1709208793.856
2026933.0,1709208793.895
2027454.0,1709208793.935
2028501.0,1709208793.976
2029474.0,1709208794.016
2030481.0,1709208794.055
2031675.0,1709208794.096
2032479.0,1709208794.135
2033528.0,1709208794.175
2034559.0,1709208794.218
2035476.0,1709208794.256
2036585.0,1709208794.296
2037463.0,1709208794.337
2035867.0,1709208794.376
2032584.0,1709208794.417
2029861.0,1709208794.457
2028067.0,1709208794.496
2026630.0,1709208794.536
2025674.0,1709208794.577
2025581.0,1709208794.617
2025005.0,1709208794.657
2023634.0,1709208794.698
2022512.0,1709208794.737
2021699.0,1709208794.777
2021079.0,1709208794.819
2020571.0,1709208794.857
2020435.0,1709208794.897
2020544.0,1709208794.938
2020969.0,1709208794.977
2021416.0,1709208795.018
2022012.0,1709208795.058
2022234.0,1709208795.097
2022697.0,1709208795.137
2022783.0,1709208795.178
2023240.0,1709208795.218
2023830.0,1709208795.258
2024650.0,1709208795.299
2025054.0,1709208795.338
2026103.0,1709208795.378
2026925.0,1709208795.42
2027611.0,1709208795.458
2028773.0,1709208795.498
2028925.0,1709208795.539
2025333.0,1709208795.578
2020649.0,1709208795.619
2016260.0,1709208795.659
2013468.0,1709208795.698
2011223.0,1709208795.738
2009866.0,1709208795.779
2008761.0,1709208795.819
2008068.0,1709208795.858
2006224.0,1709208795.899
2004429.0,1709208795.939
2002795.0,1709208795.979
2001466.0,1709208796.021
2000787.0,1709208796.059
2000254.0,1709208796.099
1999884.0,1709208796.14
2000018.0,1709208796.179
1999821.0,1709208796.22
1999963.0,1709208796.26
2000191.0,1709208796.299
2000664.0,1709208796.339
2000784.0,1709208796.38
2001327.0,1709208796.42
2002033.0,1709208796.46
2002734.0,1709208796.501
2003627.0,1709208796.54
2004300.0,1709208796.58
2005470.0,1709208796.622
2006268.0,1709208796.66
2007468.0,1709208796.7
2008422.0,1709208796.741
2007441.0,1709208796.78
2003487.0,1709208796.821
1999469.0,1709208796.861
1996620.0,1709208796.9
1995135.0,1709208796.941
1993815.0,1709208797.03
1993148.0,1709208797.07
1993018.0,1709208797.109
1992615.0,1709208797.15
1991355.0,1709208797.189
1990372.0,1709208797.229
1989547.0,1709208797.271
1989318.0,1709208797.309
1989389.0,1709208797.349
1990072.0,1709208797.39
1991154.0,1709208797.429
1993338.0,1709208797.47
1995532.0,1709208797.511
1998161.0,1709208797.55
2000537.0,1709208797.59
2003358.0,1709208797.631
2005863.0,1709208797.671
2008924.0,1709208797.71
2012084.0,1709208797.751
2014908.0,1709208797.79
2018365.0,1709208797.83
2021834.0,1709208797.872
2025419.0,1709208797.91
2028227.0,1709208797.95
2028802.0,1709208797.992
2028186.0,1709208798.031
2028226.0,1709208798.072
2028861.0,1709208798.112
2030813.0,1709208798.151
2033278.0,1709208798.191
2035795.0,1709208798.232
2038411.0,1709208798.272
2039916.0,1709208798.311
2041966.0,1709208798.352
2043302.0,1709208798.391
2045504.0,1709208798.431
2048040.0,1709208798.474
2050261.0,1709208798.512
2052624.0,1709208798.552
2055347.0,1709208798.593
2057603.0,1709208798.632
2059912.0,1709208798.673
2062110.0,1709208798.713
2064281.0,1709208798.752
2066838.0,1709208798.792
2069094.0,1709208798.833
2071119.0,1709208798.873
2073558.0,1709208798.913
2075721.0,1709208798.954
2077970.0,1709208798.993
2080282.0,1709208799.033
2081604.0,1709208799.075
2080668.0,1709208799.113
2079606.0,1709208799.153
2078951.0,1709208799.194
2079584.0,1709208799.233
2081241.0,1709208799.274
2082945.0,1709208799.314
2084661.0,1709208799.354
2086526.0,1709208799.394
2087560.0,1709208799.435
2088459.0,1709208799.475
2089271.0,1709208799.514
2090293.0,1709208799.555
2091783.0,1709208799.594
2093463.0,1709208799.634
2095228.0,1709208799.676
2096828.0,1709208799.714
2098662.0,1709208799.755
2101652.0,1709208799.796
2104783.0,1709208799.835
2107283.0,1709208799.876
2110766.0,1709208799.916
2113860.0,1709208799.955
2115419.0,1709208799.995
2114574.0,1709208800.036
2112793.0,1709208800.076
2110070.0,1709208800.116
2108431.0,1709208800.157
2106353.0,1709208800.196
2102165.0,1709208800.236
2097660.0,1709208800.278
2095701.0,1709208800.316
2098558.0,1709208800.356
2104604.0,1709208800.397
2114244.0,1709208800.436
2122955.0,1709208800.477
2128754.0,1709208800.518
2131705.0,1709208800.557
2134198.0,1709208800.597
2131070.0,1709208800.638
2125539.0,1709208800.678
2123680.0,1709208800.717
2124195.0,1709208800.758
2122874.0,1709208800.797
2119781.0,1709208800.837
2115246.0,1709208800.879
2110819.0,1709208800.917
2108931.0,1709208800.957
2108054.0,1709208800.999
2108182.0,1709208801.038
2108512.0,1709208801.079
2108940.0,1709208801.119
2109764.0,1709208801.158
2110471.0,1709208801.198
2109661.0,1709208801.239
2104813.0,1709208801.279
2099398.0,1709208801.318
2095390.0,1709208801.36
2092771.0,1709208801.399
2091439.0,1709208801.439
2090379.0,1709208801.481
2088901.0,1709208801.52
2087162.0,1709208801.559
2085490.0,1709208801.6
2084087.0,1709208801.639
2083358.0,1709208801.68
2083179.0,1709208801.721
2082765.0,1709208801.76
2082397.0,1709208801.8
2082568.0,1709208801.841
2082827.0,1709208801.881
2083064.0,1709208801.92
2083101.0,1709208801.961
2083562.0,1709208802.0
2083946.0,1709208802.04
2084480.0,1709208802.082
2085014.0,1709208802.121
2085657.0,1709208802.161
2086695.0,1709208802.202
2088548.0,1709208802.241
2082644.0,1709208802.322
2088045.0,1709208802.282
2075851.0,1709208802.361
2069701.0,1709208802.401
2066602.0,1709208802.442
2064270.0,1709208802.482
2063189.0,1709208802.522
2062837.0,1709208802.563
2062836.0,1709208802.602
2061478.0,1709208802.642
2059679.0,1709208802.684
2058264.0,1709208802.722
2057534.0,1709208802.762
2057563.0,1709208802.803
2057872.0,1709208802.842
2058474.0,1709208802.883
2059091.0,1709208802.924
2060212.0,1709208802.963
2060935.0,1709208803.003
2061858.0,1709208803.044
2062422.0,1709208803.084
2062993.0,1709208803.123
2064291.0,1709208803.164
2065071.0,1709208803.203
2066127.0,1709208803.244
2066934.0,1709208803.286
2068633.0,1709208803.324
2069663.0,1709208803.365
2069971.0,1709208803.402
2058365.0,1709208803.476
2047345.0,1709208803.55
2065356.0,1709208803.441
2051583.0,1709208803.513
2043169.0,1709208803.632
2042291.0,1709208803.672
2044945.0,1709208803.591
2041564.0,1709208803.712
2037951.0,1709208803.792
2040050.0,1709208803.753
2035848.0,1709208803.832
2034697.0,1709208803.874
2034788.0,1709208803.911
2034748.0,1709208803.951
2035770.0,1709208803.992
2036286.0,1709208804.031
2037423.0,1709208804.072
2038729.0,1709208804.113
2039497.0,1709208804.152
2040836.0,1709208804.193
2041819.0,1709208804.234
2043314.0,1709208804.271
2045186.0,1709208804.311
2047073.0,1709208804.352
2048958.0,1709208804.391
2051210.0,1709208804.432
2053131.0,1709208804.474
2051857.0,1709208804.512
2047598.0,1709208804.552
2044091.0,1709208804.594
2042512.0,1709208804.631
2042199.0,1709208804.672
2042361.0,1709208804.712
2043806.0,1709208804.751
2044970.0,1709208804.792
2045322.0,1709208804.833
2044991.0,1709208804.873
2044352.0,1709208804.913
2044095.0,1709208804.954
2044449.0,1709208804.993
2045020.0,1709208805.031
2045791.0,1709208805.073
2046888.0,1709208805.111
2048084.0,1709208805.152
2049289.0,1709208805.193
2050933.0,1709208805.232
2052601.0,1709208805.273
2054034.0,1709208805.314
2055377.0,1709208805.353
2057417.0,1709208805.393
2059522.0,1709208805.432
2061446.0,1709208805.474
2063766.0,1709208805.51
2065693.0,1709208805.552
2067659.0,1709208805.591
2065238.0,1709208805.632
2060620.0,1709208805.673
2056398.0,1709208805.712
2053177.0,1709208805.752
2051365.0,1709208805.793
2049740.0,1709208805.832
2048600.0,1709208805.874
2047322.0,1709208805.914
2046023.0,1709208805.953
2044764.0,1709208805.992
2044266.0,1709208806.033
2044126.0,1709208806.073
2045275.0,1709208806.112
2046740.0,1709208806.153
2048210.0,1709208806.193
2049631.0,1709208806.233
2051194.0,1709208806.275
2053719.0,1709208806.313
2056344.0,1709208806.352
2058805.0,1709208806.393
2062152.0,1709208806.432
2065137.0,1709208806.473
2068496.0,1709208806.514
2071541.0,1709208806.553
2074440.0,1709208806.593
2077544.0,1709208806.634
2080367.0,1709208806.674
2082860.0,1709208806.712
2084979.0,1709208806.753
2083095.0,1709208806.792
2079072.0,1709208806.833
2075577.0,1709208806.874
2074360.0,1709208806.913
2074175.0,1709208806.953
2074682.0,1709208806.994
2075109.0,1709208807.033
2075221.0,1709208807.073
2074819.0,1709208807.113
2073711.0,1709208807.152
2072684.0,1709208807.193
2071984.0,1709208807.234
2072055.0,1709208807.274
2072063.0,1709208807.313
2072619.0,1709208807.354
2073453.0,1709208807.394
2074205.0,1709208807.434
2074946.0,1709208807.474
2075461.0,1709208807.512
2075925.0,1709208807.552
2076528.0,1709208807.594
2076694.0,1709208807.633
2077936.0,1709208807.715
2077366.0,1709208807.674
2078602.0,1709208807.754
2079429.0,1709208807.794
2080289.0,1709208807.833
2081189.0,1709208807.873
2079992.0,1709208807.913
2074892.0,1709208807.954
2068504.0,1709208807.993
2063712.0,1709208808.032
2061086.0,1709208808.072
2059742.0,1709208808.11
2059269.0,1709208808.15
2058842.0,1709208808.192
2057616.0,1709208808.232
2055795.0,1709208808.273
2053467.0,1709208808.313
2051681.0,1709208808.352
2050687.0,1709208808.393
2050527.0,1709208808.434
2050565.0,1709208808.474
2051087.0,1709208808.514
2051481.0,1709208808.555
2051613.0,1709208808.594
2052027.0,1709208808.634
2052098.0,1709208808.674
2052498.0,1709208808.712
2053209.0,1709208808.753
2053823.0,1709208808.794
2054658.0,1709208808.833
2055471.0,1709208808.874
2056508.0,1709208808.915
2057581.0,1709208808.954
2059204.0,1709208808.994
2060057.0,1709208809.036
2056392.0,1709208809.075
2049332.0,1709208809.115
2041777.0,1709208809.156
2037017.0,1709208809.195
2033625.0,1709208809.235
2031268.0,1709208809.277
2029954.0,1709208809.315
2028726.0,1709208809.355
2026531.0,1709208809.396
2023629.0,1709208809.435
2020838.0,1709208809.476
2018394.0,1709208809.517
2016707.0,1709208809.556
2015475.0,1709208809.597
2014829.0,1709208809.638
2014575.0,1709208809.718
2014534.0,1709208809.678
2014950.0,1709208809.759
2016147.0,1709208809.798
2017583.0,1709208809.838
2019494.0,1709208809.88
2021742.0,1709208809.919
2024266.0,1709208809.957
2026855.0,1709208809.998
2030000.0,1709208810.037
2033989.0,1709208810.078
2041228.0,1709208810.158
2037569.0,1709208810.119
2050344.0,1709208810.24
2051494.0,1709208810.279
2047456.0,1709208810.319
2045380.0,1709208810.198
2042936.0,1709208810.358
2041042.0,1709208810.397
2041172.0,1709208810.438
2042178.0,1709208810.48
2044021.0,1709208810.518
2045388.0,1709208810.558
2046048.0,1709208810.599
2046286.0,1709208810.677
2047419.0,1709208810.718
2050371.0,1709208810.757
2046059.0,1709208810.635
2054111.0,1709208810.797
2059310.0,1709208810.839
2064519.0,1709208810.878
2069040.0,1709208810.918
2073650.0,1709208810.959
2078050.0,1709208810.998
2081746.0,1709208811.039
2085184.0,1709208811.081
2088393.0,1709208811.119
2091206.0,1709208811.158
2093791.0,1709208811.199
2096440.0,1709208811.238
2099270.0,1709208811.279
2101735.0,1709208811.319
2104369.0,1709208811.358
2107034.0,1709208811.399
2107741.0,1709208811.44
2103513.0,1709208811.48
2099496.0,1709208811.52
2097952.0,1709208811.559
2098461.0,1709208811.598
2099957.0,1709208811.638
2102673.0,1709208811.68
2104994.0,1709208811.718
2106817.0,1709208811.799
2108156.0,1709208811.879
2110002.0,1709208811.919
2107117.0,1709208811.838
2106286.0,1709208811.758
2112858.0,1709208811.958
2120403.0,1709208812.039
2116324.0,1709208811.998
2124781.0,1709208812.079
2128873.0,1709208812.119
2132969.0,1709208812.16
2136560.0,1709208812.199
2139329.0,1709208812.239
2142331.0,1709208812.281
2145886.0,1709208812.319
2149648.0,1709208812.359
2152191.0,1709208812.401
2154326.0,1709208812.438
2154404.0,1709208812.479
2148824.0,1709208812.519
2140555.0,1709208812.558
2127235.0,1709208812.64
2132873.0,1709208812.599
2123603.0,1709208812.68
2121239.0,1709208812.72
2120191.0,1709208812.761
2119465.0,1709208812.838
2119089.0,1709208812.959
2119509.0,1709208812.88
2119374.0,1709208812.919
2119803.0,1709208812.798
2118758.0,1709208813.0
2118351.0,1709208813.081
2118130.0,1709208813.121
2117947.0,1709208813.159
2117568.0,1709208813.197
2117014.0,1709208813.238
2116791.0,1709208813.278
2116283.0,1709208813.318
2116637.0,1709208813.359
2116752.0,1709208813.398
2118653.0,1709208813.039
2117598.0,1709208813.481
2118289.0,1709208813.519
2120135.0,1709208813.601
2117075.0,1709208813.439
2118061.0,1709208813.64
2119250.0,1709208813.559
2110853.0,1709208813.681
2102563.0,1709208813.719
2093469.0,1709208813.799
2091166.0,1709208813.84
2097043.0,1709208813.759
2090043.0,1709208813.88
2089583.0,1709208813.92
2088312.0,1709208813.961
2086644.0,1709208814.0
2084607.0,1709208814.041
2083184.0,1709208814.08
2082765.0,1709208814.119
2083511.0,1709208814.159
2084419.0,1709208814.2
2085815.0,1709208814.239
2087282.0,1709208814.281
2088784.0,1709208814.321
2090532.0,1709208814.36
2093673.0,1709208814.44
2095500.0,1709208814.48
2092148.0,1709208814.401
2097540.0,1709208814.519
2103652.0,1709208814.64
2099788.0,1709208814.56
2101641.0,1709208814.599
2105685.0,1709208814.682
2111270.0,1709208814.8
2107555.0,1709208814.72
2110273.0,1709208814.839
2109479.0,1709208814.761
2103505.0,1709208814.88
2094722.0,1709208814.921
2088281.0,1709208814.96
2084200.0,1709208815.0
2081665.0,1709208815.041
2078793.0,1709208815.121
2077455.0,1709208815.162
2074916.0,1709208815.199
2072214.0,1709208815.239
2069927.0,1709208815.281
2068713.0,1709208815.32
2080039.0,1709208815.081
2068174.0,1709208815.44
2068264.0,1709208815.36
2068191.0,1709208815.401
2068294.0,1709208815.481
2068199.0,1709208815.522
2067986.0,1709208815.559
2067815.0,1709208815.6
2067743.0,1709208815.641
2067734.0,1709208815.681
2067764.0,1709208815.719
2069016.0,1709208815.798
2068375.0,1709208815.759
2071491.0,1709208815.881
2070402.0,1709208815.839
2072452.0,1709208815.919
2073871.0,1709208815.96
2075608.0,1709208816.001
2077050.0,1709208816.04
2076207.0,1709208816.081
2068382.0,1709208816.121
2059510.0,1709208816.16
2052578.0,1709208816.201
2048437.0,1709208816.242
2045541.0,1709208816.282
2043123.0,1709208816.361
2044070.0,1709208816.32
2041766.0,1709208816.4
2039958.0,1709208816.44
2038576.0,1709208816.482
2038427.0,1709208816.521
2039500.0,1709208816.561
2041680.0,1709208816.602
2044811.0,1709208816.639
2048442.0,1709208816.681
2051831.0,1709208816.721
2054899.0,1709208816.76
2057478.0,1709208816.801
2060090.0,1709208816.842
2062154.0,1709208816.882
2064623.0,1709208816.921
2067352.0,1709208816.962
2069986.0,1709208817.002
2072845.0,1709208817.04
2075649.0,1709208817.082
2078644.0,1709208817.12
2082658.0,1709208817.16
2086460.0,1709208817.202
2087343.0,1709208817.241
2084084.0,1709208817.282
2077202.0,1709208817.322
2072650.0,1709208817.361
2070341.0,1709208817.402
2069199.0,1709208817.441
2068943.0,1709208817.481
2067887.0,1709208817.52
2065420.0,1709208817.562
2061166.0,1709208817.601
2056404.0,1709208817.641
2052341.0,1709208817.683
2049472.0,1709208817.722
2047148.0,1709208817.762
2045944.0,1709208817.801
2044525.0,1709208817.881
2045356.0,1709208817.84
2043908.0,1709208817.922
2043339.0,1709208817.961
2043002.0,1709208818.001
2042434.0,1709208818.043
2042030.0,1709208818.082
2041982.0,1709208818.122
2042098.0,1709208818.161
2042269.0,1709208818.2
2042787.0,1709208818.241
2043212.0,1709208818.282
2044092.0,1709208818.32
2044717.0,1709208818.361
2042953.0,1709208818.402
2035102.0,1709208818.441
2024959.0,1709208818.483
2016295.0,1709208818.523
2010510.0,1709208818.562
2006355.0,1709208818.6
2003105.0,1709208818.642
2000991.0,1709208818.682
1998497.0,1709208818.721
1994522.0,1709208818.762
1990152.0,1709208818.802
1986343.0,1709208818.842
1983333.0,1709208818.884
1981596.0,1709208818.922
1980377.0,1709208818.961
1979255.0,1709208819.041
1979263.0,1709208819.082
1979088.0,1709208819.122
1979393.0,1709208819.161
1979638.0,1709208819.002
1979952.0,1709208819.202
1980702.0,1709208819.243
1983175.0,1709208819.323
1984785.0,1709208819.362
1981699.0,1709208819.283
1988101.0,1709208819.441
1986523.0,1709208819.401
1990052.0,1709208819.483
1992259.0,1709208819.521
1991462.0,1709208819.562
1984465.0,1709208819.603
1963432.0,1709208819.722
1975305.0,1709208819.642
1960283.0,1709208819.761
1958824.0,1709208819.801
1959266.0,1709208819.882
1959027.0,1709208819.843
1968252.0,1709208819.684
1960230.0,1709208819.922
1961817.0,1709208819.963
1964878.0,1709208820.002
1969372.0,1709208820.043
1974710.0,1709208820.085
1980138.0,1709208820.121
1991029.0,1709208820.203
1999926.0,1709208820.283
2003987.0,1709208820.323
2007735.0,1709208820.362
1995766.0,1709208820.242
1985905.0,1709208820.161
2011143.0,1709208820.403
2014717.0,1709208820.444
2021927.0,1709208820.521
2025606.0,1709208820.563
2018485.0,1709208820.482
2032438.0,1709208820.642
2039020.0,1709208820.723
2039835.0,1709208820.763
2035314.0,1709208820.804
2029862.0,1709208820.84
2035794.0,1709208820.684
2026477.0,1709208820.882
2024994.0,1709208820.923
2028852.0,1709208820.602
2024395.0,1709208820.962
2024956.0,1709208821.002
2025464.0,1709208821.041
2025141.0,1709208821.08
2024073.0,1709208821.119
2023313.0,1709208821.158
2022894.0,1709208821.197
2023554.0,1709208821.236
2024680.0,1709208821.275
2026392.0,1709208821.314
2028052.0,1709208821.353
2029985.0,1709208821.392
2031831.0,1709208821.431
2033655.0,1709208821.47
2035561.0,1709208821.509
2037617.0,1709208821.548
2039508.0,1709208821.587
2041801.0,1709208821.626
2057788.0,1709208821.86
2046813.0,1709208821.704
2056088.0,1709208821.899
2054914.0,1709208821.821
2051878.0,1709208821.938
2049337.0,1709208821.743
2051932.0,1709208821.782
2044397.0,1709208821.665
2048514.0,1709208821.977
2046807.0,1709208822.016
2046386.0,1709208822.055
2046778.0,1709208822.094
2047424.0,1709208822.133
2048574.0,1709208822.172
2048698.0,1709208822.212
2048211.0,1709208822.292
2049147.0,1709208822.332
2050092.0,1709208822.372
2051745.0,1709208822.412
2048414.0,1709208822.252
2053505.0,1709208822.452
2055627.0,1709208822.492
2057597.0,1709208822.532
2059458.0,1709208822.572
2061331.0,1709208822.612
2063138.0,1709208822.652
2065084.0,1709208822.692
2066870.0,1709208822.732
2069276.0,1709208822.772
2071098.0,1709208822.812
2073700.0,1709208822.852
2075974.0,1709208822.892
2078662.0,1709208822.932
2081267.0,1709208822.972
2084180.0,1709208823.012
2086986.0,1709208823.052
2090122.0,1709208823.092
2091734.0,1709208823.132
2088885.0,1709208823.172
2084078.0,1709208823.212
2080472.0,1709208823.252
2079157.0,1709208823.292
2079023.0,1709208823.412
2078784.0,1709208823.372
2079664.0,1709208823.452
2078986.0,1709208823.332
2079090.0,1709208823.492
2078386.0,1709208823.532
2077847.0,1709208823.572
2078125.0,1709208823.612
2078969.0,1709208823.652
2081812.0,1709208823.732
2084689.0,1709208823.812
2087220.0,1709208823.892
2088569.0,1709208823.932
2086104.0,1709208823.852
2083001.0,1709208823.772
2080241.0,1709208823.692
2089707.0,1709208823.972
2090896.0,1709208824.012
2092176.0,1709208824.052
2093499.0,1709208824.092
2095388.0,1709208824.132
2097106.0,1709208824.172
2099300.0,1709208824.212
2101621.0,1709208824.252
2103595.0,1709208824.292
2105959.0,1709208824.332
2108710.0,1709208824.372
2110474.0,1709208824.412
2107832.0,1709208824.452
2101950.0,1709208824.492
2096992.0,1709208824.532
2093894.0,1709208824.572
2091999.0,1709208824.612
2090951.0,1709208824.652
2090534.0,1709208824.692
2089902.0,1709208824.732
2088700.0,1709208824.772
2086710.0,1709208824.812
2084975.0,1709208824.852
2083656.0,1709208824.892
2083339.0,1709208824.932
2083395.0,1709208824.972
2083721.0,1709208825.012
2084472.0,1709208825.052
2085229.0,1709208825.092
2085945.0,1709208825.132
2086468.0,1709208825.172
2086856.0,1709208825.212
2087607.0,1709208825.252
2088099.0,1709208825.292
2088896.0,1709208825.332
2089766.0,1709208825.372
2090569.0,1709208825.412
2091788.0,1709208825.452
2093314.0,1709208825.492
2094619.0,1709208825.532
2096281.0,1709208825.572
2095747.0,1709208825.612
2090125.0,1709208825.652
2083168.0,1709208825.692
2077871.0,1709208825.732
2074817.0,1709208825.772
2073387.0,1709208825.812
2073054.0,1709208825.852
2072633.0,1709208825.892
2071139.0,1709208825.932
2068536.0,1709208825.972
2065762.0,1709208826.012
2063470.0,1709208826.052
2062332.0,1709208826.092
2061826.0,1709208826.132
2061793.0,1709208826.172
2062157.0,1709208826.212
2062339.0,1709208826.252
2062972.0,1709208826.292
2063307.0,1709208826.332
2063806.0,1709208826.372
2064420.0,1709208826.412
2065445.0,1709208826.452
2066046.0,1709208826.492
2067159.0,1709208826.532
2068808.0,1709208826.572
2070554.0,1709208826.612
2072393.0,1709208826.652
2069778.0,1709208826.692
2063010.0,1709208826.732
2055377.0,1709208826.772
2050353.0,1709208826.812
2047568.0,1709208826.852
2045773.0,1709208826.892
2045774.0,1709208826.932
2046105.0,1709208826.972
2045699.0,1709208827.012
2044769.0,1709208827.052
2043227.0,1709208827.092
2042353.0,1709208827.132
2042631.0,1709208827.172
2043209.0,1709208827.212
2044718.0,1709208827.252
2046543.0,1709208827.292
2048462.0,1709208827.332
2050500.0,1709208827.372
2052555.0,1709208827.412
2054662.0,1709208827.452
2056651.0,1709208827.492
2058632.0,1709208827.532
2060778.0,1709208827.572
2063401.0,1709208827.612
2065895.0,1709208827.652
2068586.0,1709208827.692
2071543.0,1709208827.732
2071369.0,1709208827.772
2065160.0,1709208827.812
2058593.0,1709208827.852
2054439.0,1709208827.892
2052841.0,1709208827.932
2051876.0,1709208827.972
2051857.0,1709208828.012
2052492.0,1709208828.052
2052854.0,1709208828.092
2052260.0,1709208828.132
2051686.0,1709208828.172
2051445.0,1709208828.212
2052263.0,1709208828.252
2053600.0,1709208828.292
2055462.0,1709208828.332
2057456.0,1709208828.372
2059835.0,1709208828.412
2062259.0,1709208828.452
2064285.0,1709208828.492
2066561.0,1709208828.532
2068785.0,1709208828.572
2071396.0,1709208828.612
2074184.0,1709208828.652
2076629.0,1709208828.692
2079525.0,1709208828.732
2082290.0,1709208828.772
2085115.0,1709208828.812
2087916.0,1709208828.852
2088252.0,1709208828.892
2083094.0,1709208828.932
2075612.0,1709208828.972
2070841.0,1709208829.012
2068491.0,1709208829.052
2067207.0,1709208829.092
2066750.0,1709208829.132
2066765.0,1709208829.172
2066726.0,1709208829.212
2065466.0,1709208829.252
2063959.0,1709208829.292
2062896.0,1709208829.332
2062523.0,1709208829.372
2063008.0,1709208829.412
2064290.0,1709208829.452
2065850.0,1709208829.492
2067720.0,1709208829.532
2069523.0,1709208829.572
2071404.0,1709208829.612
2073094.0,1709208829.652
2074832.0,1709208829.692
2076656.0,1709208829.732
2078796.0,1709208829.772
2081055.0,1709208829.812
2083147.0,1709208829.852
2085737.0,1709208829.892
2088263.0,1709208829.932
2090975.0,1709208829.972
2092072.0,1709208830.012
2087524.0,1709208830.052
2081359.0,1709208830.092
2076978.0,1709208830.132
2075265.0,1709208830.172
2074538.0,1709208830.212
2074806.0,1709208830.252
2075119.0,1709208830.292
2075062.0,1709208830.332
2073463.0,1709208830.372
2071679.0,1709208830.412
2070230.0,1709208830.452
2070183.0,1709208830.492
2070961.0,1709208830.532
2071830.0,1709208830.572
2073084.0,1709208830.612
2074313.0,1709208830.652
2075458.0,1709208830.692
2076702.0,1709208830.732
2077575.0,1709208830.772
2078558.0,1709208830.812
2079711.0,1709208830.852
2080665.0,1709208830.892
2082287.0,1709208830.932
2083910.0,1709208830.972
2085671.0,1709208831.012
2087512.0,1709208831.052
2087722.0,1709208831.092
2081972.0,1709208831.132
2073643.0,1709208831.172
2067574.0,1709208831.212
2063635.0,1709208831.252
2061208.0,1709208831.292
2059433.0,1709208831.332
2059015.0,1709208831.372
2058567.0,1709208831.412
2056552.0,1709208831.452
2054344.0,1709208831.492
2052930.0,1709208831.532
2052656.0,1709208831.572
2053580.0,1709208831.612
2055770.0,1709208831.652
2058355.0,1709208831.692
2060964.0,1709208831.732
2063232.0,1709208831.772
2065464.0,1709208831.812
2067198.0,1709208831.852
2069088.0,1709208831.892
2071296.0,1709208831.932
2073206.0,1709208831.972
2074922.0,1709208832.012
2076702.0,1709208832.052
2078312.0,1709208832.092
2079686.0,1709208832.132
2080993.0,1709208832.172
2082340.0,1709208832.212
2082800.0,1709208832.252
2079502.0,1709208832.292
2071050.0,1709208832.332
2062689.0,1709208832.372
2057394.0,1709208832.412
2053921.0,1709208832.452
2050762.0,1709208832.492
2048683.0,1709208832.532
2046808.0,1709208832.572
2043739.0,1709208832.612
2039926.0,1709208832.652
2036528.0,1709208832.692
2033979.0,1709208832.732
2032113.0,1709208832.772
2031093.0,1709208832.812
2030907.0,1709208832.852
2030524.0,1709208832.892
2030631.0,1709208832.932
2030634.0,1709208832.972
2030197.0,1709208833.06
2030135.0,1709208833.1
2029862.0,1709208833.14
2030136.0,1709208833.181
2030572.0,1709208833.22
2031599.0,1709208833.26
2032171.0,1709208833.302
2033042.0,1709208833.34
2033785.0,1709208833.38
2034648.0,1709208833.421
2036383.0,1709208833.46
2037213.0,1709208833.501
2034000.0,1709208833.541
2025804.0,1709208833.581
2018974.0,1709208833.621
2014181.0,1709208833.662
2011259.0,1709208833.702
2009240.0,1709208833.741
2009171.0,1709208833.782
2008602.0,1709208833.821
2007036.0,1709208833.859
2004212.0,1709208833.901
2000329.0,1709208833.934
1996212.0,1709208833.97
1993624.0,1709208834.009
1991558.0,1709208834.048
1989809.0,1709208834.09
1988563.0,1709208834.13
1987372.0,1709208834.169
1985854.0,1709208834.21
1984839.0,1709208834.251
1983421.0,1709208834.291
1982410.0,1709208834.329
1981737.0,1709208834.37
1981170.0,1709208834.409
1980702.0,1709208834.449
1980679.0,1709208834.491
1980813.0,1709208834.53
1981115.0,1709208834.57
1979649.0,1709208834.611
1971924.0,1709208834.648
1961662.0,1709208834.69
1952652.0,1709208834.73
1946617.0,1709208834.769
1941944.0,1709208834.81
1938397.0,1709208834.851
1935951.0,1709208834.891
1933286.0,1709208834.931
1929481.0,1709208834.97
1925605.0,1709208835.009
1922148.0,1709208835.049
1919834.0,1709208835.091
1918303.0,1709208835.13
1917226.0,1709208835.17
1916539.0,1709208835.211
1916580.0,1709208835.25
1916403.0,1709208835.29
1916225.0,1709208835.33
1916456.0,1709208835.369
1916868.0,1709208835.41
1916943.0,1709208835.451
1917288.0,1709208835.491
1917815.0,1709208835.53
1918685.0,1709208835.572
1919765.0,1709208835.611
1923387.0,1709208835.691
1921456.0,1709208835.649
1921729.0,1709208835.77
1924888.0,1709208835.729
1913956.0,1709208835.811
1901125.0,1709208835.891
1897777.0,1709208835.932
1895553.0,1709208835.969
1906367.0,1709208835.85
1894277.0,1709208836.01
1893773.0,1709208836.051
1892219.0,1709208836.091
1890620.0,1709208836.13
1888779.0,1709208836.171
1887892.0,1709208836.21
1887729.0,1709208836.248
1888545.0,1709208836.29
1890095.0,1709208836.329
1891648.0,1709208836.369
1893421.0,1709208836.41
1895411.0,1709208836.449
1897113.0,1709208836.491
1898820.0,1709208836.531
1900795.0,1709208836.57
1902838.0,1709208836.611
1904907.0,1709208836.652
1907347.0,1709208836.692
1909970.0,1709208836.729
1912614.0,1709208836.771
1915396.0,1709208836.81
1916025.0,1709208836.85
1912433.0,1709208836.892
1907907.0,1709208836.931
1904989.0,1709208836.971
1903849.0,1709208837.012
1903716.0,1709208837.051
1904980.0,1709208837.09
1906196.0,1709208837.131
1907011.0,1709208837.17
1907148.0,1709208837.21
1907336.0,1709208837.252
1907806.0,1709208837.291
1909383.0,1709208837.331
1911769.0,1709208837.372
1914161.0,1709208837.411
1917329.0,1709208837.45
1920688.0,1709208837.492
1924440.0,1709208837.53
1928415.0,1709208837.57
1932837.0,1709208837.612
1937035.0,1709208837.651
1940918.0,1709208837.692
1945562.0,1709208837.733
1950689.0,1709208837.77
1955892.0,1709208837.81
1957805.0,1709208837.851
1958142.0,1709208837.891
1959007.0,1709208837.931
1961443.0,1709208837.972
1964645.0,1709208838.011
1968243.0,1709208838.052
1972375.0,1709208838.094
1976463.0,1709208838.13
1980261.0,1709208838.17
1983380.0,1709208838.211
1986816.0,1709208838.251
1990606.0,1709208838.292
1994205.0,1709208838.332
1998226.0,1709208838.371
2002077.0,1709208838.412
2005343.0,1709208838.453
2008172.0,1709208838.491
2011032.0,1709208838.53
2013678.0,1709208838.572
2016560.0,1709208838.611
2018838.0,1709208838.651
2021231.0,1709208838.693
2023881.0,1709208838.732
2026506.0,1709208838.774
2028179.0,1709208838.811
2026650.0,1709208838.85
2023742.0,1709208838.891
2021971.0,1709208838.931
2021862.0,1709208838.971
2022418.0,1709208839.011
2023798.0,1709208839.052
2025694.0,1709208839.092
2027447.0,1709208839.132
2028961.0,1709208839.173
2029993.0,1709208839.212
2031125.0,1709208839.25
2032984.0,1709208839.292
2035243.0,1709208839.331
2037515.0,1709208839.371
2039945.0,1709208839.412
2042367.0,1709208839.451
2044593.0,1709208839.493
2046766.0,1709208839.533
2048965.0,1709208839.572
2050547.0,1709208839.611
2051802.0,1709208839.652
2053265.0,1709208839.692
2055846.0,1709208839.731
2057668.0,1709208839.773
2059657.0,1709208839.812
2061872.0,1709208839.852
2060320.0,1709208839.894
2055668.0,1709208839.93
2049760.0,1709208839.971
2044811.0,1709208840.012
2041745.0,1709208840.051
2039277.0,1709208840.092
2037704.0,1709208840.133
2036693.0,1709208840.172
2034604.0,1709208840.212
2031976.0,1709208840.254
2028673.0,1709208840.291
2026110.0,1709208840.331
2023846.0,1709208840.372
2022009.0,1709208840.411
2020735.0,1709208840.452
2019424.0,1709208840.494
2018122.0,1709208840.532
2016731.0,1709208840.573
2015581.0,1709208840.612
2013955.0,1709208840.651
2012837.0,1709208840.692
2011909.0,1709208840.733
2010854.0,1709208840.771
2009450.0,1709208840.812
2008281.0,1709208840.853
2007301.0,1709208840.893
2006656.0,1709208840.931
2004634.0,1709208840.972
1998539.0,1709208841.011
1990516.0,1709208841.052
1983533.0,1709208841.094
1978360.0,1709208841.132
1974328.0,1709208841.173
1971817.0,1709208841.214
1970343.0,1709208841.251
1968645.0,1709208841.292
1966873.0,1709208841.332
1965048.0,1709208841.371
1963132.0,1709208841.412
1961715.0,1709208841.453
1960479.0,1709208841.493
1960854.0,1709208841.533
1964136.0,1709208841.574
1968183.0,1709208841.613
1973467.0,1709208841.651
1979058.0,1709208841.693
1985048.0,1709208841.732
1990669.0,1709208841.772
1996071.0,1709208841.813
2001121.0,1709208841.852
2005303.0,1709208841.894
2009444.0,1709208841.934
2012954.0,1709208841.971
2017108.0,1709208842.012
2021697.0,1709208842.053
2026128.0,1709208842.093
2027571.0,1709208842.132
2026489.0,1709208842.174
2027329.0,1709208842.213
2030399.0,1709208842.253
2033665.0,1709208842.295
2037531.0,1709208842.331
2041102.0,1709208842.372
2044640.0,1709208842.413
2046244.0,1709208842.452
2046848.0,1709208842.493
2047400.0,1709208842.534
2047527.0,1709208842.573
2048168.0,1709208842.613
2049582.0,1709208842.653
2051338.0,1709208842.692
2052995.0,1709208842.732
2054810.0,1709208842.773
2056187.0,1709208842.813
2057320.0,1709208842.853
2058736.0,1709208842.895
2060596.0,1709208842.933
2062085.0,1709208842.972
2063987.0,1709208843.013
2066058.0,1709208843.052
2068308.0,1709208843.093
2070456.0,1709208843.134
2072889.0,1709208843.173
2075367.0,1709208843.213
2077943.0,1709208843.255
2078328.0,1709208843.294
2075774.0,1709208843.332
2072759.0,1709208843.373
2072379.0,1709208843.412
2074936.0,1709208843.453
2078795.0,1709208843.495
2085070.0,1709208843.533
2091913.0,1709208843.574
2097953.0,1709208843.615
2103814.0,1709208843.652
2109856.0,1709208843.693
2115817.0,1709208843.734
2121095.0,1709208843.773
2125819.0,1709208843.813
2130005.0,1709208843.854
2134207.0,1709208843.893
2137450.0,1709208843.931
2140954.0,1709208843.972
2144408.0,1709208844.012
2148216.0,1709208844.052
2151304.0,1709208844.094
2154714.0,1709208844.132
2157546.0,1709208844.173
2159805.0,1709208844.214
2162113.0,1709208844.253
2164845.0,1709208844.294
2166842.0,1709208844.335
2169437.0,1709208844.374
2170894.0,1709208844.454
2171237.0,1709208844.412
2166480.0,1709208844.493
2162505.0,1709208844.533
2161160.0,1709208844.574
2161228.0,1709208844.613
2161487.0,1709208844.654
2161660.0,1709208844.696
2160398.0,1709208844.732
2158061.0,1709208844.773
2153747.0,1709208844.814
2148850.0,1709208844.853
2144252.0,1709208844.894
2140275.0,1709208844.935
2136116.0,1709208844.974
2131966.0,1709208845.014
2128029.0,1709208845.052
2124457.0,1709208845.091
2120728.0,1709208845.131
2116576.0,1709208845.172
2112307.0,1709208845.211
2108845.0,1709208845.251
2106342.0,1709208845.293
2105545.0,1709208845.331
2105837.0,1709208845.371
2107049.0,1709208845.412
2108371.0,1709208845.451
2106305.0,1709208845.492
2099413.0,1709208845.533
2093211.0,1709208845.572
2089401.0,1709208845.612
2088056.0,1709208845.691
2088591.0,1709208845.651
2088168.0,1709208845.772
2088016.0,1709208845.73
2087114.0,1709208845.811
2084778.0,1709208845.851
2082007.0,1709208845.893
2079278.0,1709208845.931
2076349.0,1709208845.972
2073228.0,1709208846.011
2070945.0,1709208846.05
2069816.0,1709208846.091
2069130.0,1709208846.132
2068576.0,1709208846.171
2068273.0,1709208846.211
2068219.0,1709208846.253
2068948.0,1709208846.292
2071938.0,1709208846.371
2070262.0,1709208846.33
2073686.0,1709208846.41
2075351.0,1709208846.45
2077425.0,1709208846.493
2077887.0,1709208846.531
2072771.0,1709208846.571
2065379.0,1709208846.613
2059103.0,1709208846.652
2051375.0,1709208846.732
2054919.0,1709208846.691
2042552.0,1709208846.811
2047434.0,1709208846.771
2036406.0,1709208846.852
2029181.0,1709208846.892
2022264.0,1709208846.932
2016450.0,1709208846.973
2011585.0,1709208847.012
2006844.0,1709208847.05
2003288.0,1709208847.092
2000599.0,1709208847.131
1998256.0,1709208847.171
1996355.0,1709208847.212
1994144.0,1709208847.252
1992591.0,1709208847.293
1991352.0,1709208847.333
1990301.0,1709208847.37
1989412.0,1709208847.411
1988557.0,1709208847.452
1987971.0,1709208847.492
1987696.0,1709208847.532
1987736.0,1709208847.573
1988020.0,1709208847.612
1984280.0,1709208847.653
1974789.0,1709208847.692
1963847.0,1709208847.731
1955233.0,1709208847.771
1949300.0,1709208847.813
1945037.0,1709208847.852
1942308.0,1709208847.893
1940094.0,1709208847.933
1937680.0,1709208847.972
1934238.0,1709208848.011
1930864.0,1709208848.052
1927782.0,1709208848.092
1926173.0,1709208848.132
1925328.0,1709208848.173
1925229.0,1709208848.212
1925786.0,1709208848.252
1926839.0,1709208848.294
1928053.0,1709208848.331
1928965.0,1709208848.371
1930264.0,1709208848.412
1931303.0,1709208848.451
1932411.0,1709208848.493
1933918.0,1709208848.533
1935642.0,1709208848.572
1937553.0,1709208848.613
1939272.0,1709208848.652
1936748.0,1709208848.692
1931410.0,1709208848.732
1926516.0,1709208848.773
1923357.0,1709208848.812
1922014.0,1709208848.852
1921130.0,1709208848.894
1921162.0,1709208848.933
1921099.0,1709208848.971
1920605.0,1709208849.014
1919842.0,1709208849.053
1919389.0,1709208849.094
1920274.0,1709208849.135
1921613.0,1709208849.173
1923621.0,1709208849.211
1925892.0,1709208849.253
1928663.0,1709208849.292
1931698.0,1709208849.332
1934968.0,1709208849.373
1937918.0,1709208849.412
1941422.0,1709208849.453
1944842.0,1709208849.495
1948264.0,1709208849.531
1952418.0,1709208849.572
1957438.0,1709208849.613
1963168.0,1709208849.652
1968714.0,1709208849.693
1971762.0,1709208849.734
1972723.0,1709208849.773
1974718.0,1709208849.813
1978031.0,1709208849.853
1981860.0,1709208849.892
1985289.0,1709208849.932
1988290.0,1709208849.973
1991367.0,1709208850.012
1993904.0,1709208850.053
1995463.0,1709208850.095
1997137.0,1709208850.133
1999253.0,1709208850.172
2001590.0,1709208850.213
2004108.0,1709208850.252
2006249.0,1709208850.293
2008102.0,1709208850.334
2009392.0,1709208850.373
2010669.0,1709208850.413
2011891.0,1709208850.455
2013262.0,1709208850.494
2014758.0,1709208850.532
2016217.0,1709208850.573
2017723.0,1709208850.612
2020211.0,1709208850.653
2022471.0,1709208850.695
2024629.0,1709208850.733
2027312.0,1709208850.774
2029484.0,1709208850.815
2028748.0,1709208850.852
2026979.0,1709208850.893
2025753.0,1709208850.927
2026515.0,1709208850.966
2027785.0,1709208851.007
2027872.0,1709208851.048
2029455.0,1709208851.087
2029373.0,1709208851.127
2028045.0,1709208851.168
2025735.0,1709208851.247
2026688.0,1709208851.207
2025056.0,1709208851.289
2024656.0,1709208851.327
2025243.0,1709208851.367
2025525.0,1709208851.409
2026305.0,1709208851.448
2027166.0,1709208851.488
2027880.0,1709208851.529
2028714.0,1709208851.568
2029324.0,1709208851.608
2030442.0,1709208851.648
2031369.0,1709208851.685
2032350.0,1709208851.72
2032821.0,1709208851.755
2033810.0,1709208851.791
2034974.0,1709208851.832
2036278.0,1709208851.874
2037795.0,1709208851.912
2037413.0,1709208851.952
2035116.0,1709208851.994
2033695.0,1709208852.033
2033552.0,1709208852.074
2034958.0,1709208852.114
2037006.0,1709208852.151
2041032.0,1709208852.192
2046594.0,1709208852.233
2052511.0,1709208852.273
2057967.0,1709208852.312
2063334.0,1709208852.354
2068352.0,1709208852.393
2073553.0,1709208852.433
2078364.0,1709208852.475
2083220.0,1709208852.512
2087452.0,1709208852.552
2091602.0,1709208852.593
2095584.0,1709208852.633
2099608.0,1709208852.674
2103520.0,1709208852.714
2107532.0,1709208852.753
2111471.0,1709208852.794
2115286.0,1709208852.833
2118747.0,1709208852.873
2122578.0,1709208852.912
2125965.0,1709208852.953
2127582.0,1709208852.993
2127538.0,1709208853.033
2127652.0,1709208853.075
2128080.0,1709208853.113
2128010.0,1709208853.154
2127011.0,1709208853.193
2126708.0,1709208853.232
2125940.0,1709208853.273
2124635.0,1709208853.314
2123015.0,1709208853.353
2121668.0,1709208853.393
2121782.0,1709208853.434
2122471.0,1709208853.474
2123640.0,1709208853.514
2125002.0,1709208853.553
2126446.0,1709208853.592
2127286.0,1709208853.633
2127952.0,1709208853.675
2128005.0,1709208853.713
2128135.0,1709208853.753
2128326.0,1709208853.795
2128608.0,1709208853.834
2129079.0,1709208853.873
2129690.0,1709208853.913
2130725.0,1709208853.953
2131084.0,1709208854.034
2132102.0,1709208853.993
2118816.0,1709208854.114
2125262.0,1709208854.074
2107562.0,1709208854.191
2113224.0,1709208854.152
2100880.0,1709208854.232
2094578.0,1709208854.274
2088684.0,1709208854.312
2082762.0,1709208854.352
2076183.0,1709208854.394
2069125.0,1709208854.433
2062320.0,1709208854.474
2056510.0,1709208854.514
2051801.0,1709208854.554
2047869.0,1709208854.594
2044633.0,1709208854.635
2041206.0,1709208854.673
2037766.0,1709208854.713
2034354.0,1709208854.754
2031086.0,1709208854.793
2027611.0,1709208854.834
2024469.0,1709208854.875
2021781.0,1709208854.914
2019617.0,1709208854.954
2018023.0,1709208854.996
2017277.0,1709208855.033
2017547.0,1709208855.074
2017630.0,1709208855.114
2014560.0,1709208855.153
2004562.0,1709208855.194
1992423.0,1709208855.235
1981756.0,1709208855.275
1973691.0,1709208855.314
1967646.0,1709208855.356
1962516.0,1709208855.393
1958855.0,1709208855.433
1955275.0,1709208855.475
1951267.0,1709208855.513
1947953.0,1709208855.554
1945347.0,1709208855.595
1943755.0,1709208855.634
1943305.0,1709208855.675
1943207.0,1709208855.714
1943488.0,1709208855.753
1943900.0,1709208855.793
1944708.0,1709208855.835
1945372.0,1709208855.875
1946419.0,1709208855.914
1947614.0,1709208855.955
1949212.0,1709208855.995
1950936.0,1709208856.035
1955497.0,1709208856.113
1953134.0,1709208856.075
1957838.0,1709208856.154
1960452.0,1709208856.195
1962514.0,1709208856.234
1960094.0,1709208856.275
1954031.0,1709208856.316
1948004.0,1709208856.355
1944280.0,1709208856.395
1942544.0,1709208856.434
1941668.0,1709208856.474
1941953.0,1709208856.514
1942181.0,1709208856.555
1941318.0,1709208856.594
1939842.0,1709208856.635
1938592.0,1709208856.674
1938428.0,1709208856.712
1939176.0,1709208856.754
1940473.0,1709208856.794
1942378.0,1709208856.833
1944368.0,1709208856.874
1946558.0,1709208856.915
1948770.0,1709208856.954
1950796.0,1709208856.994
1953185.0,1709208857.03
1955269.0,1709208857.07
1957652.0,1709208857.109
1959714.0,1709208857.15
1962123.0,1709208857.189
1964856.0,1709208857.23
1967682.0,1709208857.271
1969630.0,1709208857.31
1967251.0,1709208857.35
1963875.0,1709208857.391
1961021.0,1709208857.43
1959855.0,1709208857.468
1959659.0,1709208857.509
1959995.0,1709208857.548
1961077.0,1709208857.588
1962096.0,1709208857.629
1962644.0,1709208857.669
1962983.0,1709208857.709
1963419.0,1709208857.75
1964509.0,1709208857.789
1966289.0,1709208857.83
1968026.0,1709208857.869
1970214.0,1709208857.908
1972365.0,1709208857.948
1974847.0,1709208857.99
1976863.0,1709208858.029
1979071.0,1709208858.07
1981251.0,1709208858.11
1983441.0,1709208858.15
1985847.0,1709208858.19
1988297.0,1709208858.229
1991006.0,1709208858.269
1993317.0,1709208858.308
1996086.0,1709208858.35
1998695.0,1709208858.389
1999623.0,1709208858.429
1997965.0,1709208858.471
1996143.0,1709208858.51
1995461.0,1709208858.55
1996073.0,1709208858.589
1996841.0,1709208858.628
1998118.0,1709208858.669
1999551.0,1709208858.71
2000536.0,1709208858.749
2001234.0,1709208858.79
2001980.0,1709208858.831
2002736.0,1709208858.871
2003857.0,1709208858.908
2005629.0,1709208858.949
2007127.0,1709208858.989
2009741.0,1709208859.029
2012354.0,1709208859.071
2015477.0,1709208859.109
2018814.0,1709208859.15
2021949.0,1709208859.191
2024998.0,1709208859.228
2028311.0,1709208859.269
2031360.0,1709208859.309
2034652.0,1709208859.348
2037833.0,1709208859.389
2041341.0,1709208859.43
2044612.0,1709208859.47
2047761.0,1709208859.509
2048417.0,1709208859.551
2047388.0,1709208859.59
2046581.0,1709208859.63
2046964.0,1709208859.67
2048099.0,1709208859.709
2049883.0,1709208859.749
2051794.0,1709208859.79
2053843.0,1709208859.83
2055152.0,1709208859.871
2056391.0,1709208859.911
2057019.0,1709208859.95
2058177.0,1709208859.991
2059483.0,1709208860.03
2061371.0,1709208860.07
2063378.0,1709208860.109
2065547.0,1709208860.15
2067311.0,1709208860.19
2069244.0,1709208860.23
2070941.0,1709208860.272
2072691.0,1709208860.31
2074258.0,1709208860.351
2075958.0,1709208860.39
2077960.0,1709208860.429
2079901.0,1709208860.47
2081912.0,1709208860.511
2083537.0,1709208860.55
2082742.0,1709208860.59
2080823.0,1709208860.631
2079356.0,1709208860.671
2079134.0,1709208860.709
2079506.0,1709208860.75
2080324.0,1709208860.789
2081371.0,1709208860.83
2082162.0,1709208860.872
2082004.0,1709208860.91
2081768.0,1709208860.951
2081415.0,1709208860.992
2081610.0,1709208861.031
2081908.0,1709208861.07
2082725.0,1709208861.11
2083537.0,1709208861.15
2084493.0,1709208861.19
2085490.0,1709208861.231
2086426.0,1709208861.271
2087176.0,1709208861.311
2087841.0,1709208861.352
2088982.0,1709208861.429
2088413.0,1709208861.391
2090799.0,1709208861.511
2094752.0,1709208861.591
2095748.0,1709208861.631
2092485.0,1709208861.672
2089755.0,1709208861.471
2092644.0,1709208861.55
2087468.0,1709208861.712
2083127.0,1709208861.751
2080381.0,1709208861.789
2078713.0,1709208861.83
2077943.0,1709208861.87
2077144.0,1709208861.909
2077266.0,1709208861.951
2076180.0,1709208861.99
2073692.0,1709208862.03
2069895.0,1709208862.072
2065613.0,1709208862.111
2061502.0,1709208862.151
2058017.0,1709208862.192
2054941.0,1709208862.231
2052485.0,1709208862.27
2050182.0,1709208862.311
2047550.0,1709208862.35
2044855.0,1709208862.39
2042252.0,1709208862.432
2039222.0,1709208862.471
2035815.0,1709208862.511
2032393.0,1709208862.552
2028890.0,1709208862.591
2025657.0,1709208862.63
2022855.0,1709208862.672
2020322.0,1709208862.71
2015707.0,1709208862.75
2004443.0,1709208862.792
1989542.0,1709208862.831
1975456.0,1709208862.872
1963995.0,1709208862.912
1954072.0,1709208862.952
1945722.0,1709208862.99
1938680.0,1709208863.031
1931452.0,1709208863.071
1923601.0,1709208863.111
1915142.0,1709208863.152
1907458.0,1709208863.191
1900926.0,1709208863.231
1895627.0,1709208863.273
1890934.0,1709208863.312
1886938.0,1709208863.35
1883683.0,1709208863.391
1880699.0,1709208863.43
1877772.0,1709208863.471
1875266.0,1709208863.512
1872863.0,1709208863.551
1870864.0,1709208863.591
1869206.0,1709208863.633
1868046.0,1709208863.671
1866955.0,1709208863.71
1866567.0,1709208863.752
1866394.0,1709208863.791
1865557.0,1709208863.831
1859593.0,1709208863.873
1850605.0,1709208863.912
1841885.0,1709208863.952
1836035.0,1709208863.991
1831834.0,1709208864.03
1829081.0,1709208864.071
1827579.0,1709208864.112
1825906.0,1709208864.151
1823492.0,1709208864.192
1820796.0,1709208864.233
1818373.0,1709208864.273
1816765.0,1709208864.312
1816222.0,1709208864.351
1816262.0,1709208864.39
1817035.0,1709208864.43
1818447.0,1709208864.472
1819780.0,1709208864.511
1821414.0,1709208864.551
1823030.0,1709208864.592
1824538.0,1709208864.632
1826032.0,1709208864.673
1827432.0,1709208864.713
1829466.0,1709208864.752
1831741.0,1709208864.793
1834567.0,1709208864.832
1836411.0,1709208864.872
1834944.0,1709208864.911
1832821.0,1709208864.952
1832620.0,1709208864.992
1835225.0,1709208865.032
1839951.0,1709208865.074
1846150.0,1709208865.112
1853212.0,1709208865.153
1859699.0,1709208865.192
1865749.0,1709208865.231
1871944.0,1709208865.272
1879331.0,1709208865.312
1887538.0,1709208865.352
1894796.0,1709208865.392
1900424.0,1709208865.433
1904944.0,1709208865.473
1908315.0,1709208865.513
1911489.0,1709208865.552
1914385.0,1709208865.591
1919398.0,1709208865.674
1921620.0,1709208865.712
1917156.0,1709208865.632
1924134.0,1709208865.752
1926887.0,1709208865.794
1929851.0,1709208865.833
1933404.0,1709208865.872
1939258.0,1709208865.912
1948265.0,1709208865.951
1955655.0,1709208865.992
1959564.0,1709208866.033
1963022.0,1709208866.073
1967525.0,1709208866.113
1973387.0,1709208866.154
1978759.0,1709208866.193
1985229.0,1709208866.231
1991671.0,1709208866.273
2003428.0,1709208866.352
2008831.0,1709208866.393
2014388.0,1709208866.432
1997871.0,1709208866.312
2020102.0,1709208866.473
2025467.0,1709208866.514
2031174.0,1709208866.553
2036582.0,1709208866.591
2041835.0,1709208866.633
2047098.0,1709208866.673
2052779.0,1709208866.712
2058427.0,1709208866.753
2063738.0,1709208866.793
2068921.0,1709208866.833
2074138.0,1709208866.875
2078959.0,1709208866.911
2083829.0,1709208866.951
2088734.0,1709208866.992
2093119.0,1709208867.031
2097203.0,1709208867.072
2101325.0,1709208867.113
2105539.0,1709208867.152
2109384.0,1709208867.192
2111362.0,1709208867.234
2111786.0,1709208867.274
2112824.0,1709208867.313
2115439.0,1709208867.354
2119150.0,1709208867.392
2123442.0,1709208867.432
2127523.0,1709208867.474
2130800.0,1709208867.512
2133318.0,1709208867.553
2134225.0,1709208867.594
2134655.0,1709208867.633
2135618.0,1709208867.674
2136488.0,1709208867.715
2137767.0,1709208867.752
2138967.0,1709208867.792
2140059.0,1709208867.833
2141094.0,1709208867.873
2142100.0,1709208867.913
2144359.0,1709208867.954
2149259.0,1709208867.993
2155252.0,1709208868.034
2161182.0,1709208868.076
2165237.0,1709208868.112
2167830.0,1709208868.152
2170996.0,1709208868.194
2174214.0,1709208868.233
2177339.0,1709208868.274
2180215.0,1709208868.314
2181065.0,1709208868.353
2181014.0,1709208868.394
2178561.0,1709208868.435
2174458.0,1709208868.473
2172034.0,1709208868.512
2171855.0,1709208868.554
2171912.0,1709208868.593
2173074.0,1709208868.633
2174668.0,1709208868.675
2175107.0,1709208868.714
2175161.0,1709208868.754
2174481.0,1709208868.793
2174178.0,1709208868.832
2174325.0,1709208868.873
2174766.0,1709208868.914
2175518.0,1709208868.953
2176554.0,1709208868.994
2177327.0,1709208869.038
2177954.0,1709208869.078
2178341.0,1709208869.117
2177989.0,1709208869.159
2177886.0,1709208869.198
2177427.0,1709208869.238
2177002.0,1709208869.279
2175929.0,1709208869.318
2175343.0,1709208869.358
2174253.0,1709208869.399
2173419.0,1709208869.438
2172194.0,1709208869.479
2171134.0,1709208869.516
2166735.0,1709208869.555
2157036.0,1709208869.595
2145075.0,1709208869.637
2134375.0,1709208869.676
2126264.0,1709208869.716
2119241.0,1709208869.757
2113796.0,1709208869.796
2108550.0,1709208869.837
2103253.0,1709208869.879
2096475.0,1709208869.917
2089610.0,1709208869.957
2083241.0,1709208869.999
2077760.0,1709208870.036
2073279.0,1709208870.077
2069873.0,1709208870.117
2066551.0,1709208870.157
2063893.0,1709208870.197
2061331.0,1709208870.238
2059113.0,1709208870.269
2056640.0,1709208870.308
2054293.0,1709208870.349
2052460.0,1709208870.388
2050973.0,1709208870.429
2049681.0,1709208870.47
2049007.0,1709208870.509
2047934.0,1709208870.549
2047183.0,1709208870.59
2046513.0,1709208870.629
2043053.0,1709208870.67
2033171.0,1709208870.71
2021700.0,1709208870.749
2012251.0,1709208870.789
2005758.0,1709208870.831
2000642.0,1709208870.87
1997437.0,1709208870.91
1994795.0,1709208870.951
1991701.0,1709208870.991
1988048.0,1709208871.028
1984215.0,1709208871.062
1980980.0,1709208871.1
1979560.0,1709208871.139
1978814.0,1709208871.178
1979283.0,1709208871.217
1980464.0,1709208871.259
1984475.0,1709208871.338
1982152.0,1709208871.299
1987026.0,1709208871.379
1989877.0,1709208871.42
1993050.0,1709208871.46
1997115.0,1709208871.497
2002104.0,1709208871.539
2007577.0,1709208871.578
2013858.0,1709208871.618
2019781.0,1709208871.66
2025139.0,1709208871.699
2026395.0,1709208871.739
2024221.0,1709208871.781
2021827.0,1709208871.817
2020610.0,1709208871.859
2020021.0,1709208871.899
2018832.0,1709208871.938
2017922.0,1709208871.979
2015754.0,1709208872.02
2012855.0,1709208872.056
2009984.0,1709208872.097
2006694.0,1709208872.138
2004617.0,1709208872.178
2002925.0,1709208872.218
2001967.0,1709208872.26
2001556.0,1709208872.298
2001359.0,1709208872.339
2001600.0,1709208872.38
2001706.0,1709208872.419
2002266.0,1709208872.46
2002441.0,1709208872.501
2002615.0,1709208872.538
2002916.0,1709208872.578
2002824.0,1709208872.62
2003252.0,1709208872.659
2003311.0,1709208872.699
2004073.0,1709208872.74
2003095.0,1709208872.779
1998865.0,1709208872.82
1992836.0,1709208872.86
1987682.0,1709208872.898
1984291.0,1709208872.939
1982123.0,1709208872.98
1980313.0,1709208873.019
1979676.0,1709208873.06
1979043.0,1709208873.101
1978081.0,1709208873.14
1978699.0,1709208873.178
1981554.0,1709208873.219
1985137.0,1709208873.259
1989777.0,1709208873.299
1994986.0,1709208873.34
2000029.0,1709208873.379
2004623.0,1709208873.42
2009535.0,1709208873.462
2014073.0,1709208873.498
2017216.0,1709208873.539
2019218.0,1709208873.58
2021517.0,1709208873.619
2023805.0,1709208873.66
2025979.0,1709208873.701
2028201.0,1709208873.74
2030736.0,1709208873.78
2033671.0,1709208873.819
2037112.0,1709208873.859
2039532.0,1709208873.899
2038620.0,1709208873.94
2037679.0,1709208874.02
2039061.0,1709208874.062
2037795.0,1709208873.979
2041479.0,1709208874.1
2042704.0,1709208874.141
2042794.0,1709208874.219
2043920.0,1709208874.18
2040550.0,1709208874.26
2038542.0,1709208874.3
2037561.0,1709208874.339
2036871.0,1709208874.38
2036977.0,1709208874.421
2037145.0,1709208874.461
2037439.0,1709208874.499
2037687.0,1709208874.54
2036768.0,1709208874.618
2037338.0,1709208874.578
2036201.0,1709208874.661
2035577.0,1709208874.699
2035325.0,1709208874.74
2034907.0,1709208874.781
2034623.0,1709208874.82
2034354.0,1709208874.861
2034156.0,1709208874.9
2034516.0,1709208874.939
2034880.0,1709208874.98
2034581.0,1709208875.021
2032000.0,1709208875.061
2021827.0,1709208875.141
2017973.0,1709208875.181
2026831.0,1709208875.1
2015319.0,1709208875.219
2011644.0,1709208875.299
2013070.0,1709208875.261
2009995.0,1709208875.34
2004520.0,1709208875.42
2001497.0,1709208875.461
1999185.0,1709208875.502
1997394.0,1709208875.539
1995847.0,1709208875.579
2007195.0,1709208875.381
1995042.0,1709208875.621
1994340.0,1709208875.661
1992759.0,1709208875.741
1993476.0,1709208875.7
1991938.0,1709208875.781
1991150.0,1709208875.821
1990255.0,1709208875.861
1989681.0,1709208875.899
1989156.0,1709208875.94
1988419.0,1709208875.981
1987902.0,1709208876.02
1987599.0,1709208876.061
1987657.0,1709208876.102
1985622.0,1709208876.18
1987305.0,1709208876.141
1979971.0,1709208876.221
1972784.0,1709208876.26
1966690.0,1709208876.3
1962013.0,1709208876.341
1958014.0,1709208876.381
1954879.0,1709208876.421
1952005.0,1709208876.463
1949374.0,1709208876.499
1945913.0,1709208876.54
1942340.0,1709208876.581
1939051.0,1709208876.62
1936499.0,1709208876.661
1934452.0,1709208876.702
1933134.0,1709208876.741
1931444.0,1709208876.821
1930947.0,1709208876.9
1931008.0,1709208876.86
1932274.0,1709208876.781
1930819.0,1709208876.941
1930822.0,1709208877.021
1930573.0,1709208876.98
1931185.0,1709208877.101
1930859.0,1709208877.063
1931362.0,1709208877.14
1932602.0,1709208877.219
1931910.0,1709208877.18
1933306.0,1709208877.26
1934421.0,1709208877.301
1934784.0,1709208877.34
1931803.0,1709208877.381
1926457.0,1709208877.422
1921962.0,1709208877.462
1919061.0,1709208877.501
1917187.0,1709208877.543
1915849.0,1709208877.58
1915236.0,1709208877.62
1914773.0,1709208877.662
1913785.0,1709208877.701
1912339.0,1709208877.741
1911350.0,1709208877.782
1910765.0,1709208877.821
1911000.0,1709208877.863
1912783.0,1709208877.94
1911543.0,1709208877.901
1913674.0,1709208877.981
1914871.0,1709208878.022
1916088.0,1709208878.062
1917031.0,1709208878.101
1918436.0,1709208878.143
1919790.0,1709208878.182
1921277.0,1709208878.22
1922765.0,1709208878.262
1924575.0,1709208878.301
1926495.0,1709208878.341
1928389.0,1709208878.382
1929448.0,1709208878.421
1927805.0,1709208878.463
1924932.0,1709208878.503
1922897.0,1709208878.54
1921993.0,1709208878.581
1921952.0,1709208878.622
1922647.0,1709208878.662
1923501.0,1709208878.701
1924193.0,1709208878.743
1924108.0,1709208878.782
1924299.0,1709208878.822
1924567.0,1709208878.862
1925270.0,1709208878.901
1926372.0,1709208878.941
1927733.0,1709208878.982
1929233.0,1709208879.021
1930814.0,1709208879.063
1932445.0,1709208879.103
1934299.0,1709208879.142
1935952.0,1709208879.181
1937502.0,1709208879.222
1939243.0,1709208879.262
1941078.0,1709208879.301
1942962.0,1709208879.343
1945056.0,1709208879.382
1947099.0,1709208879.422
1949027.0,1709208879.464
1948713.0,1709208879.5
1946562.0,1709208879.541
1944597.0,1709208879.582
1943641.0,1709208879.663
1943657.0,1709208879.621
1944042.0,1709208879.707
1944934.0,1709208879.739
1946110.0,1709208879.78
1946931.0,1709208879.822
1947166.0,1709208879.861
1947437.0,1709208879.901
1948123.0,1709208879.942
1948903.0,1709208879.981
1950186.0,1709208880.022
1951567.0,1709208880.064
1953062.0,1709208880.102
1954510.0,1709208880.143
1955975.0,1709208880.184
1957294.0,1709208880.221
1958713.0,1709208880.262
1959870.0,1709208880.303
1961392.0,1709208880.342
1963059.0,1709208880.382
1964757.0,1709208880.423
1966608.0,1709208880.463
1968694.0,1709208880.503
1970708.0,1709208880.544
1971970.0,1709208880.581
1972699.0,1709208880.622
1974405.0,1709208880.664
1976500.0,1709208880.702
1978516.0,1709208880.742
1980361.0,1709208880.784
1982892.0,1709208880.823
1985448.0,1709208880.864
1987157.0,1709208880.902
1988826.0,1709208880.941
1990800.0,1709208880.982
1993503.0,1709208881.021
1997069.0,1709208881.061
2001024.0,1709208881.101
2005891.0,1709208881.142
2010118.0,1709208881.181
2012865.0,1709208881.221
2014073.0,1709208881.263
2013791.0,1709208881.301
2013261.0,1709208881.341
2013260.0,1709208881.382
2013512.0,1709208881.421
2014107.0,1709208881.463
2014580.0,1709208881.503
2014993.0,1709208881.541
2015840.0,1709208881.58
2016417.0,1709208881.621
2015563.0,1709208881.661
2012098.0,1709208881.701
2008614.0,1709208881.742
2006135.0,1709208881.781
2004359.0,1709208881.821
2003179.0,1709208881.863
2002484.0,1709208881.899
2001753.0,1709208881.94
2000495.0,1709208881.981
1998762.0,1709208882.02
1997410.0,1709208882.062
1996017.0,1709208882.102
1995347.0,1709208882.141
1995014.0,1709208882.182
1994725.0,1709208882.223
1994715.0,1709208882.26
1994707.0,1709208882.299
1994736.0,1709208882.341
1994921.0,1709208882.38
1994973.0,1709208882.421
1995008.0,1709208882.463
1995266.0,1709208882.501
1995502.0,1709208882.541
1995892.0,1709208882.583
1996514.0,1709208882.62
1997198.0,1709208882.661
1997744.0,1709208882.702
1996282.0,1709208882.741
1992126.0,1709208882.781
1987407.0,1709208882.822
1983624.0,1709208882.862
1980683.0,1709208882.902
1978412.0,1709208882.943
1976811.0,1709208882.98
1975479.0,1709208883.02
1973734.0,1709208883.062
1971476.0,1709208883.101
1969246.0,1709208883.141
1967186.0,1709208883.182
1965666.0,1709208883.222
1964641.0,1709208883.263
1964177.0,1709208883.303
1963646.0,1709208883.34
1963326.0,1709208883.381
1962919.0,1709208883.422
1962590.0,1709208883.462
1962362.0,1709208883.501
1962128.0,1709208883.543
1962141.0,1709208883.582
1962096.0,1709208883.622
1962321.0,1709208883.662
1962642.0,1709208883.7
1963206.0,1709208883.741
1963861.0,1709208883.782
1964355.0,1709208883.821
1965257.0,1709208883.863
1964655.0,1709208883.903
1961026.0,1709208883.942
1956129.0,1709208883.981
1952097.0,1709208884.022
1949272.0,1709208884.062
1947249.0,1709208884.101
1945835.0,1709208884.143
1945135.0,1709208884.182
1944436.0,1709208884.222
1942761.0,1709208884.264
1941316.0,1709208884.3
1940007.0,1709208884.341
1939327.0,1709208884.382
1939031.0,1709208884.421
1939088.0,1709208884.462
1939474.0,1709208884.503
1940064.0,1709208884.542
1940654.0,1709208884.582
1941289.0,1709208884.624
1942240.0,1709208884.661
1942862.0,1709208884.701
1943757.0,1709208884.742
1944920.0,1709208884.781
1946240.0,1709208884.825
1947632.0,1709208884.866
1948889.0,1709208884.903
1950473.0,1709208884.941
1952158.0,1709208884.982
1954044.0,1709208885.021
1956199.0,1709208885.103
1954051.0,1709208885.142
1955878.0,1709208885.063
1951814.0,1709208885.183
1950506.0,1709208885.224
1950294.0,1709208885.262
1951064.0,1709208885.343
1950482.0,1709208885.301
1952381.0,1709208885.422
1951931.0,1709208885.382
1952142.0,1709208885.464
1952314.0,1709208885.502
1952599.0,1709208885.543
1953383.0,1709208885.584
1954229.0,1709208885.621
1955441.0,1709208885.662
1956876.0,1709208885.703
1958114.0,1709208885.742
1959516.0,1709208885.782
1960978.0,1709208885.824
1962440.0,1709208885.863
1963866.0,1709208885.903
1965482.0,1709208885.944
1967004.0,1709208885.981
1968752.0,1709208886.022
1970605.0,1709208886.064
1972341.0,1709208886.102
1974459.0,1709208886.142
1976259.0,1709208886.184
1976653.0,1709208886.223
1974702.0,1709208886.264
1972722.0,1709208886.302
1971837.0,1709208886.342
1971602.0,1709208886.382
1971614.0,1709208886.423
1972078.0,1709208886.463
1972673.0,1709208886.503
1973035.0,1709208886.544
1973056.0,1709208886.583
1973053.0,1709208886.622
1973236.0,1709208886.664
1973803.0,1709208886.702
1974636.0,1709208886.742
1975793.0,1709208886.784
1976660.0,1709208886.823
1978260.0,1709208886.864
1979192.0,1709208886.904
1980467.0,1709208886.942
1981618.0,1709208886.982
1983083.0,1709208887.023
1984363.0,1709208887.063
1985970.0,1709208887.103
1987282.0,1709208887.144
1989279.0,1709208887.183
1990708.0,1709208887.224
1992567.0,1709208887.266
1994959.0,1709208887.342
1991086.0,1709208887.422
1993104.0,1709208887.383
1994602.0,1709208887.302
1989935.0,1709208887.463
1989614.0,1709208887.504
1989433.0,1709208887.543
1989746.0,1709208887.583
1990396.0,1709208887.663
1990344.0,1709208887.744
1990474.0,1709208887.783
1990473.0,1709208887.702
1990295.0,1709208887.625
1992393.0,1709208887.865
1991305.0,1709208887.823
2001508.0,1709208888.022
1993920.0,1709208887.903
1998182.0,1709208887.983
1995660.0,1709208887.944
2005573.0,1709208888.063
2009824.0,1709208888.104
2014268.0,1709208888.143
2019250.0,1709208888.184
2023838.0,1709208888.225
2027641.0,1709208888.265
2031768.0,1709208888.302
2034973.0,1709208888.344
2037914.0,1709208888.383
2040365.0,1709208888.423
2040666.0,1709208888.465
2040077.0,1709208888.503
2040257.0,1709208888.544
2041900.0,1709208888.585
2044244.0,1709208888.622
2047668.0,1709208888.663
2050840.0,1709208888.704
2053521.0,1709208888.743
2053964.0,1709208888.784
2053375.0,1709208888.825
2052723.0,1709208888.865
2052839.0,1709208888.904
2053525.0,1709208888.945
2054780.0,1709208888.982
2056256.0,1709208889.023
2057791.0,1709208889.065
2059284.0,1709208889.103
2060904.0,1709208889.144
2062111.0,1709208889.185
2063643.0,1709208889.224
2065075.0,1709208889.265
2066223.0,1709208889.306
2068037.0,1709208889.343
2069336.0,1709208889.383
2070836.0,1709208889.424
2072336.0,1709208889.464
2073773.0,1709208889.504
2072478.0,1709208889.545
2068430.0,1709208889.584
2063581.0,1709208889.625
2059150.0,1709208889.665
2055788.0,1709208889.703
2052655.0,1709208889.743
2050546.0,1709208889.785
2048091.0,1709208889.824
2045436.0,1709208889.865
2042107.0,1709208889.905
2038262.0,1709208889.941
2035298.0,1709208889.981
2032432.0,1709208890.022
2030455.0,1709208890.062
2028477.0,1709208890.101
2026741.0,1709208890.142
2025448.0,1709208890.181
2023829.0,1709208890.221
2022331.0,1709208890.263
2020716.0,1709208890.301
2019305.0,1709208890.341
2018110.0,1709208890.382
2016892.0,1709208890.421
2016163.0,1709208890.462
2016225.0,1709208890.503
2015837.0,1709208890.542
2015836.0,1709208890.582
2015809.0,1709208890.623
2015791.0,1709208890.663
2013640.0,1709208890.703
2007129.0,1709208890.744
1998943.0,1709208890.784
1991688.0,1709208890.824
1986130.0,1709208890.866
1981420.0,1709208890.904
1977377.0,1709208890.945
1974510.0,1709208890.986
1971469.0,1709208891.025
1967262.0,1709208891.064
1963331.0,1709208891.105
1959663.0,1709208891.144
1956923.0,1709208891.184
1954723.0,1709208891.226
1953339.0,1709208891.265
1952270.0,1709208891.305
1951232.0,1709208891.346
1950437.0,1709208891.385
1949706.0,1709208891.424
1949156.0,1709208891.466
1948633.0,1709208891.508
1948236.0,1709208891.545
1948447.0,1709208891.586
1948576.0,1709208891.625
1949014.0,1709208891.666
1949850.0,1709208891.705
1950618.0,1709208891.744
1951838.0,1709208891.784
1952484.0,1709208891.826
1953264.0,1709208891.865
1950683.0,1709208891.905
1945460.0,1709208891.946
1940692.0,1709208891.985
1937455.0,1709208892.024
1934492.0,1709208892.104
1935569.0,1709208892.066
1934198.0,1709208892.145
1933999.0,1709208892.186
1933170.0,1709208892.225
1931947.0,1709208892.266
1930918.0,1709208892.307
1930561.0,1709208892.344
1930783.0,1709208892.384
1931601.0,1709208892.426
1932468.0,1709208892.465
1933820.0,1709208892.505
1935167.0,1709208892.543
1936549.0,1709208892.583
1938067.0,1709208892.624
1939308.0,1709208892.666
1940735.0,1709208892.704
1942627.0,1709208892.745
1944403.0,1709208892.786
1946494.0,1709208892.825
1948504.0,1709208892.866
1950647.0,1709208892.907
1952956.0,1709208892.946
1955181.0,1709208892.984
1957413.0,1709208893.031
1957023.0,1709208893.071
1954750.0,1709208893.11
1952243.0,1709208893.151
1951082.0,1709208893.19
1951047.0,1709208893.23
1951482.0,1709208893.272
1952186.0,1709208893.31
1953370.0,1709208893.35
1954293.0,1709208893.392
1954560.0,1709208893.431
1955166.0,1709208893.471
1955935.0,1709208893.51
1957120.0,1709208893.549
1958802.0,1709208893.59
1960869.0,1709208893.631
1962630.0,1709208893.671
1964299.0,1709208893.711
1966048.0,1709208893.752
1967916.0,1709208893.791
1969609.0,1709208893.829
1971459.0,1709208893.871
1973453.0,1709208893.91
1975265.0,1709208893.95
1977614.0,1709208893.991
1979784.0,1709208894.03
1981970.0,1709208894.072
1984349.0,1709208894.112
1986478.0,1709208894.151
1988627.0,1709208894.19
1990978.0,1709208894.231
1992344.0,1709208894.271
1991300.0,1709208894.31
1989614.0,1709208894.351
1988779.0,1709208894.391
1989069.0,1709208894.431
1989457.0,1709208894.473
1990313.0,1709208894.511
1991600.0,1709208894.55
1992651.0,1709208894.591
1993422.0,1709208894.63
1993681.0,1709208894.671
1994381.0,1709208894.712
1995565.0,1709208894.751
1996924.0,1709208894.791
1998257.0,1709208894.833
1999879.0,1709208894.87
2001423.0,1709208894.91
2002969.0,1709208894.951
2004372.0,1709208894.99
2005992.0,1709208895.031
2007662.0,1709208895.076
2009194.0,1709208895.115
2011118.0,1709208895.156
2013038.0,1709208895.193
2014734.0,1709208895.23
2016559.0,1709208895.271
2018302.0,1709208895.311
2020085.0,1709208895.351
2021972.0,1709208895.391
2023530.0,1709208895.432
2022987.0,1709208895.472
2020785.0,1709208895.512
2019322.0,1709208895.553
2018981.0,1709208895.59
2019172.0,1709208895.631
2019523.0,1709208895.672
2020429.0,1709208895.711
2020801.0,1709208895.751
2021094.0,1709208895.792
2020814.0,1709208895.832
2020947.0,1709208895.873
2021040.0,1709208895.913
2021708.0,1709208895.95
2022504.0,1709208895.991
2023524.0,1709208896.032
2024431.0,1709208896.072
2025371.0,1709208896.111
2026702.0,1709208896.152
2027826.0,1709208896.191
2029197.0,1709208896.232
2030329.0,1709208896.274
2031511.0,1709208896.31
2032541.0,1709208896.351
2033970.0,1709208896.392
2035003.0,1709208896.431
2035952.0,1709208896.472
2037182.0,1709208896.513
2036910.0,1709208896.552
2034122.0,1709208896.592
2030364.0,1709208896.632
2027226.0,1709208896.671
2025166.0,1709208896.711
2023277.0,1709208896.752
2021861.0,1709208896.79
2021090.0,1709208896.831
2019711.0,1709208896.873
2018036.0,1709208896.911
2016098.0,1709208896.952
2014183.0,1709208896.993
2013017.0,1709208897.032
2012079.0,1709208897.073
2011456.0,1709208897.114
2011195.0,1709208897.151
2011358.0,1709208897.191
2011033.0,1709208897.232
2010889.0,1709208897.272
2010928.0,1709208897.312
2010710.0,1709208897.353
2010660.0,1709208897.391
2010577.0,1709208897.431
2010692.0,1709208897.473
2010953.0,1709208897.512
2011196.0,1709208897.552
2011858.0,1709208897.593
2012556.0,1709208897.632
2011033.0,1709208897.673
2006196.0,1709208897.71
2000223.0,1709208897.75
1995202.0,1709208897.791
1991312.0,1709208897.832
1988016.0,1709208897.872
1985168.0,1709208897.911
1982983.0,1709208897.953
1980524.0,1709208897.992
1977458.0,1709208898.032
1974089.0,1709208898.074
1971161.0,1709208898.112
1968826.0,1709208898.153
1967265.0,1709208898.192
1966020.0,1709208898.231
1965003.0,1709208898.272
1964378.0,1709208898.313
1963513.0,1709208898.352
1963115.0,1709208898.392
1962188.0,1709208898.434
1961962.0,1709208898.473
1961284.0,1709208898.513
1961079.0,1709208898.552
1961308.0,1709208898.591
1961279.0,1709208898.632
1961633.0,1709208898.674
1962158.0,1709208898.712
1962904.0,1709208898.753
1963426.0,1709208898.794
1961166.0,1709208898.833
1955785.0,1709208898.872
1950345.0,1709208898.913
1946155.0,1709208898.952
1943439.0,1709208898.992
1941455.0,1709208899.033
1940255.0,1709208899.073
1939277.0,1709208899.113
1937704.0,1709208899.154
1936050.0,1709208899.192
1934774.0,1709208899.233
1934231.0,1709208899.275
1934643.0,1709208899.313
1936250.0,1709208899.353
1938911.0,1709208899.395
1942199.0,1709208899.432
1947181.0,1709208899.473
1953238.0,1709208899.513
1959204.0,1709208899.552
1963312.0,1709208899.593
1966394.0,1709208899.634
1969432.0,1709208899.674
1972259.0,1709208899.714
1974992.0,1709208899.752
1980962.0,1709208899.831
1977702.0,1709208899.791
1983848.0,1709208899.873
1987335.0,1709208899.951
1989215.0,1709208899.992
1991898.0,1709208900.031
1985112.0,1709208899.911
1994146.0,1709208900.072
1996145.0,1709208900.152
1995049.0,1709208900.113
1998025.0,1709208900.192
1999859.0,1709208900.233
2003968.0,1709208900.312
2008313.0,1709208900.392
2005824.0,1709208900.353
2002262.0,1709208900.273
2011118.0,1709208900.433
2014168.0,1709208900.475
2017088.0,1709208900.514
2020162.0,1709208900.554
2022712.0,1709208900.593
2036060.0,1709208900.794
2033433.0,1709208900.752
2025580.0,1709208900.632
2038428.0,1709208900.835
2028378.0,1709208900.674
2030805.0,1709208900.714
2043462.0,1709208900.914
2040933.0,1709208900.875
2046009.0,1709208900.953
2048444.0,1709208900.993
2050979.0,1709208901.033
2052605.0,1709208901.075
2051754.0,1709208901.113
2050267.0,1709208901.154
2050093.0,1709208901.195
2051868.0,1709208901.273
2054161.0,1709208901.353
2052915.0,1709208901.314
2051105.0,1709208901.234
2055485.0,1709208901.435
2054756.0,1709208901.394
2055917.0,1709208901.475
2056560.0,1709208901.514
2057871.0,1709208901.555
2059575.0,1709208901.593
2061504.0,1709208901.633
2063525.0,1709208901.675
2065087.0,1709208901.713
2066959.0,1709208901.754
2068608.0,1709208901.795
2070001.0,1709208901.834
2071537.0,1709208901.876
2073445.0,1709208901.914
2075335.0,1709208901.953
2077537.0,1709208901.993
2080110.0,1709208902.035
2083065.0,1709208902.075
2085857.0,1709208902.114
2088177.0,1709208902.155
2090556.0,1709208902.195
2092586.0,1709208902.233
2093643.0,1709208902.275
2091935.0,1709208902.313
2088691.0,1709208902.354
2086426.0,1709208902.395
2085355.0,1709208902.434
2085129.0,1709208902.475
2085964.0,1709208902.516
2087436.0,1709208902.553
2089239.0,1709208902.593
2090422.0,1709208902.635
2091052.0,1709208902.675
2091731.0,1709208902.714
2092528.0,1709208902.754
2093369.0,1709208902.791
2094087.0,1709208902.832
2094995.0,1709208902.874
2095729.0,1709208902.913
2096753.0,1709208902.953
2097750.0,1709208902.995
2098429.0,1709208903.034
2098919.0,1709208903.075
2099066.0,1709208903.115
2099048.0,1709208903.154
2098966.0,1709208903.195
2098985.0,1709208903.236
2098832.0,1709208903.274
2098950.0,1709208903.314
2098787.0,1709208903.355
2097255.0,1709208903.394
2092966.0,1709208903.434
2088014.0,1709208903.476
2084064.0,1709208903.515
2080830.0,1709208903.555
2078315.0,1709208903.595
2076485.0,1709208903.634
2074711.0,1709208903.675
2072264.0,1709208903.715
2069258.0,1709208903.754
2065695.0,1709208903.795
2062400.0,1709208903.836
2059696.0,1709208903.876
2057345.0,1709208903.914
2055315.0,1709208903.955
2053162.0,1709208903.994
2051287.0,1709208904.034
2049623.0,1709208904.076
2047407.0,1709208904.115
2045369.0,1709208904.155
2043419.0,1709208904.196
2040371.0,1709208904.275
2041824.0,1709208904.236
2038673.0,1709208904.315
2034188.0,1709208904.354
2027513.0,1709208904.395
2020544.0,1709208904.436
2014625.0,1709208904.476
2009852.0,1709208904.515
2006577.0,1709208904.557
2003825.0,1709208904.596
2000530.0,1709208904.634
1995946.0,1709208904.676
1990644.0,1709208904.714
1985795.0,1709208904.755
1981352.0,1709208904.796
1978122.0,1709208904.835
1975363.0,1709208904.876
1973292.0,1709208904.917
1971149.0,1709208904.954
1969272.0,1709208904.994
1967431.0,1709208905.031
1965724.0,1709208905.07
1964369.0,1709208905.11
1962992.0,1709208905.151
1959254.0,1709208905.19
1952854.0,1709208905.23
1945225.0,1709208905.272
1939335.0,1709208905.31
1934773.0,1709208905.35
1931356.0,1709208905.391
1929555.0,1709208905.43
1927434.0,1709208905.471
1924764.0,1709208905.512
1921314.0,1709208905.551
1917966.0,1709208905.592
1914949.0,1709208905.633
1913099.0,1709208905.671
1911811.0,1709208905.711
1911098.0,1709208905.752
1910569.0,1709208905.791
1910325.0,1709208905.831
1910245.0,1709208905.873
1910145.0,1709208905.912
1910408.0,1709208905.952
1910802.0,1709208905.991
1911352.0,1709208906.031
1910903.0,1709208906.072
1906766.0,1709208906.112
1901532.0,1709208906.151
1897430.0,1709208906.192
1894981.0,1709208906.233
1893438.0,1709208906.273
1892291.0,1709208906.311
1892004.0,1709208906.352
1891474.0,1709208906.391
1890618.0,1709208906.431
1889687.0,1709208906.473
1889069.0,1709208906.512
1889664.0,1709208906.552
1890498.0,1709208906.593
1892378.0,1709208906.631
1894301.0,1709208906.672
1896742.0,1709208906.712
1899243.0,1709208906.751
1902107.0,1709208906.792
1904818.0,1709208906.833
1907666.0,1709208906.873
1910563.0,1709208906.913
1913676.0,1709208906.954
1917031.0,1709208906.991
1920408.0,1709208907.031
1924215.0,1709208907.073
1926937.0,1709208907.112
1926845.0,1709208907.152
1926105.0,1709208907.193
1926774.0,1709208907.232
1929047.0,1709208907.273
1931638.0,1709208907.314
1934733.0,1709208907.351
1938551.0,1709208907.391
1942261.0,1709208907.433
1946206.0,1709208907.472
1951250.0,1709208907.512
1956687.0,1709208907.553
1962779.0,1709208907.592
1970031.0,1709208907.633
1977566.0,1709208907.673
1984629.0,1709208907.711
1991566.0,1709208907.752
1998417.0,1709208907.793
2003899.0,1709208907.832
2009785.0,1709208907.872
2014994.0,1709208907.91
2018663.0,1709208907.95
2021388.0,1709208907.991
2023085.0,1709208908.032
2024584.0,1709208908.072
2026550.0,1709208908.111
2028529.0,1709208908.153
2030142.0,1709208908.192
2031564.0,1709208908.232
2031588.0,1709208908.274
2030600.0,1709208908.313
2030030.0,1709208908.353
2030275.0,1709208908.394
2031097.0,1709208908.431
2031973.0,1709208908.472
2032661.0,1709208908.513
2033487.0,1709208908.552
2033909.0,1709208908.593
2034166.0,1709208908.634
2034472.0,1709208908.674
2034606.0,1709208908.713
2035343.0,1709208908.753
2036054.0,1709208908.792
2037101.0,1709208908.832
2038316.0,1709208908.874
2039600.0,1709208908.912
2040940.0,1709208908.953
2042193.0,1709208908.994
2043343.0,1709208909.033
2044933.0,1709208909.074
2046527.0,1709208909.113
2047840.0,1709208909.152
2049429.0,1709208909.192
2050982.0,1709208909.233
2052584.0,1709208909.273
2053966.0,1709208909.313
2055616.0,1709208909.354
2057345.0,1709208909.385
2058915.0,1709208909.426
2059326.0,1709208909.467
2059197.0,1709208909.506
2058909.0,1709208909.546
2059808.0,1709208909.587
2060648.0,1709208909.626
2061943.0,1709208909.667
2063099.0,1709208909.707
2064475.0,1709208909.746
2065444.0,1709208909.786
2066340.0,1709208909.827
2067040.0,1709208909.867
2067600.0,1709208909.907
2068885.0,1709208909.948
2069883.0,1709208909.987
2071297.0,1709208910.027
2072494.0,1709208910.069
2073739.0,1709208910.108
2074846.0,1709208910.148
2075989.0,1709208910.19
2077252.0,1709208910.227
2078127.0,1709208910.266
2079264.0,1709208910.307
2080439.0,1709208910.342
2081813.0,1709208910.376
2082813.0,1709208910.417
2083830.0,1709208910.451
2085155.0,1709208910.491
2086002.0,1709208910.532
2087194.0,1709208910.571
2088399.0,1709208910.611
2088436.0,1709208910.653
2087358.0,1709208910.692
2086439.0,1709208910.732
2085690.0,1709208910.773
2086000.0,1709208910.812
2086075.0,1709208910.853
2086496.0,1709208910.894
2087066.0,1709208910.933
2087244.0,1709208910.973
2087188.0,1709208911.012
2087063.0,1709208911.052
2087201.0,1709208911.092
2087092.0,1709208911.133
2087539.0,1709208911.172
2087977.0,1709208911.213
2088446.0,1709208911.255
2089134.0,1709208911.293
2089658.0,1709208911.333
2090129.0,1709208911.373
2090794.0,1709208911.412
2091221.0,1709208911.453
2091545.0,1709208911.493
2092144.0,1709208911.532
2092572.0,1709208911.573
2093180.0,1709208911.614
2093829.0,1709208911.654
2094553.0,1709208911.692
2095215.0,1709208911.733
2095872.0,1709208911.772
2096463.0,1709208911.812
2096235.0,1709208911.854
2094118.0,1709208911.893
2091304.0,1709208911.933
2088683.0,1709208911.975
2086704.0,1709208912.012
2085506.0,1709208912.053
2084377.0,1709208912.093
2083546.0,1709208912.133
2082259.0,1709208912.173
2080658.0,1709208912.214
2078891.0,1709208912.254
2076918.0,1709208912.294
2075298.0,1709208912.335
2074267.0,1709208912.372
2073282.0,1709208912.412
2072699.0,1709208912.454
2072074.0,1709208912.493
2071720.0,1709208912.533
2071233.0,1709208912.574
2070786.0,1709208912.614
2070249.0,1709208912.655
2069911.0,1709208912.693
2069450.0,1709208912.732
2069183.0,1709208912.773
2068971.0,1709208912.814
2068627.0,1709208912.854
2068814.0,1709208912.893
2068840.0,1709208912.935
2068768.0,1709208912.974
2068609.0,1709208913.011
2065629.0,1709208913.054
2060638.0,1709208913.092
2055529.0,1709208913.132
2051578.0,1709208913.173
2048789.0,1709208913.212
2046419.0,1709208913.253
2044538.0,1709208913.294
2042816.0,1709208913.333
2040621.0,1709208913.373
2037930.0,1709208913.415
2035209.0,1709208913.455
2033014.0,1709208913.494
2031532.0,1709208913.535
2030432.0,1709208913.572
2029629.0,1709208913.613
2029296.0,1709208913.655
2028842.0,1709208913.693
2028295.0,1709208913.734
2028159.0,1709208913.775
2027597.0,1709208913.814
2027262.0,1709208913.855
2027165.0,1709208913.894
2026845.0,1709208913.933
2027175.0,1709208913.973
2027445.0,1709208914.014
2027559.0,1709208914.054
2028187.0,1709208914.094
2028497.0,1709208914.135
2028218.0,1709208914.174
2024761.0,1709208914.215
2019568.0,1709208914.254
2014540.0,1709208914.293
2011203.0,1709208914.333
2008917.0,1709208914.374
2007205.0,1709208914.414
2006305.0,1709208914.455
2004985.0,1709208914.495
2003412.0,1709208914.534
2001120.0,1709208914.575
1999187.0,1709208914.614
1997826.0,1709208914.654
1996636.0,1709208914.735
1996903.0,1709208914.693
1996655.0,1709208914.774
1996669.0,1709208914.814
1996735.0,1709208914.856
1997056.0,1709208914.895
1997270.0,1709208914.935
1997534.0,1709208914.974
1998004.0,1709208915.013
1998626.0,1709208915.054
1999384.0,1709208915.095
2000251.0,1709208915.134
2001182.0,1709208915.174
2003611.0,1709208915.255
2002392.0,1709208915.216
2004844.0,1709208915.295
2001263.0,1709208915.373
2004346.0,1709208915.334
1997363.0,1709208915.414
1994956.0,1709208915.456
1993631.0,1709208915.494
1993061.0,1709208915.534
1993327.0,1709208915.573
1993194.0,1709208915.613
1993145.0,1709208915.654
1992537.0,1709208915.694
1991292.0,1709208915.774
1991839.0,1709208915.733
1992013.0,1709208915.855
1991396.0,1709208915.815
1992597.0,1709208915.894
1993761.0,1709208915.936
1994841.0,1709208915.975
1995867.0,1709208916.015
1996960.0,1709208916.055
1998198.0,1709208916.094
1999298.0,1709208916.134
2000462.0,1709208916.175
2001775.0,1709208916.214
2003154.0,1709208916.255
2004499.0,1709208916.296
2006129.0,1709208916.335
2007634.0,1709208916.375
2009416.0,1709208916.415
2011007.0,1709208916.454
2010980.0,1709208916.494
2008998.0,1709208916.535
2006896.0,1709208916.574
2006066.0,1709208916.615
2005899.0,1709208916.657
2006354.0,1709208916.695
2007341.0,1709208916.734
2008247.0,1709208916.775
2009010.0,1709208916.814
2009325.0,1709208916.855
2009274.0,1709208916.896
2009684.0,1709208916.935
2010435.0,1709208916.975
2011629.0,1709208917.014
2012882.0,1709208917.053
2014201.0,1709208917.092
2015780.0,1709208917.131
2017262.0,1709208917.17
2018586.0,1709208917.209
2021229.0,1709208917.248
2024472.0,1709208917.287
2028150.0,1709208917.326
2031601.0,1709208917.365
2034647.0,1709208917.404
2037182.0,1709208917.443
2039424.0,1709208917.482
2041521.0,1709208917.521
2043675.0,1709208917.56
2045691.0,1709208917.599
2046335.0,1709208917.638
2045494.0,1709208917.677
2044775.0,1709208917.716
2045320.0,1709208917.755
2047404.0,1709208917.794
2050534.0,1709208917.833
2055069.0,1709208917.872
2060157.0,1709208917.911
2065000.0,1709208917.95
2069185.0,1709208917.989
2072947.0,1709208918.028
2076749.0,1709208918.067
2080203.0,1709208918.106
2083861.0,1709208918.145
2087676.0,1709208918.184
2091293.0,1709208918.223
2094531.0,1709208918.262
2097296.0,1709208918.301
2099715.0,1709208918.34
2100062.0,1709208918.379
2100500.0,1709208918.418
2100881.0,1709208918.457
2101162.0,1709208918.496
2101698.0,1709208918.535
2101582.0,1709208918.574
2101766.0,1709208918.613
2101216.0,1709208918.652
2100856.0,1709208918.691
2100686.0,1709208918.73
2098928.0,1709208918.769
2094882.0,1709208918.809
2090284.0,1709208918.849
2086074.0,1709208918.889
2083256.0,1709208918.929
2080889.0,1709208918.969
2079134.0,1709208919.009
2077763.0,1709208919.049
2075672.0,1709208919.089
2072985.0,1709208919.129
2070331.0,1709208919.169
2067782.0,1709208919.209
2066164.0,1709208919.249
2064331.0,1709208919.289
2062984.0,1709208919.329
2061876.0,1709208919.369
2061151.0,1709208919.409
2059838.0,1709208919.449
2058734.0,1709208919.489
2057738.0,1709208919.529
2056604.0,1709208919.569
2055583.0,1709208919.609
2054511.0,1709208919.649
2053703.0,1709208919.689
2052861.0,1709208919.729
2052215.0,1709208919.769
2051404.0,1709208919.809
2050765.0,1709208919.849
2050529.0,1709208919.889
2049672.0,1709208919.929
2046590.0,1709208919.969
2040249.0,1709208920.009
2033090.0,1709208920.049
2027405.0,1709208920.089
2023084.0,1709208920.129
2019723.0,1709208920.169
2017455.0,1709208920.209
2014650.0,1709208920.249
2011266.0,1709208920.289
2007080.0,1709208920.329
2003141.0,1709208920.369
1999492.0,1709208920.409
1996580.0,1709208920.449
1994487.0,1709208920.489
1992835.0,1709208920.529
1991187.0,1709208920.569
1989896.0,1709208920.609
1988385.0,1709208920.649
1987222.0,1709208920.689
1985979.0,1709208920.729
1984674.0,1709208920.769
1983739.0,1709208920.809
1983002.0,1709208920.849
1982420.0,1709208920.889
1981988.0,1709208920.929
1981692.0,1709208920.969
1981614.0,1709208921.009
1981558.0,1709208921.049
1981203.0,1709208921.089
1977816.0,1709208921.129
1970735.0,1709208921.169
1963101.0,1709208921.209
1957685.0,1709208921.249
1954090.0,1709208921.289
1951372.0,1709208921.329
1949873.0,1709208921.369
1948832.0,1709208921.409
1947030.0,1709208921.449
1944928.0,1709208921.489
1942393.0,1709208921.529
1940395.0,1709208921.569
1939202.0,1709208921.609
1938679.0,1709208921.649
1938431.0,1709208921.689
1938384.0,1709208921.729
1938562.0,1709208921.769
1939481.0,1709208921.809
1940045.0,1709208921.849
1940824.0,1709208921.889
1941486.0,1709208921.929
1942215.0,1709208921.969
1942578.0,1709208922.009
1943205.0,1709208922.049
1944159.0,1709208922.089
1945281.0,1709208922.129
1946243.0,1709208922.169
1947376.0,1709208922.209
1948652.0,1709208922.249
1948354.0,1709208922.289
1944566.0,1709208922.329
1939393.0,1709208922.369
1935448.0,1709208922.409
1932942.0,1709208922.449
1931894.0,1709208922.489
1931355.0,1709208922.529
1931209.0,1709208922.569
1931029.0,1709208922.609
1930382.0,1709208922.649
1929315.0,1709208922.689
1928397.0,1709208922.729
1928010.0,1709208922.769
1928867.0,1709208922.809
1929478.0,1709208922.849
1930662.0,1709208922.889
1931898.0,1709208922.929
1933459.0,1709208922.969
1934956.0,1709208923.009
1936235.0,1709208923.049
1939224.0,1709208923.129
1942790.0,1709208923.209
1944615.0,1709208923.249
1940954.0,1709208923.169
1937804.0,1709208923.089
1948781.0,1709208923.329
1946513.0,1709208923.289
1950780.0,1709208923.369
1952970.0,1709208923.409
1953941.0,1709208923.449
1952315.0,1709208923.489
1949301.0,1709208923.529
1947386.0,1709208923.569
1946911.0,1709208923.609
1947164.0,1709208923.649
1947742.0,1709208923.689
1949234.0,1709208923.729
1949803.0,1709208923.769
1950325.0,1709208923.809
1950299.0,1709208923.849
1950795.0,1709208923.889
1951922.0,1709208923.929
1952974.0,1709208923.969
1954557.0,1709208924.009
1956494.0,1709208924.049
1958224.0,1709208924.089
1962250.0,1709208924.169
1960281.0,1709208924.129
1964374.0,1709208924.209
1966236.0,1709208924.249
1968476.0,1709208924.289
1970288.0,1709208924.329
1972446.0,1709208924.369
1975054.0,1709208924.409
1977346.0,1709208924.449
1979775.0,1709208924.489
1982398.0,1709208924.529
1985020.0,1709208924.569
1986059.0,1709208924.609
1984908.0,1709208924.649
1983353.0,1709208924.689
1982413.0,1709208924.729
1982928.0,1709208924.769
1983639.0,1709208924.809
1984725.0,1709208924.849
1985914.0,1709208924.889
1987017.0,1709208924.929
1987310.0,1709208924.969
1987289.0,1709208925.009
1987729.0,1709208925.049
1988654.0,1709208925.089
1989906.0,1709208925.129
1991340.0,1709208925.169
1992835.0,1709208925.209
1996016.0,1709208925.289
1994378.0,1709208925.249
1997603.0,1709208925.329
1998963.0,1709208925.369
2000439.0,1709208925.409
2001802.0,1709208925.449
2003596.0,1709208925.489
2006678.0,1709208925.569
2004904.0,1709208925.529
2008488.0,1709208925.609
2010204.0,1709208925.649
2013687.0,1709208925.729
2012290.0,1709208925.689
2012569.0,1709208925.769
2010311.0,1709208925.809
2008470.0,1709208925.849
2007740.0,1709208925.889
2007979.0,1709208925.929
2008357.0,1709208925.969
2008909.0,1709208926.009
2009464.0,1709208926.049
2009544.0,1709208926.089
2008823.0,1709208926.129
2008561.0,1709208926.169
2008717.0,1709208926.209
2009409.0,1709208926.249
2009971.0,1709208926.289
2011000.0,1709208926.329
2012211.0,1709208926.369
2013306.0,1709208926.409
2014431.0,1709208926.449
2015171.0,1709208926.489
2016082.0,1709208926.529
2017080.0,1709208926.569
2018069.0,1709208926.609
2019132.0,1709208926.649
2020486.0,1709208926.689
2021900.0,1709208926.729
2022889.0,1709208926.769
2021734.0,1709208926.809
2018385.0,1709208926.849
2015425.0,1709208926.889
2013515.0,1709208926.929
2012723.0,1709208926.969
2012779.0,1709208927.009
2013047.0,1709208927.049
2013040.0,1709208927.089
2012119.0,1709208927.129
2011110.0,1709208927.169
2010323.0,1709208927.209
2009918.0,1709208927.249
2009899.0,1709208927.289
2010440.0,1709208927.329
2011452.0,1709208927.369
2012081.0,1709208927.409
2012959.0,1709208927.449
2013880.0,1709208927.489
2014730.0,1709208927.529
2015474.0,1709208927.569
2016404.0,1709208927.609
2017458.0,1709208927.649
2018606.0,1709208927.689
2020222.0,1709208927.729
2021890.0,1709208927.769
2022355.0,1709208927.809
2019544.0,1709208927.849
2015355.0,1709208927.889
2011800.0,1709208927.929
2009544.0,1709208927.969
2008579.0,1709208928.009
2007743.0,1709208928.049
2007475.0,1709208928.089
2007253.0,1709208928.129
2005810.0,1709208928.169
2004700.0,1709208928.209
2003667.0,1709208928.249
2003179.0,1709208928.289
2003070.0,1709208928.329
2003294.0,1709208928.369
2003780.0,1709208928.409
2004588.0,1709208928.449
2005590.0,1709208928.489
2007419.0,1709208928.529
2011158.0,1709208928.569
2016189.0,1709208928.609
2022116.0,1709208928.649
2028570.0,1709208928.689
2035329.0,1709208928.729
2041960.0,1709208928.769
2048051.0,1709208928.809
2053183.0,1709208928.849
2056470.0,1709208928.889
2056432.0,1709208928.929
2055421.0,1709208929.015
2055835.0,1709208929.055
2056490.0,1709208929.094
2057296.0,1709208929.136
2058487.0,1709208929.175
2059971.0,1709208929.215
2060728.0,1709208929.257
2061053.0,1709208929.295
2060952.0,1709208929.335
2061000.0,1709208929.376
2061338.0,1709208929.415
2062030.0,1709208929.456
2062871.0,1709208929.497
2063960.0,1709208929.536
2064618.0,1709208929.576
2065092.0,1709208929.617
2065052.0,1709208929.657
2064393.0,1709208929.696
2063680.0,1709208929.737
2061982.0,1709208929.776
2060611.0,1709208929.817
2059792.0,1709208929.858
2058659.0,1709208929.897
2058178.0,1709208929.937
2057849.0,1709208929.978
2057475.0,1709208930.017
2057815.0,1709208930.057
2057903.0,1709208930.098
2057204.0,1709208930.138
2053231.0,1709208930.179
2048509.0,1709208930.219
2045772.0,1709208930.259
2047241.0,1709208930.298
2050660.0,1709208930.34
2053740.0,1709208930.379
2056218.0,1709208930.419
2058244.0,1709208930.461
2059598.0,1709208930.5
2060702.0,1709208930.54
2061546.0,1709208930.581
2062852.0,1709208930.618
2064770.0,1709208930.659
2066605.0,1709208930.7
2071146.0,1709208930.779
2075231.0,1709208930.86
2073130.0,1709208930.82
2069036.0,1709208930.739
2077391.0,1709208930.9
2079135.0,1709208930.938
2081372.0,1709208930.977
2083550.0,1709208931.017
2086152.0,1709208931.06
2088563.0,1709208931.099
2091131.0,1709208931.138
2094100.0,1709208931.18
2096665.0,1709208931.219
2099822.0,1709208931.26
2102554.0,1709208931.3
2103779.0,1709208931.339
2101142.0,1709208931.38
2095727.0,1709208931.421
2090963.0,1709208931.461
2087176.0,1709208931.5
2084712.0,1709208931.54
2082491.0,1709208931.579
2080343.0,1709208931.619
2077208.0,1709208931.661
2073396.0,1709208931.7
2068962.0,1709208931.74
2065046.0,1709208931.781
2061763.0,1709208931.821
2058996.0,1709208931.859
2056702.0,1709208931.9
2054350.0,1709208931.939
2052214.0,1709208931.979
2050051.0,1709208932.021
2047725.0,1709208932.061
2045550.0,1709208932.1
2043606.0,1709208932.141
2041773.0,1709208932.181
2040303.0,1709208932.219
2038861.0,1709208932.261
2037735.0,1709208932.299
2036509.0,1709208932.34
2035764.0,1709208932.381
2034676.0,1709208932.42
2033916.0,1709208932.461
2033182.0,1709208932.502
2030478.0,1709208932.541
2023299.0,1709208932.579
2013764.0,1709208932.62
2005109.0,1709208932.66
1998273.0,1709208932.7
1992550.0,1709208932.741
1987581.0,1709208932.78
1983316.0,1709208932.821
1978957.0,1709208932.863
1973588.0,1709208932.901
1967870.0,1709208932.939
1962416.0,1709208932.98
1958128.0,1709208933.02
1954548.0,1709208933.061
1951714.0,1709208933.101
1949310.0,1709208933.14
1947287.0,1709208933.181
1945286.0,1709208933.222
1943838.0,1709208933.262
1942062.0,1709208933.299
1940645.0,1709208933.341
1939401.0,1709208933.38
1938538.0,1709208933.42
1937976.0,1709208933.462
1937759.0,1709208933.498
1937765.0,1709208933.54
1938467.0,1709208933.62
1937824.0,1709208933.58
1938973.0,1709208933.661
1939754.0,1709208933.701
1938473.0,1709208933.74
1932463.0,1709208933.781
1924879.0,1709208933.822
1918915.0,1709208933.862
1915096.0,1709208933.901
1913114.0,1709208933.941
1912091.0,1709208933.98
1912226.0,1709208934.02
1912594.0,1709208934.062
1912653.0,1709208934.101
1913399.0,1709208934.141
1914588.0,1709208934.182
1916825.0,1709208934.221
1919252.0,1709208934.262
1922322.0,1709208934.301
1925643.0,1709208934.34
1928820.0,1709208934.38
1932446.0,1709208934.421
1935799.0,1709208934.461
1939206.0,1709208934.501
1942695.0,1709208934.542
1946180.0,1709208934.581
1950357.0,1709208934.62
1954003.0,1709208934.662
1958440.0,1709208934.7
1963426.0,1709208934.741
1969479.0,1709208934.782
1976219.0,1709208934.821
1981306.0,1709208934.862
1981592.0,1709208934.903
1977206.0,1709208934.942
1972131.0,1709208934.98
1968328.0,1709208935.021
1966037.0,1709208935.061
1964699.0,1709208935.101
1964120.0,1709208935.142
1963518.0,1709208935.181
1962326.0,1709208935.221
1960763.0,1709208935.263
1959594.0,1709208935.302
1959047.0,1709208935.34
1958680.0,1709208935.381
1959451.0,1709208935.421
1960338.0,1709208935.462
1961012.0,1709208935.502
1962250.0,1709208935.541
1963317.0,1709208935.582
1964181.0,1709208935.623
1965215.0,1709208935.663
1966211.0,1709208935.7
1967489.0,1709208935.741
1968743.0,1709208935.781
1970632.0,1709208935.821
1972387.0,1709208935.863
1974215.0,1709208935.902
1976059.0,1709208935.942
1978045.0,1709208935.983
1979025.0,1709208936.022
1976990.0,1709208936.063
1974097.0,1709208936.101
1972232.0,1709208936.141
1971743.0,1709208936.181
1971690.0,1709208936.222
1971957.0,1709208936.262
1972626.0,1709208936.302
1973281.0,1709208936.343
1973253.0,1709208936.382
1972939.0,1709208936.422
1972911.0,1709208936.462
1973537.0,1709208936.501
1974353.0,1709208936.541
1975677.0,1709208936.582
1977154.0,1709208936.622
1978618.0,1709208936.663
1980055.0,1709208936.703
1981727.0,1709208936.742
1983030.0,1709208936.781
1984612.0,1709208936.822
1986155.0,1709208936.862
1988012.0,1709208936.901
1989903.0,1709208936.943
1991591.0,1709208936.982
1993551.0,1709208937.022
1995594.0,1709208937.064
1997579.0,1709208937.103
1999706.0,1709208937.141
2000061.0,1709208937.182
1998083.0,1709208937.221
1995445.0,1709208937.262
1993869.0,1709208937.303
1993379.0,1709208937.342
1993418.0,1709208937.382
1993674.0,1709208937.424
1994439.0,1709208937.463
1994576.0,1709208937.501
1994127.0,1709208937.542
1993744.0,1709208937.581
1993423.0,1709208937.622
1993494.0,1709208937.664
1994036.0,1709208937.702
1995071.0,1709208937.743
1995806.0,1709208937.784
1996585.0,1709208937.821
1997506.0,1709208937.862
1998498.0,1709208937.903
1999418.0,1709208937.942
2000144.0,1709208937.982
2001024.0,1709208938.023
2001845.0,1709208938.063
2002952.0,1709208938.103
2004126.0,1709208938.144
2005731.0,1709208938.181
2007402.0,1709208938.221
2007685.0,1709208938.263
2004958.0,1709208938.302
2001915.0,1709208938.342
1999963.0,1709208938.384
1998993.0,1709208938.423
1998123.0,1709208938.464
1997969.0,1709208938.504
1997833.0,1709208938.541
1997091.0,1709208938.585
1995336.0,1709208938.622
1994156.0,1709208938.662
1993049.0,1709208938.701
1992454.0,1709208938.743
1992542.0,1709208938.782
1992665.0,1709208938.822
1992819.0,1709208938.864
1993036.0,1709208938.903
1993650.0,1709208938.943
1993931.0,1709208938.984
1994327.0,1709208939.023
1994768.0,1709208939.062
1995384.0,1709208939.103
1995824.0,1709208939.142
1996562.0,1709208939.182
1997288.0,1709208939.224
1998298.0,1709208939.263
1997894.0,1709208939.303
1993894.0,1709208939.344
1988750.0,1709208939.384
1984568.0,1709208939.422
1981357.0,1709208939.464
1978810.0,1709208939.502
1976521.0,1709208939.542
1975024.0,1709208939.584
1973573.0,1709208939.623
1971472.0,1709208939.664
1969127.0,1709208939.705
1967137.0,1709208939.742
1966038.0,1709208939.782
1964943.0,1709208939.823
1964793.0,1709208939.863
1964734.0,1709208939.903
1964884.0,1709208939.944
1965138.0,1709208939.983
1965509.0,1709208940.024
1966067.0,1709208940.066
1966923.0,1709208940.102
1969193.0,1709208940.142
1971978.0,1709208940.184
1975351.0,1709208940.223
1979597.0,1709208940.264
1985257.0,1709208940.304
1991586.0,1709208940.344
1996920.0,1709208940.384
1998914.0,1709208940.425
1999024.0,1709208940.463
1999892.0,1709208940.502
2001407.0,1709208940.544
2003262.0,1709208940.583
2005151.0,1709208940.623
2007546.0,1709208940.665
2010211.0,1709208940.704
2013185.0,1709208940.744
2016053.0,1709208940.783
2017498.0,1709208940.822
2018452.0,1709208940.863
2019103.0,1709208940.904
2018899.0,1709208940.943
2018557.0,1709208940.984
2018151.0,1709208941.029
2018077.0,1709208941.068
2018273.0,1709208941.108
2018577.0,1709208941.149
2018937.0,1709208941.188
2019448.0,1709208941.228
2020058.0,1709208941.27
2020463.0,1709208941.308
2020759.0,1709208941.348
2021975.0,1709208941.389
2023217.0,1709208941.428
2024616.0,1709208941.469
2025087.0,1709208941.509
2023259.0,1709208941.548
2019304.0,1709208941.589
2016118.0,1709208941.63
2014555.0,1709208941.669
2013249.0,1709208941.707
2012609.0,1709208941.748
2012370.0,1709208941.787
2011631.0,1709208941.827
2010480.0,1709208941.869
2008766.0,1709208941.908
2007478.0,1709208941.948
2006685.0,1709208941.989
2006430.0,1709208942.029
2006530.0,1709208942.067
2006989.0,1709208942.108
2007220.0,1709208942.147
2007851.0,1709208942.188
2008280.0,1709208942.229
2008702.0,1709208942.269
2008973.0,1709208942.308
2009497.0,1709208942.35
2010213.0,1709208942.389
2011040.0,1709208942.427
2011797.0,1709208942.469
2012713.0,1709208942.507
2013493.0,1709208942.548
2014480.0,1709208942.589
2014646.0,1709208942.628
2011665.0,1709208942.669
2007785.0,1709208942.71
2004806.0,1709208942.749
2003170.0,1709208942.787
2001727.0,1709208942.828
2000870.0,1709208942.868
2000263.0,1709208942.904
1999837.0,1709208942.945
1998849.0,1709208942.984
1998036.0,1709208943.024
1997046.0,1709208943.066
1996530.0,1709208943.104
1996489.0,1709208943.144
1997114.0,1709208943.185
1998536.0,1709208943.224
2001153.0,1709208943.265
2005513.0,1709208943.305
2010490.0,1709208943.345
2014682.0,1709208943.385
2018785.0,1709208943.426
2022810.0,1709208943.465
2026988.0,1709208943.505
2030872.0,1709208943.546
2034550.0,1709208943.585
2038395.0,1709208943.625
2042752.0,1709208943.667
2046800.0,1709208943.705
2051138.0,1709208943.745
2053224.0,1709208943.786
2053105.0,1709208943.825
2052686.0,1709208943.862
2053799.0,1709208943.902
2054854.0,1709208943.941
2054028.0,1709208943.981
2052670.0,1709208944.022
2050279.0,1709208944.062
2048150.0,1709208944.098
2046093.0,1709208944.139
2044036.0,1709208944.178
2042320.0,1709208944.218
2040410.0,1709208944.26
2039309.0,1709208944.299
2038011.0,1709208944.339
2037281.0,1709208944.38
2036766.0,1709208944.419
2036300.0,1709208944.46
2035587.0,1709208944.5
2035084.0,1709208944.539
2034577.0,1709208944.579
2034321.0,1709208944.62
2034369.0,1709208944.66
2034575.0,1709208944.7
2034716.0,1709208944.741
2034884.0,1709208944.78
2035611.0,1709208944.82
2036152.0,1709208944.862
2036583.0,1709208944.9
2034436.0,1709208944.94
2029970.0,1709208944.981
2025085.0,1709208945.02
2021765.0,1709208945.061
2019431.0,1709208945.102
2017471.0,1709208945.141
2016293.0,1709208945.181
2015198.0,1709208945.222
2013368.0,1709208945.262
2011204.0,1709208945.301
2009114.0,1709208945.342
2007176.0,1709208945.381
2006269.0,1709208945.421
2005493.0,1709208945.463
2005157.0,1709208945.502
2005026.0,1709208945.542
2004981.0,1709208945.583
2004976.0,1709208945.622
2004869.0,1709208945.663
2005103.0,1709208945.703
2005335.0,1709208945.742
2005595.0,1709208945.782
2005891.0,1709208945.823
2006366.0,1709208945.864
2007043.0,1709208945.9
2007897.0,1709208945.932
2007897.0,1709208945.966
2008190.0,1709208946.006
2005268.0,1709208946.048
2000332.0,1709208946.087
1995975.0,1709208946.127
1992943.0,1709208946.168
1990832.0,1709208946.207
1989266.0,1709208946.248
1988443.0,1709208946.288
1987653.0,1709208946.327
1986329.0,1709208946.367
1984805.0,1709208946.408
1983429.0,1709208946.448
1982426.0,1709208946.487
1982050.0,1709208946.528
1982256.0,1709208946.567
1982601.0,1709208946.608
1983232.0,1709208946.65
1983914.0,1709208946.689
1984607.0,1709208946.729
1985632.0,1709208946.771
1986521.0,1709208946.81
1987466.0,1709208946.851
1989825.0,1709208946.93
1991199.0,1709208946.971
1988544.0,1709208946.891
1992804.0,1709208947.012
1994793.0,1709208947.052
1996358.0,1709208947.092
1996479.0,1709208947.131
1993785.0,1709208947.17
1991285.0,1709208947.21
1990923.0,1709208947.252
1991846.0,1709208947.291
1998320.0,1709208947.372
1993778.0,1709208947.331
2005594.0,1709208947.412
2010699.0,1709208947.451
2015671.0,1709208947.491
2020432.0,1709208947.53
2024141.0,1709208947.571
2028260.0,1709208947.612
2032521.0,1709208947.652
2036754.0,1709208947.692
2041444.0,1709208947.733
2045755.0,1709208947.77
2049957.0,1709208947.81
2054141.0,1709208947.852
2058825.0,1709208947.891
2064039.0,1709208947.931
2069252.0,1709208947.972
2073959.0,1709208948.011
2077869.0,1709208948.053
2080139.0,1709208948.091
2080750.0,1709208948.13
2081067.0,1709208948.171
2080320.0,1709208948.212
2076903.0,1709208948.252
2072902.0,1709208948.292
2069821.0,1709208948.333
2067822.0,1709208948.372
2066769.0,1709208948.41
2066081.0,1709208948.452
2065776.0,1709208948.491
2065402.0,1709208948.531
2064289.0,1709208948.572
2063214.0,1709208948.612
2061940.0,1709208948.653
2061131.0,1709208948.694
2060795.0,1709208948.731
2060871.0,1709208948.771
2061180.0,1709208948.812
2061345.0,1709208948.852
2061793.0,1709208948.891
2062033.0,1709208948.932
2062265.0,1709208948.971
2062691.0,1709208949.011
2062996.0,1709208949.053
2063719.0,1709208949.091
2064189.0,1709208949.131
2064703.0,1709208949.172
2065541.0,1709208949.212
2066080.0,1709208949.252
2064578.0,1709208949.293
2061004.0,1709208949.332
2057303.0,1709208949.372
2054932.0,1709208949.413
2053712.0,1709208949.451
2052569.0,1709208949.491
2052318.0,1709208949.532
2051893.0,1709208949.571
2050662.0,1709208949.612
2049378.0,1709208949.654
2048211.0,1709208949.692
2047359.0,1709208949.733
2046819.0,1709208949.772
2046679.0,1709208949.811
2046573.0,1709208949.852
2046686.0,1709208949.893
2047046.0,1709208949.932
2047305.0,1709208949.972
2047485.0,1709208950.013
2047648.0,1709208950.053
2048121.0,1709208950.093
2048299.0,1709208950.132
2048854.0,1709208950.171
2049493.0,1709208950.212
2050214.0,1709208950.254
2050838.0,1709208950.292
2049517.0,1709208950.332
2045121.0,1709208950.374
2040466.0,1709208950.413
2037965.0,1709208950.452
2037636.0,1709208950.492
2039536.0,1709208950.531
2042969.0,1709208950.572
2046801.0,1709208950.613
2049118.0,1709208950.653
2050282.0,1709208950.693
2051296.0,1709208950.734
2052151.0,1709208950.771
2053490.0,1709208950.812
2055403.0,1709208950.853
2057667.0,1709208950.892
2060554.0,1709208950.932
2062943.0,1709208950.974
2065251.0,1709208951.013
2065835.0,1709208951.054
2064653.0,1709208951.094
2063023.0,1709208951.131
2061746.0,1709208951.172
2060078.0,1709208951.213
2058687.0,1709208951.253
2057587.0,1709208951.292
2056523.0,1709208951.334
2055495.0,1709208951.373
2053599.0,1709208951.415
2047948.0,1709208951.452
2039372.0,1709208951.491
2031361.0,1709208951.53
2024563.0,1709208951.571
2019334.0,1709208951.611
2014338.0,1709208951.652
2010413.0,1709208951.693
2006404.0,1709208951.732
2001914.0,1709208951.773
1996755.0,1709208951.814
1991859.0,1709208951.854
1987717.0,1709208951.893
1984275.0,1709208951.935
1981436.0,1709208951.972
1978967.0,1709208952.012
1976737.0,1709208952.054
1975034.0,1709208952.092
1973136.0,1709208952.133
1971476.0,1709208952.174
1969986.0,1709208952.213
1968398.0,1709208952.254
1967307.0,1709208952.293
1966214.0,1709208952.332
1965705.0,1709208952.372
1965086.0,1709208952.414
1964943.0,1709208952.454
1964614.0,1709208952.493
1961255.0,1709208952.534
1954906.0,1709208952.574
1948030.0,1709208952.612
1942778.0,1709208952.654
1939212.0,1709208952.692
1936707.0,1709208952.733
1935022.0,1709208952.774
1933749.0,1709208952.813
1931837.0,1709208952.854
1929649.0,1709208952.895
1927354.0,1709208952.932
1926096.0,1709208952.972
1925013.0,1709208953.004
1924857.0,1709208953.043
1925210.0,1709208953.083
1925909.0,1709208953.124
1926878.0,1709208953.163
1928475.0,1709208953.203
1930378.0,1709208953.245
1932441.0,1709208953.283
1934784.0,1709208953.323
1937095.0,1709208953.364
1939206.0,1709208953.403
1941496.0,1709208953.445
1943879.0,1709208953.486
1945273.0,1709208953.525
1943233.0,1709208953.565
1939705.0,1709208953.607
1937158.0,1709208953.646
1936124.0,1709208953.686
1935843.0,1709208953.727
1936238.0,1709208953.766
1937542.0,1709208953.807
1938771.0,1709208953.849
1939635.0,1709208953.887
1940446.0,1709208953.926
1941798.0,1709208953.966
1943646.0,1709208954.005
1946211.0,1709208954.045
1948704.0,1709208954.087
1951967.0,1709208954.126
1955653.0,1709208954.166
1959561.0,1709208954.208
1963966.0,1709208954.247
1968614.0,1709208954.287
1974436.0,1709208954.328
1980070.0,1709208954.367
1985444.0,1709208954.406
1990673.0,1709208954.448
1995666.0,1709208954.486
2000658.0,1709208954.526
2005137.0,1709208954.568
2008808.0,1709208954.607
2009142.0,1709208954.648
2006353.0,1709208954.689
2003623.0,1709208954.726
2002243.0,1709208954.766
2001461.0,1709208954.807
2000895.0,1709208954.847
2000839.0,1709208954.887
2001218.0,1709208954.928
2001325.0,1709208954.967
2001209.0,1709208955.008
2001088.0,1709208955.05
2001224.0,1709208955.086
2001924.0,1709208955.126
2003051.0,1709208955.167
2004140.0,1709208955.207
2005492.0,1709208955.248
2006723.0,1709208955.288
2008294.0,1709208955.327
2009745.0,1709208955.368
2011238.0,1709208955.409
2012538.0,1709208955.447
2013845.0,1709208955.486
2015249.0,1709208955.528
2016738.0,1709208955.567
2018147.0,1709208955.607
2019536.0,1709208955.649
2021007.0,1709208955.688
2022240.0,1709208955.728
2022142.0,1709208955.767
2019518.0,1709208955.806
2016886.0,1709208955.848
2015127.0,1709208955.888
2014131.0,1709208955.927
2013689.0,1709208955.968
2013567.0,1709208956.009
2013864.0,1709208956.049
2013567.0,1709208956.086
2012838.0,1709208956.128
2012152.0,1709208956.167
2011069.0,1709208956.207
2010834.0,1709208956.249
2010957.0,1709208956.287
2010953.0,1709208956.328
2011186.0,1709208956.369
2011631.0,1709208956.406
2012160.0,1709208956.448
2012605.0,1709208956.491
2013118.0,1709208956.53
2013438.0,1709208956.57
2014070.0,1709208956.611
2014595.0,1709208956.651
2015569.0,1709208956.691
2016284.0,1709208956.729
2017378.0,1709208956.766
2017903.0,1709208956.807
2016387.0,1709208956.849
2013239.0,1709208956.887
2010290.0,1709208956.928
2008441.0,1709208956.969
2007478.0,1709208957.008
2007043.0,1709208957.049
2007524.0,1709208957.088
2007955.0,1709208957.127
2008508.0,1709208957.167
2009922.0,1709208957.209
2012506.0,1709208957.248
2016530.0,1709208957.288
2020931.0,1709208957.329
2025749.0,1709208957.368
2030752.0,1709208957.409
2035376.0,1709208957.449
2039670.0,1709208957.487
2043587.0,1709208957.527
2047551.0,1709208957.569
2050402.0,1709208957.608
2053341.0,1709208957.649
2055264.0,1709208957.69
2056150.0,1709208957.729
2056310.0,1709208957.767
2055968.0,1709208957.808
2054092.0,1709208957.848
2048898.0,1709208957.888
2041088.0,1709208957.929
2033452.0,1709208957.968
2026743.0,1709208958.009
2021583.0,1709208958.051
2016716.0,1709208958.089
2013175.0,1709208958.127
2009248.0,1709208958.168
1999583.0,1709208958.249
2004677.0,1709208958.207
1994665.0,1709208958.289
1989984.0,1709208958.328
1986293.0,1709208958.369
1983297.0,1709208958.41
1980593.0,1709208958.45
1976032.0,1709208958.529
1978221.0,1709208958.491
1973875.0,1709208958.568
1971879.0,1709208958.609
1969862.0,1709208958.65
1968030.0,1709208958.689
1966315.0,1709208958.729
1965028.0,1709208958.768
1963569.0,1709208958.807
1962608.0,1709208958.849
1961921.0,1709208958.889
1959958.0,1709208958.928
1953125.0,1709208958.969
1943400.0,1709208959.01
1933807.0,1709208959.05
1926541.0,1709208959.086
1920618.0,1709208959.128
1915989.0,1709208959.167
1912188.0,1709208959.208
1908864.0,1709208959.25
1904625.0,1709208959.288
1900150.0,1709208959.328
1895885.0,1709208959.37
1892197.0,1709208959.409
1889763.0,1709208959.45
1888049.0,1709208959.49
1886683.0,1709208959.528
1885910.0,1709208959.568
1885577.0,1709208959.609
1885933.0,1709208959.649
1887869.0,1709208959.689
1891797.0,1709208959.73
1896034.0,1709208959.769
1900452.0,1709208959.81
1905599.0,1709208959.85
1910869.0,1709208959.888
1916299.0,1709208959.928
1921827.0,1709208959.97
1925544.0,1709208960.009
1925351.0,1709208960.05
1923956.0,1709208960.09
1923056.0,1709208960.13
1922965.0,1709208960.168
1923353.0,1709208960.209
1922816.0,1709208960.249
1921475.0,1709208960.289
1919518.0,1709208960.33
1916661.0,1709208960.369
1913579.0,1709208960.41
1910687.0,1709208960.452
1908296.0,1709208960.488
1906811.0,1709208960.528
1906072.0,1709208960.57
1905712.0,1709208960.609
1905907.0,1709208960.65
1906088.0,1709208960.691
1906473.0,1709208960.729
1906996.0,1709208960.769
1908110.0,1709208960.849
1907558.0,1709208960.811
1908951.0,1709208960.889
1910412.0,1709208960.93
1911812.0,1709208960.969
1913412.0,1709208961.009
1911878.0,1709208961.051
1907378.0,1709208961.09
1903524.0,1709208961.13
1901106.0,1709208961.171
1899921.0,1709208961.208
1899221.0,1709208961.249
1898866.0,1709208961.29
1898613.0,1709208961.329
1897836.0,1709208961.37
1896743.0,1709208961.411
1895806.0,1709208961.451
1895677.0,1709208961.49
1895902.0,1709208961.531
1896741.0,1709208961.568
1897679.0,1709208961.609
1899005.0,1709208961.65
1900647.0,1709208961.688
1902113.0,1709208961.728
1903799.0,1709208961.769
1905284.0,1709208961.809
1906984.0,1709208961.85
1908736.0,1709208961.891
1910618.0,1709208961.93
1912633.0,1709208961.97
1914852.0,1709208962.012
1917193.0,1709208962.049
1917852.0,1709208962.089
1915853.0,1709208962.13
1913564.0,1709208962.169
1912175.0,1709208962.21
1911921.0,1709208962.252
1912128.0,1709208962.29
1912998.0,1709208962.331
1914002.0,1709208962.372
1914769.0,1709208962.409
1914938.0,1709208962.45
1915211.0,1709208962.49
1915467.0,1709208962.529
1916507.0,1709208962.57
1918099.0,1709208962.611
1919568.0,1709208962.651
1921383.0,1709208962.691
1923273.0,1709208962.73
1925192.0,1709208962.769
1927062.0,1709208962.81
1928920.0,1709208962.852
1930880.0,1709208962.89
1932772.0,1709208962.93
1934869.0,1709208962.972
1937152.0,1709208963.011
1939378.0,1709208963.05
1941330.0,1709208963.09
1943827.0,1709208963.129
1944687.0,1709208963.17
1943143.0,1709208963.211
1941294.0,1709208963.251
1940685.0,1709208963.291
1941202.0,1709208963.332
1941971.0,1709208963.369
1943645.0,1709208963.41
1946493.0,1709208963.452
1949069.0,1709208963.49
1951423.0,1709208963.53
1954179.0,1709208963.572
1956961.0,1709208963.611
1960636.0,1709208963.652
1964704.0,1709208963.69
1969957.0,1709208963.729
1975260.0,1709208963.77
1980563.0,1709208963.811
1985372.0,1709208963.851
1989931.0,1709208963.891
1994938.0,1709208963.932
2000412.0,1709208963.971
2005355.0,1709208964.012
2009953.0,1709208964.051
2013596.0,1709208964.09
2015638.0,1709208964.13
2016939.0,1709208964.171
2017469.0,1709208964.208
2015348.0,1709208964.249
2012527.0,1709208964.29
2010229.0,1709208964.329
2008719.0,1709208964.37
2007723.0,1709208964.411
2007320.0,1709208964.451
2007421.0,1709208964.532
2005745.0,1709208964.611
2006648.0,1709208964.571
2007419.0,1709208964.49
2005068.0,1709208964.653
2004664.0,1709208964.69
2004759.0,1709208964.73
2005018.0,1709208964.771
2005504.0,1709208964.852
2006082.0,1709208964.892
2005139.0,1709208964.81
2006662.0,1709208964.931
2007078.0,1709208964.972
2007278.0,1709208965.017
2007968.0,1709208965.096
2007746.0,1709208965.057
2008495.0,1709208965.137
2008858.0,1709208965.176
2009360.0,1709208965.216
2010002.0,1709208965.258
2010665.0,1709208965.296
2010712.0,1709208965.336
2008085.0,1709208965.378
2003253.0,1709208965.417
1998733.0,1709208965.457
