bvp,time
64.0,1569567487.0
-0.0,1569567487.015625
-0.0,1569567487.03125
-0.0,1569567487.046875
-0.0,1569567487.0625
-0.0,1569567487.078125
-0.0,1569567487.09375
-0.0,1569567487.109375
-0.0,1569567487.125
-0.0,1569567487.140625
-0.0,1569567487.15625
0.0,1569567487.171875
0.01,1569567487.1875
0.01,1569567487.203125
-0.0,1569567487.21875
-0.03,1569567487.234375
-0.05,1569567487.25
-0.05,1569567487.265625
0.0,1569567487.28125
0.13,1569567487.296875
0.36,1569567487.3125
0.66,1569567487.328125
1.01,1569567487.34375
1.37,1569567487.359375
1.72,1569567487.375
2.06,1569567487.390625
2.4,1569567487.40625
2.79,1569567487.421875
3.24,1569567487.4375
3.8,1569567487.453125
4.42,1569567487.46875
5.06,1569567487.484375
5.66,1569567487.5
6.2,1569567487.515625
6.68,1569567487.53125
7.15,1569567487.546875
7.68,1569567487.5625
8.31,1569567487.578125
9.14,1569567487.59375
10.09,1569567487.609375
11.04,1569567487.625
11.88,1569567487.640625
12.56,1569567487.65625
13.14,1569567487.671875
13.76,1569567487.6875
14.65,1569567487.703125
15.96,1569567487.71875
17.91,1569567487.734375
20.32,1569567487.75
22.9,1569567487.765625
25.38,1569567487.78125
27.58,1569567487.796875
29.57,1569567487.8125
31.68,1569567487.828125
34.32,1569567487.84375
37.81,1569567487.859375
42.54,1569567487.875
48.15,1569567487.890625
54.1,1569567487.90625
59.83,1569567487.921875
64.97,1569567487.9375
69.58,1569567487.953125
74.14,1569567487.96875
79.34,1569567487.984375
85.71,1569567488.0
93.76,1569567488.015625
103.0,1569567488.03125
112.62,1569567488.046875
121.73,1569567488.0625
129.77,1569567488.078125
136.75,1569567488.09375
143.3,1569567488.109375
150.75,1569567488.125
157.77,1569567488.140625
166.64,1569567488.15625
177.95,1569567488.171875
191.79,1569567488.1875
206.97,1569567488.203125
220.57,1569567488.21875
228.25,1569567488.234375
225.36,1569567488.25
208.53,1569567488.265625
176.87,1569567488.28125
132.76,1569567488.296875
80.05,1569567488.3125
23.07,1569567488.328125
-34.94,1569567488.34375
-92.44,1569567488.359375
-149.16,1569567488.375
-205.23,1569567488.390625
-260.37,1569567488.40625
-313.74,1569567488.421875
-363.87,1569567488.4375
-409.83,1569567488.453125
-450.91,1569567488.46875
-486.5,1569567488.484375
-515.74,1569567488.5
-537.23,1569567488.515625
-549.22,1569567488.53125
-549.96,1569567488.546875
-538.37,1569567488.5625
-514.21,1569567488.578125
-478.67,1569567488.59375
-433.88,1569567488.609375
-382.45,1569567488.625
-327.02,1569567488.640625
-269.84,1569567488.65625
-212.63,1569567488.671875
-156.66,1569567488.6875
-102.95,1569567488.703125
-52.37,1569567488.71875
-5.9,1569567488.734375
35.58,1569567488.75
71.43,1569567488.765625
101.35,1569567488.78125
125.5,1569567488.796875
144.38,1569567488.8125
158.69,1569567488.828125
169.15,1569567488.84375
176.37,1569567488.859375
180.75,1569567488.875
182.57,1569567488.890625
182.07,1569567488.90625
179.51,1569567488.921875
175.23,1569567488.9375
169.65,1569567488.953125
163.18,1569567488.96875
156.15,1569567488.984375
148.81,1569567489.0
141.3,1569567489.015625
133.69,1569567489.03125
126.02,1569567489.046875
118.33,1569567489.0625
110.69,1569567489.078125
103.16,1569567489.09375
95.8,1569567489.109375
88.68,1569567489.125
81.83,1569567489.140625
75.25,1569567489.15625
68.95,1569567489.171875
62.95,1569567489.1875
57.25,1569567489.203125
51.86,1569567489.21875
46.78,1569567489.234375
42.03,1569567489.25
37.59,1569567489.265625
33.45,1569567489.28125
29.61,1569567489.296875
26.07,1569567489.3125
22.81,1569567489.328125
19.83,1569567489.34375
17.11,1569567489.359375
14.67,1569567489.375
12.48,1569567489.390625
10.54,1569567489.40625
8.83,1569567489.421875
7.35,1569567489.4375
6.07,1569567489.453125
4.97,1569567489.46875
4.05,1569567489.484375
3.27,1569567489.5
2.62,1569567489.515625
2.09,1569567489.53125
1.65,1569567489.546875
1.3,1569567489.5625
1.01,1569567489.578125
0.79,1569567489.59375
0.61,1569567489.609375
0.47,1569567489.625
0.37,1569567489.640625
0.28,1569567489.65625
0.23,1569567489.671875
0.18,1569567489.6875
0.15,1569567489.703125
0.13,1569567489.71875
0.13,1569567489.734375
0.13,1569567489.75
0.14,1569567489.765625
0.16,1569567489.78125
0.18,1569567489.796875
0.21,1569567489.8125
0.24,1569567489.828125
0.28,1569567489.84375
0.32,1569567489.859375
0.36,1569567489.875
0.41,1569567489.890625
0.46,1569567489.90625
0.5,1569567489.921875
0.55,1569567489.9375
0.6,1569567489.953125
0.66,1569567489.96875
0.71,1569567489.984375
0.77,1569567490.0
0.84,1569567490.015625
0.91,1569567490.03125
0.99,1569567490.046875
1.07,1569567490.0625
1.17,1569567490.078125
1.28,1569567490.09375
1.4,1569567490.109375
1.54,1569567490.125
1.68,1569567490.140625
1.85,1569567490.15625
2.04,1569567490.171875
2.25,1569567490.1875
2.5,1569567490.203125
2.77,1569567490.21875
3.07,1569567490.234375
3.38,1569567490.25
3.68,1569567490.265625
3.99,1569567490.28125
4.31,1569567490.296875
4.66,1569567490.3125
5.06,1569567490.328125
5.53,1569567490.34375
6.08,1569567490.359375
6.69,1569567490.375
7.33,1569567490.390625
7.99,1569567490.40625
8.65,1569567490.421875
9.32,1569567490.4375
10.04,1569567490.453125
10.82,1569567490.46875
11.69,1569567490.484375
12.67,1569567490.5
13.72,1569567490.515625
14.8,1569567490.53125
15.87,1569567490.546875
16.86,1569567490.5625
17.81,1569567490.578125
18.74,1569567490.59375
19.68,1569567490.609375
20.65,1569567490.625
21.59,1569567490.640625
22.32,1569567490.65625
22.58,1569567490.671875
22.15,1569567490.6875
20.83,1569567490.703125
18.59,1569567490.71875
15.52,1569567490.734375
11.85,1569567490.75
7.78,1569567490.765625
3.48,1569567490.78125
-1.01,1569567490.796875
-5.73,1569567490.8125
-10.75,1569567490.828125
-16.0,1569567490.84375
-21.24,1569567490.859375
-26.04,1569567490.875
-29.93,1569567490.890625
-32.56,1569567490.90625
-33.86,1569567490.921875
-34.12,1569567490.9375
-33.9,1569567490.953125
-33.83,1569567490.96875
-34.34,1569567490.984375
-35.5,1569567491.0
-36.99,1569567491.015625
-38.27,1569567491.03125
-38.84,1569567491.046875
-38.47,1569567491.0625
-37.33,1569567491.078125
-35.89,1569567491.09375
-34.86,1569567491.109375
-34.94,1569567491.125
-36.69,1569567491.140625
-40.32,1569567491.15625
-45.28,1569567491.171875
-50.17,1569567491.1875
-52.84,1569567491.203125
-51.1,1569567491.21875
-43.7,1569567491.234375
-31.15,1569567491.25
-15.78,1569567491.265625
-0.99,1569567491.28125
10.14,1569567491.296875
16.1,1569567491.3125
17.39,1569567491.328125
15.97,1569567491.34375
14.08,1569567491.359375
13.1,1569567491.375
13.11,1569567491.390625
13.18,1569567491.40625
12.2,1569567491.421875
9.49,1569567491.4375
5.09,1569567491.453125
-0.32,1569567491.46875
-5.64,1569567491.484375
-9.31,1569567491.5
-9.57,1569567491.515625
-4.83,1569567491.53125
5.73,1569567491.546875
21.55,1569567491.5625
40.47,1569567491.578125
59.17,1569567491.59375
74.17,1569567491.609375
83.0,1569567491.625
85.03,1569567491.640625
81.28,1569567491.65625
73.8,1569567491.671875
64.75,1569567491.6875
55.63,1569567491.703125
47.17,1569567491.71875
39.61,1569567491.734375
33.13,1569567491.75
27.63,1569567491.765625
23.61,1569567491.78125
21.49,1569567491.796875
21.4,1569567491.8125
22.95,1569567491.828125
25.41,1569567491.84375
27.86,1569567491.859375
29.61,1569567491.875
30.43,1569567491.890625
30.46,1569567491.90625
30.15,1569567491.921875
29.64,1569567491.9375
28.59,1569567491.953125
26.2,1569567491.96875
21.56,1569567491.984375
14.1,1569567492.0
4.07,1569567492.015625
-7.46,1569567492.03125
-18.86,1569567492.046875
-28.58,1569567492.0625
-35.78,1569567492.078125
-40.63,1569567492.09375
-44.18,1569567492.109375
-47.93,1569567492.125
-53.35,1569567492.140625
-61.38,1569567492.15625
-72.26,1569567492.171875
-85.33,1569567492.1875
-98.91,1569567492.203125
-110.42,1569567492.21875
-116.74,1569567492.234375
-114.91,1569567492.25
-103.19,1569567492.265625
-81.85,1569567492.28125
-53.33,1569567492.296875
-21.69,1569567492.3125
8.69,1569567492.328125
34.37,1569567492.34375
53.63,1569567492.359375
66.4,1569567492.375
73.65,1569567492.390625
76.51,1569567492.40625
75.81,1569567492.421875
72.15,1569567492.4375
66.27,1569567492.453125
59.37,1569567492.46875
53.08,1569567492.484375
48.93,1569567492.5
47.83,1569567492.515625
49.56,1569567492.53125
52.88,1569567492.546875
56.05,1569567492.5625
57.61,1569567492.578125
56.93,1569567492.59375
54.34,1569567492.609375
50.71,1569567492.625
46.85,1569567492.640625
42.88,1569567492.65625
38.11,1569567492.671875
31.39,1569567492.6875
21.75,1569567492.703125
9.04,1569567492.71875
-5.82,1569567492.734375
-21.07,1569567492.75
-34.79,1569567492.765625
-45.63,1569567492.78125
-53.35,1569567492.796875
-58.84,1569567492.8125
-63.84,1569567492.828125
-70.33,1569567492.84375
-79.8,1569567492.859375
-92.74,1569567492.875
-108.16,1569567492.890625
-123.63,1569567492.90625
-135.65,1569567492.921875
-140.52,1569567492.9375
-135.43,1569567492.953125
-119.47,1569567492.96875
-94.15,1569567492.984375
-63.0,1569567493.0
-30.57,1569567493.015625
-1.01,1569567493.03125
23.08,1569567493.046875
40.96,1569567493.0625
53.4,1569567493.078125
61.77,1569567493.09375
67.17,1569567493.109375
70.12,1569567493.125
70.68,1569567493.140625
68.97,1569567493.15625
65.58,1569567493.171875
61.68,1569567493.1875
58.62,1569567493.203125
57.41,1569567493.21875
58.22,1569567493.234375
60.33,1569567493.25
62.47,1569567493.265625
63.39,1569567493.28125
62.5,1569567493.296875
59.99,1569567493.3125
56.67,1569567493.328125
53.32,1569567493.34375
50.19,1569567493.359375
46.69,1569567493.375
41.66,1569567493.390625
33.98,1569567493.40625
23.22,1569567493.421875
9.97,1569567493.4375
-4.32,1569567493.453125
-17.93,1569567493.46875
-29.49,1569567493.484375
-38.57,1569567493.5
-45.67,1569567493.515625
-52.02,1569567493.53125
-59.1,1569567493.546875
-68.27,1569567493.5625
-80.31,1569567493.578125
-95.1,1569567493.59375
-111.29,1569567493.609375
-126.32,1569567493.625
-136.68,1569567493.640625
-138.91,1569567493.65625
-130.74,1569567493.671875
-112.06,1569567493.6875
-85.22,1569567493.703125
-54.29,1569567493.71875
-23.8,1569567493.734375
2.71,1569567493.75
23.56,1569567493.765625
38.84,1569567493.78125
49.73,1569567493.796875
57.5,1569567493.8125
62.84,1569567493.828125
65.87,1569567493.84375
66.47,1569567493.859375
64.85,1569567493.875
61.85,1569567493.890625
58.74,1569567493.90625
56.81,1569567493.921875
56.78,1569567493.9375
58.54,1569567493.953125
61.22,1569567493.96875
63.56,1569567493.984375
64.54,1569567494.0
63.7,1569567494.015625
61.34,1569567494.03125
58.16,1569567494.046875
54.9,1569567494.0625
51.75,1569567494.078125
48.31,1569567494.09375
43.65,1569567494.109375
36.81,1569567494.125
27.33,1569567494.140625
15.58,1569567494.15625
2.7,1569567494.171875
-9.78,1569567494.1875
-20.55,1569567494.203125
-29.0,1569567494.21875
-35.4,1569567494.234375
-40.73,1569567494.25
-46.26,1569567494.265625
-53.22,1569567494.28125
-62.46,1569567494.296875
-74.36,1569567494.3125
-88.55,1569567494.328125
-103.73,1569567494.34375
-117.57,1569567494.359375
-126.94,1569567494.375
-128.67,1569567494.390625
-120.62,1569567494.40625
-102.63,1569567494.421875
-76.89,1569567494.4375
-47.35,1569567494.453125
-18.42,1569567494.46875
6.37,1569567494.484375
25.36,1569567494.5
38.74,1569567494.515625
47.78,1569567494.53125
53.83,1569567494.546875
57.58,1569567494.5625
59.01,1569567494.578125
57.93,1569567494.59375
54.59,1569567494.609375
50.01,1569567494.625
45.81,1569567494.640625
43.53,1569567494.65625
43.98,1569567494.671875
46.89,1569567494.6875
50.99,1569567494.703125
54.65,1569567494.71875
56.54,1569567494.734375
56.15,1569567494.75
53.82,1569567494.765625
50.46,1569567494.78125
46.94,1569567494.796875
43.65,1569567494.8125
40.22,1569567494.828125
35.75,1569567494.84375
29.23,1569567494.859375
20.17,1569567494.875
8.94,1569567494.890625
-3.25,1569567494.90625
-14.8,1569567494.921875
-24.41,1569567494.9375
-31.6,1569567494.953125
-36.9,1569567494.96875
-41.53,1569567494.984375
-46.85,1569567495.0
-53.93,1569567495.015625
-63.29,1569567495.03125
-74.84,1569567495.046875
-87.85,1569567495.0625
-100.81,1569567495.078125
-111.43,1569567495.09375
-116.81,1569567495.109375
-114.28,1569567495.125
-102.3,1569567495.140625
-81.43,1569567495.15625
-54.38,1569567495.171875
-25.24,1569567495.1875
1.88,1569567495.203125
24.11,1569567495.21875
40.52,1569567495.234375
51.73,1569567495.25
59.04,1569567495.265625
63.49,1569567495.28125
65.41,1569567495.296875
64.73,1569567495.3125
61.48,1569567495.328125
56.34,1569567495.34375
50.74,1569567495.359375
46.41,1569567495.375
44.7,1569567495.390625
46.0,1569567495.40625
49.53,1569567495.421875
53.66,1569567495.4375
56.62,1569567495.453125
57.19,1569567495.46875
55.16,1569567495.484375
51.22,1569567495.5
46.43,1569567495.515625
41.58,1569567495.53125
36.74,1569567495.546875
31.27,1569567495.5625
24.19,1569567495.578125
14.81,1569567495.59375
3.17,1569567495.609375
-9.84,1569567495.625
-22.74,1569567495.640625
-34.07,1569567495.65625
-42.98,1569567495.671875
-49.48,1569567495.6875
-54.51,1569567495.703125
-59.46,1569567495.71875
-65.8,1569567495.734375
-74.57,1569567495.75
-86.16,1569567495.765625
-100.1,1569567495.78125
-114.98,1569567495.796875
-128.46,1569567495.8125
-137.52,1569567495.828125
-139.15,1569567495.84375
-131.26,1569567495.859375
-113.56,1569567495.875
-87.9,1569567495.890625
-57.89,1569567495.90625
-27.82,1569567495.921875
-1.3,1569567495.9375
19.65,1569567495.953125
34.87,1569567495.96875
45.43,1569567495.984375
52.79,1569567496.0
57.99,1569567496.015625
61.38,1569567496.03125
62.88,1569567496.046875
62.41,1569567496.0625
60.32,1569567496.078125
57.52,1569567496.09375
55.15,1569567496.109375
54.24,1569567496.125
55.2,1569567496.140625
57.68,1569567496.15625
60.74,1569567496.171875
63.15,1569567496.1875
63.97,1569567496.203125
62.82,1569567496.21875
59.91,1569567496.234375
55.81,1569567496.25
51.03,1569567496.265625
45.65,1569567496.28125
39.24,1569567496.296875
31.15,1569567496.3125
20.83,1569567496.328125
8.36,1569567496.34375
-5.48,1569567496.359375
-19.33,1569567496.375
-31.8,1569567496.390625
-41.94,1569567496.40625
-49.7,1569567496.421875
-55.93,1569567496.4375
-62.03,1569567496.453125
-69.51,1569567496.46875
-79.49,1569567496.484375
-92.4,1569567496.5
-107.82,1569567496.515625
-124.36,1569567496.53125
-139.72,1569567496.546875
-150.92,1569567496.5625
-154.81,1569567496.578125
-148.96,1569567496.59375
-132.62,1569567496.609375
-107.15,1569567496.625
-75.86,1569567496.640625
-43.13,1569567496.65625
-12.95,1569567496.671875
12.1,1569567496.6875
31.31,1569567496.703125
45.48,1569567496.71875
56.0,1569567496.734375
64.02,1569567496.75
70.03,1569567496.765625
73.95,1569567496.78125
75.62,1569567496.796875
75.23,1569567496.8125
73.5,1569567496.828125
71.51,1569567496.84375
70.32,1569567496.859375
70.62,1569567496.875
72.51,1569567496.890625
75.47,1569567496.90625
78.67,1569567496.921875
81.12,1569567496.9375
82.06,1569567496.953125
81.02,1569567496.96875
77.89,1569567496.984375
72.87,1569567497.0
66.28,1569567497.015625
58.52,1569567497.03125
49.89,1569567497.046875
40.6,1569567497.0625
30.69,1569567497.078125
20.12,1569567497.09375
8.89,1569567497.109375
-2.87,1569567497.125
-14.79,1569567497.140625
-26.33,1569567497.15625
-36.95,1569567497.171875
-46.3,1569567497.1875
-54.36,1569567497.203125
-61.56,1569567497.21875
-68.69,1569567497.234375
-76.8,1569567497.25
-86.9,1569567497.265625
-99.78,1569567497.28125
-115.47,1569567497.296875
-132.77,1569567497.3125
-149.08,1569567497.328125
-160.61,1569567497.34375
-163.39,1569567497.359375
-154.63,1569567497.375
-133.87,1569567497.390625
-103.41,1569567497.40625
-67.74,1569567497.421875
-32.02,1569567497.4375
-0.51,1569567497.453125
24.49,1569567497.46875
42.85,1569567497.484375
55.82,1569567497.5
65.09,1569567497.515625
71.89,1569567497.53125
76.77,1569567497.546875
79.76,1569567497.5625
80.84,1569567497.578125
80.32,1569567497.59375
78.85,1569567497.609375
77.33,1569567497.625
76.58,1569567497.640625
77.06,1569567497.65625
78.72,1569567497.671875
81.16,1569567497.6875
83.75,1569567497.703125
85.93,1569567497.71875
87.26,1569567497.734375
87.41,1569567497.75
86.03,1569567497.765625
82.7,1569567497.78125
76.99,1569567497.796875
68.8,1569567497.8125
58.51,1569567497.828125
47.03,1569567497.84375
35.59,1569567497.859375
25.16,1569567497.875
16.11,1569567497.890625
8.01,1569567497.90625
-0.05,1569567497.921875
-8.95,1569567497.9375
-19.03,1569567497.953125
-29.91,1569567497.96875
-40.66,1569567497.984375
-50.36,1569567498.0
-58.57,1569567498.015625
-65.63,1569567498.03125
-72.67,1569567498.046875
-81.19,1569567498.0625
-92.62,1569567498.078125
-107.67,1569567498.09375
-125.73,1569567498.109375
-144.62,1569567498.125
-160.67,1569567498.140625
-169.54,1569567498.15625
-167.5,1569567498.171875
-152.77,1569567498.1875
-126.36,1569567498.203125
-91.91,1569567498.21875
-54.63,1569567498.234375
-19.61,1569567498.25
9.6,1569567498.265625
31.7,1569567498.28125
47.28,1569567498.296875
57.95,1569567498.3125
65.27,1569567498.328125
70.17,1569567498.34375
72.95,1569567498.359375
73.72,1569567498.375
72.88,1569567498.390625
71.28,1569567498.40625
70.02,1569567498.421875
69.99,1569567498.4375
71.56,1569567498.453125
74.48,1569567498.46875
78.07,1569567498.484375
81.59,1569567498.5
84.52,1569567498.515625
86.6,1569567498.53125
87.69,1569567498.546875
87.53,1569567498.5625
85.7,1569567498.578125
81.72,1569567498.59375
75.35,1569567498.609375
66.8,1569567498.625
56.8,1569567498.640625
46.41,1569567498.65625
36.54,1569567498.671875
27.69,1569567498.6875
19.76,1569567498.703125
12.19,1569567498.71875
4.39,1569567498.734375
-3.96,1569567498.75
-12.68,1569567498.765625
-21.25,1569567498.78125
-29.11,1569567498.796875
-36.01,1569567498.8125
-42.24,1569567498.828125
-48.58,1569567498.84375
-56.12,1569567498.859375
-65.96,1569567498.875
-78.82,1569567498.890625
-94.53,1569567498.90625
-111.67,1569567498.921875
-127.38,1569567498.9375
-137.78,1569567498.953125
-139.01,1569567498.96875
-128.57,1569567498.984375
-106.44,1569567499.0
-75.41,1569567499.015625
-40.29,1569567499.03125
-6.36,1569567499.046875
22.22,1569567499.0625
43.45,1569567499.078125
57.45,1569567499.09375
65.73,1569567499.109375
70.02,1569567499.125
71.57,1569567499.140625
71.01,1569567499.15625
68.66,1569567499.171875
65.05,1569567499.1875
61.15,1569567499.203125
58.23,1569567499.21875
57.42,1569567499.234375
59.19,1569567499.25
63.16,1569567499.265625
68.22,1569567499.28125
72.94,1569567499.296875
76.12,1569567499.3125
77.08,1569567499.328125
75.76,1569567499.34375
72.48,1569567499.359375
67.71,1569567499.375
61.77,1569567499.390625
54.87,1569567499.40625
47.1,1569567499.421875
38.55,1569567499.4375
29.38,1569567499.453125
19.7,1569567499.46875
9.66,1569567499.484375
-0.68,1569567499.5
-11.22,1569567499.515625
-21.76,1569567499.53125
-31.95,1569567499.546875
-41.43,1569567499.5625
-49.94,1569567499.578125
-57.53,1569567499.59375
-64.65,1569567499.609375
-72.18,1569567499.625
-81.23,1569567499.640625
-92.9,1569567499.65625
-107.67,1569567499.671875
-124.93,1569567499.6875
-142.46,1569567499.703125
-156.71,1569567499.71875
-163.43,1569567499.734375
-159.13,1569567499.75
-142.36,1569567499.765625
-114.51,1569567499.78125
-79.52,1569567499.796875
-42.65,1569567499.8125
-8.85,1569567499.828125
18.67,1569567499.84375
38.91,1569567499.859375
52.71,1569567499.875
61.75,1569567499.890625
67.61,1569567499.90625
71.24,1569567499.921875
72.96,1569567499.9375
72.89,1569567499.953125
71.28,1569567499.96875
68.83,1569567499.984375
66.5,1569567500.0
65.32,1569567500.015625
65.93,1569567500.03125
68.41,1569567500.046875
72.19,1569567500.0625
76.29,1569567500.078125
79.6,1569567500.09375
81.23,1569567500.109375
80.68,1569567500.125
77.89,1569567500.140625
73.1,1569567500.15625
66.75,1569567500.171875
59.27,1569567500.1875
51.02,1569567500.203125
42.16,1569567500.21875
32.66,1569567500.234375
22.45,1569567500.25
11.49,1569567500.265625
-0.06,1569567500.28125
-11.73,1569567500.296875
-22.91,1569567500.3125
-33.04,1569567500.328125
-41.85,1569567500.34375
-49.5,1569567500.359375
-56.61,1569567500.375
-64.12,1569567500.390625
-73.1,1569567500.40625
-84.55,1569567500.421875
-99.01,1569567500.4375
-116.19,1569567500.453125
-134.55,1569567500.46875
-151.1,1569567500.484375
-161.84,1569567500.5
-162.85,1569567500.515625
-151.6,1569567500.53125
-128.1,1569567500.546875
-95.21,1569567500.5625
-57.9,1569567500.578125
-21.65,1569567500.59375
9.25,1569567500.609375
32.75,1569567500.625
49.17,1569567500.640625
60.23,1569567500.65625
68.01,1569567500.671875
73.86,1569567500.6875
78.27,1569567500.703125
81.02,1569567500.71875
81.91,1569567500.734375
81.15,1569567500.75
79.51,1569567500.765625
78.06,1569567500.78125
77.73,1569567500.796875
78.95,1569567500.8125
81.47,1569567500.828125
84.53,1569567500.84375
87.16,1569567500.859375
88.46,1569567500.875
87.9,1569567500.890625
85.35,1569567500.90625
80.98,1569567500.921875
75.16,1569567500.9375
68.18,1569567500.953125
60.19,1569567500.96875
51.15,1569567500.984375
40.91,1569567501.0
29.4,1569567501.015625
16.78,1569567501.03125
3.51,1569567501.046875
-9.71,1569567501.0625
-22.12,1569567501.078125
-33.15,1569567501.09375
-42.61,1569567501.109375
-50.7,1569567501.125
-57.99,1569567501.140625
-65.3,1569567501.15625
-73.56,1569567501.171875
-83.73,1569567501.1875
-96.49,1569567501.203125
-111.98,1569567501.21875
-129.24,1569567501.234375
-145.92,1569567501.25
-158.44,1569567501.265625
-162.81,1569567501.28125
-155.96,1569567501.296875
-136.97,1569567501.3125
-107.77,1569567501.328125
-72.61,1569567501.34375
-36.8,1569567501.359375
-4.93,1569567501.375
20.34,1569567501.390625
38.61,1569567501.40625
51.15,1569567501.421875
59.73,1569567501.4375
65.75,1569567501.453125
69.82,1569567501.46875
71.98,1569567501.484375
72.24,1569567501.5
70.97,1569567501.515625
68.98,1569567501.53125
67.33,1569567501.546875
66.89,1569567501.5625
68.06,1569567501.578125
70.66,1569567501.59375
74.12,1569567501.609375
77.62,1569567501.625
80.42,1569567501.640625
81.92,1569567501.65625
81.76,1569567501.671875
79.7,1569567501.6875
75.69,1569567501.703125
69.78,1569567501.71875
62.23,1569567501.734375
53.43,1569567501.75
43.93,1569567501.765625
34.21,1569567501.78125
24.56,1569567501.796875
15.03,1569567501.8125
5.42,1569567501.828125
-4.44,1569567501.84375
-14.53,1569567501.859375
-24.52,1569567501.875
-33.86,1569567501.890625
-42.07,1569567501.90625
-49.08,1569567501.921875
-55.44,1569567501.9375
-62.22,1569567501.953125
-70.8,1569567501.96875
-82.31,1569567501.984375
-97.13,1569567502.0
-114.35,1569567502.015625
-131.6,1569567502.03125
-145.3,1569567502.046875
-151.43,1569567502.0625
-146.84,1569567502.078125
-130.37,1569567502.09375
-103.47,1569567502.109375
-69.96,1569567502.125
-34.84,1569567502.140625
-2.74,1569567502.15625
23.31,1569567502.171875
42.38,1569567502.1875
55.24,1569567502.203125
63.41,1569567502.21875
68.27,1569567502.234375
70.62,1569567502.25
70.79,1569567502.265625
69.13,1569567502.28125
66.36,1569567502.296875
63.62,1569567502.3125
62.17,1569567502.328125
62.93,1569567502.34375
66.07,1569567502.359375
70.89,1569567502.375
76.13,1569567502.390625
80.4,1569567502.40625
82.65,1569567502.421875
82.46,1569567502.4375
80.0,1569567502.453125
75.78,1569567502.46875
70.36,1569567502.484375
64.13,1569567502.5
57.18,1569567502.515625
49.41,1569567502.53125
40.67,1569567502.546875
30.87,1569567502.5625
20.14,1569567502.578125
8.83,1569567502.59375
-2.5,1569567502.609375
-13.19,1569567502.625
-22.75,1569567502.640625
-30.96,1569567502.65625
-38.01,1569567502.671875
-44.47,1569567502.6875
-51.15,1569567502.703125
-58.94,1569567502.71875
-68.64,1569567502.734375
-80.76,1569567502.75
-95.24,1569567502.765625
-110.98,1569567502.78125
-125.65,1569567502.796875
-135.91,1569567502.8125
-138.14,1569567502.828125
-129.77,1569567502.84375
-110.35,1569567502.859375
-82.04,1569567502.875
-49.04,1569567502.890625
-16.29,1569567502.90625
12.12,1569567502.921875
34.04,1569567502.9375
49.35,1569567502.953125
59.28,1569567502.96875
65.4,1569567502.984375
68.78,1569567503.0
69.88,1569567503.015625
68.78,1569567503.03125
65.82,1569567503.046875
61.84,1569567503.0625
58.14,1569567503.078125
56.03,1569567503.09375
56.35,1569567503.109375
59.03,1569567503.125
63.13,1569567503.140625
67.24,1569567503.15625
69.95,1569567503.171875
70.4,1569567503.1875
68.4,1569567503.203125
64.35,1569567503.21875
58.94,1569567503.234375
52.74,1569567503.25
46.05,1569567503.265625
38.78,1569567503.28125
30.63,1569567503.296875
21.26,1569567503.3125
10.54,1569567503.328125
-1.34,1569567503.34375
-13.8,1569567503.359375
-26.02,1569567503.375
-37.17,1569567503.390625
-46.71,1569567503.40625
-54.63,1569567503.421875
-61.43,1569567503.4375
-68.01,1569567503.453125
-75.44,1569567503.46875
-84.73,1569567503.484375
-96.62,1569567503.5
-111.32,1569567503.515625
-128.11,1569567503.53125
-145.01,1569567503.546875
-158.82,1569567503.5625
-165.65,1569567503.578125
-162.12,1569567503.59375
-146.64,1569567503.609375
-120.25,1569567503.625
-86.53,1569567503.640625
-50.55,1569567503.65625
-17.19,1569567503.671875
10.28,1569567503.6875
30.77,1569567503.703125
45.11,1569567503.71875
55.0,1569567503.734375
62.02,1569567503.75
67.09,1569567503.765625
70.46,1569567503.78125
72.08,1569567503.796875
72.12,1569567503.8125
71.13,1569567503.828125
69.98,1569567503.84375
69.56,1569567503.859375
70.45,1569567503.875
72.73,1569567503.890625
75.9,1569567503.90625
79.13,1569567503.921875
81.5,1569567503.9375
82.31,1569567503.953125
81.11,1569567503.96875
77.86,1569567503.984375
72.74,1569567504.0
66.1,1569567504.015625
58.37,1569567504.03125
49.94,1569567504.046875
41.05,1569567504.0625
31.78,1569567504.078125
22.04,1569567504.09375
11.73,1569567504.109375
0.82,1569567504.125
-10.46,1569567504.140625
-21.68,1569567504.15625
-32.32,1569567504.171875
-41.95,1569567504.1875
-50.44,1569567504.203125
-58.01,1569567504.21875
-65.28,1569567504.234375
-73.17,1569567504.25
-82.81,1569567504.265625
-95.2,1569567504.28125
-110.74,1569567504.296875
-128.57,1569567504.3125
-146.22,1569567504.328125
-159.8,1569567504.34375
-165.03,1569567504.359375
-158.62,1569567504.375
-139.62,1569567504.390625
-110.01,1569567504.40625
-74.2,1569567504.421875
-37.59,1569567504.4375
-4.89,1569567504.453125
21.14,1569567504.46875
40.0,1569567504.484375
52.9,1569567504.5
61.72,1569567504.515625
68.06,1569567504.53125
72.79,1569567504.546875
76.1,1569567504.5625
77.9,1569567504.578125
78.3,1569567504.59375
77.76,1569567504.609375
77.03,1569567504.625
76.85,1569567504.640625
77.67,1569567504.65625
79.46,1569567504.671875
81.78,1569567504.6875
84.06,1569567504.703125
85.77,1569567504.71875
86.48,1569567504.734375
85.96,1569567504.75
83.95,1569567504.765625
80.2,1569567504.78125
74.48,1569567504.796875
66.75,1569567504.8125
57.27,1569567504.828125
46.6,1569567504.84375
35.49,1569567504.859375
24.58,1569567504.875
14.24,1569567504.890625
4.41,1569567504.90625
-5.23,1569567504.921875
-15.03,1569567504.9375
-25.08,1569567504.953125
-35.13,1569567504.96875
-44.68,1569567504.984375
-53.28,1569567505.0
-60.86,1569567505.015625
-67.95,1569567505.03125
-75.66,1569567505.046875
-85.36,1569567505.0625
-98.21,1569567505.078125
-114.54,1569567505.09375
-133.21,1569567505.109375
-151.5,1569567505.125
-165.37,1569567505.140625
-170.56,1569567505.15625
-163.89,1569567505.171875
-144.56,1569567505.1875
-114.66,1569567505.203125
-78.66,1569567505.21875
-42.01,1569567505.234375
-9.45,1569567505.25
16.27,1569567505.265625
34.69,1569567505.28125
47.06,1569567505.296875
55.27,1569567505.3125
60.89,1569567505.328125
64.73,1569567505.34375
67.02,1569567505.359375
67.82,1569567505.375
67.48,1569567505.390625
66.64,1569567505.40625
66.11,1569567505.421875
66.47,1569567505.4375
67.89,1569567505.453125
70.1,1569567505.46875
72.59,1569567505.484375
74.84,1569567505.5
76.51,1569567505.515625
77.45,1569567505.53125
77.48,1569567505.546875
76.34,1569567505.5625
73.65,1569567505.578125
69.1,1569567505.59375
62.66,1569567505.609375
54.65,1569567505.625
45.69,1569567505.640625
36.49,1569567505.65625
27.47,1569567505.671875
18.73,1569567505.6875
10.05,1569567505.703125
1.1,1569567505.71875
-8.28,1569567505.734375
-17.93,1569567505.75
-27.42,1569567505.765625
-36.24,1569567505.78125
-44.03,1569567505.796875
-50.83,1569567505.8125
-57.13,1569567505.828125
-63.84,1569567505.84375
-72.17,1569567505.859375
-83.26,1569567505.875
-97.6,1569567505.890625
-114.47,1569567505.90625
-131.56,1569567505.921875
-145.18,1569567505.9375
-151.16,1569567505.953125
-146.18,1569567505.96875
-129.09,1569567505.984375
-101.54,1569567506.0
-67.57,1569567506.015625
-32.36,1569567506.03125
-0.58,1569567506.046875
24.84,1569567506.0625
43.13,1569567506.078125
55.19,1569567506.09375
62.61,1569567506.109375
66.81,1569567506.125
68.6,1569567506.140625
68.3,1569567506.15625
66.22,1569567506.171875
62.99,1569567506.1875
59.71,1569567506.203125
57.66,1569567506.21875
57.82,1569567506.234375
60.47,1569567506.25
65.01,1569567506.265625
70.26,1569567506.28125
74.81,1569567506.296875
77.56,1569567506.3125
77.95,1569567506.328125
75.99,1569567506.34375
72.07,1569567506.359375
66.69,1569567506.375
60.27,1569567506.390625
53.04,1569567506.40625
45.07,1569567506.421875
36.26,1569567506.4375
26.52,1569567506.453125
15.86,1569567506.46875
4.53,1569567506.484375
-6.95,1569567506.5
-17.87,1569567506.515625
-27.56,1569567506.53125
-35.64,1569567506.546875
-42.24,1569567506.5625
-48.02,1569567506.578125
-54.03,1569567506.59375
-61.41,1569567506.609375
-71.15,1569567506.625
-83.75,1569567506.640625
-98.97,1569567506.65625
-115.58,1569567506.671875
-131.17,1569567506.6875
-142.42,1569567506.703125
-145.8,1569567506.71875
-138.68,1569567506.734375
-120.35,1569567506.75
-92.63,1569567506.765625
-59.5,1569567506.78125
-25.84,1569567506.796875
3.97,1569567506.8125
27.32,1569567506.828125
43.79,1569567506.84375
54.54,1569567506.859375
61.34,1569567506.875
65.6,1569567506.890625
67.9,1569567506.90625
68.27,1569567506.921875
66.72,1569567506.9375
63.77,1569567506.953125
60.57,1569567506.96875
58.52,1569567506.984375
58.7,1569567507.0
61.35,1569567507.015625
65.77,1569567507.03125
70.52,1569567507.046875
74.11,1569567507.0625
75.47,1569567507.078125
74.34,1569567507.09375
71.11,1569567507.109375
66.51,1569567507.125
61.15,1569567507.140625
55.28,1569567507.15625
48.73,1569567507.171875
41.07,1569567507.1875
31.97,1569567507.203125
21.3,1569567507.21875
9.37,1569567507.234375
-3.19,1569567507.25
-15.58,1569567507.265625
-27.01,1569567507.28125
-36.98,1569567507.296875
-45.44,1569567507.3125
-52.83,1569567507.328125
-60.07,1569567507.34375
-68.31,1569567507.359375
-78.64,1569567507.375
-91.86,1569567507.390625
-108.03,1569567507.40625
-126.18,1569567507.421875
-144.07,1569567507.4375
-158.33,1569567507.453125
-165.15,1569567507.46875
-161.34,1569567507.484375
-145.56,1569567507.5
-119.06,1569567507.515625
-85.52,1569567507.53125
-49.99,1569567507.546875
-17.27,1569567507.5625
9.56,1569567507.578125
29.74,1569567507.59375
44.37,1569567507.609375
55.4,1569567507.625
64.43,1569567507.640625
72.09,1569567507.65625
78.12,1569567507.671875
81.95,1569567507.6875
83.44,1569567507.703125
83.1,1569567507.71875
82.07,1569567507.734375
81.57,1569567507.75
82.45,1569567507.765625
84.83,1569567507.78125
88.2,1569567507.796875
91.69,1569567507.8125
94.46,1569567507.828125
95.9,1569567507.84375
95.71,1569567507.859375
93.79,1569567507.875
90.1,1569567507.890625
84.62,1569567507.90625
77.45,1569567507.921875
68.91,1569567507.9375
59.41,1569567507.953125
49.43,1569567507.96875
39.19,1569567507.984375
28.63,1569567508.0
17.47,1569567508.015625
5.57,1569567508.03125
-6.9,1569567508.046875
-19.35,1569567508.0625
-31.02,1569567508.078125
-41.36,1569567508.09375
-50.47,1569567508.109375
-59.16,1569567508.125
-68.79,1569567508.140625
-80.83,1569567508.15625
-96.38,1569567508.171875
-115.65,1569567508.1875
-137.56,1569567508.203125
-159.61,1569567508.21875
-178.15,1569567508.234375
-189.19,1569567508.25
-189.56,1569567508.265625
-178.06,1569567508.28125
-156.14,1569567508.296875
-127.58,1569567508.3125
-97.34,1569567508.328125
-70.01,1569567508.34375
-48.55,1569567508.359375
-33.8,1569567508.375
-24.87,1569567508.390625
-20.15,1569567508.40625
-18.2,1569567508.421875
-18.18,1569567508.4375
-19.72,1569567508.453125
-22.5,1569567508.46875
-25.66,1569567508.484375
-27.72,1569567508.5
-26.65,1569567508.515625
-20.49,1569567508.53125
-8.0,1569567508.546875
10.69,1569567508.5625
33.85,1569567508.578125
58.47,1569567508.59375
80.97,1569567508.609375
98.2,1569567508.625
108.27,1569567508.640625
110.83,1569567508.65625
106.88,1569567508.671875
98.18,1569567508.6875
86.59,1569567508.703125
73.63,1569567508.71875
60.36,1569567508.734375
47.42,1569567508.75
35.2,1569567508.765625
23.81,1569567508.78125
13.14,1569567508.796875
2.91,1569567508.8125
-7.2,1569567508.828125
-17.34,1569567508.84375
-27.39,1569567508.859375
-37.03,1569567508.875
-45.88,1569567508.890625
-53.77,1569567508.90625
-60.96,1569567508.921875
-68.15,1569567508.9375
-76.42,1569567508.953125
-86.92,1569567508.96875
-100.38,1569567508.984375
-116.52,1569567509.0
-133.54,1569567509.015625
-148.15,1569567509.03125
-156.18,1569567509.046875
-153.86,1569567509.0625
-139.19,1569567509.078125
-112.9,1569567509.09375
-78.43,1569567509.109375
-40.86,1569567509.125
-5.3,1569567509.140625
24.68,1569567509.15625
47.74,1569567509.171875
64.48,1569567509.1875
76.51,1569567509.203125
85.2,1569567509.21875
91.21,1569567509.234375
94.57,1569567509.25
95.25,1569567509.265625
93.87,1569567509.28125
91.8,1569567509.296875
90.79,1569567509.3125
92.24,1569567509.328125
96.55,1569567509.34375
102.92,1569567509.359375
109.75,1569567509.375
115.34,1569567509.390625
118.55,1569567509.40625
119.07,1569567509.421875
117.32,1569567509.4375
114.01,1569567509.453125
109.71,1569567509.46875
104.64,1569567509.484375
98.57,1569567509.5
91.08,1569567509.515625
81.77,1569567509.53125
70.54,1569567509.546875
57.68,1569567509.5625
43.84,1569567509.578125
29.91,1569567509.59375
16.7,1569567509.609375
4.77,1569567509.625
-5.76,1569567509.640625
-15.23,1569567509.65625
-24.36,1569567509.671875
-34.09,1569567509.6875
-45.46,1569567509.703125
-59.29,1569567509.71875
-75.85,1569567509.734375
-94.4,1569567509.75
-112.94,1569567509.765625
-128.35,1569567509.78125
-137.07,1569567509.796875
-136.15,1569567509.8125
-124.35,1569567509.828125
-102.74,1569567509.84375
-74.49,1569567509.859375
-43.92,1569567509.875
-15.23,1569567509.890625
8.66,1569567509.90625
26.63,1569567509.921875
39.12,1569567509.9375
47.39,1569567509.953125
52.7,1569567509.96875
55.8,1569567509.984375
56.88,1569567510.0
55.98,1569567510.015625
53.42,1569567510.03125
50.03,1569567510.046875
46.97,1569567510.0625
45.33,1569567510.078125
45.57,1569567510.09375
47.37,1569567510.109375
49.73,1569567510.125
51.5,1569567510.140625
51.93,1569567510.15625
50.98,1569567510.171875
49.27,1569567510.1875
47.69,1569567510.203125
46.91,1569567510.21875
46.97,1569567510.234375
47.29,1569567510.25
46.87,1569567510.265625
44.78,1569567510.28125
40.56,1569567510.296875
34.5,1569567510.3125
27.48,1569567510.328125
20.75,1569567510.34375
15.44,1569567510.359375
12.14,1569567510.375
10.8,1569567510.390625
10.82,1569567510.40625
11.29,1569567510.421875
11.25,1569567510.4375
9.85,1569567510.453125
6.47,1569567510.46875
0.87,1569567510.484375
-6.49,1569567510.5
-14.22,1569567510.515625
-20.02,1569567510.53125
-21.03,1569567510.546875
-14.7,1569567510.5625
0.21,1569567510.578125
23.06,1569567510.59375
51.3,1569567510.609375
81.18,1569567510.625
108.9,1569567510.640625
131.6,1569567510.65625
148.06,1569567510.671875
158.56,1569567510.6875
164.43,1569567510.703125
167.19,1569567510.71875
168.06,1569567510.734375
167.65,1569567510.75
166.15,1569567510.765625
163.7,1569567510.78125
160.69,1569567510.796875
157.9,1569567510.8125
156.21,1569567510.828125
156.31,1569567510.84375
158.25,1569567510.859375
161.45,1569567510.875
164.86,1569567510.890625
167.35,1569567510.90625
168.1,1569567510.921875
166.67,1569567510.9375
162.82,1569567510.953125
156.23,1569567510.96875
146.45,1569567510.984375
133.1,1569567511.0
116.25,1569567511.015625
96.76,1569567511.03125
76.33,1569567511.046875
57.06,1569567511.0625
40.67,1569567511.078125
27.9,1569567511.09375
18.26,1569567511.109375
10.38,1569567511.125
2.7,1569567511.140625
-5.75,1569567511.15625
-15.21,1569567511.171875
-25.41,1569567511.1875
-36.09,1569567511.203125
-47.38,1569567511.21875
-59.7,1569567511.234375
-73.2,1569567511.25
-87.12,1569567511.265625
-99.55,1569567511.28125
-107.82,1569567511.296875
-109.53,1569567511.3125
-103.59,1569567511.328125
-90.85,1569567511.34375
-73.85,1569567511.359375
-55.92,1569567511.375
-39.98,1569567511.390625
-27.67,1569567511.40625
-19.19,1569567511.421875
-13.79,1569567511.4375
-10.42,1569567511.453125
-8.41,1569567511.46875
-7.55,1569567511.484375
-7.8,1569567511.5
-8.96,1569567511.515625
-10.37,1569567511.53125
-11.03,1569567511.546875
-10.0,1569567511.5625
-6.74,1569567511.578125
-1.39,1569567511.59375
5.27,1569567511.609375
12.2,1569567511.625
18.41,1569567511.640625
23.3,1569567511.65625
26.66,1569567511.671875
28.56,1569567511.6875
29.16,1569567511.703125
28.42,1569567511.71875
26.12,1569567511.734375
21.89,1569567511.75
15.49,1569567511.765625
7.02,1569567511.78125
-2.93,1569567511.796875
-13.36,1569567511.8125
-23.25,1569567511.828125
-31.92,1569567511.84375
-39.45,1569567511.859375
-46.66,1569567511.875
-54.8,1569567511.890625
-64.98,1569567511.90625
-77.67,1569567511.921875
-92.29,1569567511.9375
-107.3,1569567511.953125
-120.54,1569567511.96875
-129.78,1569567511.984375
-133.26,1569567512.0
-130.16,1569567512.015625
-120.83,1569567512.03125
-106.68,1569567512.046875
-89.9,1569567512.0625
-72.93,1569567512.078125
-57.87,1569567512.09375
-46.03,1569567512.109375
-37.76,1569567512.125
-32.63,1569567512.140625
-29.81,1569567512.15625
-28.55,1569567512.171875
-28.41,1569567512.1875
-29.19,1569567512.203125
-30.73,1569567512.21875
-32.69,1569567512.234375
-34.43,1569567512.25
-35.22,1569567512.265625
-34.59,1569567512.28125
-32.55,1569567512.296875
-29.66,1569567512.3125
-26.76,1569567512.328125
-24.58,1569567512.34375
-23.47,1569567512.359375
-23.25,1569567512.375
-23.54,1569567512.390625
-24.11,1569567512.40625
-25.18,1569567512.421875
-27.42,1569567512.4375
-31.68,1569567512.453125
-38.51,1569567512.46875
-47.76,1569567512.484375
-58.51,1569567512.5
-69.33,1569567512.515625
-78.77,1569567512.53125
-85.91,1569567512.546875
-90.71,1569567512.5625
-93.91,1569567512.578125
-96.84,1569567512.59375
-100.89,1569567512.609375
-107.11,1569567512.625
-115.73,1569567512.640625
-125.93,1569567512.65625
-135.76,1569567512.671875
-142.43,1569567512.6875
-143.02,1569567512.703125
-135.45,1569567512.71875
-119.33,1569567512.734375
-96.28,1569567512.75
-69.57,1569567512.765625
-43.02,1569567512.78125
-19.79,1569567512.796875
-1.57,1569567512.8125
11.52,1569567512.828125
20.44,1569567512.84375
26.34,1569567512.859375
29.97,1569567512.875
31.54,1569567512.890625
31.0,1569567512.90625
28.54,1569567512.921875
24.8,1569567512.9375
20.87,1569567512.953125
17.88,1569567512.96875
16.58,1569567512.984375
17.04,1569567513.0
18.69,1569567513.015625
20.64,1569567513.03125
22.08,1569567513.046875
22.59,1569567513.0625
22.25,1569567513.078125
21.45,1569567513.09375
20.5,1569567513.109375
19.33,1569567513.125
17.39,1569567513.140625
13.81,1569567513.15625
7.82,1569567513.171875
-0.81,1569567513.1875
-11.46,1569567513.203125
-22.74,1569567513.21875
-32.96,1569567513.234375
-40.74,1569567513.25
-45.61,1569567513.265625
-48.16,1569567513.28125
-49.87,1569567513.296875
-52.41,1569567513.3125
-57.14,1569567513.328125
-64.54,1569567513.34375
-74.07,1569567513.359375
-84.24,1569567513.375
-92.79,1569567513.390625
-97.24,1569567513.40625
-95.37,1569567513.421875
-85.97,1569567513.4375
-69.33,1569567513.453125
-47.42,1569567513.46875
-23.38,1569567513.484375
-0.62,1569567513.5
18.21,1569567513.515625
31.96,1569567513.53125
40.85,1569567513.546875
46.0,1569567513.5625
48.55,1569567513.578125
49.2,1569567513.59375
48.07,1569567513.609375
45.17,1569567513.625
40.84,1569567513.640625
36.0,1569567513.65625
31.93,1569567513.671875
29.83,1569567513.6875
30.26,1569567513.703125
32.86,1569567513.71875
36.46,1569567513.734375
39.52,1569567513.75
40.73,1569567513.765625
39.46,1569567513.78125
35.85,1569567513.796875
30.57,1569567513.8125
24.26,1569567513.828125
17.24,1569567513.84375
9.27,1569567513.859375
-0.14,1569567513.875
-11.36,1569567513.890625
-24.23,1569567513.90625
-37.99,1569567513.921875
-51.43,1569567513.9375
-63.35,1569567513.953125
-72.93,1569567513.96875
-80.04,1569567513.984375
-85.2,1569567514.0
-89.49,1569567514.015625
-94.2,1569567514.03125
-100.54,1569567514.046875
-109.37,1569567514.0625
-120.81,1569567514.078125
-133.93,1569567514.09375
-146.77,1569567514.109375
-156.59,1569567514.125
-160.67,1569567514.140625
-157.17,1569567514.15625
-146.0,1569567514.171875
-129.01,1569567514.1875
-109.46,1569567514.203125
-91.07,1569567514.21875
-76.72,1569567514.234375
-67.81,1569567514.25
-64.15,1569567514.265625
-64.48,1569567514.28125
-67.29,1569567514.296875
-71.34,1569567514.3125
-75.87,1569567514.328125
-80.54,1569567514.34375
-85.11,1569567514.359375
-89.35,1569567514.375
-92.99,1569567514.390625
-95.79,1569567514.40625
-97.5,1569567514.421875
-97.81,1569567514.4375
-96.3,1569567514.453125
-92.44,1569567514.46875
-85.74,1569567514.484375
-75.95,1569567514.5
-63.21,1569567514.515625
-48.05,1569567514.53125
-31.36,1569567514.546875
-14.19,1569567514.5625
2.32,1569567514.578125
17.23,1569567514.59375
29.94,1569567514.609375
40.51,1569567514.625
49.7,1569567514.640625
58.86,1569567514.65625
69.51,1569567514.671875
82.76,1569567514.6875
98.95,1569567514.703125
117.4,1569567514.71875
136.52,1569567514.734375
154.11,1569567514.75
167.71,1569567514.765625
174.94,1569567514.78125
173.99,1569567514.796875
164.13,1569567514.8125
146.25,1569567514.828125
123.05,1569567514.84375
98.58,1569567514.859375
77.33,1569567514.875
62.87,1569567514.890625
56.98,1569567514.90625
59.37,1569567514.921875
68.14,1569567514.9375
80.79,1569567514.953125
95.04,1569567514.96875
109.17,1569567514.984375
121.96,1569567515.0
132.33,1569567515.015625
139.09,1569567515.03125
141.17,1569567515.046875
138.05,1569567515.0625
130.2,1569567515.078125
119.26,1569567515.09375
107.6,1569567515.109375
97.65,1569567515.125
91.03,1569567515.140625
88.07,1569567515.15625
87.82,1569567515.171875
88.59,1569567515.1875
88.78,1569567515.203125
87.5,1569567515.21875
84.8,1569567515.234375
81.35,1569567515.25
77.87,1569567515.265625
74.51,1569567515.28125
70.72,1569567515.296875
65.41,1569567515.3125
57.59,1569567515.328125
46.84,1569567515.34375
33.66,1569567515.359375
19.27,1569567515.375
5.19,1569567515.390625
-7.35,1569567515.40625
-17.8,1569567515.421875
-26.41,1569567515.4375
-33.93,1569567515.453125
-41.32,1569567515.46875
-49.44,1569567515.484375
-58.96,1569567515.5
-70.16,1569567515.515625
-82.82,1569567515.53125
-95.97,1569567515.546875
-107.83,1569567515.5625
-116.04,1569567515.578125
-118.33,1569567515.59375
-113.35,1569567515.609375
-101.33,1569567515.625
-84.13,1569567515.640625
-64.67,1569567515.65625
-45.99,1569567515.671875
-30.33,1569567515.6875
-18.7,1569567515.703125
-10.99,1569567515.71875
-6.47,1569567515.734375
-4.31,1569567515.75
-3.87,1569567515.765625
-4.64,1569567515.78125
-6.16,1569567515.796875
-7.82,1569567515.8125
-8.94,1569567515.828125
-8.92,1569567515.84375
-7.47,1569567515.859375
-4.68,1569567515.875
-1.05,1569567515.890625
2.79,1569567515.90625
6.28,1569567515.921875
9.16,1569567515.9375
11.41,1569567515.953125
13.15,1569567515.96875
14.39,1569567515.984375
14.82,1569567516.0
13.89,1569567516.015625
11.02,1569567516.03125
5.92,1569567516.046875
-1.16,1569567516.0625
-9.44,1569567516.078125
-17.86,1569567516.09375
-25.46,1569567516.109375
-31.75,1569567516.125
-36.9,1569567516.140625
-41.62,1569567516.15625
-46.9,1569567516.171875
-53.55,1569567516.1875
-61.76,1569567516.203125
-70.88,1569567516.21875
-79.35,1569567516.234375
-85.07,1569567516.25
-85.98,1569567516.265625
-80.6,1569567516.28125
-68.65,1569567516.296875
-51.15,1569567516.3125
-30.17,1569567516.328125
-8.31,1569567516.34375
11.99,1569567516.359375
28.97,1569567516.375
41.78,1569567516.390625
50.38,1569567516.40625
55.26,1569567516.421875
57.07,1569567516.4375
56.4,1569567516.453125
53.73,1569567516.46875
49.61,1569567516.484375
44.74,1569567516.5
39.98,1569567516.515625
36.21,1569567516.53125
33.93,1569567516.546875
33.12,1569567516.5625
33.22,1569567516.578125
33.44,1569567516.59375
33.12,1569567516.609375
31.99,1569567516.625
30.19,1569567516.640625
27.94,1569567516.65625
25.17,1569567516.671875
21.39,1569567516.6875
15.9,1569567516.703125
8.22,1569567516.71875
-1.46,1569567516.734375
-12.24,1569567516.75
-22.78,1569567516.765625
-31.85,1569567516.78125
-38.88,1569567516.796875
-44.15,1569567516.8125
-48.68,1569567516.828125
-53.81,1569567516.84375
-60.76,1569567516.859375
-70.28,1569567516.875
-82.34,1569567516.890625
-95.96,1569567516.90625
-109.23,1569567516.921875
-119.47,1569567516.9375
-123.77,1569567516.953125
-119.83,1569567516.96875
-106.83,1569567516.984375
-85.9,1569567517.0
-59.96,1569567517.015625
-32.87,1569567517.03125
-8.28,1569567517.046875
11.48,1569567517.0625
25.68,1569567517.078125
35.06,1569567517.09375
40.95,1569567517.109375
44.55,1569567517.125
46.49,1569567517.140625
46.8,1569567517.15625
45.43,1569567517.171875
42.6,1569567517.1875
39.05,1569567517.203125
35.79,1569567517.21875
33.72,1569567517.234375
33.18,1569567517.25
33.85,1569567517.265625
34.94,1569567517.28125
35.62,1569567517.296875
35.46,1569567517.3125
34.48,1569567517.328125
33.05,1569567517.34375
31.42,1569567517.359375
29.46,1569567517.375
26.55,1569567517.390625
21.89,1569567517.40625
14.94,1569567517.421875
5.76,1569567517.4375
-4.89,1569567517.453125
-15.77,1569567517.46875
-25.64,1569567517.484375
-33.72,1569567517.5
-39.93,1569567517.515625
-44.88,1569567517.53125
-49.62,1569567517.546875
-55.27,1569567517.5625
-62.68,1569567517.578125
-72.05,1569567517.59375
-82.72,1569567517.609375
-93.01,1569567517.625
-100.49,1569567517.640625
-102.49,1569567517.65625
-96.91,1569567517.671875
-82.99,1569567517.6875
-61.75,1569567517.703125
-35.74,1569567517.71875
-8.34,1569567517.734375
17.26,1569567517.75
38.89,1569567517.765625
55.71,1569567517.78125
67.92,1569567517.796875
76.28,1569567517.8125
81.44,1569567517.828125
83.85,1569567517.84375
83.88,1569567517.859375
82.06,1569567517.875
79.33,1569567517.890625
76.88,1569567517.90625
75.75,1569567517.921875
76.39,1569567517.9375
78.45,1569567517.953125
80.89,1569567517.96875
82.45,1569567517.984375
82.2,1569567518.0
79.94,1569567518.015625
76.19,1569567518.03125
71.79,1569567518.046875
67.34,1569567518.0625
62.81,1569567518.078125
57.54,1569567518.09375
50.59,1569567518.109375
41.3,1569567518.125
29.7,1569567518.140625
16.64,1569567518.15625
3.51,1569567518.171875
-8.28,1569567518.1875
-17.77,1569567518.203125
-24.82,1569567518.21875
-30.02,1569567518.234375
-34.57,1569567518.25
-39.82,1569567518.265625
-46.87,1569567518.28125
-56.23,1569567518.296875
-67.51,1569567518.3125
-79.28,1569567518.328125
-89.25,1569567518.34375
-94.72,1569567518.359375
-93.36,1569567518.375
-84.03,1569567518.390625
-67.26,1569567518.40625
-45.27,1569567518.421875
-21.3,1569567518.4375
1.41,1569567518.453125
20.51,1569567518.46875
34.99,1569567518.484375
45.07,1569567518.5
51.61,1569567518.515625
55.44,1569567518.53125
56.98,1569567518.546875
56.31,1569567518.5625
53.55,1569567518.578125
49.21,1569567518.59375
44.32,1569567518.609375
40.14,1569567518.625
37.68,1569567518.640625
37.28,1569567518.65625
38.47,1569567518.671875
40.18,1569567518.6875
41.21,1569567518.703125
40.78,1569567518.71875
38.76,1569567518.734375
35.66,1569567518.75
32.27,1569567518.765625
29.11,1569567518.78125
26.14,1569567518.796875
22.73,1569567518.8125
17.98,1569567518.828125
11.22,1569567518.84375
2.43,1569567518.859375
-7.6,1569567518.875
-17.53,1569567518.890625
-26.05,1569567518.90625
-32.36,1569567518.921875
-36.51,1569567518.9375
-39.32,1569567518.953125
-42.1,1569567518.96875
-46.11,1569567518.984375
-52.22,1569567519.0
-60.61,1569567519.015625
-70.63,1569567519.03125
-80.78,1569567519.046875
-88.82,1569567519.0625
-92.21,1569567519.078125
-88.77,1569567519.09375
-77.47,1569567519.109375
-58.91,1569567519.125
-35.33,1569567519.140625
-9.98,1569567519.15625
13.88,1569567519.171875
33.85,1569567519.1875
48.84,1569567519.203125
58.91,1569567519.21875
64.72,1569567519.234375
67.01,1569567519.25
66.38,1569567519.265625
63.43,1569567519.28125
58.98,1569567519.296875
54.25,1569567519.3125
50.52,1569567519.328125
48.81,1569567519.34375
49.34,1569567519.359375
51.51,1569567519.375
54.1,1569567519.390625
55.87,1569567519.40625
56.1,1569567519.421875
54.81,1569567519.4375
52.59,1569567519.453125
50.17,1569567519.46875
47.89,1569567519.484375
45.51,1569567519.5
42.28,1569567519.515625
37.34,1569567519.53125
30.21,1569567519.546875
21.07,1569567519.5625
10.79,1569567519.578125
0.6,1569567519.59375
-8.31,1569567519.609375
-15.28,1569567519.625
-20.34,1569567519.640625
-24.2,1569567519.65625
-27.97,1569567519.671875
-32.84,1569567519.6875
-39.69,1569567519.703125
-48.77,1569567519.71875
-59.55,1569567519.734375
-70.54,1569567519.75
-79.47,1569567519.765625
-83.77,1569567519.78125
-81.31,1569567519.796875
-71.21,1569567519.8125
-54.31,1569567519.828125
-33.14,1569567519.84375
-11.02,1569567519.859375
8.87,1569567519.875
24.49,1569567519.890625
35.27,1569567519.90625
41.8,1569567519.921875
45.15,1569567519.9375
46.2,1569567519.953125
45.36,1569567519.96875
42.79,1569567519.984375
38.76,1569567520.0
33.91,1569567520.015625
29.2,1569567520.03125
25.57,1569567520.046875
23.49,1569567520.0625
22.78,1569567520.078125
22.76,1569567520.09375
22.63,1569567520.109375
21.88,1569567520.125
20.55,1569567520.140625
19.09,1569567520.15625
18.01,1569567520.171875
17.58,1569567520.1875
17.61,1569567520.203125
17.41,1569567520.21875
16.19,1569567520.234375
13.37,1569567520.25
8.9,1569567520.265625
3.36,1569567520.28125
-2.23,1569567520.296875
-6.86,1569567520.3125
-9.95,1569567520.328125
-11.68,1569567520.34375
-13.01,1569567520.359375
-15.32,1569567520.375
-20.06,1569567520.390625
-28.25,1569567520.40625
-40.17,1569567520.421875
-55.05,1569567520.4375
-71.08,1569567520.453125
-85.43,1569567520.46875
-94.85,1569567520.484375
-96.51,1569567520.5
-88.96,1569567520.515625
-72.91,1569567520.53125
-51.17,1569567520.546875
-27.76,1569567520.5625
-6.57,1569567520.578125
9.84,1569567520.59375
20.85,1569567520.609375
27.4,1569567520.625
31.04,1569567520.640625
33.03,1569567520.65625
33.86,1569567520.671875
33.49,1569567520.6875
31.84,1569567520.703125
29.35,1569567520.71875
27.04,1569567520.734375
26.13,1569567520.75
27.52,1569567520.765625
31.34,1569567520.78125
36.84,1569567520.796875
42.73,1569567520.8125
47.8,1569567520.828125
51.36,1569567520.84375
53.47,1569567520.859375
54.71,1569567520.875
55.69,1569567520.890625
56.59,1569567520.90625
56.93,1569567520.921875
55.76,1569567520.9375
52.15,1569567520.953125
45.72,1569567520.96875
36.93,1569567520.984375
27.0,1569567521.0
17.43,1569567521.015625
9.49,1569567521.03125
3.73,1569567521.046875
-0.1,1569567521.0625
-2.8,1569567521.078125
-5.43,1569567521.09375
-8.96,1569567521.109375
-14.06,1569567521.125
-20.94,1569567521.140625
-29.18,1569567521.15625
-37.52,1569567521.171875
-43.93,1569567521.1875
-45.96,1569567521.203125
-41.55,1569567521.21875
-29.91,1569567521.234375
-12.05,1569567521.25
9.28,1569567521.265625
30.52,1569567521.28125
48.45,1569567521.296875
61.18,1569567521.3125
68.52,1569567521.328125
71.46,1569567521.34375
71.37,1569567521.359375
69.17,1569567521.375
65.1,1569567521.390625
58.98,1569567521.40625
50.79,1569567521.421875
41.15,1569567521.4375
31.41,1569567521.453125
23.2,1569567521.46875
17.78,1569567521.484375
15.5,1569567521.5
15.76,1569567521.515625
17.3,1569567521.53125
18.78,1569567521.546875
19.38,1569567521.5625
18.91,1569567521.578125
17.67,1569567521.59375
16.03,1569567521.609375
14.21,1569567521.625
12.06,1569567521.640625
9.22,1569567521.65625
5.25,1569567521.671875
-0.08,1569567521.6875
-6.78,1569567521.703125
-14.49,1569567521.71875
-22.6,1569567521.734375
-30.25,1569567521.75
-36.68,1569567521.765625
-41.44,1569567521.78125
-44.67,1569567521.796875
-47.14,1569567521.8125
-50.07,1569567521.828125
-54.71,1569567521.84375
-61.9,1569567521.859375
-71.64,1569567521.875
-82.86,1569567521.890625
-93.39,1569567521.90625
-100.34,1569567521.921875
-100.86,1569567521.9375
-93.05,1569567521.953125
-76.72,1569567521.96875
-53.72,1569567521.984375
-27.39,1569567522.0
-1.54,1569567522.015625
20.78,1569567522.03125
37.98,1569567522.046875
50.05,1569567522.0625
57.88,1569567522.078125
62.46,1569567522.09375
64.31,1569567522.109375
63.53,1569567522.125
60.24,1569567522.140625
55.03,1569567522.15625
49.08,1569567522.171875
43.87,1569567522.1875
40.56,1569567522.203125
39.55,1569567522.21875
40.28,1569567522.234375
41.59,1569567522.25
42.27,1569567522.265625
41.6,1569567522.28125
39.54,1569567522.296875
36.7,1569567522.3125
33.8,1569567522.328125
31.22,1569567522.34375
28.57,1569567522.359375
24.86,1569567522.375
18.83,1569567522.390625
9.63,1569567522.40625
-2.65,1569567522.421875
-16.93,1569567522.4375
-31.33,1569567522.453125
-43.96,1569567522.46875
-53.53,1569567522.484375
-59.89,1569567522.5
-63.95,1569567522.515625
-67.38,1569567522.53125
-72.03,1569567522.546875
-79.37,1569567522.5625
-90.08,1569567522.578125
-103.72,1569567522.59375
-118.62,1569567522.609375
-131.99,1569567522.625
-140.48,1569567522.640625
-140.96,1569567522.65625
-131.55,1569567522.671875
-112.38,1569567522.6875
-85.69,1569567522.703125
-55.3,1569567522.71875
-25.41,1569567522.734375
0.48,1569567522.75
20.44,1569567522.765625
34.19,1569567522.78125
42.58,1569567522.796875
46.9,1569567522.8125
48.21,1569567522.828125
47.24,1569567522.84375
44.46,1569567522.859375
40.42,1569567522.875
35.94,1569567522.890625
32.05,1569567522.90625
29.61,1569567522.921875
28.98,1569567522.9375
29.79,1569567522.953125
31.03,1569567522.96875
31.51,1569567522.984375
30.35,1569567523.0
27.42,1569567523.015625
23.3,1569567523.03125
18.88,1569567523.046875
14.79,1569567523.0625
10.92,1569567523.078125
6.37,1569567523.09375
-0.13,1569567523.109375
-9.45,1569567523.125
-21.57,1569567523.140625
-35.27,1569567523.15625
-48.7,1569567523.171875
-60.03,1569567523.1875
-68.22,1569567523.203125
-73.36,1569567523.21875
-76.53,1569567523.234375
-79.25,1569567523.25
-83.04,1569567523.265625
-88.99,1569567523.28125
-97.5,1569567523.296875
-108.15,1569567523.3125
-119.41,1569567523.328125
-128.74,1569567523.34375
-132.91,1569567523.359375
-129.0,1569567523.375
-115.41,1569567523.390625
-92.69,1569567523.40625
-63.63,1569567523.421875
-32.33,1569567523.4375
-2.91,1569567523.453125
21.68,1569567523.46875
40.27,1569567523.484375
53.2,1569567523.5
61.56,1569567523.515625
66.36,1569567523.53125
68.25,1569567523.546875
67.53,1569567523.5625
64.54,1569567523.578125
59.98,1569567523.59375
54.88,1569567523.609375
50.42,1569567523.625
47.54,1569567523.640625
46.57,1569567523.65625
47.19,1569567523.671875
48.52,1569567523.6875
49.51,1569567523.703125
49.29,1569567523.71875
47.54,1569567523.734375
44.51,1569567523.75
40.82,1569567523.765625
37.03,1569567523.78125
33.25,1569567523.796875
28.94,1569567523.8125
23.12,1569567523.828125
14.94,1569567523.84375
4.11,1569567523.859375
-8.68,1569567523.875
-22.03,1569567523.890625
-34.25,1569567523.90625
-44.08,1569567523.921875
-51.18,1569567523.9375
-56.15,1569567523.953125
-60.32,1569567523.96875
-65.17,1569567523.984375
-71.89,1569567524.0
-81.01,1569567524.015625
-92.08,1569567524.03125
-103.59,1569567524.046875
-113.04,1569567524.0625
-117.38,1569567524.078125
-113.75,1569567524.09375
-100.57,1569567524.109375
-78.2,1569567524.125
-49.27,1569567524.140625
-17.87,1569567524.15625
11.68,1569567524.171875
36.12,1569567524.1875
54.09,1569567524.203125
65.99,1569567524.21875
73.24,1569567524.234375
77.22,1569567524.25
78.7,1569567524.265625
77.76,1569567524.28125
74.32,1569567524.296875
68.75,1569567524.3125
62.18,1569567524.328125
56.24,1569567524.34375
52.46,1569567524.359375
51.57,1569567524.375
53.22,1569567524.390625
56.16,1569567524.40625
58.84,1569567524.421875
60.1,1569567524.4375
59.57,1569567524.453125
57.63,1569567524.46875
55.02,1569567524.484375
52.3,1569567524.5
49.51,1569567524.515625
46.07,1569567524.53125
41.15,1569567524.546875
34.1,1569567524.5625
24.79,1569567524.578125
13.89,1569567524.59375
2.61,1569567524.609375
-7.72,1569567524.625
-16.17,1569567524.640625
-22.55,1569567524.65625
-27.51,1569567524.671875
-32.22,1569567524.6875
-37.89,1569567524.703125
-45.45,1569567524.71875
-55.23,1569567524.734375
-66.98,1569567524.75
-79.76,1569567524.765625
-91.91,1569567524.78125
-101.07,1569567524.796875
-104.52,1569567524.8125
-99.91,1569567524.828125
-86.13,1569567524.84375
-64.09,1569567524.859375
-36.68,1569567524.875
-7.97,1569567524.890625
18.13,1569567524.90625
39.03,1569567524.921875
54.04,1569567524.9375
63.93,1569567524.953125
70.0,1569567524.96875
73.22,1569567524.984375
73.82,1569567525.0
71.75,1569567525.015625
67.22,1569567525.03125
61.2,1569567525.046875
55.42,1569567525.0625
51.65,1569567525.078125
50.96,1569567525.09375
53.27,1569567525.109375
57.38,1569567525.125
61.59,1569567525.140625
64.47,1569567525.15625
65.39,1569567525.171875
64.53,1569567525.1875
62.55,1569567525.203125
59.89,1569567525.21875
56.55,1569567525.234375
51.89,1569567525.25
45.1,1569567525.265625
35.72,1569567525.28125
23.92,1569567525.296875
10.73,1569567525.3125
-2.29,1569567525.328125
-13.62,1569567525.34375
-22.32,1569567525.359375
-28.41,1569567525.375
-32.87,1569567525.390625
-37.3,1569567525.40625
-43.41,1569567525.421875
-52.49,1569567525.4375
-64.96,1569567525.453125
-80.11,1569567525.46875
-96.0,1569567525.484375
-109.72,1569567525.5
-117.91,1569567525.515625
-117.66,1569567525.53125
-107.46,1569567525.546875
-87.8,1569567525.5625
-61.28,1569567525.578125
-31.83,1569567525.59375
-3.61,1569567525.609375
20.21,1569567525.625
38.06,1569567525.640625
50.0,1569567525.65625
57.03,1569567525.671875
60.28,1569567525.6875
60.58,1569567525.703125
58.27,1569567525.71875
53.63,1569567525.734375
47.25,1569567525.75
40.17,1569567525.765625
33.69,1569567525.78125
28.89,1569567525.796875
26.15,1569567525.8125
25.02,1569567525.828125
24.48,1569567525.84375
23.43,1569567525.859375
21.25,1569567525.875
18.0,1569567525.890625
14.21,1569567525.90625
10.41,1569567525.921875
6.59,1569567525.9375
2.14,1569567525.953125
-3.92,1569567525.96875
-12.34,1569567525.984375
-23.11,1569567526.0
-35.31,1569567526.015625
-47.43,1569567526.03125
-57.93,1569567526.046875
-65.89,1569567526.0625
-71.33,1569567526.078125
-75.12,1569567526.09375
-78.6,1569567526.109375
-83.1,1569567526.125
-89.59,1569567526.140625
-98.5,1569567526.15625
-109.47,1569567526.171875
-121.23,1569567526.1875
-131.41,1569567526.203125
-136.88,1569567526.21875
-134.34,1569567526.234375
-121.6,1569567526.25
-98.39,1569567526.265625
-66.91,1569567526.28125
-31.16,1569567526.296875
4.28,1569567526.3125
35.67,1569567526.328125
61.09,1569567526.34375
80.51,1569567526.359375
95.09,1569567526.375
106.28,1569567526.390625
115.02,1569567526.40625
121.68,1569567526.421875
126.31,1569567526.4375
129.08,1569567526.453125
130.65,1569567526.46875
132.01,1569567526.484375
134.16,1569567526.5
137.55,1569567526.515625
141.85,1569567526.53125
145.96,1569567526.546875
148.45,1569567526.5625
148.12,1569567526.578125
144.44,1569567526.59375
137.7,1569567526.609375
128.73,1569567526.625
118.37,1569567526.640625
107.02,1569567526.65625
94.49,1569567526.671875
80.22,1569567526.6875
63.78,1569567526.703125
45.36,1569567526.71875
25.87,1569567526.734375
6.8,1569567526.75
-10.43,1569567526.765625
-24.98,1569567526.78125
-36.98,1569567526.796875
-47.46,1569567526.8125
-57.97,1569567526.828125
-70.0,1569567526.84375
-84.48,1569567526.859375
-101.44,1569567526.875
-119.85,1569567526.890625
-137.65,1569567526.90625
-151.9,1569567526.921875
-159.39,1569567526.9375
-157.4,1569567526.953125
-144.65,1569567526.96875
-121.98,1569567526.984375
-92.29,1569567527.0
-59.9,1569567527.015625
-29.1,1569567527.03125
-3.04,1569567527.046875
16.97,1569567527.0625
31.22,1569567527.078125
40.87,1569567527.09375
46.93,1569567527.109375
49.92,1569567527.125
49.93,1569567527.140625
47.09,1569567527.15625
42.11,1569567527.171875
36.34,1569567527.1875
31.47,1569567527.203125
28.91,1569567527.21875
29.26,1569567527.234375
32.09,1569567527.25
36.16,1569567527.265625
39.88,1569567527.28125
42.02,1569567527.296875
41.99,1569567527.3125
39.99,1569567527.328125
36.69,1569567527.34375
32.67,1569567527.359375
28.06,1569567527.375
22.31,1569567527.390625
14.49,1569567527.40625
3.9,1569567527.421875
-9.41,1569567527.4375
-24.33,1569567527.453125
-38.98,1569567527.46875
-51.33,1569567527.484375
-60.01,1569567527.5
-64.91,1569567527.515625
-67.16,1569567527.53125
-68.71,1569567527.546875
-71.67,1569567527.5625
-77.62,1569567527.578125
-87.16,1569567527.59375
-99.72,1569567527.609375
-113.51,1569567527.625
-125.73,1569567527.640625
-133.0,1569567527.65625
-132.19,1569567527.671875
-121.39,1569567527.6875
-100.74,1569567527.703125
-72.63,1569567527.71875
-41.1,1569567527.734375
-10.56,1569567527.75
15.57,1569567527.765625
35.67,1569567527.78125
49.9,1569567527.796875
59.42,1569567527.8125
65.37,1569567527.828125
68.29,1569567527.84375
68.19,1569567527.859375
65.07,1569567527.875
59.63,1569567527.890625
53.35,1569567527.90625
48.09,1569567527.921875
45.35,1569567527.9375
45.59,1569567527.953125
48.01,1569567527.96875
51.02,1569567527.984375
52.99,1569567528.0
52.98,1569567528.015625
51.01,1569567528.03125
47.92,1569567528.046875
44.68,1569567528.0625
41.83,1569567528.078125
39.08,1569567528.09375
35.49,1569567528.109375
29.89,1569567528.125
21.62,1569567528.140625
10.84,1569567528.15625
-1.38,1569567528.171875
-13.42,1569567528.1875
-23.74,1569567528.203125
-31.43,1569567528.21875
-36.58,1569567528.234375
-40.19,1569567528.25
-43.82,1569567528.265625
-49.01,1569567528.28125
-56.88,1569567528.296875
-67.64,1569567528.3125
-80.43,1569567528.328125
-93.24,1569567528.34375
-103.18,1569567528.359375
-107.07,1569567528.375
-102.29,1569567528.390625
-87.73,1569567528.40625
-64.29,1569567528.421875
-34.85,1569567528.4375
-3.42,1569567528.453125
25.96,1569567528.46875
50.36,1569567528.484375
68.4,1569567528.5
80.12,1569567528.515625
86.33,1569567528.53125
88.05,1569567528.546875
86.09,1569567528.5625
81.17,1569567528.578125
74.2,1569567528.59375
66.43,1569567528.609375
59.37,1569567528.625
54.34,1569567528.640625
52.1,1569567528.65625
52.5,1569567528.671875
54.56,1569567528.6875
56.86,1569567528.703125
58.18,1569567528.71875
57.92,1569567528.734375
56.25,1569567528.75
53.8,1569567528.765625
51.06,1569567528.78125
47.96,1569567528.796875
43.7,1569567528.8125
37.13,1569567528.828125
27.44,1569567528.84375
14.73,1569567528.859375
0.2,1569567528.875
-14.22,1569567528.890625
-26.58,1569567528.90625
-35.67,1569567528.921875
-41.45,1569567528.9375
-45.07,1569567528.953125
-48.34,1569567528.96875
-53.21,1569567528.984375
-61.18,1569567529.0
-72.8,1569567529.015625
-87.42,1569567529.03125
-103.01,1569567529.046875
-116.35,1569567529.0625
-123.69,1569567529.078125
-121.76,1569567529.09375
-108.96,1569567529.109375
-86.15,1569567529.125
-56.55,1569567529.140625
-24.77,1569567529.15625
4.65,1569567529.171875
28.63,1569567529.1875
46.08,1569567529.203125
57.58,1569567529.21875
64.51,1569567529.234375
68.05,1569567529.25
68.8,1569567529.265625
66.97,1569567529.28125
62.95,1569567529.296875
57.68,1569567529.3125
52.65,1569567529.328125
49.38,1569567529.34375
48.83,1569567529.359375
50.9,1569567529.375
54.52,1569567529.390625
58.11,1569567529.40625
60.29,1569567529.421875
60.42,1569567529.4375
58.71,1569567529.453125
56.0,1569567529.46875
53.1,1569567529.484375
50.3,1569567529.5
47.06,1569567529.515625
42.23,1569567529.53125
34.66,1569567529.546875
23.8,1569567529.5625
10.07,1569567529.578125
-5.02,1569567529.59375
-19.52,1569567529.609375
-31.63,1569567529.625
-40.44,1569567529.640625
-46.25,1569567529.65625
-50.44,1569567529.671875
-54.92,1569567529.6875
-61.56,1569567529.703125
-71.53,1569567529.71875
-84.93,1569567529.734375
-100.48,1569567529.75
-115.63,1569567529.765625
-126.88,1569567529.78125
-130.56,1569567529.796875
-123.99,1569567529.8125
-106.35,1569567529.828125
-79.3,1569567529.84375
-46.7,1569567529.859375
-13.41,1569567529.875
16.1,1569567529.890625
39.06,1569567529.90625
54.82,1569567529.921875
64.42,1569567529.9375
69.64,1569567529.953125
71.99,1569567529.96875
72.26,1569567529.984375
70.71,1569567530.0
67.48,1569567530.015625
63.14,1569567530.03125
58.72,1569567530.046875
55.43,1569567530.0625
54.02,1569567530.078125
54.46,1569567530.09375
55.84,1569567530.109375
56.79,1569567530.125
56.15,1569567530.140625
53.46,1569567530.15625
49.11,1569567530.171875
44.06,1569567530.1875
39.32,1569567530.203125
35.31,1569567530.21875
31.66,1569567530.234375
27.34,1569567530.25
21.16,1569567530.265625
12.31,1569567530.28125
0.85,1569567530.296875
-12.24,1569567530.3125
-25.36,1569567530.328125
-36.87,1569567530.34375
-45.76,1569567530.359375
-52.06,1569567530.375
-56.81,1569567530.390625
-61.73,1569567530.40625
-68.57,1569567530.421875
-78.44,1569567530.4375
-91.48,1569567530.453125
-106.67,1569567530.46875
-121.95,1569567530.484375
-134.53,1569567530.5
-141.26,1569567530.515625
-139.39,1569567530.53125
-127.27,1569567530.546875
-105.16,1569567530.5625
-75.38,1569567530.578125
-41.98,1569567530.59375
-9.59,1569567530.609375
17.92,1569567530.625
38.43,1569567530.640625
51.81,1569567530.65625
59.31,1569567530.671875
62.59,1569567530.6875
62.95,1569567530.703125
61.02,1569567530.71875
57.2,1569567530.734375
52.07,1569567530.75
46.75,1569567530.765625
42.74,1569567530.78125
41.3,1569567530.796875
42.86,1569567530.8125
46.77,1569567530.828125
51.57,1569567530.84375
55.57,1569567530.859375
57.6,1569567530.875
57.33,1569567530.890625
55.21,1569567530.90625
52.0,1569567530.921875
48.28,1569567530.9375
44.1,1569567530.953125
39.04,1569567530.96875
32.48,1569567530.984375
24.0,1569567531.0
13.71,1569567531.015625
2.26,1569567531.03125
-9.31,1569567531.046875
-19.92,1569567531.0625
-28.75,1569567531.078125
-35.48,1569567531.09375
-40.37,1569567531.109375
-44.06,1569567531.125
-47.48,1569567531.140625
-51.62,1569567531.15625
-57.37,1569567531.171875
-65.35,1569567531.1875
-75.61,1569567531.203125
-87.32,1569567531.21875
-98.53,1569567531.234375
-106.37,1569567531.25
-107.74,1569567531.265625
-100.24,1569567531.28125
-83.24,1569567531.296875
-58.29,1569567531.3125
-28.8,1569567531.328125
0.98,1569567531.34375
27.32,1569567531.359375
47.94,1569567531.375
62.32,1569567531.390625
71.2,1569567531.40625
75.79,1569567531.421875
77.03,1569567531.4375
75.44,1569567531.453125
71.28,1569567531.46875
65.09,1569567531.484375
57.95,1569567531.5
51.45,1569567531.515625
47.13,1569567531.53125
45.81,1569567531.546875
47.33,1569567531.5625
50.46,1569567531.578125
53.55,1569567531.59375
55.14,1569567531.609375
54.53,1569567531.625
51.94,1569567531.640625
48.13,1569567531.65625
43.95,1569567531.671875
39.76,1569567531.6875
35.29,1569567531.703125
29.8,1569567531.71875
22.49,1569567531.734375
13.02,1569567531.75
1.73,1569567531.765625
-10.32,1569567531.78125
-21.74,1569567531.796875
-31.34,1569567531.8125
-38.63,1569567531.828125
-43.93,1569567531.84375
-48.31,1569567531.859375
-53.11,1569567531.875
-59.52,1569567531.890625
-68.25,1569567531.90625
-79.22,1569567531.921875
-91.57,1569567531.9375
-103.55,1569567531.953125
-112.64,1569567531.96875
-115.93,1569567531.984375
-110.85,1569567532.0
-96.15,1569567532.015625
-72.53,1569567532.03125
-42.87,1569567532.046875
-11.42,1569567532.0625
17.53,1569567532.078125
40.94,1569567532.09375
57.73,1569567532.109375
68.61,1569567532.125
75.16,1569567532.140625
78.74,1569567532.15625
79.96,1569567532.171875
78.71,1569567532.1875
74.89,1569567532.203125
69.0,1569567532.21875
62.4,1569567532.234375
56.9,1569567532.25
53.91,1569567532.265625
53.83,1569567532.28125
55.77,1569567532.296875
58.11,1569567532.3125
59.22,1569567532.328125
58.25,1569567532.34375
55.36,1569567532.359375
51.38,1569567532.375
47.18,1569567532.390625
43.11,1569567532.40625
38.77,1569567532.421875
33.29,1569567532.4375
25.83,1569567532.453125
16.05,1569567532.46875
4.38,1569567532.484375
-8.13,1569567532.5
-20.19,1569567532.515625
-30.75,1569567532.53125
-39.26,1569567532.546875
-45.89,1569567532.5625
-51.39,1569567532.578125
-56.84,1569567532.59375
-63.38,1569567532.609375
-71.87,1569567532.625
-82.69,1569567532.640625
-95.43,1569567532.65625
-108.74,1569567532.671875
-120.18,1569567532.6875
-126.6,1569567532.703125
-125.01,1569567532.71875
-113.52,1569567532.734375
-92.3,1569567532.75
-63.77,1569567532.765625
-32.05,1569567532.78125
-1.66,1569567532.796875
23.85,1569567532.8125
42.77,1569567532.828125
55.28,1569567532.84375
62.71,1569567532.859375
66.68,1569567532.875
68.27,1569567532.890625
67.91,1569567532.90625
65.65,1569567532.921875
61.76,1569567532.9375
56.97,1569567532.953125
52.47,1569567532.96875
49.49,1569567532.984375
48.74,1569567533.0
50.1,1569567533.015625
52.62,1569567533.03125
54.97,1569567533.046875
55.99,1569567533.0625
55.19,1569567533.078125
52.77,1569567533.09375
49.38,1569567533.109375
45.64,1569567533.125
41.73,1569567533.140625
37.35,1569567533.15625
31.85,1569567533.171875
24.61,1569567533.1875
15.45,1569567533.203125
4.73,1569567533.21875
-6.62,1569567533.234375
-17.44,1569567533.25
-26.71,1569567533.265625
-33.91,1569567533.28125
-39.18,1569567533.296875
-43.34,1569567533.3125
-47.58,1569567533.328125
-53.18,1569567533.34375
-61.13,1569567533.359375
-71.85,1569567533.375
-84.89,1569567533.390625
-98.82,1569567533.40625
-111.2,1569567533.421875
-118.89,1569567533.4375
-118.84,1569567533.453125
-109.05,1569567533.46875
-89.54,1569567533.484375
-62.56,1569567533.5
-32.11,1569567533.515625
-2.73,1569567533.53125
21.96,1569567533.546875
40.16,1569567533.5625
52.03,1569567533.578125
59.0,1569567533.59375
62.78,1569567533.609375
64.5,1569567533.625
64.5,1569567533.640625
62.65,1569567533.65625
58.94,1569567533.671875
53.91,1569567533.6875
48.69,1569567533.703125
44.64,1569567533.71875
42.77,1569567533.734375
43.25,1569567533.75
45.35,1569567533.765625
47.77,1569567533.78125
49.24,1569567533.796875
48.99,1569567533.8125
47.01,1569567533.828125
43.87,1569567533.84375
40.21,1569567533.859375
36.32,1569567533.875
31.96,1569567533.890625
26.46,1569567533.90625
19.12,1569567533.921875
9.64,1569567533.9375
-1.59,1569567533.953125
-13.6,1569567533.96875
-25.02,1569567533.984375
-34.7,1569567534.0
-42.0,1569567534.015625
-47.16,1569567534.03125
-51.08,1569567534.046875
-55.11,1569567534.0625
-60.57,1569567534.078125
-68.37,1569567534.09375
-78.83,1569567534.109375
-91.41,1569567534.125
-104.68,1569567534.140625
-116.34,1569567534.15625
-123.46,1569567534.171875
-123.23,1569567534.1875
-113.79,1569567534.203125
-95.02,1569567534.21875
-68.95,1569567534.234375
-39.28,1569567534.25
-10.25,1569567534.265625
14.6,1569567534.28125
33.41,1569567534.296875
46.07,1569567534.3125
53.71,1569567534.328125
57.72,1569567534.34375
59.01,1569567534.359375
57.94,1569567534.375
54.61,1569567534.390625
49.44,1569567534.40625
43.53,1569567534.421875
38.37,1569567534.4375
35.48,1569567534.453125
35.58,1569567534.46875
38.39,1569567534.484375
42.64,1569567534.5
46.62,1569567534.515625
48.92,1569567534.53125
48.91,1569567534.546875
46.89,1569567534.5625
43.73,1569567534.578125
40.3,1569567534.59375
36.96,1569567534.609375
33.37,1569567534.625
28.76,1569567534.640625
22.34,1569567534.65625
13.92,1569567534.671875
4.05,1569567534.6875
-6.06,1569567534.703125
-15.02,1569567534.71875
-21.79,1569567534.734375
-26.18,1569567534.75
-28.79,1569567534.765625
-30.92,1569567534.78125
-34.03,1569567534.796875
-39.38,1569567534.8125
-47.69,1569567534.828125
-58.82,1569567534.84375
-71.57,1569567534.859375
-83.67,1569567534.875
-92.1,1569567534.890625
-93.81,1569567534.90625
-86.73,1569567534.921875
-70.66,1569567534.9375
-47.46,1569567534.953125
-20.59,1569567534.96875
6.0,1569567534.984375
29.08,1569567535.0
46.92,1569567535.015625
59.33,1569567535.03125
67.12,1569567535.046875
71.26,1569567535.0625
72.34,1569567535.078125
70.63,1569567535.09375
66.33,1569567535.109375
60.06,1569567535.125
53.03,1569567535.140625
46.83,1569567535.15625
42.86,1569567535.171875
41.88,1569567535.1875
43.63,1569567535.203125
46.95,1569567535.21875
50.33,1569567535.234375
52.44,1569567535.25
52.69,1569567535.265625
51.26,1569567535.28125
48.78,1569567535.296875
45.86,1569567535.3125
42.57,1569567535.328125
38.39,1569567535.34375
32.45,1569567535.359375
24.06,1569567535.375
13.2,1569567535.390625
0.76,1569567535.40625
-11.79,1569567535.421875
-22.9,1569567535.4375
-31.6,1569567535.453125
-37.83,1569567535.46875
-42.47,1569567535.484375
-46.94,1569567535.5
-52.71,1569567535.515625
-60.84,1569567535.53125
-71.67,1569567535.546875
-84.6,1569567535.5625
-98.03,1569567535.578125
-109.5,1569567535.59375
-116.12,1569567535.609375
-115.2,1569567535.625
-105.19,1569567535.640625
-86.35,1569567535.65625
-60.9,1569567535.671875
-32.44,1569567535.6875
-4.96,1569567535.703125
18.43,1569567535.71875
36.15,1569567535.734375
48.19,1569567535.75
55.56,1569567535.765625
59.44,1569567535.78125
60.66,1569567535.796875
59.56,1569567535.8125
56.3,1569567535.828125
51.35,1569567535.84375
45.7,1569567535.859375
40.75,1569567535.875
37.78,1569567535.890625
37.37,1569567535.90625
39.08,1569567535.921875
41.62,1569567535.9375
43.45,1569567535.953125
43.55,1569567535.96875
41.85,1569567535.984375
39.1,1569567536.0
36.35,1569567536.015625
34.21,1569567536.03125
32.37,1569567536.046875
29.76,1569567536.0625
25.11,1569567536.078125
17.66,1569567536.09375
7.64,1569567536.109375
-3.76,1569567536.125
-14.87,1569567536.140625
-24.23,1569567536.15625
-31.1,1569567536.171875
-35.68,1569567536.1875
-38.94,1569567536.203125
-42.22,1569567536.21875
-46.91,1569567536.234375
-54.04,1569567536.25
-64.18,1569567536.265625
-77.1,1569567536.28125
-91.54,1569567536.296875
-105.06,1569567536.3125
-114.38,1569567536.328125
-116.15,1569567536.34375
-108.05,1569567536.359375
-89.83,1569567536.375
-63.62,1569567536.390625
-33.37,1569567536.40625
-3.66,1569567536.421875
21.83,1569567536.4375
41.13,1569567536.453125
54.18,1569567536.46875
62.15,1569567536.484375
66.54,1569567536.5
68.37,1569567536.515625
68.12,1569567536.53125
65.94,1569567536.546875
62.19,1569567536.5625
57.66,1569567536.578125
53.56,1569567536.59375
51.01,1569567536.609375
50.68,1569567536.625
52.38,1569567536.640625
55.17,1569567536.65625
57.66,1569567536.671875
58.6,1569567536.6875
57.32,1569567536.703125
53.99,1569567536.71875
49.43,1569567536.734375
44.59,1569567536.75
40.1,1569567536.765625
35.78,1569567536.78125
30.79,1569567536.796875
24.05,1569567536.8125
14.85,1569567536.828125
3.36,1569567536.84375
-9.33,1569567536.859375
-21.58,1569567536.875
-31.93,1569567536.890625
-39.72,1569567536.90625
-45.31,1569567536.921875
-49.89,1569567536.9375
-54.96,1569567536.953125
-61.81,1569567536.96875
-71.09,1569567536.984375
-82.79,1569567537.0
-96.06,1569567537.015625
-109.23,1569567537.03125
-119.83,1569567537.046875
-125.01,1569567537.0625
-122.16,1569567537.078125
-109.86,1569567537.09375
-88.58,1569567537.109375
-60.8,1569567537.125
-30.46,1569567537.140625
-1.78,1569567537.15625
21.97,1569567537.171875
39.21,1569567537.1875
50.09,1569567537.203125
55.89,1569567537.21875
58.12,1569567537.234375
57.9,1569567537.25
55.77,1569567537.265625
52.03,1569567537.28125
47.16,1569567537.296875
42.08,1569567537.3125
38.06,1569567537.328125
36.21,1569567537.34375
36.98,1569567537.359375
39.85,1569567537.375
43.51,1569567537.390625
46.42,1569567537.40625
47.42,1569567537.421875
46.26,1569567537.4375
43.54,1569567537.453125
40.27,1569567537.46875
37.27,1569567537.484375
34.62,1569567537.5
31.68,1569567537.515625
27.39,1569567537.53125
20.9,1569567537.546875
12.11,1569567537.5625
1.85,1569567537.578125
-8.44,1569567537.59375
-17.32,1569567537.609375
-23.95,1569567537.625
-28.45,1569567537.640625
-31.78,1569567537.65625
-35.37,1569567537.671875
-40.51,1569567537.6875
-48.03,1569567537.703125
-58.11,1569567537.71875
-70.2,1569567537.734375
-82.99,1569567537.75
-94.42,1569567537.765625
-101.91,1569567537.78125
-102.89,1569567537.796875
-95.61,1569567537.8125
-79.9,1569567537.828125
-57.48,1569567537.84375
-31.52,1569567537.859375
-5.64,1569567537.875
17.18,1569567537.890625
35.36,1569567537.90625
48.73,1569567537.921875
57.92,1569567537.9375
63.71,1569567537.953125
66.48,1569567537.96875
66.31,1569567537.984375
63.33,1569567538.0
58.25,1569567538.015625
52.36,1569567538.03125
47.3,1569567538.046875
44.44,1569567538.0625
44.46,1569567538.078125
47.07,1569567538.09375
51.28,1569567538.109375
55.8,1569567538.125
59.56,1569567538.140625
62.06,1569567538.15625
63.35,1569567538.171875
63.86,1569567538.1875
63.93,1569567538.203125
63.53,1569567538.21875
62.13,1569567538.234375
58.83,1569567538.25
52.82,1569567538.265625
43.74,1569567538.28125
32.06,1569567538.296875
18.94,1569567538.3125
5.83,1569567538.328125
-6.07,1569567538.34375
-16.34,1569567538.359375
-25.35,1569567538.375
-34.12,1569567538.390625
-43.74,1569567538.40625
-55.08,1569567538.421875
-68.37,1569567538.4375
-83.05,1569567538.453125
-97.71,1569567538.46875
-110.04,1569567538.484375
-117.24,1569567538.5
-116.62,1569567538.515625
-106.59,1569567538.53125
-87.42,1569567538.546875
-61.51,1569567538.5625
-32.79,1569567538.578125
-5.5,1569567538.59375
17.09,1569567538.609375
33.59,1569567538.625
44.36,1569567538.640625
50.75,1569567538.65625
54.13,1569567538.671875
55.25,1569567538.6875
54.2,1569567538.703125
50.96,1569567538.71875
45.95,1569567538.734375
40.26,1569567538.75
35.37,1569567538.765625
32.56,1569567538.78125
32.34,1569567538.796875
34.25,1569567538.8125
37.06,1569567538.828125
39.36,1569567538.84375
40.14,1569567538.859375
39.15,1569567538.875
36.8,1569567538.890625
33.8,1569567538.90625
30.66,1569567538.921875
27.34,1569567538.9375
23.31,1569567538.953125
17.81,1569567538.96875
10.46,1569567538.984375
1.47,1569567539.0
-8.22,1569567539.015625
-17.32,1569567539.03125
-24.73,1569567539.046875
-29.93,1569567539.0625
-33.22,1569567539.078125
-35.54,1569567539.09375
-38.1,1569567539.109375
-42.0,1569567539.125
-48.0,1569567539.140625
-56.29,1569567539.15625
-66.47,1569567539.171875
-77.36,1569567539.1875
-86.99,1569567539.203125
-92.73,1569567539.21875
-91.92,1569567539.234375
-82.64,1569567539.25
-64.65,1569567539.265625
-39.68,1569567539.28125
-11.07,1569567539.296875
17.21,1569567539.3125
41.85,1569567539.328125
61.06,1569567539.34375
74.74,1569567539.359375
83.86,1569567539.375
89.61,1569567539.390625
92.67,1569567539.40625
93.16,1569567539.421875
91.06,1569567539.4375
86.8,1569567539.453125
81.54,1569567539.46875
76.85,1569567539.484375
74.01,1569567539.5
73.26,1569567539.515625
73.58,1569567539.53125
73.12,1569567539.546875
70.05,1569567539.5625
63.52,1569567539.578125
54.11,1569567539.59375
43.48,1569567539.609375
33.58,1569567539.625
25.67,1569567539.640625
19.75,1569567539.65625
14.62,1569567539.671875
8.5,1569567539.6875
-0.1,1569567539.703125
-11.73,1569567539.71875
-25.78,1569567539.734375
-40.75,1569567539.75
-54.91,1569567539.765625
-66.96,1569567539.78125
-76.44,1569567539.796875
-83.78,1569567539.8125
-90.05,1569567539.828125
-96.43,1569567539.84375
-103.9,1569567539.859375
-112.9,1569567539.875
-123.25,1569567539.890625
-133.98,1569567539.90625
-143.37,1569567539.921875
-149.05,1569567539.9375
-148.46,1569567539.953125
-139.57,1569567539.96875
-121.57,1569567539.984375
-95.48,1569567540.0
-64.06,1569567540.015625
-31.07,1569567540.03125
-0.33,1569567540.046875
25.39,1569567540.0625
44.83,1569567540.078125
58.27,1569567540.09375
66.87,1569567540.109375
72.01,1569567540.125
74.76,1569567540.140625
75.75,1569567540.15625
75.44,1569567540.171875
74.3,1569567540.1875
73.12,1569567540.203125
72.78,1569567540.21875
73.94,1569567540.234375
76.64,1569567540.25
80.18,1569567540.265625
83.28,1569567540.28125
84.62,1569567540.296875
83.39,1569567540.3125
79.66,1569567540.328125
74.25,1569567540.34375
68.28,1569567540.359375
62.61,1569567540.375
57.3,1569567540.390625
51.64,1569567540.40625
44.48,1569567540.421875
34.86,1569567540.4375
22.64,1569567540.453125
8.55,1569567540.46875
-5.87,1569567540.484375
-18.97,1569567540.5
-29.57,1569567540.515625
-37.3,1569567540.53125
-42.71,1569567540.546875
-46.95,1569567540.5625
-51.37,1569567540.578125
-57.2,1569567540.59375
-65.3,1569567540.609375
-75.98,1569567540.625
-88.79,1569567540.640625
-102.28,1569567540.65625
-114.02,1569567540.671875
-120.94,1569567540.6875
-120.14,1569567540.703125
-109.98,1569567540.71875
-90.77,1569567540.734375
-64.95,1569567540.75
-36.37,1569567540.765625
-9.12,1569567540.78125
13.71,1569567540.796875
30.69,1569567540.8125
41.97,1569567540.828125
48.69,1569567540.84375
52.13,1569567540.859375
53.21,1569567540.875
52.43,1569567540.890625
50.15,1569567540.90625
46.99,1569567540.921875
43.87,1569567540.9375
41.91,1569567540.953125
41.91,1569567540.96875
44.09,1569567540.984375
47.86,1569567541.0
52.13,1569567541.015625
55.67,1569567541.03125
57.6,1569567541.046875
57.62,1569567541.0625
56.04,1569567541.078125
53.5,1569567541.09375
50.55,1569567541.109375
47.37,1569567541.125
43.63,1569567541.140625
38.66,1569567541.15625
31.84,1569567541.171875
23.01,1569567541.1875
12.62,1569567541.203125
1.73,1569567541.21875
-8.36,1569567541.234375
-16.6,1569567541.25
-22.62,1569567541.265625
-26.85,1569567541.28125
-30.39,1569567541.296875
-34.6,1569567541.3125
-40.75,1569567541.328125
-49.64,1569567541.34375
-61.41,1569567541.359375
-75.32,1569567541.375
-89.63,1569567541.390625
-101.75,1569567541.40625
-108.61,1569567541.421875
-107.57,1569567541.4375
-97.28,1569567541.453125
-78.37,1569567541.46875
-53.47,1569567541.484375
-26.44,1569567541.5
-1.18,1569567541.515625
19.48,1569567541.53125
34.43,1569567541.546875
44.0,1569567541.5625
49.31,1569567541.578125
51.44,1569567541.59375
50.99,1569567541.609375
48.22,1569567541.625
43.48,1569567541.640625
37.59,1569567541.65625
31.9,1569567541.671875
27.94,1569567541.6875
26.8,1569567541.703125
28.69,1569567541.71875
32.76,1569567541.734375
37.48,1569567541.75
41.22,1569567541.765625
42.92,1569567541.78125
42.38,1569567541.796875
40.2,1569567541.8125
37.28,1569567541.828125
34.27,1569567541.84375
31.12,1569567541.859375
27.12,1569567541.875
21.26,1569567541.890625
12.83,1569567541.90625
1.88,1569567541.921875
-10.6,1569567541.9375
-23.03,1569567541.953125
-33.88,1569567541.96875
-42.25,1569567541.984375
-48.26,1569567542.0
-52.9,1569567542.015625
-57.6,1569567542.03125
-63.72,1569567542.046875
-72.13,1569567542.0625
-83.04,1569567542.078125
-95.85,1569567542.09375
-109.12,1569567542.109375
-120.52,1569567542.125
-127.16,1569567542.140625
-126.2,1569567542.15625
-115.88,1569567542.171875
-96.28,1569567542.1875
-69.6,1569567542.203125
-39.64,1569567542.21875
-10.6,1569567542.234375
14.19,1569567542.25
33.15,1569567542.265625
46.38,1569567542.28125
55.06,1569567542.296875
60.48,1569567542.3125
63.44,1569567542.328125
64.18,1569567542.34375
62.68,1569567542.359375
59.27,1569567542.375
54.83,1569567542.390625
50.75,1569567542.40625
48.41,1569567542.421875
48.63,1569567542.4375
51.28,1569567542.453125
55.3,1569567542.46875
59.2,1569567542.484375
61.62,1569567542.5
61.95,1569567542.515625
60.49,1569567542.53125
58.13,1569567542.546875
55.85,1569567542.5625
54.12,1569567542.578125
52.74,1569567542.59375
50.9,1569567542.609375
47.73,1569567542.625
42.7,1569567542.640625
35.87,1569567542.65625
27.76,1569567542.671875
19.04,1569567542.6875
10.12,1569567542.703125
1.06,1569567542.71875
-8.4,1569567542.734375
-18.61,1569567542.75
-29.86,1569567542.765625
-42.31,1569567542.78125
-56.15,1569567542.796875
-71.53,1569567542.8125
-88.35,1569567542.828125
-105.75,1569567542.84375
-121.77,1569567542.859375
-133.4,1569567542.875
-137.33,1569567542.890625
-131.08,1569567542.90625
-114.24,1569567542.921875
-88.82,1569567542.9375
-58.8,1569567542.953125
-28.8,1569567542.96875
-2.52,1569567542.984375
18.21,1569567543.0
33.42,1569567543.015625
44.27,1569567543.03125
51.94,1569567543.046875
56.94,1569567543.0625
59.1,1569567543.078125
58.16,1569567543.09375
54.41,1569567543.109375
49.09,1569567543.125
44.06,1569567543.140625
41.06,1569567543.15625
40.99,1569567543.171875
43.53,1569567543.1875
47.4,1569567543.203125
51.08,1569567543.21875
53.45,1569567543.234375
54.29,1569567543.25
54.05,1569567543.265625
53.47,1569567543.28125
53.0,1569567543.296875
52.55,1569567543.3125
51.53,1569567543.328125
49.15,1569567543.34375
44.77,1569567543.359375
38.14,1569567543.375
29.57,1569567543.390625
19.76,1569567543.40625
9.76,1569567543.421875
0.63,1569567543.4375
-6.82,1569567543.453125
-12.31,1569567543.46875
-16.19,1569567543.484375
-19.36,1569567543.5
-23.09,1569567543.515625
-28.69,1569567543.53125
-37.16,1569567543.546875
-48.8,1569567543.5625
-62.88,1569567543.578125
-77.38,1569567543.59375
-89.13,1569567543.609375
-94.66,1569567543.625
-91.22,1569567543.640625
-77.97,1569567543.65625
-56.56,1569567543.671875
-30.67,1569567543.6875
-4.75,1569567543.703125
17.41,1569567543.71875
33.87,1569567543.734375
44.52,1569567543.75
50.45,1569567543.765625
52.99,1569567543.78125
53.01,1569567543.796875
50.86,1569567543.8125
46.81,1569567543.828125
41.51,1569567543.84375
36.14,1569567543.859375
32.17,1569567543.875
30.83,1569567543.890625
32.52,1569567543.90625
36.67,1569567543.921875
41.91,1569567543.9375
46.58,1569567543.953125
49.3,1569567543.96875
49.43,1569567543.984375
47.12,1569567544.0
43.11,1569567544.015625
38.26,1569567544.03125
33.01,1569567544.046875
27.27,1569567544.0625
20.45,1569567544.078125
11.81,1569567544.09375
1.03,1569567544.109375
-11.45,1569567544.125
-24.44,1569567544.140625
-36.37,1569567544.15625
-45.87,1569567544.171875
-52.44,1569567544.1875
-56.61,1569567544.203125
-59.73,1569567544.21875
-63.43,1569567544.234375
-68.99,1569567544.25
-76.95,1569567544.265625
-86.92,1569567544.28125
-97.73,1569567544.296875
-107.53,1569567544.3125
-114.05,1569567544.328125
-114.91,1569567544.34375
-108.15,1569567544.359375
-92.93,1569567544.375
-70.06,1569567544.390625
-42.06,1569567544.40625
-12.56,1569567544.421875
14.77,1569567544.4375
37.3,1569567544.453125
54.03,1569567544.46875
65.37,1569567544.484375
72.48,1569567544.5
76.32,1569567544.515625
77.42,1569567544.53125
75.93,1569567544.546875
72.22,1569567544.5625
67.22,1569567544.578125
62.41,1569567544.59375
59.28,1569567544.609375
58.62,1569567544.625
60.24,1569567544.640625
62.93,1569567544.65625
65.12,1569567544.671875
65.58,1569567544.6875
63.86,1569567544.703125
60.4,1569567544.71875
56.01,1569567544.734375
51.4,1569567544.75
46.68,1569567544.765625
41.3,1569567544.78125
34.33,1569567544.796875
24.97,1569567544.8125
13.0,1569567544.828125
-0.88,1569567544.84375
-15.33,1569567544.859375
-28.71,1569567544.875
-39.72,1569567544.890625
-47.92,1569567544.90625
-53.86,1569567544.921875
-58.92,1569567544.9375
-64.82,1569567544.953125
-73.03,1569567544.96875
-84.32,1569567544.984375
-98.37,1569567545.0
-113.61,1569567545.015625
-127.4,1569567545.03125
-136.43,1569567545.046875
-137.59,1569567545.0625
-128.84,1569567545.078125
-110.02,1569567545.09375
-83.2,1569567545.109375
-52.12,1569567545.125
-21.21,1569567545.140625
5.76,1569567545.15625
26.58,1569567545.171875
40.86,1569567545.1875
49.47,1569567545.203125
53.75,1569567545.21875
54.77,1569567545.234375
53.09,1569567545.25
49.09,1569567545.265625
43.37,1569567545.28125
37.06,1569567545.296875
31.68,1569567545.3125
28.56,1569567545.328125
28.28,1569567545.34375
30.33,1569567545.359375
33.35,1569567545.375
35.7,1569567545.390625
36.2,1569567545.40625
34.62,1569567545.421875
31.62,1569567545.4375
28.19,1569567545.453125
25.05,1569567545.46875
22.05,1569567545.484375
18.21,1569567545.5
12.22,1569567545.515625
3.1,1569567545.53125
-9.11,1569567545.546875
-23.23,1569567545.5625
-37.34,1569567545.578125
-49.51,1569567545.59375
-58.53,1569567545.609375
-64.34,1569567545.625
-67.93,1569567545.640625
-70.99,1569567545.65625
-75.29,1569567545.671875
-82.18,1569567545.6875
-92.12,1569567545.703125
-104.37,1569567545.71875
-116.9,1569567545.734375
-126.58,1569567545.75
-129.87,1569567545.765625
-123.87,1569567545.78125
-107.38,1569567545.796875
-81.59,1569567545.8125
-49.88,1569567545.828125
-16.78,1569567545.84375
13.37,1569567545.859375
37.7,1569567545.875
55.27,1569567545.890625
66.76,1569567545.90625
73.58,1569567545.921875
77.04,1569567545.9375
77.94,1569567545.953125
76.63,1569567545.96875
73.43,1569567545.984375
69.0,1569567546.0
64.41,1569567546.015625
60.88,1569567546.03125
59.24,1569567546.046875
59.62,1569567546.0625
61.29,1569567546.078125
62.99,1569567546.09375
63.55,1569567546.109375
62.34,1569567546.125
59.56,1569567546.140625
56.02,1569567546.15625
52.57,1569567546.171875
49.52,1569567546.1875
46.41,1569567546.203125
42.07,1569567546.21875
35.29,1569567546.234375
25.42,1569567546.25
12.86,1569567546.265625
-1.04,1569567546.28125
-14.44,1569567546.296875
-25.78,1569567546.3125
-34.35,1569567546.328125
-40.55,1569567546.34375
-45.64,1569567546.359375
-51.28,1569567546.375
-58.93,1569567546.390625
-69.43,1569567546.40625
-82.73,1569567546.421875
-97.75,1569567546.4375
-112.27,1569567546.453125
-123.28,1569567546.46875
-127.43,1569567546.484375
-122.11,1569567546.5
-106.31,1569567546.515625
-81.32,1569567546.53125
-50.51,1569567546.546875
-18.47,1569567546.5625
10.49,1569567546.578125
33.56,1569567546.59375
49.91,1569567546.609375
60.37,1569567546.625
66.47,1569567546.640625
69.5,1569567546.65625
70.03,1569567546.671875
68.17,1569567546.6875
64.06,1569567546.703125
58.37,1569567546.71875
52.44,1569567546.734375
47.78,1569567546.75
45.58,1569567546.765625
46.12,1569567546.78125
48.73,1569567546.796875
52.02,1569567546.8125
54.57,1569567546.828125
55.38,1569567546.84375
54.26,1569567546.859375
51.71,1569567546.875
48.51,1569567546.890625
45.19,1569567546.90625
41.69,1569567546.921875
37.33,1569567546.9375
31.15,1569567546.953125
22.45,1569567546.96875
11.33,1569567546.984375
-1.27,1569567547.0
-13.76,1569567547.015625
-24.58,1569567547.03125
-32.78,1569567547.046875
-38.39,1569567547.0625
-42.37,1569567547.078125
-46.21,1569567547.09375
-51.42,1569567547.109375
-59.1,1569567547.125
-69.65,1569567547.140625
-82.73,1569567547.15625
-97.18,1569567547.171875
-111.0,1569567547.1875
-121.5,1569567547.203125
-125.74,1569567547.21875
-121.22,1569567547.234375
-106.87,1569567547.25
-83.58,1569567547.265625
-54.34,1569567547.28125
-23.42,1569567547.296875
4.9,1569567547.3125
27.54,1569567547.328125
43.35,1569567547.34375
52.93,1569567547.359375
57.84,1569567547.375
59.58,1569567547.390625
59.08,1569567547.40625
56.69,1569567547.421875
52.74,1569567547.4375
48.03,1569567547.453125
43.92,1569567547.46875
41.9,1569567547.484375
42.89,1569567547.5
46.68,1569567547.515625
51.96,1569567547.53125
56.87,1569567547.546875
59.86,1569567547.5625
60.26,1569567547.578125
58.44,1569567547.59375
55.38,1569567547.609375
51.97,1569567547.625
48.49,1569567547.640625
44.48,1569567547.65625
38.97,1569567547.671875
31.08,1569567547.6875
20.5,1569567547.703125
7.75,1569567547.71875
-5.97,1569567547.734375
-19.17,1569567547.75
-30.71,1569567547.765625
-40.09,1569567547.78125
-47.7,1569567547.796875
-54.49,1569567547.8125
-61.67,1569567547.828125
-70.3,1569567547.84375
-80.98,1569567547.859375
-93.68,1569567547.875
-107.59,1569567547.890625
-121.04,1569567547.90625
-131.54,1569567547.921875
-136.17,1569567547.9375
-132.34,1569567547.953125
-118.79,1569567547.96875
-96.24,1569567547.984375
-67.5,1569567548.0
-36.62,1569567548.015625
-7.71,1569567548.03125
16.28,1569567548.046875
34.18,1569567548.0625
46.32,1569567548.078125
53.81,1569567548.09375
57.67,1569567548.109375
58.44,1569567548.125
56.31,1569567548.140625
51.66,1569567548.15625
45.48,1569567548.171875
39.33,1569567548.1875
34.9,1569567548.203125
33.31,1569567548.21875
34.56,1569567548.234375
37.52,1569567548.25
40.42,1569567548.265625
41.73,1569567548.28125
40.87,1569567548.296875
38.4,1569567548.3125
35.59,1569567548.328125
33.6,1569567548.34375
32.7,1569567548.359375
32.07,1569567548.375
30.18,1569567548.390625
25.59,1569567548.40625
17.71,1569567548.421875
7.15,1569567548.4375
-4.61,1569567548.453125
-15.84,1569567548.46875
-25.27,1569567548.484375
-32.49,1569567548.5
-37.99,1569567548.515625
-42.8,1569567548.53125
-48.11,1569567548.546875
-54.98,1569567548.5625
-64.0,1569567548.578125
-75.19,1569567548.59375
-87.72,1569567548.609375
-99.77,1569567548.625
-108.66,1569567548.640625
-111.39,1569567548.65625
-105.5,1569567548.671875
-90.05,1569567548.6875
-66.21,1569567548.703125
-37.09,1569567548.71875
-6.89,1569567548.734375
20.49,1569567548.75
42.57,1569567548.765625
58.78,1569567548.78125
70.08,1569567548.796875
78.01,1569567548.8125
83.79,1569567548.828125
87.75,1569567548.84375
89.66,1569567548.859375
89.25,1569567548.875
86.86,1569567548.890625
83.6,1569567548.90625
80.92,1569567548.921875
80.0,1569567548.9375
81.05,1569567548.953125
83.25,1569567548.96875
85.18,1569567548.984375
85.57,1569567549.0
83.9,1569567549.015625
80.55,1569567549.03125
76.46,1569567549.046875
72.51,1569567549.0625
68.97,1569567549.078125
65.28,1569567549.09375
60.41,1569567549.109375
53.38,1569567549.125
43.79,1569567549.140625
32.09,1569567549.15625
19.48,1569567549.171875
7.41,1569567549.1875
-2.87,1569567549.203125
-10.76,1569567549.21875
-16.49,1569567549.234375
-20.99,1569567549.25
-25.6,1569567549.265625
-31.66,1569567549.28125
-40.23,1569567549.296875
-51.74,1569567549.3125
-65.74,1569567549.328125
-80.69,1569567549.34375
-94.04,1569567549.359375
-102.65,1569567549.375
-103.61,1569567549.390625
-95.28,1569567549.40625
-77.96,1569567549.421875
-54.01,1569567549.4375
-27.14,1569567549.453125
-1.28,1569567549.46875
20.63,1569567549.484375
37.17,1569567549.5
48.44,1569567549.515625
55.44,1569567549.53125
59.3,1569567549.546875
60.79,1569567549.5625
60.2,1569567549.578125
57.63,1569567549.59375
53.29,1569567549.609375
47.82,1569567549.625
42.27,1569567549.640625
37.82,1569567549.65625
35.43,1569567549.671875
35.33,1569567549.6875
37.0,1569567549.703125
39.35,1569567549.71875
41.12,1569567549.734375
41.44,1569567549.75
40.11,1569567549.765625
37.5,1569567549.78125
34.15,1569567549.796875
30.36,1569567549.8125
25.91,1569567549.828125
20.21,1569567549.84375
12.67,1569567549.859375
3.19,1569567549.875
-7.6,1569567549.890625
-18.49,1569567549.90625
-28.18,1569567549.921875
-35.75,1569567549.9375
-41.07,1569567549.953125
-44.75,1569567549.96875
-47.9,1569567549.984375
-51.69,1569567550.0
-57.05,1569567550.015625
-64.55,1569567550.03125
-74.38,1569567550.046875
-86.26,1569567550.0625
-99.17,1569567550.078125
-111.2,1569567550.09375
-119.61,1569567550.109375
-121.51,1569567550.125
-114.79,1569567550.140625
-99.11,1569567550.15625
-76.25,1569567550.171875
-49.71,1569567550.1875
-23.56,1569567550.203125
-1.13,1569567550.21875
15.81,1569567550.234375
27.17,1569567550.25
33.99,1569567550.265625
37.55,1569567550.28125
38.78,1569567550.296875
38.09,1569567550.3125
35.69,1569567550.328125
32.04,1569567550.34375
28.05,1569567550.359375
25.03,1569567550.375
24.14,1569567550.390625
25.92,1569567550.40625
29.9,1569567550.421875
34.78,1569567550.4375
38.92,1569567550.453125
41.15,1569567550.46875
41.18,1569567550.484375
39.67,1569567550.5
37.73,1569567550.515625
36.22,1569567550.53125
35.22,1569567550.546875
33.99,1569567550.5625
31.31,1569567550.578125
26.18,1569567550.59375
18.33,1569567550.609375
8.48,1569567550.625
-1.95,1569567550.640625
-11.37,1569567550.65625
-18.62,1569567550.671875
-23.37,1569567550.6875
-26.21,1569567550.703125
-28.34,1569567550.71875
-31.22,1569567550.734375
-36.11,1569567550.75
-43.76,1569567550.765625
-54.23,1569567550.78125
-66.7,1569567550.796875
-79.44,1569567550.8125
-89.85,1569567550.828125
-95.02,1569567550.84375
-92.48,1569567550.859375
-81.16,1569567550.875
-61.94,1569567550.890625
-37.56,1569567550.90625
-11.8,1569567550.921875
11.75,1569567550.9375
30.65,1569567550.953125
44.1,1569567550.96875
52.62,1569567550.984375
57.35,1569567551.0
59.43,1569567551.015625
59.6,1569567551.03125
58.18,1569567551.046875
55.46,1569567551.0625
51.9,1569567551.078125
48.3,1569567551.09375
45.59,1569567551.109375
44.47,1569567551.125
45.13,1569567551.140625
47.07,1569567551.15625
49.25,1569567551.171875
50.52,1569567551.1875
50.12,1569567551.203125
47.97,1569567551.21875
44.59,1569567551.234375
40.76,1569567551.25
36.99,1569567551.265625
33.15,1569567551.28125
28.61,1569567551.296875
22.51,1569567551.3125
14.39,1569567551.328125
4.46,1569567551.34375
-6.36,1569567551.359375
-16.79,1569567551.375
-25.62,1569567551.390625
-32.23,1569567551.40625
-36.77,1569567551.421875
-40.12,1569567551.4375
-43.64,1569567551.453125
-48.72,1569567551.46875
-56.43,1569567551.484375
-67.06,1569567551.5
-79.87,1569567551.515625
-92.99,1569567551.53125
-103.68,1569567551.546875
-108.89,1569567551.5625
-106.21,1569567551.578125
-94.69,1569567551.59375
-75.27,1569567551.609375
-50.66,1569567551.625
-24.42,1569567551.640625
0.01,1569567551.65625
20.29,1569567551.671875
35.49,1569567551.6875
45.93,1569567551.703125
52.55,1569567551.71875
56.26,1569567551.734375
57.7,1569567551.75
57.3,1569567551.765625
55.46,1569567551.78125
52.8,1569567551.796875
50.09,1569567551.8125
48.09,1569567551.828125
47.32,1569567551.84375
47.78,1569567551.859375
49.07,1569567551.875
50.4,1569567551.890625
50.97,1569567551.90625
50.18,1569567551.921875
47.88,1569567551.9375
44.37,1569567551.953125
40.29,1569567551.96875
36.19,1569567551.984375
32.2,1569567552.0
27.95,1569567552.015625
22.67,1569567552.03125
15.65,1569567552.046875
6.78,1569567552.0625
-3.25,1569567552.078125
-13.14,1569567552.09375
-21.59,1569567552.109375
-27.86,1569567552.125
-32.12,1569567552.140625
-35.3,1569567552.15625
-38.66,1569567552.171875
-43.3,1569567552.1875
-49.87,1569567552.203125
-58.55,1569567552.21875
-69.01,1569567552.234375
-80.31,1569567552.25
-90.71,1569567552.265625
-97.76,1569567552.28125
-98.72,1569567552.296875
-91.53,1569567552.3125
-75.83,1569567552.328125
-53.28,1569567552.34375
-27.34,1569567552.359375
-1.95,1569567552.375
19.66,1569567552.390625
35.99,1569567552.40625
47.3,1569567552.421875
54.88,1569567552.4375
60.07,1569567552.453125
63.61,1569567552.46875
65.55,1569567552.484375
65.67,1569567552.5
64.04,1569567552.515625
61.32,1569567552.53125
58.57,1569567552.546875
56.74,1569567552.5625
56.18,1569567552.578125
56.45,1569567552.59375
56.48,1569567552.609375
55.14,1569567552.625
51.75,1569567552.640625
46.37,1569567552.65625
39.79,1569567552.671875
33.19,1569567552.6875
27.63,1569567552.703125
23.79,1569567552.71875
21.65,1569567552.734375
20.63,1569567552.75
19.79,1569567552.765625
18.17,1569567552.78125
15.15,1569567552.796875
10.61,1569567552.8125
4.95,1569567552.828125
-1.17,1569567552.84375
-7.11,1569567552.859375
-12.53,1569567552.875
-17.44,1569567552.890625
-22.18,1569567552.90625
-27.27,1569567552.921875
-33.31,1569567552.9375
-40.78,1569567552.953125
-49.83,1569567552.96875
-59.93,1569567552.984375
-69.56,1569567553.0
-76.32,1569567553.015625
-77.48,1569567553.03125
-70.93,1569567553.046875
-56.16,1569567553.0625
-34.7,1569567553.078125
-9.77,1569567553.09375
14.71,1569567553.109375
35.28,1569567553.125
49.86,1569567553.140625
57.93,1569567553.15625
60.28,1569567553.171875
58.41,1569567553.1875
53.9,1569567553.203125
48.14,1569567553.21875
42.18,1569567553.234375
36.73,1569567553.25
32.24,1569567553.265625
28.94,1569567553.28125
26.92,1569567553.296875
26.06,1569567553.3125
26.11,1569567553.328125
26.66,1569567553.34375
27.13,1569567553.359375
26.93,1569567553.375
25.67,1569567553.390625
23.3,1569567553.40625
20.16,1569567553.421875
16.76,1569567553.4375
13.53,1569567553.453125
10.55,1569567553.46875
7.52,1569567553.484375
3.92,1569567553.5
-0.56,1569567553.515625
-5.8,1569567553.53125
-11.09,1569567553.546875
-15.39,1569567553.5625
-17.8,1569567553.578125
-17.98,1569567553.59375
-16.44,1569567553.609375
-14.26,1569567553.625
-12.8,1569567553.640625
-13.14,1569567553.65625
-15.87,1569567553.671875
-21.12,1569567553.6875
-28.55,1569567553.703125
-37.37,1569567553.71875
-46.18,1569567553.734375
-53.08,1569567553.75
-55.8,1569567553.765625
-52.44,1569567553.78125
-42.18,1569567553.796875
-25.84,1569567553.8125
-5.73,1569567553.828125
15.1,1569567553.84375
33.8,1569567553.859375
48.59,1569567553.875
59.0,1569567553.890625
65.51,1569567553.90625
68.9,1569567553.921875
69.71,1569567553.9375
68.12,1569567553.953125
64.26,1569567553.96875
58.54,1569567553.984375
51.92,1569567554.0
45.75,1569567554.015625
41.29,1569567554.03125
39.22,1569567554.046875
39.29,1569567554.0625
40.45,1569567554.078125
41.25,1569567554.09375
40.53,1569567554.109375
37.88,1569567554.125
33.69,1569567554.140625
28.94,1569567554.15625
24.56,1569567554.171875
20.92,1569567554.1875
17.6,1569567554.203125
13.56,1569567554.21875
7.64,1569567554.234375
-0.88,1569567554.25
-11.9,1569567554.265625
-24.39,1569567554.28125
-36.8,1569567554.296875
-47.58,1569567554.3125
-55.79,1569567554.328125
-61.42,1569567554.34375
-65.41,1569567554.359375
-69.28,1569567554.375
-74.59,1569567554.390625
-82.44,1569567554.40625
-93.13,1569567554.421875
-105.91,1569567554.4375
-119.04,1569567554.453125
-130.01,1569567554.46875
-135.94,1569567554.484375
-134.35,1569567554.5
-123.88,1569567554.515625
-104.95,1569567554.53125
-79.82,1569567554.546875
-51.99,1569567554.5625
-25.21,1569567554.578125
-2.36,1569567554.59375
15.14,1569567554.609375
27.36,1569567554.625
35.22,1569567554.640625
39.77,1569567554.65625
41.7,1569567554.671875
41.31,1569567554.6875
38.9,1569567554.703125
35.14,1569567554.71875
31.11,1569567554.734375
28.1,1569567554.75
27.09,1569567554.765625
28.4,1569567554.78125
31.5,1569567554.796875
35.31,1569567554.8125
38.62,1569567554.828125
40.6,1569567554.84375
40.97,1569567554.859375
39.95,1569567554.875
37.98,1569567554.890625
35.32,1569567554.90625
31.87,1569567554.921875
27.24,1569567554.9375
20.94,1569567554.953125
12.75,1569567554.96875
2.9,1569567554.984375
-7.85,1569567555.0
-18.37,1569567555.015625
-27.51,1569567555.03125
-34.48,1569567555.046875
-39.12,1569567555.0625
-42.04,1569567555.078125
-44.43,1569567555.09375
-47.71,1569567555.109375
-53.17,1569567555.125
-61.45,1569567555.140625
-72.37,1569567555.15625
-84.66,1569567555.171875
-96.17,1569567555.1875
-104.16,1569567555.203125
-106.01,1569567555.21875
-99.87,1569567555.234375
-85.39,1569567555.25
-63.99,1569567555.265625
-38.57,1569567555.28125
-12.77,1569567555.296875
10.12,1569567555.3125
28.01,1569567555.328125
40.32,1569567555.34375
47.74,1569567555.359375
51.52,1569567555.375
52.78,1569567555.390625
52.17,1569567555.40625
49.91,1569567555.421875
46.24,1569567555.4375
41.76,1569567555.453125
37.48,1569567555.46875
34.58,1569567555.484375
33.86,1569567555.5
35.35,1569567555.515625
38.23,1569567555.53125
41.16,1569567555.546875
42.86,1569567555.5625
42.6,1569567555.578125
40.43,1569567555.59375
36.96,1569567555.609375
32.98,1569567555.625
28.92,1569567555.640625
24.66,1569567555.65625
19.64,1569567555.671875
13.18,1569567555.6875
4.94,1569567555.703125
-4.77,1569567555.71875
-15.13,1569567555.734375
-24.97,1569567555.75
-33.25,1569567555.765625
-39.39,1569567555.78125
-43.46,1569567555.796875
-46.11,1569567555.8125
-48.41,1569567555.828125
-51.62,1569567555.84375
-56.9,1569567555.859375
-65.09,1569567555.875
-76.35,1569567555.890625
-89.79,1569567555.90625
-103.33,1569567555.921875
-113.88,1569567555.9375
-118.1,1569567555.953125
-113.46,1569567555.96875
-99.21,1569567555.984375
-76.86,1569567556.0
-49.74,1569567556.015625
-21.99,1569567556.03125
2.81,1569567556.046875
22.62,1569567556.0625
37.07,1569567556.078125
47.02,1569567556.09375
53.64,1569567556.109375
57.68,1569567556.125
59.35,1569567556.140625
58.65,1569567556.15625
55.84,1569567556.171875
51.79,1569567556.1875
47.87,1569567556.203125
45.42,1569567556.21875
45.22,1569567556.234375
47.12,1569567556.25
50.24,1569567556.265625
53.31,1569567556.28125
55.3,1569567556.296875
55.77,1569567556.3125
54.89,1569567556.328125
53.17,1569567556.34375
51.09,1569567556.359375
48.77,1569567556.375
45.85,1569567556.390625
41.71,1569567556.40625
35.75,1569567556.421875
27.76,1569567556.4375
18.16,1569567556.453125
7.9,1569567556.46875
-1.81,1569567556.484375
-9.91,1569567556.5
-15.92,1569567556.515625
-20.09,1569567556.53125
-23.32,1569567556.546875
-26.85,1569567556.5625
-31.83,1569567556.578125
-39.06,1569567556.59375
-48.75,1569567556.609375
-60.41,1569567556.625
-72.78,1569567556.640625
-83.8,1569567556.65625
-90.83,1569567556.671875
-91.26,1569567556.6875
-83.28,1569567556.703125
-66.75,1569567556.71875
-43.5,1569567556.734375
-16.92,1569567556.75
9.07,1569567556.765625
31.22,1569567556.78125
47.83,1569567556.796875
58.86,1569567556.8125
65.34,1569567556.828125
68.55,1569567556.84375
69.36,1569567556.859375
68.07,1569567556.875
64.81,1569567556.890625
59.99,1569567556.90625
54.55,1569567556.921875
49.77,1569567556.9375
46.8,1569567556.953125
46.07,1569567556.96875
47.03,1569567556.984375
48.38,1569567557.0
48.6,1569567557.015625
46.71,1569567557.03125
42.73,1569567557.046875
37.57,1569567557.0625
32.49,1569567557.078125
28.31,1569567557.09375
24.92,1569567557.109375
21.26,1569567557.125
15.87,1569567557.140625
7.8,1569567557.15625
-2.9,1569567557.171875
-15.01,1569567557.1875
-26.75,1569567557.203125
-36.48,1569567557.21875
-43.43,1569567557.234375
-47.89,1569567557.25
-51.0,1569567557.265625
-54.26,1569567557.28125
-59.05,1569567557.296875
-66.32,1569567557.3125
-76.3,1569567557.328125
-88.43,1569567557.34375
-101.18,1569567557.359375
-112.14,1569567557.375
-118.38,1569567557.390625
-117.25,1569567557.40625
-107.26,1569567557.421875
-88.8,1569567557.4375
-64.18,1569567557.453125
-36.95,1569567557.46875
-10.79,1569567557.484375
11.58,1569567557.5
28.92,1569567557.515625
41.37,1569567557.53125
49.83,1569567557.546875
55.22,1569567557.5625
58.12,1569567557.578125
58.81,1569567557.59375
57.57,1569567557.609375
55.03,1569567557.625
52.17,1569567557.640625
50.06,1569567557.65625
49.51,1569567557.671875
50.63,1569567557.6875
52.82,1569567557.703125
55.0,1569567557.71875
56.05,1569567557.734375
55.26,1569567557.75
52.59,1569567557.765625
48.58,1569567557.78125
43.98,1569567557.796875
39.33,1569567557.8125
34.62,1569567557.828125
29.2,1569567557.84375
22.21,1569567557.859375
13.08,1569567557.875
2.01,1569567557.890625
-9.93,1569567557.90625
-21.15,1569567557.921875
-30.23,1569567557.9375
-36.55,1569567557.953125
-40.65,1569567557.96875
-44.0,1569567557.984375
-48.47,1569567558.0
-55.6,1569567558.015625
-66.08,1569567558.03125
-79.52,1569567558.046875
-94.43,1569567558.0625
-108.44,1569567558.078125
-118.69,1569567558.09375
-122.33,1569567558.109375
-117.29,1569567558.125
-102.95,1569567558.140625
-80.56,1569567558.15625
-53.02,1569567558.171875
-24.15,1569567558.1875
2.45,1569567558.203125
24.33,1569567558.21875
40.6,1569567558.234375
51.69,1569567558.25
58.67,1569567558.265625
62.56,1569567558.28125
63.95,1569567558.296875
63.13,1569567558.3125
60.35,1569567558.328125
56.27,1569567558.34375
51.97,1569567558.359375
48.69,1569567558.375
47.38,1569567558.390625
48.33,1569567558.40625
50.95,1569567558.421875
54.12,1569567558.4375
56.57,1569567558.453125
57.44,1569567558.46875
56.52,1569567558.484375
54.27,1569567558.5
51.42,1569567558.515625
48.62,1569567558.53125
46.01,1569567558.546875
43.18,1569567558.5625
39.34,1569567558.578125
33.68,1569567558.59375
25.85,1569567558.609375
16.15,1569567558.625
5.45,1569567558.640625
-5.05,1569567558.65625
-14.33,1569567558.671875
-21.94,1569567558.6875
-28.14,1569567558.703125
-33.78,1569567558.71875
-40.02,1569567558.734375
-47.9,1569567558.75
-58.01,1569567558.765625
-70.3,1569567558.78125
-83.81,1569567558.796875
-96.69,1569567558.8125
-106.33,1569567558.828125
-109.9,1569567558.84375
-105.21,1569567558.859375
-91.52,1569567558.875
-70.05,1569567558.890625
-43.71,1569567558.90625
-16.3,1569567558.921875
8.73,1569567558.9375
29.14,1569567558.953125
44.22,1569567558.96875
54.37,1569567558.984375
60.49,1569567559.0
63.31,1569567559.015625
63.25,1569567559.03125
60.67,1569567559.046875
56.15,1569567559.0625
50.8,1569567559.078125
45.99,1569567559.09375
42.99,1569567559.109375
42.46,1569567559.125
44.21,1569567559.140625
47.34,1569567559.15625
50.65,1569567559.171875
53.21,1569567559.1875
54.61,1569567559.203125
55.06,1569567559.21875
55.02,1569567559.234375
54.79,1569567559.25
54.21,1569567559.265625
52.64,1569567559.28125
49.21,1569567559.296875
43.27,1569567559.3125
34.79,1569567559.328125
24.43,1569567559.34375
13.43,1569567559.359375
3.18,1569567559.375
-5.19,1569567559.390625
-11.12,1569567559.40625
-14.78,1569567559.421875
-17.04,1569567559.4375
-19.31,1569567559.453125
-23.21,1569567559.46875
-30.24,1569567559.484375
-41.23,1569567559.5
-55.94,1569567559.515625
-72.78,1569567559.53125
-88.97,1569567559.546875
-101.09,1569567559.5625
-106.04,1569567559.578125
-101.95,1569567559.59375
-88.78,1569567559.609375
-68.42,1569567559.625
-44.06,1569567559.640625
-19.24,1569567559.65625
3.01,1569567559.671875
20.78,1569567559.6875
33.38,1569567559.703125
41.05,1569567559.71875
44.48,1569567559.734375
44.48,1569567559.75
41.76,1569567559.765625
37.1,1569567559.78125
31.49,1569567559.796875
26.18,1569567559.8125
22.5,1569567559.828125
21.54,1569567559.84375
23.67,1569567559.859375
28.38,1569567559.875
34.54,1569567559.890625
40.74,1569567559.90625
45.93,1569567559.921875
49.73,1569567559.9375
52.38,1569567559.953125
54.36,1569567559.96875
55.9,1569567559.984375
56.71,1569567560.0
56.06,1569567560.015625
53.18,1569567560.03125
47.78,1569567560.046875
40.22,1569567560.0625
31.5,1569567560.078125
22.79,1569567560.09375
15.01,1569567560.109375
8.49,1569567560.125
2.95,1569567560.140625
-2.29,1569567560.15625
-8.1,1569567560.171875
-15.35,1569567560.1875
-24.71,1569567560.203125
-36.58,1569567560.21875
-50.79,1569567560.234375
-66.33,1569567560.25
-81.13,1569567560.265625
-92.31,1569567560.28125
-96.83,1569567560.296875
-92.55,1569567560.3125
-79.19,1569567560.328125
-58.6,1569567560.34375
-34.38,1569567560.359375
-10.67,1569567560.375
9.12,1569567560.390625
23.3,1569567560.40625
31.94,1569567560.421875
36.42,1569567560.4375
38.31,1569567560.453125
38.7,1569567560.46875
37.89,1569567560.484375
35.72,1569567560.5
32.16,1569567560.515625
27.75,1569567560.53125
23.62,1569567560.546875
21.05,1569567560.5625
20.88,1569567560.578125
22.99,1569567560.59375
26.29,1569567560.609375
29.22,1569567560.625
30.46,1569567560.640625
29.57,1569567560.65625
27.05,1569567560.671875
23.94,1569567560.6875
21.17,1569567560.703125
18.87,1569567560.71875
16.31,1569567560.734375
12.24,1569567560.75
5.67,1569567560.765625
-3.56,1569567560.78125
-14.55,1569567560.796875
-25.76,1569567560.8125
-35.64,1569567560.828125
-43.18,1569567560.84375
-48.28,1569567560.859375
-51.66,1569567560.875
-54.5,1569567560.890625
-58.16,1569567560.90625
-63.86,1569567560.921875
-72.43,1569567560.9375
-83.99,1569567560.953125
-97.55,1569567560.96875
-110.84,1569567560.984375
-120.58,1569567561.0
-123.24,1569567561.015625
-116.3,1569567561.03125
-99.25,1569567561.046875
-73.96,1569567561.0625
-44.22,1569567561.078125
-14.43,1569567561.09375
11.72,1569567561.109375
32.22,1569567561.125
46.82,1569567561.140625
56.43,1569567561.15625
62.28,1569567561.171875
65.19,1569567561.1875
65.47,1569567561.203125
63.21,1569567561.21875
58.77,1569567561.234375
53.09,1569567561.25
47.49,1569567561.265625
43.33,1569567561.28125
41.5,1569567561.296875
41.97,1569567561.3125
43.95,1569567561.328125
46.13,1569567561.34375
47.31,1569567561.359375
46.8,1569567561.375
44.63,1569567561.390625
41.36,1569567561.40625
37.75,1569567561.421875
34.34,1569567561.4375
31.16,1569567561.453125
27.74,1569567561.46875
23.31,1569567561.484375
17.15,1569567561.5
9.1,1569567561.515625
-0.31,1569567561.53125
-9.92,1569567561.546875
-18.32,1569567561.5625
-24.42,1569567561.578125
-27.91,1569567561.59375
-29.49,1569567561.609375
-30.64,1569567561.625
-33.17,1569567561.640625
-38.59,1569567561.65625
-47.7,1569567561.671875
-60.25,1569567561.6875
-74.79,1569567561.703125
-88.84,1569567561.71875
-99.24,1569567561.734375
-102.86,1569567561.75
-97.58,1569567561.765625
-83.03,1569567561.78125
-60.93,1569567561.796875
-34.79,1569567561.8125
-8.76,1569567561.828125
13.56,1569567561.84375
30.11,1569567561.859375
40.55,1569567561.875
45.8,1569567561.890625
47.16,1569567561.90625
45.67,1569567561.921875
41.76,1569567561.9375
35.65,1569567561.953125
27.69,1569567561.96875
18.79,1569567561.984375
10.34,1569567562.0
3.89,1569567562.015625
0.53,1569567562.03125
0.52,1569567562.046875
3.22,1569567562.0625
7.31,1569567562.078125
11.41,1569567562.09375
14.54,1569567562.109375
16.37,1569567562.125
17.17,1569567562.140625
17.39,1569567562.15625
17.21,1569567562.171875
16.33,1569567562.1875
14.02,1569567562.203125
9.57,1569567562.21875
2.72,1569567562.234375
-6.05,1569567562.25
-15.6,1569567562.265625
-24.56,1569567562.28125
-31.83,1569567562.296875
-37.05,1569567562.3125
-40.62,1569567562.328125
-43.51,1569567562.34375
-46.91,1569567562.359375
-51.85,1569567562.375
-59.0,1569567562.390625
-68.46,1569567562.40625
-79.68,1569567562.421875
-91.21,1569567562.4375
-100.77,1569567562.453125
-105.59,1569567562.46875
-103.11,1569567562.484375
-92.01,1569567562.5
-72.91,1569567562.515625
-48.28,1569567562.53125
-21.83,1569567562.546875
2.8,1569567562.5625
23.02,1569567562.578125
37.9,1569567562.59375
47.85,1569567562.609375
53.84,1569567562.625
56.65,1569567562.640625
56.6,1569567562.65625
53.74,1569567562.671875
48.45,1569567562.6875
41.75,1569567562.703125
35.25,1569567562.71875
30.62,1569567562.734375
29.0,1569567562.75
30.44,1569567562.765625
34.04,1569567562.78125
38.29,1569567562.796875
41.77,1569567562.8125
43.64,1569567562.828125
43.78,1569567562.84375
42.67,1569567562.859375
40.95,1569567562.875
39.01,1569567562.890625
36.75,1569567562.90625
33.59,1569567562.921875
28.76,1569567562.9375
21.67,1569567562.953125
12.3,1569567562.96875
1.3,1569567562.984375
-10.13,1569567563.0
-20.7,1569567563.015625
-29.48,1569567563.03125
-36.27,1569567563.046875
-41.59,1569567563.0625
-46.52,1569567563.078125
-52.29,1569567563.09375
-59.95,1569567563.109375
-70.09,1569567563.125
-82.58,1569567563.140625
-96.31,1569567563.15625
-109.15,1569567563.171875
-118.12,1569567563.1875
-120.15,1569567563.203125
-113.04,1569567563.21875
-96.43,1569567563.234375
-72.22,1569567563.25
-44.07,1569567563.265625
-16.29,1569567563.28125
7.66,1569567563.296875
25.97,1569567563.3125
38.75,1569567563.328125
47.22,1569567563.34375
52.87,1569567563.359375
56.58,1569567563.375
58.58,1569567563.390625
58.76,1569567563.40625
57.24,1569567563.421875
54.75,1569567563.4375
52.5,1569567563.453125
51.77,1569567563.46875
53.32,1569567563.484375
56.96,1569567563.5
61.61,1569567563.515625
65.77,1569567563.53125
68.01,1569567563.546875
67.58,1569567563.5625
64.49,1569567563.578125
59.24,1569567563.59375
52.44,1569567563.609375
44.43,1569567563.625
35.2,1569567563.640625
24.71,1569567563.65625
13.21,1569567563.671875
1.54,1569567563.6875
-9.03,1569567563.703125
-17.2,1569567563.71875
-22.25,1569567563.734375
-24.27,1569567563.75
-24.25,1569567563.765625
-23.64,1569567563.78125
-23.84,1569567563.796875
-25.91,1569567563.8125
-30.39,1569567563.828125
-37.35,1569567563.84375
-46.4,1569567563.859375
-56.53,1569567563.875
-65.94,1569567563.890625
