PPG GREEN,time
2037746.0,1623756900.018
2038379.0,1623756900.058
2039384.0,1623756900.097
2040360.0,1623756900.139
2041247.0,1623756900.178
2041917.0,1623756900.218
2043143.0,1623756900.26
2043857.0,1623756900.298
2044680.0,1623756900.338
2045291.0,1623756900.379
2045341.0,1623756900.418
2045565.0,1623756900.459
2046008.0,1623756900.499
2047163.0,1623756900.538
2049574.0,1623756900.578
2054249.0,1623756900.619
2059257.0,1623756900.659
2064559.0,1623756900.699
2069331.0,1623756900.74
2073889.0,1623756900.779
2078734.0,1623756900.819
2083214.0,1623756900.861
2086508.0,1623756900.899
2088780.0,1623756900.939
2090470.0,1623756900.98
2092337.0,1623756901.019
2094248.0,1623756901.06
2096543.0,1623756901.1
2101704.0,1623756901.179
2099229.0,1623756901.139
2103134.0,1623756901.221
2104037.0,1623756901.26
2104887.0,1623756901.3
2104961.0,1623756901.341
2105868.0,1623756901.38
2106026.0,1623756901.42
2106524.0,1623756901.5
2106086.0,1623756901.462
2107218.0,1623756901.54
2107161.0,1623756901.581
2106606.0,1623756901.62
2106086.0,1623756901.661
2106011.0,1623756901.701
2106030.0,1623756901.74
2106996.0,1623756901.78
2107504.0,1623756901.82
2107625.0,1623756901.857
2108256.0,1623756901.897
2108466.0,1623756901.939
2108345.0,1623756901.977
2109379.0,1623756902.059
2109902.0,1623756902.098
2110263.0,1623756902.138
2109915.0,1623756902.179
2109159.0,1623756902.017
2109429.0,1623756902.219
2109028.0,1623756902.257
2108393.0,1623756902.298
2108365.0,1623756902.337
2108405.0,1623756902.368
2108973.0,1623756902.409
2109092.0,1623756902.449
2109523.0,1623756902.488
2109960.0,1623756902.53
2109733.0,1623756902.569
2109911.0,1623756902.609
2109851.0,1623756902.65
2110247.0,1623756902.689
2110651.0,1623756902.729
2110490.0,1623756902.77
2110203.0,1623756902.809
2109383.0,1623756902.85
2108031.0,1623756902.929
2107809.0,1623756902.969
2107645.0,1623756903.01
2107414.0,1623756903.051
2108755.0,1623756902.89
2107357.0,1623756903.091
2107014.0,1623756903.127
2107101.0,1623756903.16
2107040.0,1623756903.198
2107104.0,1623756903.24
2107360.0,1623756903.278
2107416.0,1623756903.319
2107704.0,1623756903.36
2107572.0,1623756903.399
2107412.0,1623756903.44
2106711.0,1623756903.481
2105710.0,1623756903.52
2105089.0,1623756903.559
2104542.0,1623756903.6
2103945.0,1623756903.68
2104121.0,1623756903.64
2103470.0,1623756903.721
2103161.0,1623756903.76
2102789.0,1623756903.8
2102741.0,1623756903.842
2102704.0,1623756903.88
2102619.0,1623756903.92
2102684.0,1623756903.961
2102484.0,1623756904.0
2102631.0,1623756904.041
2102717.0,1623756904.081
2102715.0,1623756904.12
2102196.0,1623756904.161
2100827.0,1623756904.241
2100270.0,1623756904.277
2099563.0,1623756904.358
2099327.0,1623756904.398
2099065.0,1623756904.44
2098930.0,1623756904.519
2098715.0,1623756904.561
2101415.0,1623756904.202
2098972.0,1623756904.479
2099702.0,1623756904.319
2098594.0,1623756904.6
2098605.0,1623756904.641
2098849.0,1623756904.681
2098781.0,1623756904.72
2098929.0,1623756904.759
2099127.0,1623756904.799
2099127.0,1623756904.833
2098601.0,1623756904.913
2099179.0,1623756904.872
2097040.0,1623756904.992
2096017.0,1623756905.072
2097909.0,1623756904.952
2095887.0,1623756905.154
2095379.0,1623756905.193
2095113.0,1623756905.233
2095876.0,1623756905.113
2096309.0,1623756905.034
2094968.0,1623756905.274
2094570.0,1623756905.313
2094502.0,1623756905.353
2094761.0,1623756905.394
2094844.0,1623756905.434
2094960.0,1623756905.473
2094815.0,1623756905.512
2095102.0,1623756905.552
2095094.0,1623756905.588
2094801.0,1623756905.62
2094067.0,1623756905.659
2093654.0,1623756905.699
2093289.0,1623756905.74
2092667.0,1623756905.82
2093083.0,1623756905.779
2092640.0,1623756905.898
2092415.0,1623756905.938
2092452.0,1623756905.98
2092568.0,1623756905.861
2092354.0,1623756906.019
2092576.0,1623756906.095
2092534.0,1623756906.054
2092958.0,1623756906.134
2093161.0,1623756906.174
2093187.0,1623756906.216
2093518.0,1623756906.255
2093404.0,1623756906.295
2093288.0,1623756906.336
2092350.0,1623756906.375
2091868.0,1623756906.416
2091082.0,1623756906.456
2090866.0,1623756906.495
2090909.0,1623756906.535
2090595.0,1623756906.616
2090896.0,1623756906.576
2090548.0,1623756906.655
2090382.0,1623756906.696
2090283.0,1623756906.729
2090393.0,1623756906.762
2090407.0,1623756906.802
2090861.0,1623756906.877
2090411.0,1623756906.837
2091207.0,1623756906.958
2090934.0,1623756906.918
2091071.0,1623756907.0
2090241.0,1623756907.04
2089578.0,1623756907.079
2089253.0,1623756907.12
2088885.0,1623756907.161
2088668.0,1623756907.201
2088831.0,1623756907.24
2088383.0,1623756907.277
2088383.0,1623756907.316
2088664.0,1623756907.356
2088479.0,1623756907.398
2088495.0,1623756907.436
2088362.0,1623756907.476
2088541.0,1623756907.517
2088757.0,1623756907.556
2088901.0,1623756907.597
2089005.0,1623756907.638
2089163.0,1623756907.677
2089239.0,1623756907.717
2088834.0,1623756907.758
2089992.0,1623756907.798
2091178.0,1623756907.837
2093404.0,1623756907.878
2097224.0,1623756907.917
2103467.0,1623756907.958
2111228.0,1623756908.0
2119798.0,1623756908.039
2127227.0,1623756908.079
2133897.0,1623756908.121
2139740.0,1623756908.16
2144294.0,1623756908.201
2148339.0,1623756908.241
2150302.0,1623756908.281
2152410.0,1623756908.321
2153814.0,1623756908.362
2154330.0,1623756908.402
2154218.0,1623756908.441
2153673.0,1623756908.482
2153326.0,1623756908.521
2153231.0,1623756908.561
2152954.0,1623756908.603
2152907.0,1623756908.641
2153961.0,1623756908.681
2154098.0,1623756908.722
2154614.0,1623756908.761
2154653.0,1623756908.807
2155001.0,1623756908.848
2154893.0,1623756908.887
2155061.0,1623756908.928
2155489.0,1623756908.968
2155294.0,1623756909.008
2155095.0,1623756909.047
2154041.0,1623756909.088
2154054.0,1623756909.127
2154304.0,1623756909.167
2152897.0,1623756909.209
2151616.0,1623756909.247
2151572.0,1623756909.282
2153648.0,1623756909.324
2152414.0,1623756909.363
2154034.0,1623756909.404
2148628.0,1623756909.444
2146617.0,1623756909.483
2146958.0,1623756909.523
2146935.0,1623756909.564
2147165.0,1623756909.585
2146167.0,1623756909.665
2145265.0,1623756909.704
2144674.0,1623756909.744
2143766.0,1623756909.786
2146698.0,1623756909.624
2142794.0,1623756909.824
2142245.0,1623756909.864
2141797.0,1623756909.905
2141459.0,1623756909.944
2140434.0,1623756909.985
2139674.0,1623756910.025
2139042.0,1623756910.065
2139175.0,1623756910.105
2139459.0,1623756910.146
2139351.0,1623756910.186
2139306.0,1623756910.225
2139185.0,1623756910.266
2138633.0,1623756910.305
2137334.0,1623756910.345
2136093.0,1623756910.387
2134951.0,1623756910.425
2133678.0,1623756910.465
2131658.0,1623756910.545
2132651.0,1623756910.506
2130216.0,1623756910.586
2129439.0,1623756910.627
2128577.0,1623756910.666
2127214.0,1623756910.706
2126700.0,1623756910.747
2124991.0,1623756910.826
2124921.0,1623756910.867
2124159.0,1623756910.906
2123713.0,1623756910.946
2122754.0,1623756910.988
2121349.0,1623756911.026
2119910.0,1623756911.066
2118812.0,1623756911.107
2117616.0,1623756911.146
2125993.0,1623756910.787
2116520.0,1623756911.187
2116165.0,1623756911.228
2115131.0,1623756911.267
2114886.0,1623756911.307
2114999.0,1623756911.348
2115346.0,1623756911.388
2115448.0,1623756911.427
2117140.0,1623756911.507
2116916.0,1623756911.589
2117325.0,1623756911.667
2116804.0,1623756911.627
2117692.0,1623756911.547
2115937.0,1623756911.468
2117662.0,1623756911.709
2117302.0,1623756911.748
2116773.0,1623756911.789
2116054.0,1623756911.829
2115725.0,1623756911.868
2115096.0,1623756911.908
2114792.0,1623756911.949
2114218.0,1623756911.989
2113482.0,1623756912.028
2112893.0,1623756912.069
2112285.0,1623756912.108
2112114.0,1623756912.148
2111866.0,1623756912.191
2111824.0,1623756912.229
2111472.0,1623756912.269
2111507.0,1623756912.31
2111154.0,1623756912.349
2111320.0,1623756912.39
2110462.0,1623756912.43
2108238.0,1623756912.469
2104620.0,1623756912.509
2100785.0,1623756912.55
2097273.0,1623756912.59
2094623.0,1623756912.629
2092214.0,1623756912.67
2090103.0,1623756912.71
2088488.0,1623756912.75
2086495.0,1623756912.792
2084877.0,1623756912.83
2083397.0,1623756912.87
2081989.0,1623756912.911
2080587.0,1623756912.95
2079360.0,1623756912.991
2078189.0,1623756913.031
2076849.0,1623756913.07
2075854.0,1623756913.11
2073949.0,1623756913.151
2072151.0,1623756913.191
2070359.0,1623756913.23
2068471.0,1623756913.272
2067059.0,1623756913.311
2065992.0,1623756913.351
2064803.0,1623756913.393
2063763.0,1623756913.431
2062346.0,1623756913.471
2061298.0,1623756913.512
2060503.0,1623756913.551
2059682.0,1623756913.592
2058545.0,1623756913.632
2057693.0,1623756913.671
2056903.0,1623756913.711
2056043.0,1623756913.753
2054701.0,1623756913.793
2052544.0,1623756913.832
2050678.0,1623756913.873
2048895.0,1623756913.912
2047198.0,1623756913.952
2045959.0,1623756913.994
2044779.0,1623756914.032
2043379.0,1623756914.072
2042207.0,1623756914.113
2041124.0,1623756914.152
2040247.0,1623756914.193
2039210.0,1623756914.233
2038355.0,1623756914.273
2037814.0,1623756914.313
2036913.0,1623756914.354
2035739.0,1623756914.394
2034216.0,1623756914.433
2032107.0,1623756914.474
2030263.0,1623756914.513
2028190.0,1623756914.553
2026690.0,1623756914.595
2025602.0,1623756914.633
2024412.0,1623756914.673
2023028.0,1623756914.714
2021989.0,1623756914.753
2020686.0,1623756914.795
2019701.0,1623756914.835
2018960.0,1623756914.874
2018161.0,1623756914.914
2017369.0,1623756914.955
2016476.0,1623756914.995
2014723.0,1623756915.034
2012661.0,1623756915.075
2010613.0,1623756915.114
2008464.0,1623756915.154
2007013.0,1623756915.196
2005696.0,1623756915.234
2004294.0,1623756915.275
2003361.0,1623756915.316
2001866.0,1623756915.355
2000608.0,1623756915.396
1999610.0,1623756915.436
1998709.0,1623756915.475
1997930.0,1623756915.515
1997070.0,1623756915.556
1996112.0,1623756915.596
1994887.0,1623756915.635
1992998.0,1623756915.677
1991040.0,1623756915.716
1988681.0,1623756915.756
1987011.0,1623756915.798
1985548.0,1623756915.836
1984329.0,1623756915.876
1983257.0,1623756915.917
1981953.0,1623756915.956
1980893.0,1623756915.997
1979636.0,1623756916.037
1978844.0,1623756916.076
1977920.0,1623756916.116
1977269.0,1623756916.157
1976325.0,1623756916.197
1975770.0,1623756916.237
1975356.0,1623756916.278
1974043.0,1623756916.317
1972317.0,1623756916.357
1970658.0,1623756916.399
1968683.0,1623756916.437
1967109.0,1623756916.477
1966133.0,1623756916.518
1964942.0,1623756916.557
1963787.0,1623756916.598
1962835.0,1623756916.639
1962038.0,1623756916.678
1961341.0,1623756916.718
1960672.0,1623756916.759
1959940.0,1623756916.799
1959681.0,1623756916.838
1959024.0,1623756916.879
1958995.0,1623756916.918
1958714.0,1623756916.958
1958277.0,1623756917.0
1957712.0,1623756917.038
1956509.0,1623756917.078
1955243.0,1623756917.12
1953937.0,1623756917.159
1952822.0,1623756917.2
1952472.0,1623756917.24
1951736.0,1623756917.279
1951266.0,1623756917.319
1950803.0,1623756917.36
1950360.0,1623756917.4
1950109.0,1623756917.439
1950122.0,1623756917.48
1949931.0,1623756917.519
1950036.0,1623756917.56
1950029.0,1623756917.602
1950314.0,1623756917.64
1950527.0,1623756917.68
1950665.0,1623756917.721
1950652.0,1623756917.76
1950552.0,1623756917.801
1949889.0,1623756917.841
1949269.0,1623756917.88
1948823.0,1623756917.92
1948953.0,1623756917.962
1949003.0,1623756918.002
1948924.0,1623756918.041
1948707.0,1623756918.082
1949094.0,1623756918.121
1949314.0,1623756918.161
1949388.0,1623756918.203
1950089.0,1623756918.241
1950556.0,1623756918.281
1951029.0,1623756918.322
1951598.0,1623756918.361
1952259.0,1623756918.403
1952721.0,1623756918.443
1953653.0,1623756918.482
1953913.0,1623756918.522
1954159.0,1623756918.563
1954239.0,1623756918.603
1954121.0,1623756918.642
1954456.0,1623756918.683
1954931.0,1623756918.722
1955506.0,1623756918.762
1956157.0,1623756918.804
1956354.0,1623756918.842
1956971.0,1623756918.882
1957627.0,1623756918.924
1958123.0,1623756918.963
1958839.0,1623756919.004
1959821.0,1623756919.044
1960336.0,1623756919.083
1961083.0,1623756919.123
1961965.0,1623756919.164
1962994.0,1623756919.204
1963212.0,1623756919.243
1963703.0,1623756919.284
1963888.0,1623756919.323
1964081.0,1623756919.363
1964417.0,1623756919.406
1965044.0,1623756919.444
1965386.0,1623756919.484
1965982.0,1623756919.525
1966401.0,1623756919.564
1967113.0,1623756919.605
1967868.0,1623756919.645
1968270.0,1623756919.684
1969032.0,1623756919.724
1969728.0,1623756919.765
1970478.0,1623756919.805
1971297.0,1623756919.845
1972263.0,1623756919.886
1972540.0,1623756919.925
1972815.0,1623756919.965
1973049.0,1623756920.007
1973086.0,1623756920.045
1973547.0,1623756920.085
1973934.0,1623756920.126
1974370.0,1623756920.165
1974887.0,1623756920.207
1975428.0,1623756920.247
1975743.0,1623756920.286
1976351.0,1623756920.326
1976655.0,1623756920.367
1977208.0,1623756920.407
1977816.0,1623756920.446
1978268.0,1623756920.487
1979000.0,1623756920.526
1979504.0,1623756920.566
1979734.0,1623756920.608
1979944.0,1623756920.646
1979849.0,1623756920.686
1979888.0,1623756920.728
1980042.0,1623756920.767
1980314.0,1623756920.806
1980546.0,1623756920.846
1980966.0,1623756920.885
1981263.0,1623756920.925
1981482.0,1623756920.966
1981817.0,1623756921.006
1981997.0,1623756921.045
1982340.0,1623756921.086
1982851.0,1623756921.125
1983181.0,1623756921.165
1983713.0,1623756921.208
1983901.0,1623756921.246
1983913.0,1623756921.286
1983694.0,1623756921.327
1983435.0,1623756921.366
1983453.0,1623756921.407
1983751.0,1623756921.447
1983850.0,1623756921.486
1983972.0,1623756921.526
1983991.0,1623756921.567
1984031.0,1623756921.607
1984312.0,1623756921.646
1984664.0,1623756921.687
1984582.0,1623756921.726
1985082.0,1623756921.766
1985323.0,1623756921.809
1985508.0,1623756921.847
1985748.0,1623756921.887
1985433.0,1623756921.928
1984810.0,1623756921.967
1984369.0,1623756922.008
1984040.0,1623756922.048
1983866.0,1623756922.087
1983920.0,1623756922.127
1983689.0,1623756922.168
1983715.0,1623756922.208
1983748.0,1623756922.247
1983499.0,1623756922.288
1983752.0,1623756922.327
1983653.0,1623756922.367
1983884.0,1623756922.409
1983792.0,1623756922.447
1984003.0,1623756922.487
1983414.0,1623756922.567
1982307.0,1623756922.608
1981856.0,1623756922.649
1981109.0,1623756922.688
1983886.0,1623756922.528
1980866.0,1623756922.728
1980538.0,1623756922.769
1980354.0,1623756922.809
1979877.0,1623756922.848
1979587.0,1623756922.889
1979357.0,1623756922.928
1979239.0,1623756922.968
1979111.0,1623756923.01
1978964.0,1623756923.048
1978768.0,1623756923.088
1978788.0,1623756923.129
1978643.0,1623756923.168
1978031.0,1623756923.209
1976929.0,1623756923.25
1976007.0,1623756923.289
1975297.0,1623756923.329
1974396.0,1623756923.37
1974097.0,1623756923.41
1973669.0,1623756923.449
1972363.0,1623756923.529
1972074.0,1623756923.569
1973011.0,1623756923.49
1971349.0,1623756923.649
1971079.0,1623756923.73
1971025.0,1623756923.769
1971203.0,1623756923.689
1971680.0,1623756923.611
1970950.0,1623756923.811
1970842.0,1623756923.851
1970394.0,1623756923.89
1969455.0,1623756923.93
1968478.0,1623756923.971
1967604.0,1623756924.011
1966627.0,1623756924.05
1965836.0,1623756924.091
1965403.0,1623756924.13
1964842.0,1623756924.17
1963869.0,1623756924.212
1963187.0,1623756924.25
1963055.0,1623756924.29
1962629.0,1623756924.332
1962457.0,1623756924.37
1962980.0,1623756924.412
1964038.0,1623756924.452
1964316.0,1623756924.491
1964823.0,1623756924.531
1965491.0,1623756924.572
1965758.0,1623756924.612
1965860.0,1623756924.651
1965726.0,1623756924.692
1966494.0,1623756924.731
1967048.0,1623756924.771
1967553.0,1623756924.813
1968438.0,1623756924.851
1969578.0,1623756924.891
1970354.0,1623756924.932
1971436.0,1623756924.971
1972669.0,1623756925.013
1974195.0,1623756925.053
1975470.0,1623756925.092
1977085.0,1623756925.132
1978494.0,1623756925.173
1979473.0,1623756925.213
1980764.0,1623756925.252
1982067.0,1623756925.293
1983082.0,1623756925.332
1983511.0,1623756925.372
1983678.0,1623756925.414
1983203.0,1623756925.452
1982529.0,1623756925.492
1981860.0,1623756925.534
1981433.0,1623756925.573
1981192.0,1623756925.614
1980920.0,1623756925.654
1980447.0,1623756925.693
1980474.0,1623756925.733
1980236.0,1623756925.774
1980094.0,1623756925.814
1980067.0,1623756925.853
1980185.0,1623756925.894
1980237.0,1623756925.933
1980568.0,1623756925.973
1980621.0,1623756926.016
1980638.0,1623756926.054
1980857.0,1623756926.094
1980485.0,1623756926.135
1980085.0,1623756926.174
1979635.0,1623756926.215
1979186.0,1623756926.255
1978942.0,1623756926.294
1979328.0,1623756926.334
1979301.0,1623756926.375
1979263.0,1623756926.415
1979178.0,1623756926.454
1979181.0,1623756926.495
1979471.0,1623756926.534
1979644.0,1623756926.575
1979569.0,1623756926.617
1980004.0,1623756926.655
1980184.0,1623756926.695
1980642.0,1623756926.736
1981026.0,1623756926.775
1980692.0,1623756926.816
1980318.0,1623756926.856
1979658.0,1623756926.895
1979301.0,1623756926.935
1979008.0,1623756926.976
1979139.0,1623756927.016
1979039.0,1623756927.055
1979007.0,1623756927.097
1979213.0,1623756927.136
1979128.0,1623756927.176
1979175.0,1623756927.218
1979140.0,1623756927.256
1979512.0,1623756927.296
1980100.0,1623756927.337
1980307.0,1623756927.376
1980723.0,1623756927.417
1981083.0,1623756927.457
1981278.0,1623756927.496
1980860.0,1623756927.536
1980474.0,1623756927.577
1979795.0,1623756927.617
1979552.0,1623756927.657
1979318.0,1623756927.698
1979357.0,1623756927.737
1979181.0,1623756927.777
1979212.0,1623756927.819
1979457.0,1623756927.857
1979099.0,1623756927.897
1979123.0,1623756927.938
1979373.0,1623756927.977
1979448.0,1623756928.018
1979481.0,1623756928.058
1979838.0,1623756928.097
1980087.0,1623756928.137
1980236.0,1623756928.179
1979904.0,1623756928.219
1979559.0,1623756928.258
1978871.0,1623756928.299
1978526.0,1623756928.338
1978095.0,1623756928.378
1978116.0,1623756928.42
1978189.0,1623756928.458
1978059.0,1623756928.498
1978258.0,1623756928.539
1978222.0,1623756928.578
1978429.0,1623756928.619
1978481.0,1623756928.659
1978854.0,1623756928.698
1979090.0,1623756928.739
1979524.0,1623756928.78
1979765.0,1623756928.82
1980050.0,1623756928.859
1979793.0,1623756928.9
1979417.0,1623756928.939
1978917.0,1623756928.979
1978481.0,1623756929.021
1978069.0,1623756929.059
1978052.0,1623756929.099
1978195.0,1623756929.14
1978078.0,1623756929.179
1977935.0,1623756929.22
1977697.0,1623756929.26
1977691.0,1623756929.3
1977800.0,1623756929.34
1978031.0,1623756929.381
1978309.0,1623756929.42
1978504.0,1623756929.46
1978866.0,1623756929.501
1979236.0,1623756929.54
1978890.0,1623756929.58
1978600.0,1623756929.622
1977833.0,1623756929.66
1977403.0,1623756929.7
1976932.0,1623756929.741
1976649.0,1623756929.78
1976673.0,1623756929.821
1976468.0,1623756929.862
1976263.0,1623756929.901
1976358.0,1623756929.941
1976282.0,1623756929.974
1976239.0,1623756930.006
1976324.0,1623756930.045
1976436.0,1623756930.086
1976633.0,1623756930.125
1976882.0,1623756930.165
1977244.0,1623756930.207
1977347.0,1623756930.246
1977073.0,1623756930.286
1976533.0,1623756930.327
1975574.0,1623756930.366
1975045.0,1623756930.406
1974576.0,1623756930.447
1974421.0,1623756930.486
1974306.0,1623756930.526
1974193.0,1623756930.567
1974033.0,1623756930.607
1974117.0,1623756930.646
1974071.0,1623756930.687
1974326.0,1623756930.727
1974360.0,1623756930.766
1974500.0,1623756930.802
1974601.0,1623756930.834
1974811.0,1623756930.872
1974986.0,1623756930.913
1975203.0,1623756930.952
1975398.0,1623756930.993
1974645.0,1623756931.034
1974071.0,1623756931.073
1973404.0,1623756931.113
1972803.0,1623756931.154
1972554.0,1623756931.194
1972386.0,1623756931.229
1972185.0,1623756931.27
1972226.0,1623756931.309
1972145.0,1623756931.349
1972041.0,1623756931.391
1971810.0,1623756931.43
1972433.0,1623756931.47
1972136.0,1623756931.511
1972405.0,1623756931.55
1972689.0,1623756931.591
1972939.0,1623756931.631
1973304.0,1623756931.67
1973620.0,1623756931.71
1972948.0,1623756931.791
1972430.0,1623756931.831
1973548.0,1623756931.751
1972129.0,1623756931.872
1971600.0,1623756931.911
1971191.0,1623756931.994
1971660.0,1623756931.952
1970966.0,1623756932.072
1971134.0,1623756932.033
1971030.0,1623756932.113
1970945.0,1623756932.152
1971353.0,1623756932.234
1971173.0,1623756932.193
1971453.0,1623756932.273
1971698.0,1623756932.313
1972001.0,1623756932.355
1972168.0,1623756932.394
1972809.0,1623756932.431
1972987.0,1623756932.472
1973102.0,1623756932.511
1972835.0,1623756932.551
1972105.0,1623756932.593
1971512.0,1623756932.632
1971020.0,1623756932.672
1970886.0,1623756932.713
1970788.0,1623756932.752
1970720.0,1623756932.837
1970535.0,1623756932.877
1970617.0,1623756932.916
1970399.0,1623756932.956
1970549.0,1623756932.997
1970573.0,1623756933.037
1971015.0,1623756933.076
1970947.0,1623756933.117
1971280.0,1623756933.156
1971419.0,1623756933.196
1972049.0,1623756933.238
1972033.0,1623756933.277
1972224.0,1623756933.317
1972022.0,1623756933.358
1971395.0,1623756933.397
1970756.0,1623756933.438
1970284.0,1623756933.479
1969905.0,1623756933.518
1969778.0,1623756933.558
1969630.0,1623756933.599
1969705.0,1623756933.639
1969612.0,1623756933.679
1969488.0,1623756933.717
1969618.0,1623756933.754
1969967.0,1623756933.794
1970129.0,1623756933.836
1970166.0,1623756933.874
1970515.0,1623756933.914
1970596.0,1623756933.955
1970965.0,1623756933.994
1971331.0,1623756934.035
1971610.0,1623756934.075
1971465.0,1623756934.114
1970739.0,1623756934.155
1970143.0,1623756934.196
1969714.0,1623756934.235
1969558.0,1623756934.275
1969306.0,1623756934.316
1969296.0,1623756934.355
1969288.0,1623756934.395
1969218.0,1623756934.437
1969146.0,1623756934.476
1969049.0,1623756934.516
1969349.0,1623756934.558
1969292.0,1623756934.597
1969632.0,1623756934.638
1969914.0,1623756934.678
1970227.0,1623756934.717
1970379.0,1623756934.758
1970839.0,1623756934.799
1970694.0,1623756934.839
1970563.0,1623756934.878
1969878.0,1623756934.919
1971448.0,1623756934.96
1987313.0,1623756935.0
2019566.0,1623756935.042
2030352.0,1623756935.081
2028371.0,1623756935.121
2026107.0,1623756935.162
2028237.0,1623756935.201
2024384.0,1623756935.241
2016419.0,1623756935.282
2006406.0,1623756935.321
1994185.0,1623756935.361
1986507.0,1623756935.402
1977518.0,1623756935.442
1972230.0,1623756935.481
1968487.0,1623756935.522
1967178.0,1623756935.561
1967987.0,1623756935.602
1967220.0,1623756935.643
1966223.0,1623756935.682
1966992.0,1623756935.723
1969986.0,1623756935.762
1973324.0,1623756935.798
1977178.0,1623756935.839
1982537.0,1623756935.879
1987102.0,1623756935.919
1992263.0,1623756935.959
1998301.0,1623756936.0
2004882.0,1623756936.04
2009494.0,1623756936.08
2014525.0,1623756936.121
2021059.0,1623756936.16
2026951.0,1623756936.194
2030332.0,1623756936.236
2032826.0,1623756936.274
2033669.0,1623756936.314
2033771.0,1623756936.355
2035176.0,1623756936.394
2036511.0,1623756936.435
2038260.0,1623756936.476
2037462.0,1623756936.515
2035926.0,1623756936.555
2034483.0,1623756936.596
2033672.0,1623756936.636
2032740.0,1623756936.675
2032115.0,1623756936.716
2031567.0,1623756936.755
2031289.0,1623756936.795
2031929.0,1623756936.837
2033062.0,1623756936.875
2032729.0,1623756936.916
2032047.0,1623756936.957
2031024.0,1623756936.997
2030902.0,1623756937.038
2031770.0,1623756937.078
2031697.0,1623756937.118
2031291.0,1623756937.159
2030966.0,1623756937.2
2030881.0,1623756937.239
2030389.0,1623756937.279
2030342.0,1623756937.32
2030410.0,1623756937.359
2030723.0,1623756937.399
2030662.0,1623756937.439
2030618.0,1623756937.477
2030786.0,1623756937.517
2030781.0,1623756937.559
2030279.0,1623756937.598
2028164.0,1623756937.638
2025315.0,1623756937.679
2022287.0,1623756937.718
2018685.0,1623756937.758
2015777.0,1623756937.799
2013950.0,1623756937.839
2013566.0,1623756937.878
2012821.0,1623756937.919
2013912.0,1623756937.958
2013329.0,1623756937.998
2013280.0,1623756938.04
2012919.0,1623756938.078
2011654.0,1623756938.119
2009658.0,1623756938.16
2008549.0,1623756938.199
2007687.0,1623756938.24
2006903.0,1623756938.28
2006284.0,1623756938.32
2006327.0,1623756938.36
2005386.0,1623756938.401
2004239.0,1623756938.441
2003037.0,1623756938.48
2002528.0,1623756938.522
2002016.0,1623756938.561
2001644.0,1623756938.599
2000745.0,1623756938.641
2000024.0,1623756938.68
1999701.0,1623756938.72
1999063.0,1623756938.754
1998662.0,1623756938.793
1997919.0,1623756938.834
1997098.0,1623756938.874
1996170.0,1623756938.914
1994893.0,1623756938.953
1993020.0,1623756938.995
1990712.0,1623756939.034
1988533.0,1623756939.074
1986344.0,1623756939.115
1984753.0,1623756939.154
1983151.0,1623756939.194
1981578.0,1623756939.236
1980080.0,1623756939.274
1978597.0,1623756939.314
1977568.0,1623756939.355
1976723.0,1623756939.394
1975923.0,1623756939.435
1975134.0,1623756939.475
1974671.0,1623756939.51
1973596.0,1623756939.551
1972730.0,1623756939.584
1971048.0,1623756939.621
1969866.0,1623756939.661
1967881.0,1623756939.702
1966114.0,1623756939.741
1964674.0,1623756939.781
1963245.0,1623756939.824
1962014.0,1623756939.862
1960890.0,1623756939.902
1959999.0,1623756939.944
1958779.0,1623756939.977
1958779.0,1623756940.018
1957619.0,1623756940.058
1956679.0,1623756940.097
1955790.0,1623756940.138
1954972.0,1623756940.179
1954217.0,1623756940.218
1953556.0,1623756940.258
1952681.0,1623756940.299
1951624.0,1623756940.338
1949857.0,1623756940.378
1947976.0,1623756940.42
1945813.0,1623756940.458
1944039.0,1623756940.499
1942691.0,1623756940.54
1941385.0,1623756940.579
1940232.0,1623756940.619
1939091.0,1623756940.66
1937828.0,1623756940.7
1936841.0,1623756940.74
1935968.0,1623756940.782
1935006.0,1623756940.821
1934348.0,1623756940.861
1933479.0,1623756940.902
1932917.0,1623756940.942
1932373.0,1623756940.982
1931707.0,1623756941.024
1930912.0,1623756941.062
1930047.0,1623756941.103
1928424.0,1623756941.144
1926996.0,1623756941.183
1925449.0,1623756941.22
1924078.0,1623756941.261
1923329.0,1623756941.3
1922668.0,1623756941.34
1922233.0,1623756941.381
1921379.0,1623756941.421
1920840.0,1623756941.46
1920551.0,1623756941.501
1920485.0,1623756941.54
1920221.0,1623756941.58
1920006.0,1623756941.622
1919440.0,1623756941.661
1919347.0,1623756941.701
1919381.0,1623756941.742
1919370.0,1623756941.781
1919394.0,1623756941.822
1919120.0,1623756941.862
1918361.0,1623756941.901
1917110.0,1623756941.942
1916431.0,1623756941.984
1915565.0,1623756942.023
1914992.0,1623756942.063
1914757.0,1623756942.104
1914232.0,1623756942.143
1914070.0,1623756942.181
1913502.0,1623756942.224
1913335.0,1623756942.262
1913209.0,1623756942.302
1913008.0,1623756942.344
1912843.0,1623756942.383
1912722.0,1623756942.424
1912507.0,1623756942.464
1912038.0,1623756942.504
1911845.0,1623756942.543
1911677.0,1623756942.584
1911388.0,1623756942.624
1910334.0,1623756942.663
1909395.0,1623756942.704
1908838.0,1623756942.743
1908496.0,1623756942.783
1908168.0,1623756942.825
1908016.0,1623756942.863
1907561.0,1623756942.903
1907421.0,1623756942.945
1907101.0,1623756942.984
1906850.0,1623756943.024
1906853.0,1623756943.065
1906828.0,1623756943.104
1906786.0,1623756943.144
1906695.0,1623756943.185
1906758.0,1623756943.225
1906734.0,1623756943.264
1906817.0,1623756943.303
1906543.0,1623756943.342
1905693.0,1623756943.383
1905154.0,1623756943.425
1904567.0,1623756943.463
1903754.0,1623756943.503
1903465.0,1623756943.545
1903505.0,1623756943.584
1902965.0,1623756943.625
1903086.0,1623756943.663
1902967.0,1623756943.702
1903094.0,1623756943.743
1903481.0,1623756943.777
1903430.0,1623756943.817
1903959.0,1623756943.856
1904583.0,1623756943.897
1905093.0,1623756943.936
1905265.0,1623756943.977
1905753.0,1623756944.018
1905499.0,1623756944.057
1905350.0,1623756944.097
1904716.0,1623756944.138
1904189.0,1623756944.177
1903687.0,1623756944.218
1903761.0,1623756944.258
1904514.0,1623756944.297
1904573.0,1623756944.337
1904711.0,1623756944.378
1905294.0,1623756944.418
1905950.0,1623756944.457
1906438.0,1623756944.494
1906597.0,1623756944.534
1906726.0,1623756944.568
1907064.0,1623756944.606
1907689.0,1623756944.642
1907674.0,1623756944.682
1907944.0,1623756944.723
1907808.0,1623756944.762
1907166.0,1623756944.809
1906813.0,1623756944.85
1906073.0,1623756944.889
1905823.0,1623756944.929
1905489.0,1623756944.97
1905124.0,1623756945.009
1904746.0,1623756945.049
1904447.0,1623756945.09
1904171.0,1623756945.129
1904015.0,1623756945.169
1903634.0,1623756945.211
1903306.0,1623756945.249
1902890.0,1623756945.289
1902936.0,1623756945.33
1902424.0,1623756945.369
1902006.0,1623756945.41
1901268.0,1623756945.451
1900156.0,1623756945.49
1899346.0,1623756945.53
1898346.0,1623756945.571
1898003.0,1623756945.611
1897357.0,1623756945.65
1896704.0,1623756945.691
1896202.0,1623756945.728
1895502.0,1623756945.768
1894980.0,1623756945.81
1894548.0,1623756945.849
1893865.0,1623756945.889
1893643.0,1623756945.93
1893234.0,1623756945.97
1892917.0,1623756946.011
1892566.0,1623756946.051
1891440.0,1623756946.09
1890389.0,1623756946.128
1889323.0,1623756946.17
1887829.0,1623756946.211
1886841.0,1623756946.25
1886028.0,1623756946.292
1885416.0,1623756946.331
1884476.0,1623756946.371
1883666.0,1623756946.412
1882964.0,1623756946.451
1882222.0,1623756946.491
1881602.0,1623756946.532
1880937.0,1623756946.571
1880559.0,1623756946.612
1880094.0,1623756946.652
1879695.0,1623756946.691
1878790.0,1623756946.731
1877335.0,1623756946.772
1875815.0,1623756946.812
1874574.0,1623756946.852
1873336.0,1623756946.893
1872545.0,1623756946.932
1871517.0,1623756946.972
1870800.0,1623756947.014
1870016.0,1623756947.052
1869092.0,1623756947.092
1868469.0,1623756947.133
1867727.0,1623756947.172
1867153.0,1623756947.213
1866823.0,1623756947.253
1866302.0,1623756947.292
1865698.0,1623756947.333
1865123.0,1623756947.374
1864054.0,1623756947.413
1862439.0,1623756947.453
1861090.0,1623756947.494
1859684.0,1623756947.533
1858513.0,1623756947.573
1857808.0,1623756947.615
1855967.0,1623756947.693
1856899.0,1623756947.653
1855242.0,1623756947.734
1854478.0,1623756947.773
1854019.0,1623756947.814
1853148.0,1623756947.854
1852893.0,1623756947.893
1852334.0,1623756947.933
1852077.0,1623756947.975
1851953.0,1623756948.014
1851714.0,1623756948.054
1851154.0,1623756948.095
1850245.0,1623756948.134
1848851.0,1623756948.174
1847512.0,1623756948.216
1846118.0,1623756948.254
1845034.0,1623756948.294
1844155.0,1623756948.335
1843381.0,1623756948.374
1842799.0,1623756948.415
1842099.0,1623756948.456
1841451.0,1623756948.495
1840971.0,1623756948.535
1840556.0,1623756948.576
1839988.0,1623756948.616
1839730.0,1623756948.655
1839535.0,1623756948.696
1839323.0,1623756948.735
1839104.0,1623756948.775
1839112.0,1623756948.817
1838595.0,1623756948.855
1837793.0,1623756948.895
1836822.0,1623756948.936
1835529.0,1623756948.975
1834503.0,1623756949.016
1833870.0,1623756949.057
1833332.0,1623756949.096
1832855.0,1623756949.136
1832373.0,1623756949.177
1831978.0,1623756949.217
1831882.0,1623756949.256
1831579.0,1623756949.297
1831372.0,1623756949.336
1831239.0,1623756949.376
1831135.0,1623756949.418
1831026.0,1623756949.456
1831185.0,1623756949.496
1831251.0,1623756949.537
1831218.0,1623756949.576
1831262.0,1623756949.617
1831205.0,1623756949.658
1830736.0,1623756949.697
1829860.0,1623756949.737
1828952.0,1623756949.778
1827918.0,1623756949.818
1827352.0,1623756949.857
1827018.0,1623756949.898
1826633.0,1623756949.937
1826262.0,1623756949.977
1825971.0,1623756950.019
1825556.0,1623756950.057
1825448.0,1623756950.097
1825317.0,1623756950.139
1825130.0,1623756950.178
1825241.0,1623756950.218
1825385.0,1623756950.259
1825624.0,1623756950.298
1825466.0,1623756950.338
1825500.0,1623756950.379
1825625.0,1623756950.419
1825917.0,1623756950.458
1825958.0,1623756950.499
1825511.0,1623756950.538
1824927.0,1623756950.578
1824253.0,1623756950.62
1823823.0,1623756950.659
1823643.0,1623756950.699
1823696.0,1623756950.74
1823696.0,1623756950.779
1823782.0,1623756950.82
1823833.0,1623756950.86
1823988.0,1623756950.899
1824441.0,1623756950.939
1824552.0,1623756950.98
1825050.0,1623756951.02
1825989.0,1623756951.059
1826793.0,1623756951.101
1827915.0,1623756951.14
1828876.0,1623756951.18
1829720.0,1623756951.221
1830644.0,1623756951.26
1831467.0,1623756951.3
1831687.0,1623756951.341
1831801.0,1623756951.38
1831579.0,1623756951.421
1831586.0,1623756951.461
1831342.0,1623756951.5
1831835.0,1623756951.54
1831776.0,1623756951.582
1831763.0,1623756951.621
1831842.0,1623756951.661
1831976.0,1623756951.702
1831970.0,1623756951.741
1832176.0,1623756951.781
1832526.0,1623756951.823
1832617.0,1623756951.861
1832804.0,1623756951.901
1832951.0,1623756951.942
1833616.0,1623756951.981
1833655.0,1623756952.022
1833938.0,1623756952.062
1834059.0,1623756952.101
1834636.0,1623756952.142
1834152.0,1623756952.177
1833664.0,1623756952.214
1833192.0,1623756952.251
1832711.0,1623756952.292
1832457.0,1623756952.332
1832472.0,1623756952.372
1832459.0,1623756952.414
1832075.0,1623756952.451
1832153.0,1623756952.492
1831983.0,1623756952.533
1832014.0,1623756952.571
1832084.0,1623756952.609
1832081.0,1623756952.65
1832086.0,1623756952.689
1832135.0,1623756952.729
1832571.0,1623756952.77
1832527.0,1623756952.81
1832717.0,1623756952.849
1832922.0,1623756952.89
1832901.0,1623756952.929
1832402.0,1623756952.969
1831892.0,1623756953.011
1831428.0,1623756953.05
1830935.0,1623756953.09
1830756.0,1623756953.131
1830639.0,1623756953.17
1830355.0,1623756953.211
1830283.0,1623756953.251
1830166.0,1623756953.291
1829969.0,1623756953.332
1829978.0,1623756953.373
1830013.0,1623756953.412
1829995.0,1623756953.452
1829985.0,1623756953.493
1830264.0,1623756953.532
1830166.0,1623756953.572
1830308.0,1623756953.614
1830312.0,1623756953.652
1830155.0,1623756953.692
1829485.0,1623756953.733
1829058.0,1623756953.772
1828353.0,1623756953.813
1827724.0,1623756953.846
1827421.0,1623756953.885
1827234.0,1623756953.925
1826684.0,1623756953.966
1826441.0,1623756954.006
1826213.0,1623756954.045
1825921.0,1623756954.086
1825976.0,1623756954.126
1825712.0,1623756954.166
1825772.0,1623756954.207
1825785.0,1623756954.246
1825817.0,1623756954.286
1825749.0,1623756954.327
1825847.0,1623756954.366
1825815.0,1623756954.407
1825393.0,1623756954.447
1824801.0,1623756954.486
1823892.0,1623756954.527
1823366.0,1623756954.565
1822438.0,1623756954.604
1821996.0,1623756954.635
1821774.0,1623756954.677
1821325.0,1623756954.715
1820954.0,1623756954.753
1820716.0,1623756954.795
1820480.0,1623756954.834
1820146.0,1623756954.873
1820146.0,1623756954.911
1820165.0,1623756954.95
1819904.0,1623756954.991
1820026.0,1623756955.031
1819935.0,1623756955.07
1819677.0,1623756955.11
1819601.0,1623756955.151
1819285.0,1623756955.191
1818318.0,1623756955.231
1817369.0,1623756955.272
1816532.0,1623756955.311
1816099.0,1623756955.351
1815437.0,1623756955.393
1815027.0,1623756955.431
1814546.0,1623756955.471
1814145.0,1623756955.512
1813458.0,1623756955.593
1813744.0,1623756955.551
1812972.0,1623756955.673
1813279.0,1623756955.634
1812639.0,1623756955.713
1812658.0,1623756955.754
1812522.0,1623756955.794
1812491.0,1623756955.875
1812605.0,1623756955.834
1811975.0,1623756955.915
1811200.0,1623756955.955
1810301.0,1623756955.997
1809719.0,1623756956.035
1809184.0,1623756956.073
1808832.0,1623756956.114
1808449.0,1623756956.153
1807957.0,1623756956.194
1807733.0,1623756956.234
1807544.0,1623756956.273
1807366.0,1623756956.313
1807080.0,1623756956.354
1806960.0,1623756956.394
1807051.0,1623756956.433
1806971.0,1623756956.474
1807145.0,1623756956.513
1807330.0,1623756956.553
1806976.0,1623756956.595
1806205.0,1623756956.634
1805418.0,1623756956.674
1804617.0,1623756956.715
1804512.0,1623756956.754
1804132.0,1623756956.793
1803957.0,1623756956.832
1803639.0,1623756956.871
1803601.0,1623756956.91
1803508.0,1623756956.949
1803325.0,1623756956.988
1803333.0,1623756957.027
1803358.0,1623756957.066
1803604.0,1623756957.105
1803761.0,1623756957.144
1803907.0,1623756957.183
1804246.0,1623756957.222
1804311.0,1623756957.261
1804078.0,1623756957.3
1803327.0,1623756957.339
1802814.0,1623756957.378
1802137.0,1623756957.417
1801538.0,1623756957.456
1801633.0,1623756957.495
1801463.0,1623756957.534
1801241.0,1623756957.573
1801189.0,1623756957.612
1801224.0,1623756957.651
1801273.0,1623756957.69
1801525.0,1623756957.729
1801594.0,1623756957.768
1802024.0,1623756957.807
1802167.0,1623756957.846
1802447.0,1623756957.885
1802877.0,1623756957.924
1803353.0,1623756957.963
1803406.0,1623756958.002
1802916.0,1623756958.041
1802483.0,1623756958.08
1802151.0,1623756958.119
1801439.0,1623756958.158
1800842.0,1623756958.197
1800168.0,1623756958.236
1799428.0,1623756958.275
1798749.0,1623756958.314
1798323.0,1623756958.353
1797693.0,1623756958.392
1797612.0,1623756958.431
1797359.0,1623756958.47
1797446.0,1623756958.509
1797775.0,1623756958.548
1798095.0,1623756958.587
1798733.0,1623756958.626
1799492.0,1623756958.665
1800196.0,1623756958.704
1800689.0,1623756958.743
1800657.0,1623756958.782
1800375.0,1623756958.821
1800236.0,1623756958.86
1799991.0,1623756958.899
1799982.0,1623756958.938
1800026.0,1623756958.977
1800175.0,1623756959.055
1800257.0,1623756959.094
1800060.0,1623756959.016
1800323.0,1623756959.133
1800582.0,1623756959.172
1800813.0,1623756959.211
1801452.0,1623756959.25
1802244.0,1623756959.289
1803029.0,1623756959.328
1805875.0,1623756959.445
1803840.0,1623756959.367
1804913.0,1623756959.406
1806757.0,1623756959.484
1807707.0,1623756959.523
1808106.0,1623756959.562
1808616.0,1623756959.601
1809207.0,1623756959.64
1809506.0,1623756959.679
1810182.0,1623756959.718
1811045.0,1623756959.757
1811753.0,1623756959.796
1812498.0,1623756959.835
1813192.0,1623756959.874
1814180.0,1623756959.913
1815423.0,1623756959.952
1816112.0,1623756959.991
1816752.0,1623756960.03
1817683.0,1623756960.069
1818324.0,1623756960.108
1818972.0,1623756960.147
1819671.0,1623756960.186
1820278.0,1623756960.225
1820599.0,1623756960.264
1820736.0,1623756960.303
1820422.0,1623756960.342
1820203.0,1623756960.381
1819894.0,1623756960.42
1819980.0,1623756960.459
1820025.0,1623756960.498
1820292.0,1623756960.537
1820127.0,1623756960.576
1820082.0,1623756960.615
1819979.0,1623756960.654
1820282.0,1623756960.693
1820117.0,1623756960.732
1820392.0,1623756960.771
1820500.0,1623756960.81
1820853.0,1623756960.849
1821040.0,1623756960.888
1821324.0,1623756960.927
1821357.0,1623756960.966
1821100.0,1623756961.005
1820947.0,1623756961.044
1820570.0,1623756961.083
1820470.0,1623756961.122
1820334.0,1623756961.161
1820460.0,1623756961.2
1820331.0,1623756961.239
1820480.0,1623756961.278
1820673.0,1623756961.317
1820623.0,1623756961.356
1820662.0,1623756961.395
1820940.0,1623756961.434
1821029.0,1623756961.473
1821400.0,1623756961.512
1821746.0,1623756961.551
1822020.0,1623756961.59
1821901.0,1623756961.629
1821643.0,1623756961.668
1821251.0,1623756961.707
1820922.0,1623756961.746
1820451.0,1623756961.785
1820411.0,1623756961.824
1820487.0,1623756961.863
1820247.0,1623756961.902
1820413.0,1623756961.941
1820346.0,1623756961.98
1820293.0,1623756962.019
1820666.0,1623756962.058
1820769.0,1623756962.097
1820916.0,1623756962.136
1821125.0,1623756962.175
1821538.0,1623756962.214
1821538.0,1623756962.253
1821751.0,1623756962.292
1821830.0,1623756962.331
1821297.0,1623756962.37
1820748.0,1623756962.409
1820003.0,1623756962.448
1819440.0,1623756962.487
1819194.0,1623756962.526
1819033.0,1623756962.565
1818832.0,1623756962.604
1818783.0,1623756962.643
1818536.0,1623756962.682
1818258.0,1623756962.721
1818431.0,1623756962.76
1818434.0,1623756962.799
1818606.0,1623756962.838
1818570.0,1623756962.877
1818651.0,1623756962.916
1818766.0,1623756962.955
1818829.0,1623756962.994
1818681.0,1623756963.033
1817829.0,1623756963.072
1817146.0,1623756963.111
1816448.0,1623756963.15
1815841.0,1623756963.189
1815443.0,1623756963.228
1815046.0,1623756963.267
1814800.0,1623756963.306
1814631.0,1623756963.345
1814468.0,1623756963.384
1814466.0,1623756963.423
1814459.0,1623756963.462
1814496.0,1623756963.501
1814732.0,1623756963.54
1814914.0,1623756963.579
1814971.0,1623756963.618
1815284.0,1623756963.657
1815404.0,1623756963.696
1815803.0,1623756963.735
1815280.0,1623756963.774
1814622.0,1623756963.813
1813607.0,1623756963.852
1812609.0,1623756963.891
1812144.0,1623756963.93
1811814.0,1623756963.969
1811354.0,1623756964.008
1811026.0,1623756964.047
1810832.0,1623756964.087
1810500.0,1623756964.127
1810565.0,1623756964.167
1810647.0,1623756964.207
1810745.0,1623756964.247
1811029.0,1623756964.287
1811068.0,1623756964.327
1811311.0,1623756964.367
1811502.0,1623756964.407
1811750.0,1623756964.447
1812073.0,1623756964.487
1811701.0,1623756964.527
1811208.0,1623756964.567
1810487.0,1623756964.607
1809643.0,1623756964.647
1809643.0,1623756964.687
1809200.0,1623756964.727
1808974.0,1623756964.767
1808538.0,1623756964.807
1808390.0,1623756964.847
1808176.0,1623756964.887
1808239.0,1623756964.927
1808020.0,1623756964.967
1807932.0,1623756965.007
1808115.0,1623756965.047
1808139.0,1623756965.087
1808371.0,1623756965.127
1808549.0,1623756965.167
1808723.0,1623756965.207
1808816.0,1623756965.247
1809003.0,1623756965.287
1808810.0,1623756965.327
1808187.0,1623756965.367
1807611.0,1623756965.407
1807018.0,1623756965.447
1806732.0,1623756965.487
1806641.0,1623756965.527
1806413.0,1623756965.567
1806321.0,1623756965.607
1806440.0,1623756965.647
1806179.0,1623756965.687
1806095.0,1623756965.727
1806434.0,1623756965.767
1806443.0,1623756965.807
1806778.0,1623756965.847
1807035.0,1623756965.887
1807332.0,1623756965.927
1807731.0,1623756965.967
1807924.0,1623756966.007
1808171.0,1623756966.047
1807647.0,1623756966.087
1807121.0,1623756966.127
1806542.0,1623756966.167
1806009.0,1623756966.207
1805782.0,1623756966.247
1805711.0,1623756966.287
1805643.0,1623756966.327
1805882.0,1623756966.367
1805828.0,1623756966.407
1805970.0,1623756966.447
1806287.0,1623756966.487
1806386.0,1623756966.527
1806613.0,1623756966.567
1806989.0,1623756966.607
1807433.0,1623756966.647
1807683.0,1623756966.687
1808230.0,1623756966.727
1808688.0,1623756966.767
1808693.0,1623756966.807
1808167.0,1623756966.847
1807514.0,1623756966.887
1807064.0,1623756966.927
1806693.0,1623756966.967
1806203.0,1623756967.007
1806203.0,1623756967.047
1805979.0,1623756967.087
1806097.0,1623756967.127
1806177.0,1623756967.167
1806177.0,1623756967.207
1806117.0,1623756967.247
1806476.0,1623756967.287
1806933.0,1623756967.327
1807089.0,1623756967.367
1807609.0,1623756967.407
1807822.0,1623756967.447
1808376.0,1623756967.487
1808874.0,1623756967.527
1809262.0,1623756967.567
1809366.0,1623756967.607
1809048.0,1623756967.647
1808685.0,1623756967.687
1808303.0,1623756967.727
1807569.0,1623756967.767
1807268.0,1623756967.807
1807182.0,1623756967.847
1806999.0,1623756967.887
1807108.0,1623756967.927
1806981.0,1623756967.967
1806942.0,1623756968.007
1807216.0,1623756968.047
1807164.0,1623756968.087
1807589.0,1623756968.127
1807770.0,1623756968.167
1807917.0,1623756968.207
1808318.0,1623756968.247
1808633.0,1623756968.287
1809074.0,1623756968.327
1809211.0,1623756968.367
1808873.0,1623756968.407
1808514.0,1623756968.447
1807945.0,1623756968.487
1807403.0,1623756968.527
1807216.0,1623756968.567
1807217.0,1623756968.649
1807395.0,1623756968.689
1807401.0,1623756968.729
1807357.0,1623756968.768
1807745.0,1623756968.81
1807880.0,1623756968.849
1807987.0,1623756968.889
1808398.0,1623756968.93
1808926.0,1623756968.969
1809255.0,1623756969.009
1809493.0,1623756969.051
1809848.0,1623756969.089
1810462.0,1623756969.129
1810552.0,1623756969.17
1810274.0,1623756969.209
1809865.0,1623756969.25
1809466.0,1623756969.291
1808981.0,1623756969.33
1808707.0,1623756969.37
1808831.0,1623756969.41
1808525.0,1623756969.45
1808528.0,1623756969.489
1808664.0,1623756969.53
1808784.0,1623756969.569
1808914.0,1623756969.609
1809282.0,1623756969.651
1809722.0,1623756969.689
1809774.0,1623756969.729
1810148.0,1623756969.769
1810601.0,1623756969.809
1811089.0,1623756969.849
1811575.0,1623756969.89
1811594.0,1623756969.929
1811379.0,1623756969.969
1810741.0,1623756970.01
1810191.0,1623756970.05
1809600.0,1623756970.089
1809311.0,1623756970.13
1809235.0,1623756970.169
1809177.0,1623756970.209
1809156.0,1623756970.251
1809176.0,1623756970.289
1809035.0,1623756970.329
1809208.0,1623756970.371
1809362.0,1623756970.41
1809701.0,1623756970.45
1809935.0,1623756970.491
1810316.0,1623756970.53
1810567.0,1623756970.57
1810719.0,1623756970.612
1811325.0,1623756970.651
1811420.0,1623756970.69
1811150.0,1623756970.732
1810942.0,1623756970.771
1810145.0,1623756970.811
1809693.0,1623756970.85
1809354.0,1623756970.889
1809307.0,1623756970.929
1808980.0,1623756970.97
1809030.0,1623756971.001
1808768.0,1623756971.042
1808921.0,1623756971.082
1809023.0,1623756971.121
1808976.0,1623756971.162
1809027.0,1623756971.203
1809430.0,1623756971.242
1809478.0,1623756971.282
1809701.0,1623756971.323
1809843.0,1623756971.362
1810220.0,1623756971.402
1810418.0,1623756971.444
1810011.0,1623756971.482
1809296.0,1623756971.523
1808751.0,1623756971.564
1808554.0,1623756971.603
1808232.0,1623756971.643
1808242.0,1623756971.684
1808009.0,1623756971.723
1807928.0,1623756971.763
1808076.0,1623756971.804
1808257.0,1623756971.844
1808271.0,1623756971.883
1808386.0,1623756971.925
1808335.0,1623756971.964
1808806.0,1623756972.005
1808936.0,1623756972.042
1809265.0,1623756972.08
1809758.0,1623756972.111
1809831.0,1623756972.152
1809682.0,1623756972.191
1808991.0,1623756972.226
1808991.0,1623756972.267
1808356.0,1623756972.306
1807973.0,1623756972.346
1807760.0,1623756972.387
1807529.0,1623756972.427
1807641.0,1623756972.466
1807408.0,1623756972.507
1807463.0,1623756972.546
1807607.0,1623756972.586
1807533.0,1623756972.628
1807600.0,1623756972.666
1807737.0,1623756972.707
1807971.0,1623756972.748
1808247.0,1623756972.787
1808368.0,1623756972.828
1808957.0,1623756972.868
1809125.0,1623756972.907
1808744.0,1623756972.947
1808348.0,1623756972.989
1807620.0,1623756973.029
1807090.0,1623756973.069
1806602.0,1623756973.11
1806459.0,1623756973.15
1806189.0,1623756973.19
1806053.0,1623756973.232
1806201.0,1623756973.271
1806103.0,1623756973.311
1806277.0,1623756973.353
1806328.0,1623756973.392
1806580.0,1623756973.432
1806601.0,1623756973.47
1807221.0,1623756973.509
1807405.0,1623756973.549
1807785.0,1623756973.59
1808093.0,1623756973.63
1808284.0,1623756973.669
1808026.0,1623756973.71
1807438.0,1623756973.749
1806559.0,1623756973.79
1805915.0,1623756973.831
1805520.0,1623756973.87
1805261.0,1623756973.91
1805178.0,1623756973.951
1805014.0,1623756973.99
1804952.0,1623756974.031
1804909.0,1623756974.071
1804777.0,1623756974.11
1805046.0,1623756974.151
1805134.0,1623756974.192
1805323.0,1623756974.232
1805643.0,1623756974.272
1805963.0,1623756974.313
1806313.0,1623756974.353
1806571.0,1623756974.393
1806907.0,1623756974.435
1806475.0,1623756974.473
1806088.0,1623756974.512
1805126.0,1623756974.553
1804758.0,1623756974.592
1804304.0,1623756974.633
1803776.0,1623756974.673
1803648.0,1623756974.712
1803184.0,1623756974.752
1803166.0,1623756974.793
1803067.0,1623756974.833
1803126.0,1623756974.872
1802904.0,1623756974.913
1803019.0,1623756974.952
1803062.0,1623756974.993
1803372.0,1623756975.034
1803518.0,1623756975.073
1803750.0,1623756975.113
1803891.0,1623756975.154
1803924.0,1623756975.193
1803512.0,1623756975.234
1802767.0,1623756975.274
1801937.0,1623756975.313
1801231.0,1623756975.353
1800749.0,1623756975.395
1800547.0,1623756975.433
1800292.0,1623756975.472
1800198.0,1623756975.514
1799892.0,1623756975.553
1799872.0,1623756975.593
1799780.0,1623756975.635
1799724.0,1623756975.674
1800151.0,1623756975.714
1800111.0,1623756975.755
1800355.0,1623756975.792
1800702.0,1623756975.833
1801010.0,1623756975.874
1801037.0,1623756975.952
1801244.0,1623756975.912
1800695.0,1623756975.993
1800103.0,1623756976.033
1799387.0,1623756976.073
1799148.0,1623756976.114
1799033.0,1623756976.153
1798994.0,1623756976.193
1798908.0,1623756976.235
1799001.0,1623756976.273
1799012.0,1623756976.313
1799320.0,1623756976.354
1799321.0,1623756976.393
1799667.0,1623756976.434
1800138.0,1623756976.474
1800441.0,1623756976.513
1800834.0,1623756976.553
1801224.0,1623756976.595
1801882.0,1623756976.635
1802008.0,1623756976.673
1801792.0,1623756976.714
1801368.0,1623756976.753
1800674.0,1623756976.793
1800146.0,1623756976.835
1800156.0,1623756976.874
1799969.0,1623756976.914
1799926.0,1623756976.955
1800284.0,1623756976.994
1800207.0,1623756977.035
1800231.0,1623756977.075
1800647.0,1623756977.114
1800866.0,1623756977.149
1801224.0,1623756977.19
1801560.0,1623756977.23
1802010.0,1623756977.269
1802673.0,1623756977.31
1802999.0,1623756977.349
1803488.0,1623756977.389
1803623.0,1623756977.431
1803397.0,1623756977.47
1802890.0,1623756977.51
1802510.0,1623756977.551
1802180.0,1623756977.59
1801866.0,1623756977.631
1801986.0,1623756977.671
1802163.0,1623756977.71
1802179.0,1623756977.75
1802295.0,1623756977.792
1802463.0,1623756977.831
1802668.0,1623756977.872
1803065.0,1623756977.913
1803447.0,1623756977.953
1803623.0,1623756977.993
1804193.0,1623756978.035
1804671.0,1623756978.073
1805241.0,1623756978.114
1805503.0,1623756978.155
1805944.0,1623756978.194
1805873.0,1623756978.235
1805433.0,1623756978.276
1804854.0,1623756978.315
1804538.0,1623756978.354
1804358.0,1623756978.391
1804163.0,1623756978.431
1804365.0,1623756978.47
1804243.0,1623756978.511
1804490.0,1623756978.55
1804262.0,1623756978.591
1804606.0,1623756978.632
1804605.0,1623756978.671
1804951.0,1623756978.711
1805120.0,1623756978.752
1805362.0,1623756978.791
1805643.0,1623756978.832
1806079.0,1623756978.872
1806322.0,1623756978.911
1806358.0,1623756978.951
1806013.0,1623756978.993
1805636.0,1623756979.032
1805007.0,1623756979.114
1805164.0,1623756979.072
1805047.0,1623756979.153
1805359.0,1623756979.193
1805218.0,1623756979.235
1805279.0,1623756979.274
1805350.0,1623756979.314
1805747.0,1623756979.356
1805985.0,1623756979.395
1806167.0,1623756979.436
1806502.0,1623756979.476
1807013.0,1623756979.516
1807337.0,1623756979.556
1807724.0,1623756979.594
1808227.0,1623756979.63
1808157.0,1623756979.669
1807987.0,1623756979.71
1807519.0,1623756979.749
1807094.0,1623756979.79
1806593.0,1623756979.831
1806561.0,1623756979.87
1806628.0,1623756979.91
1806625.0,1623756979.951
1806738.0,1623756979.99
1806986.0,1623756980.031
1807366.0,1623756980.071
1807718.0,1623756980.11
1808240.0,1623756980.151
1808663.0,1623756980.192
1809418.0,1623756980.231
1809635.0,1623756980.271
1810380.0,1623756980.312
1810986.0,1623756980.352
1810898.0,1623756980.392
1810635.0,1623756980.435
1810063.0,1623756980.473
1809980.0,1623756980.513
1809641.0,1623756980.555
1809469.0,1623756980.594
1809471.0,1623756980.61
1809646.0,1623756980.69
1809702.0,1623756980.651
1810072.0,1623756980.73
1810119.0,1623756980.771
1810403.0,1623756980.811
1810664.0,1623756980.85
1811209.0,1623756980.891
1811685.0,1623756980.93
1812251.0,1623756980.97
1812608.0,1623756981.012
1812949.0,1623756981.05
1813223.0,1623756981.09
1812923.0,1623756981.131
1812503.0,1623756981.171
1812059.0,1623756981.211
1811657.0,1623756981.252
1811360.0,1623756981.291
1810960.0,1623756981.331
1810974.0,1623756981.372
1810893.0,1623756981.412
1811100.0,1623756981.451
1811020.0,1623756981.493
1811422.0,1623756981.532
1811398.0,1623756981.572
1811586.0,1623756981.614
1811950.0,1623756981.651
1812214.0,1623756981.691
1812525.0,1623756981.732
1812993.0,1623756981.771
1813046.0,1623756981.812
1812900.0,1623756981.853
1812626.0,1623756981.892
1812091.0,1623756981.932
1811278.0,1623756981.974
1810810.0,1623756982.012
1810540.0,1623756982.048
1810413.0,1623756982.089
1809870.0,1623756982.128
1809865.0,1623756982.169
1809721.0,1623756982.21
1809553.0,1623756982.249
1809559.0,1623756982.289
1809594.0,1623756982.33
1809663.0,1623756982.369
1809627.0,1623756982.41
1809732.0,1623756982.45
1809866.0,1623756982.489
1810003.0,1623756982.529
1809994.0,1623756982.57
1809594.0,1623756982.61
1809079.0,1623756982.649
1808410.0,1623756982.69
1808050.0,1623756982.729
1807631.0,1623756982.77
1807648.0,1623756982.813
1807258.0,1623756982.851
1807263.0,1623756982.891
1807186.0,1623756982.932
1807168.0,1623756982.971
1807251.0,1623756983.012
1807275.0,1623756983.053
1807523.0,1623756983.092
1807841.0,1623756983.132
1807973.0,1623756983.173
1808256.0,1623756983.213
1808320.0,1623756983.252
1808124.0,1623756983.284
1807881.0,1623756983.323
1807025.0,1623756983.363
1806598.0,1623756983.405
1806700.0,1623756983.444
1806587.0,1623756983.484
1806829.0,1623756983.525
1806950.0,1623756983.564
1806829.0,1623756983.605
1806973.0,1623756983.645
1807162.0,1623756983.684
1807522.0,1623756983.724
1807871.0,1623756983.765
1808307.0,1623756983.805
1809004.0,1623756983.845
1809399.0,1623756983.886
1809430.0,1623756983.925
1809133.0,1623756983.965
1808910.0,1623756984.004
1808012.0,1623756984.042
1807718.0,1623756984.075
1807751.0,1623756984.115
1807581.0,1623756984.152
1807632.0,1623756984.193
1807993.0,1623756984.234
1808076.0,1623756984.273
1808227.0,1623756984.311
1808668.0,1623756984.352
1808977.0,1623756984.392
1809536.0,1623756984.431
1809882.0,1623756984.472
1810460.0,1623756984.512
1811039.0,1623756984.552
1811602.0,1623756984.593
1811558.0,1623756984.632
1811318.0,1623756984.672
1810607.0,1623756984.713
1810171.0,1623756984.752
1809829.0,1623756984.793
1809473.0,1623756984.833
1809808.0,1623756984.872
1809661.0,1623756984.912
1809797.0,1623756984.953
1809919.0,1623756984.993
1810059.0,1623756985.033
1810458.0,1623756985.074
1810878.0,1623756985.113
1811214.0,1623756985.153
1811919.0,1623756985.195
1812183.0,1623756985.232
1812889.0,1623756985.272
1813366.0,1623756985.314
1814058.0,1623756985.352
1814276.0,1623756985.393
1814241.0,1623756985.434
1813957.0,1623756985.473
1813235.0,1623756985.513
1812953.0,1623756985.553
1812531.0,1623756985.593
1812290.0,1623756985.632
1812323.0,1623756985.673
1812393.0,1623756985.712
1812382.0,1623756985.745
1812595.0,1623756985.787
1812811.0,1623756985.825
1813109.0,1623756985.865
1813435.0,1623756985.907
1813757.0,1623756985.946
1813986.0,1623756985.986
1814416.0,1623756986.027
1814670.0,1623756986.066
1815150.0,1623756986.106
1815445.0,1623756986.147
1815400.0,1623756986.187
1815338.0,1623756986.226
1814870.0,1623756986.267
1814340.0,1623756986.306
1813898.0,1623756986.347
1813890.0,1623756986.388
1813830.0,1623756986.427
1813887.0,1623756986.467
1813935.0,1623756986.508
1813895.0,1623756986.547
1814219.0,1623756986.588
1814399.0,1623756986.628
1814511.0,1623756986.667
1815031.0,1623756986.708
1815325.0,1623756986.749
1815499.0,1623756986.789
1815975.0,1623756986.828
1816389.0,1623756986.869
1816961.0,1623756986.909
1817275.0,1623756986.949
1816975.0,1623756986.991
1816476.0,1623756987.029
1816273.0,1623756987.069
1816009.0,1623756987.11
1815849.0,1623756987.15
1815917.0,1623756987.19
1815970.0,1623756987.231
1816341.0,1623756987.27
1816315.0,1623756987.31
1816595.0,1623756987.351
1816864.0,1623756987.391
1817056.0,1623756987.43
1817678.0,1623756987.472
1818071.0,1623756987.511
1818542.0,1623756987.551
1818965.0,1623756987.593
1819388.0,1623756987.631
1819967.0,1623756987.672
1820213.0,1623756987.714
1819985.0,1623756987.753
1819604.0,1623756987.793
1819241.0,1623756987.834
1819039.0,1623756987.873
1819114.0,1623756987.913
1819336.0,1623756987.954
1819257.0,1623756987.993
1819633.0,1623756988.033
1819830.0,1623756988.074
1820009.0,1623756988.114
1820352.0,1623756988.154
1821102.0,1623756988.192
1821328.0,1623756988.23
1822017.0,1623756988.27
1822551.0,1623756988.311
1823000.0,1623756988.35
1823684.0,1623756988.391
1824124.0,1623756988.432
1824172.0,1623756988.471
1823921.0,1623756988.511
1823423.0,1623756988.552
1822960.0,1623756988.592
1822579.0,1623756988.631
1822432.0,1623756988.672
1822565.0,1623756988.711
1822644.0,1623756988.751
1822654.0,1623756988.793
1822705.0,1623756988.831
1822795.0,1623756988.872
1823015.0,1623756988.914
1823374.0,1623756988.951
1823755.0,1623756988.993
1824215.0,1623756989.034
1824446.0,1623756989.074
1824855.0,1623756989.113
1825214.0,1623756989.154
1825654.0,1623756989.194
1825600.0,1623756989.233
1825039.0,1623756989.274
1824545.0,1623756989.314
1824083.0,1623756989.354
1823622.0,1623756989.394
1823548.0,1623756989.427
1823256.0,1623756989.467
1823526.0,1623756989.508
1823109.0,1623756989.547
1823424.0,1623756989.588
1823107.0,1623756989.628
1823076.0,1623756989.668
1823080.0,1623756989.708
1823267.0,1623756989.749
1823155.0,1623756989.789
1823474.0,1623756989.828
1823789.0,1623756989.869
1823928.0,1623756989.908
1823816.0,1623756989.948
1823106.0,1623756989.99
1822520.0,1623756990.029
1822006.0,1623756990.069
1821803.0,1623756990.111
1821295.0,1623756990.147
1821007.0,1623756990.188
1820767.0,1623756990.224
1820760.0,1623756990.256
1820633.0,1623756990.295
1820593.0,1623756990.336
1820627.0,1623756990.376
1820668.0,1623756990.415
1820763.0,1623756990.457
1820929.0,1623756990.496
1821064.0,1623756990.536
1821081.0,1623756990.578
1821395.0,1623756990.614
1821077.0,1623756990.655
1820442.0,1623756990.696
1819970.0,1623756990.735
1819249.0,1623756990.776
1819038.0,1623756990.817
1818649.0,1623756990.856
1818645.0,1623756990.896
1818886.0,1623756990.937
1818496.0,1623756990.977
1818630.0,1623756991.016
1818710.0,1623756991.057
1818797.0,1623756991.096
1818927.0,1623756991.136
1819333.0,1623756991.178
1819661.0,1623756991.216
1820063.0,1623756991.256
1820430.0,1623756991.297
1820145.0,1623756991.336
1820035.0,1623756991.376
1819391.0,1623756991.416
1818827.0,1623756991.456
1818275.0,1623756991.496
1817847.0,1623756991.537
1817676.0,1623756991.577
1817715.0,1623756991.616
1817445.0,1623756991.658
1817644.0,1623756991.697
1817738.0,1623756991.735
1817629.0,1623756991.777
1817874.0,1623756991.816
1818200.0,1623756991.855
1818200.0,1623756991.887
1818385.0,1623756991.926
1818820.0,1623756991.967
1819261.0,1623756992.007
1819539.0,1623756992.046
1819439.0,1623756992.086
1818859.0,1623756992.127
1818368.0,1623756992.167
1817790.0,1623756992.207
1817143.0,1623756992.248
1816891.0,1623756992.287
1816853.0,1623756992.327
1816856.0,1623756992.369
1816749.0,1623756992.407
1816801.0,1623756992.447
1816863.0,1623756992.488
1817038.0,1623756992.527
1817327.0,1623756992.546
1817547.0,1623756992.586
1817749.0,1623756992.625
1817976.0,1623756992.666
1818342.0,1623756992.707
1818486.0,1623756992.786
1818283.0,1623756992.827
1818477.0,1623756992.746
1817712.0,1623756992.866
1816950.0,1623756992.906
1816158.0,1623756992.948
1815273.0,1623756993.022
1815550.0,1623756992.986
1814699.0,1623756993.056
1814558.0,1623756993.091
1814270.0,1623756993.113
1814077.0,1623756993.153
1814235.0,1623756993.192
1814290.0,1623756993.232
1814200.0,1623756993.273
1814246.0,1623756993.313
1814341.0,1623756993.352
1814540.0,1623756993.393
1814593.0,1623756993.433
1814818.0,1623756993.472
1814701.0,1623756993.514
1814278.0,1623756993.553
1813684.0,1623756993.593
1813119.0,1623756993.634
1812900.0,1623756993.673
1812709.0,1623756993.714
1812437.0,1623756993.754
1812430.0,1623756993.793
1811872.0,1623756993.833
1811873.0,1623756993.874
1811632.0,1623756993.915
1811762.0,1623756993.954
1811895.0,1623756993.996
1811942.0,1623756994.035
1812430.0,1623756994.117
1812059.0,1623756994.196
1811655.0,1623756994.237
1812143.0,1623756994.075
1811127.0,1623756994.274
1810588.0,1623756994.309
1812369.0,1623756994.156
1810341.0,1623756994.389
1810588.0,1623756994.35
1810265.0,1623756994.429
1810240.0,1623756994.47
1810380.0,1623756994.51
1810434.0,1623756994.549
1810705.0,1623756994.591
1811031.0,1623756994.63
1811268.0,1623756994.67
1811767.0,1623756994.712
1812032.0,1623756994.75
1812612.0,1623756994.79
1813114.0,1623756994.831
1812822.0,1623756994.87
1812481.0,1623756994.911
1811863.0,1623756994.951
1811324.0,1623756994.989
1811181.0,1623756995.03
1810923.0,1623756995.068
1811245.0,1623756995.108
1811197.0,1623756995.144
1811902.0,1623756995.255
1811305.0,1623756995.175
1812268.0,1623756995.297
1812770.0,1623756995.336
1813205.0,1623756995.376
1813617.0,1623756995.415
1814218.0,1623756995.454
1814849.0,1623756995.495
1814735.0,1623756995.53
1814322.0,1623756995.569
1811667.0,1623756995.215
1814040.0,1623756995.609
1813448.0,1623756995.65
1813130.0,1623756995.69
1813110.0,1623756995.73
1813232.0,1623756995.771
1813281.0,1623756995.81
1813560.0,1623756995.85
1813716.0,1623756995.892
1814007.0,1623756995.93
1814424.0,1623756995.97
1814850.0,1623756996.011
1815238.0,1623756996.051
1816008.0,1623756996.091
1816327.0,1623756996.132
1816938.0,1623756996.171
1817569.0,1623756996.211
1817980.0,1623756996.253
1817739.0,1623756996.292
1817469.0,1623756996.33
1816974.0,1623756996.372
1816391.0,1623756996.408
1816118.0,1623756996.443
1816068.0,1623756996.479
1816070.0,1623756996.515
1816167.0,1623756996.556
1816290.0,1623756996.597
1816374.0,1623756996.636
1816402.0,1623756996.677
1816791.0,1623756996.718
1817359.0,1623756996.756
1817359.0,1623756996.793
1817581.0,1623756996.834
1818005.0,1623756996.874
1818410.0,1623756996.913
1818845.0,1623756996.954
1819442.0,1623756996.993
1819945.0,1623756997.033
1819949.0,1623756997.075
1819618.0,1623756997.114
1819393.0,1623756997.154
1819060.0,1623756997.195
1818767.0,1623756997.234
1818468.0,1623756997.275
1818715.0,1623756997.315
1818643.0,1623756997.354
1818835.0,1623756997.394
1819001.0,1623756997.435
1818990.0,1623756997.476
1819453.0,1623756997.515
1819735.0,1623756997.557
1819993.0,1623756997.596
1820582.0,1623756997.636
1820755.0,1623756997.678
1821425.0,1623756997.717
1821936.0,1623756997.757
1822454.0,1623756997.798
1822736.0,1623756997.837
1822912.0,1623756997.878
1822530.0,1623756997.917
1822414.0,1623756997.956
1821952.0,1623756997.988
1821867.0,1623756998.029
1821929.0,1623756998.069
1821770.0,1623756998.109
1821882.0,1623756998.15
1821808.0,1623756998.189
1822068.0,1623756998.229
1822410.0,1623756998.271
1822591.0,1623756998.309
1822721.0,1623756998.349
1823256.0,1623756998.39
1823643.0,1623756998.429
1824117.0,1623756998.47
1824494.0,1623756998.511
1824989.0,1623756998.551
1825440.0,1623756998.59
1826049.0,1623756998.631
1825603.0,1623756998.671
1825464.0,1623756998.703
1825027.0,1623756998.739
1824974.0,1623756998.775
1825087.0,1623756998.816
1825060.0,1623756998.858
1824916.0,1623756998.895
1825099.0,1623756998.935
1825253.0,1623756998.976
1825555.0,1623756999.016
1825614.0,1623756999.056
1825953.0,1623756999.097
1826441.0,1623756999.136
1826812.0,1623756999.176
1827099.0,1623756999.217
1827738.0,1623756999.256
1828192.0,1623756999.296
1828654.0,1623756999.335
1828700.0,1623756999.374
1828453.0,1623756999.414
1828191.0,1623756999.456
1827713.0,1623756999.494
1827444.0,1623756999.534
1827270.0,1623756999.576
1827377.0,1623756999.615
1827596.0,1623756999.655
1827436.0,1623756999.696
1827662.0,1623756999.735
1827797.0,1623756999.775
1828008.0,1623756999.816
1828161.0,1623756999.856
1828391.0,1623756999.895
1828945.0,1623756999.936
1829094.0,1623756999.975
1829607.0,1623757000.016
1829945.0,1623757000.058
1830387.0,1623757000.096
1830284.0,1623757000.136
1829744.0,1623757000.177
1829252.0,1623757000.216
1828731.0,1623757000.257
1828274.0,1623757000.297
1828049.0,1623757000.336
1828014.0,1623757000.377
1827767.0,1623757000.418
1827852.0,1623757000.457
1827804.0,1623757000.496
1827916.0,1623757000.538
1827770.0,1623757000.569
1828285.0,1623757000.651
1827946.0,1623757000.609
1828459.0,1623757000.689
1828807.0,1623757000.729
1829221.0,1623757000.77
1829575.0,1623757000.809
1829624.0,1623757000.85
1829761.0,1623757000.891
1829028.0,1623757000.93
1828572.0,1623757000.97
1827914.0,1623757001.011
1827562.0,1623757001.051
1827430.0,1623757001.09
1827010.0,1623757001.131
1826914.0,1623757001.17
1826789.0,1623757001.21
1826658.0,1623757001.253
1826591.0,1623757001.289
1826514.0,1623757001.322
1826570.0,1623757001.363
1826869.0,1623757001.399
1826912.0,1623757001.438
1827053.0,1623757001.479
1827335.0,1623757001.517
1827994.0,1623757001.557
1828087.0,1623757001.599
1827948.0,1623757001.639
1827394.0,1623757001.679
1826615.0,1623757001.72
1826040.0,1623757001.759
1825444.0,1623757001.793
1825444.0,1623757001.835
1825242.0,1623757001.873
1824871.0,1623757001.913
1824739.0,1623757001.954
1824441.0,1623757001.994
1824197.0,1623757002.034
1824059.0,1623757002.075
1824001.0,1623757002.114
1823761.0,1623757002.154
1823927.0,1623757002.195
1824118.0,1623757002.274
1824349.0,1623757002.315
1823953.0,1623757002.235
1824156.0,1623757002.355
1823971.0,1623757002.395
1823371.0,1623757002.436
1822562.0,1623757002.475
1821855.0,1623757002.516
1821420.0,1623757002.557
1820958.0,1623757002.597
1820711.0,1623757002.638
1820306.0,1623757002.718
1820392.0,1623757002.679
1819991.0,1623757002.758
1819796.0,1623757002.799
1819686.0,1623757002.839
1819940.0,1623757002.879
1819878.0,1623757002.92
1820001.0,1623757002.959
1820076.0,1623757002.999
1820298.0,1623757003.042
1820381.0,1623757003.08
1820267.0,1623757003.111
1819548.0,1623757003.152
1818991.0,1623757003.191
1818333.0,1623757003.232
1817722.0,1623757003.272
1817586.0,1623757003.311
1817619.0,1623757003.351
1817510.0,1623757003.393
1817348.0,1623757003.432
1817272.0,1623757003.472
1817279.0,1623757003.513
1817202.0,1623757003.552
1817442.0,1623757003.592
1817535.0,1623757003.634
1817722.0,1623757003.672
1818145.0,1623757003.712
1818460.0,1623757003.754
1818218.0,1623757003.793
1817605.0,1623757003.833
1817105.0,1623757003.874
1816287.0,1623757003.913
1815739.0,1623757003.953
1815337.0,1623757003.994
1815333.0,1623757004.034
1815061.0,1623757004.073
1814775.0,1623757004.115
1814736.0,1623757004.154
1814756.0,1623757004.194
1814652.0,1623757004.235
1814895.0,1623757004.274
1814852.0,1623757004.314
1815088.0,1623757004.355
1815174.0,1623757004.394
1815422.0,1623757004.48
1815424.0,1623757004.52
1815059.0,1623757004.559
1814407.0,1623757004.6
1813598.0,1623757004.641
1812631.0,1623757004.68
1812267.0,1623757004.72
1811982.0,1623757004.761
1811877.0,1623757004.8
1811486.0,1623757004.84
1811444.0,1623757004.882
1811452.0,1623757004.92
1811427.0,1623757004.96
1811560.0,1623757005.002
1811700.0,1623757005.041
1811932.0,1623757005.081
1812359.0,1623757005.122
1812529.0,1623757005.161
1812971.0,1623757005.201
1813268.0,1623757005.242
1812884.0,1623757005.282
1812081.0,1623757005.321
1811420.0,1623757005.362
1810729.0,1623757005.401
1810186.0,1623757005.441
1809940.0,1623757005.483
1809917.0,1623757005.522
1809612.0,1623757005.562
1809820.0,1623757005.603
1809614.0,1623757005.642
1810024.0,1623757005.683
1810116.0,1623757005.723
1810178.0,1623757005.762
1810747.0,1623757005.802
1810977.0,1623757005.843
1811362.0,1623757005.883
1811817.0,1623757005.922
1812180.0,1623757005.963
1812561.0,1623757006.002
1812052.0,1623757006.042
1811592.0,1623757006.084
1810724.0,1623757006.123
1810378.0,1623757006.163
1809979.0,1623757006.204
1809708.0,1623757006.243
1809770.0,1623757006.283
1809775.0,1623757006.324
1809622.0,1623757006.364
1809823.0,1623757006.404
1809926.0,1623757006.445
1810070.0,1623757006.485
1810664.0,1623757006.525
1810921.0,1623757006.566
1811531.0,1623757006.605
1812241.0,1623757006.645
1812472.0,1623757006.687
1813068.0,1623757006.723
1813533.0,1623757006.764
1813512.0,1623757006.805
1813148.0,1623757006.844
1812855.0,1623757006.885
1812565.0,1623757006.925
1812099.0,1623757006.96
1812355.0,1623757007.0
1812539.0,1623757007.041
1812608.0,1623757007.081
1812649.0,1623757007.12
1812853.0,1623757007.162
1813111.0,1623757007.201
1813798.0,1623757007.241
1813849.0,1623757007.283
1814344.0,1623757007.321
1815011.0,1623757007.361
1815308.0,1623757007.402
1815461.0,1623757007.441
1815951.0,1623757007.482
1816181.0,1623757007.522
1815930.0,1623757007.561
1815223.0,1623757007.602
1814422.0,1623757007.639
1813256.0,1623757007.679
1812444.0,1623757007.714
1812270.0,1623757007.756
1812774.0,1623757007.824
1812507.0,1623757007.787
1813146.0,1623757007.866
1813515.0,1623757007.904
1814307.0,1623757007.944
1814911.0,1623757007.986
1815515.0,1623757008.024
1816139.0,1623757008.065
1816939.0,1623757008.106
1817694.0,1623757008.145
1818422.0,1623757008.182
1819173.0,1623757008.223
1819828.0,1623757008.262
1820743.0,1623757008.302
1820841.0,1623757008.343
1820849.0,1623757008.382
1820765.0,1623757008.422
1820492.0,1623757008.464
1820487.0,1623757008.502
1820646.0,1623757008.542
1820973.0,1623757008.583
1821327.0,1623757008.622
1821447.0,1623757008.663
1822047.0,1623757008.704
1822327.0,1623757008.743
1822970.0,1623757008.783
1823388.0,1623757008.824
1823899.0,1623757008.864
1824543.0,1623757008.904
1825199.0,1623757008.946
1825821.0,1623757008.985
1826586.0,1623757009.025
1827275.0,1623757009.066
1827839.0,1623757009.105
1827724.0,1623757009.145
1827656.0,1623757009.186
1827377.0,1623757009.225
1827086.0,1623757009.264
1827116.0,1623757009.305
1827132.0,1623757009.344
1827581.0,1623757009.385
1827609.0,1623757009.426
1827863.0,1623757009.466
1828059.0,1623757009.499
1828549.0,1623757009.541
1828851.0,1623757009.58
1829385.0,1623757009.62
1829542.0,1623757009.661
1830141.0,1623757009.7
1830833.0,1623757009.74
1831383.0,1623757009.781
1831837.0,1623757009.82
1832416.0,1623757009.861
1832738.0,1623757009.901
1832727.0,1623757009.94
1832562.0,1623757009.98
1832252.0,1623757010.022
1831907.0,1623757010.061
1831943.0,1623757010.101
1831967.0,1623757010.142
1832253.0,1623757010.181
1832381.0,1623757010.216
1832430.0,1623757010.25
1832685.0,1623757010.288
1832779.0,1623757010.326
1833186.0,1623757010.368
1833531.0,1623757010.407
1833729.0,1623757010.448
1834260.0,1623757010.488
1834564.0,1623757010.528
1835083.0,1623757010.568
1835594.0,1623757010.609
1836095.0,1623757010.649
1836151.0,1623757010.686
1836059.0,1623757010.727
1836059.0,1623757010.764
1835523.0,1623757010.804
1835205.0,1623757010.846
1834995.0,1623757010.884
1834997.0,1623757010.924
1834804.0,1623757010.965
1834911.0,1623757011.004
1834769.0,1623757011.045
1834797.0,1623757011.085
1834816.0,1623757011.124
1835125.0,1623757011.165
1835374.0,1623757011.206
1835303.0,1623757011.245
1835519.0,1623757011.285
1835608.0,1623757011.326
1835832.0,1623757011.365
1835897.0,1623757011.405
1836256.0,1623757011.448
1836728.0,1623757011.486
1837468.0,1623757011.526
1840321.0,1623757011.568
1846932.0,1623757011.607
1852851.0,1623757011.648
1856232.0,1623757011.689
1859144.0,1623757011.728
1862083.0,1623757011.768
1864487.0,1623757011.808
1866280.0,1623757011.846
1867758.0,1623757011.885
1869648.0,1623757011.926
1871701.0,1623757011.958
1873468.0,1623757011.998
1875235.0,1623757012.04
1876411.0,1623757012.079
1878170.0,1623757012.119
1879637.0,1623757012.16
1880298.0,1623757012.199
1880563.0,1623757012.24
1880482.0,1623757012.28
1880483.0,1623757012.319
1880506.0,1623757012.359
1881259.0,1623757012.4
1881883.0,1623757012.44
1882148.0,1623757012.48
1882859.0,1623757012.521
1883569.0,1623757012.56
1883984.0,1623757012.6
1884838.0,1623757012.642
1885368.0,1623757012.676
1885583.0,1623757012.708
1885855.0,1623757012.749
1886298.0,1623757012.786
1886180.0,1623757012.827
1886223.0,1623757012.868
1886747.0,1623757012.907
1886805.0,1623757012.947
1887107.0,1623757012.989
1886948.0,1623757013.029
1886868.0,1623757013.068
1886361.0,1623757013.109
1885450.0,1623757013.147
1884884.0,1623757013.188
1884287.0,1623757013.23
1883885.0,1623757013.268
1883773.0,1623757013.308
1883563.0,1623757013.349
1883425.0,1623757013.388
1882900.0,1623757013.429
1882717.0,1623757013.469
1882816.0,1623757013.508
1882481.0,1623757013.548
1882556.0,1623757013.59
1882638.0,1623757013.629
1883000.0,1623757013.669
1882922.0,1623757013.71
1883236.0,1623757013.749
1882918.0,1623757013.789
1882312.0,1623757013.831
1881386.0,1623757013.869
1880585.0,1623757013.909
1880029.0,1623757013.95
1880044.0,1623757013.989
1879481.0,1623757014.03
1879309.0,1623757014.071
1878438.0,1623757014.11
1877828.0,1623757014.15
1877457.0,1623757014.191
1877652.0,1623757014.231
1878882.0,1623757014.267
1880810.0,1623757014.309
1881670.0,1623757014.348
1882474.0,1623757014.386
1882792.0,1623757014.425
1883513.0,1623757014.463
1883769.0,1623757014.503
1883741.0,1623757014.545
1883304.0,1623757014.584
1882586.0,1623757014.624
1881957.0,1623757014.665
1881385.0,1623757014.704
1880497.0,1623757014.744
1879903.0,1623757014.785
1879056.0,1623757014.825
1878398.0,1623757014.864
1877568.0,1623757014.906
1877181.0,1623757014.945
1876417.0,1623757014.985
1876005.0,1623757015.027
1875173.0,1623757015.065
1874961.0,1623757015.1
1874367.0,1623757015.135
1873804.0,1623757015.17
1872661.0,1623757015.209
1871432.0,1623757015.25
1870227.0,1623757015.289
1869158.0,1623757015.329
1868304.0,1623757015.371
1867253.0,1623757015.41
1866367.0,1623757015.45
1865715.0,1623757015.491
1864698.0,1623757015.53
1863737.0,1623757015.569
1863306.0,1623757015.611
1862519.0,1623757015.649
1861782.0,1623757015.69
1861572.0,1623757015.731
1860695.0,1623757015.77
1860373.0,1623757015.81
1859675.0,1623757015.851
1858403.0,1623757015.89
1856991.0,1623757015.93
1855773.0,1623757015.971
1854346.0,1623757016.011
1853497.0,1623757016.05
1852583.0,1623757016.091
1851674.0,1623757016.13
1851079.0,1623757016.17
1850293.0,1623757016.212
1849568.0,1623757016.251
1848837.0,1623757016.291
1848372.0,1623757016.332
1847932.0,1623757016.372
1847051.0,1623757016.45
1847348.0,1623757016.411
1846650.0,1623757016.489
1846219.0,1623757016.528
1845361.0,1623757016.567
1844089.0,1623757016.606
1842854.0,1623757016.645
1841644.0,1623757016.684
1840405.0,1623757016.723
1839643.0,1623757016.762
1839022.0,1623757016.801
1838303.0,1623757016.84
1838303.0,1623757016.879
1837854.0,1623757016.918
1837294.0,1623757016.957
1836883.0,1623757016.996
1836341.0,1623757017.035
1836059.0,1623757017.074
1835746.0,1623757017.113
1835545.0,1623757017.152
1835414.0,1623757017.191
1835054.0,1623757017.23
1834887.0,1623757017.269
1833698.0,1623757017.308
1832680.0,1623757017.347
1831269.0,1623757017.386
1829866.0,1623757017.425
1828321.0,1623757017.464
1827134.0,1623757017.503
1826312.0,1623757017.542
1825028.0,1623757017.581
1824027.0,1623757017.62
1823506.0,1623757017.659
1823362.0,1623757017.698
1822904.0,1623757017.737
1822736.0,1623757017.776
1822488.0,1623757017.815
1822270.0,1623757017.854
1822126.0,1623757017.893
1821738.0,1623757017.932
1820066.0,1623757018.049
1821845.0,1623757017.971
1819233.0,1623757018.088
1818016.0,1623757018.127
1817201.0,1623757018.166
1816812.0,1623757018.205
1821255.0,1623757018.01
1816785.0,1623757018.244
1816669.0,1623757018.283
1817240.0,1623757018.322
1818100.0,1623757018.361
1818999.0,1623757018.4
1821460.0,1623757018.478
1822603.0,1623757018.517
1824309.0,1623757018.556
1825732.0,1623757018.595
1820373.0,1623757018.439
1826985.0,1623757018.634
1828534.0,1623757018.673
1829534.0,1623757018.712
1830140.0,1623757018.751
1830217.0,1623757018.79
1830355.0,1623757018.829
1830116.0,1623757018.868
1829938.0,1623757018.907
1830102.0,1623757018.946
1829135.0,1623757019.065
1829304.0,1623757019.025
1828688.0,1623757019.105
1828410.0,1623757019.145
1828090.0,1623757019.185
1827676.0,1623757019.225
1827500.0,1623757019.265
1827403.0,1623757019.305
1827561.0,1623757019.345
1829667.0,1623757018.985
1827659.0,1623757019.385
1827171.0,1623757019.425
1826719.0,1623757019.465
1825769.0,1623757019.505
1824875.0,1623757019.545
1824080.0,1623757019.585
1823342.0,1623757019.625
1822738.0,1623757019.665
1822508.0,1623757019.705
1822088.0,1623757019.745
1821917.0,1623757019.785
1821599.0,1623757019.825
1820963.0,1623757019.865
1820808.0,1623757019.905
1820781.0,1623757019.945
1820697.0,1623757019.985
1820836.0,1623757020.025
1820892.0,1623757020.065
1820829.0,1623757020.105
1820773.0,1623757020.145
1820543.0,1623757020.185
1819850.0,1623757020.225
1819161.0,1623757020.265
1818415.0,1623757020.305
1817881.0,1623757020.345
1817582.0,1623757020.385
1817272.0,1623757020.425
1816977.0,1623757020.465
1816845.0,1623757020.505
1816446.0,1623757020.545
1816434.0,1623757020.585
1816193.0,1623757020.625
1816079.0,1623757020.665
1815918.0,1623757020.705
1815880.0,1623757020.745
1815845.0,1623757020.785
1815702.0,1623757020.825
1815899.0,1623757020.865
1815776.0,1623757020.905
1815032.0,1623757020.945
1814270.0,1623757020.985
1813422.0,1623757021.025
1812543.0,1623757021.065
1812184.0,1623757021.105
1811758.0,1623757021.145
1811273.0,1623757021.185
1811120.0,1623757021.225
1810646.0,1623757021.265
1810367.0,1623757021.305
1810117.0,1623757021.345
1809973.0,1623757021.385
1810036.0,1623757021.425
1809902.0,1623757021.465
1809704.0,1623757021.505
1809931.0,1623757021.545
1809669.0,1623757021.585
1809101.0,1623757021.625
1808274.0,1623757021.665
1807221.0,1623757021.705
1806366.0,1623757021.745
1806078.0,1623757021.785
1805393.0,1623757021.825
1805265.0,1623757021.865
1804884.0,1623757021.905
1804594.0,1623757021.945
1804535.0,1623757021.985
1804481.0,1623757022.025
1804405.0,1623757022.065
1804429.0,1623757022.105
1804689.0,1623757022.145
1804955.0,1623757022.185
1805142.0,1623757022.225
1805351.0,1623757022.265
1805138.0,1623757022.305
1804461.0,1623757022.345
1803936.0,1623757022.385
1803237.0,1623757022.425
1802801.0,1623757022.465
1802550.0,1623757022.505
1802252.0,1623757022.545
1802242.0,1623757022.585
1802222.0,1623757022.625
1801954.0,1623757022.665
1801930.0,1623757022.705
1802093.0,1623757022.745
1802137.0,1623757022.785
1801839.0,1623757022.825
1801739.0,1623757022.865
1801813.0,1623757022.905
1801697.0,1623757022.945
1801592.0,1623757022.985
1801010.0,1623757023.025
1799950.0,1623757023.065
1799235.0,1623757023.105
1798554.0,1623757023.145
1797628.0,1623757023.185
1797021.0,1623757023.225
1796454.0,1623757023.265
1796399.0,1623757023.305
1796195.0,1623757023.345
1796416.0,1623757023.385
1796396.0,1623757023.425
1796955.0,1623757023.465
1797284.0,1623757023.505
1797760.0,1623757023.545
1798475.0,1623757023.585
1799132.0,1623757023.625
1800540.0,1623757023.665
1801949.0,1623757023.705
1802280.0,1623757023.745
1802745.0,1623757023.785
1802836.0,1623757023.825
1802857.0,1623757023.865
1803127.0,1623757023.905
1803367.0,1623757023.945
1803721.0,1623757023.985
1803848.0,1623757024.025
1803756.0,1623757024.065
1803679.0,1623757024.105
1803563.0,1623757024.145
1803487.0,1623757024.185
1803223.0,1623757024.225
1803019.0,1623757024.265
1803143.0,1623757024.305
1802895.0,1623757024.345
1802814.0,1623757024.385
1802368.0,1623757024.425
1801742.0,1623757024.465
1800919.0,1623757024.505
1800200.0,1623757024.545
1799587.0,1623757024.585
1799286.0,1623757024.625
1799248.0,1623757024.665
1799237.0,1623757024.705
1799096.0,1623757024.745
1799051.0,1623757024.785
1799349.0,1623757024.825
1799397.0,1623757024.865
1799895.0,1623757024.905
1800116.0,1623757024.945
1800532.0,1623757024.985
1801213.0,1623757025.025
1801399.0,1623757025.065
1801831.0,1623757025.105
1801509.0,1623757025.145
1801174.0,1623757025.185
1800572.0,1623757025.225
1800000.0,1623757025.265
1799818.0,1623757025.305
1799715.0,1623757025.345
1799778.0,1623757025.385
1799914.0,1623757025.425
1799933.0,1623757025.465
1800216.0,1623757025.505
1800469.0,1623757025.545
1800692.0,1623757025.585
1801188.0,1623757025.625
1801754.0,1623757025.665
1802036.0,1623757025.705
1803144.0,1623757025.785
1802524.0,1623757025.745
1803628.0,1623757025.825
1803414.0,1623757025.865
1802904.0,1623757025.905
1802549.0,1623757025.945
1802074.0,1623757025.985
1801766.0,1623757026.025
1801573.0,1623757026.065
1801519.0,1623757026.105
1801664.0,1623757026.145
1801716.0,1623757026.185
1801930.0,1623757026.225
1802044.0,1623757026.265
1802096.0,1623757026.305
1802565.0,1623757026.345
1802853.0,1623757026.385
1803317.0,1623757026.425
1803524.0,1623757026.465
1803989.0,1623757026.505
1804433.0,1623757026.545
1805002.0,1623757026.585
1804896.0,1623757026.625
1804631.0,1623757026.665
1804279.0,1623757026.705
1803647.0,1623757026.745
1803567.0,1623757026.785
1803435.0,1623757026.825
1803310.0,1623757026.865
1803422.0,1623757026.905
1803548.0,1623757026.945
1803392.0,1623757026.985
1803452.0,1623757027.025
1803643.0,1623757027.065
1803887.0,1623757027.105
1804087.0,1623757027.145
1804351.0,1623757027.185
1804623.0,1623757027.225
1804952.0,1623757027.265
1805190.0,1623757027.305
1805212.0,1623757027.345
1804839.0,1623757027.385
1804615.0,1623757027.425
1804176.0,1623757027.465
1804256.0,1623757027.505
1804146.0,1623757027.545
1804207.0,1623757027.585
1804136.0,1623757027.625
1804472.0,1623757027.665
1804485.0,1623757027.705
1804823.0,1623757027.745
1805257.0,1623757027.785
1805431.0,1623757027.825
1806196.0,1623757027.865
1806319.0,1623757027.905
1806676.0,1623757027.945
1806837.0,1623757027.985
1806936.0,1623757028.025
1806478.0,1623757028.065
1805790.0,1623757028.105
1805326.0,1623757028.145
1805192.0,1623757028.185
1805273.0,1623757028.225
1805260.0,1623757028.265
1805484.0,1623757028.305
1805807.0,1623757028.348
1806033.0,1623757028.388
1806193.0,1623757028.427
1806919.0,1623757028.467
1807486.0,1623757028.508
1808349.0,1623757028.548
1809283.0,1623757028.588
1810185.0,1623757028.629
1810726.0,1623757028.668
1811341.0,1623757028.708
1811424.0,1623757028.75
1811203.0,1623757028.788
1810880.0,1623757028.828
1810236.0,1623757028.869
1809917.0,1623757028.908
1809813.0,1623757028.949
1809718.0,1623757028.99
1809618.0,1623757029.029
1809427.0,1623757029.069
1809642.0,1623757029.11
1809927.0,1623757029.15
1810143.0,1623757029.189
1810575.0,1623757029.23
1810974.0,1623757029.269
1811365.0,1623757029.309
1811595.0,1623757029.351
1811649.0,1623757029.51
1812099.0,1623757029.43
1811330.0,1623757029.551
1810957.0,1623757029.591
1810907.0,1623757029.63
1811104.0,1623757029.67
1811089.0,1623757029.711
1811993.0,1623757029.471
1811074.0,1623757029.751
1811967.0,1623757029.39
1811004.0,1623757029.791
1810753.0,1623757029.832
1811064.0,1623757029.871
1812059.0,1623757029.953
1812034.0,1623757029.991
1812444.0,1623757030.031
1812868.0,1623757030.072
1811548.0,1623757029.911
1812837.0,1623757030.111
1812584.0,1623757030.152
1812236.0,1623757030.193
1811256.0,1623757030.232
1810785.0,1623757030.272
1809948.0,1623757030.313
1809512.0,1623757030.353
1809050.0,1623757030.392
1808702.0,1623757030.433
1808021.0,1623757030.472
1807523.0,1623757030.512
1807014.0,1623757030.593
1806695.0,1623757030.633
1806680.0,1623757030.674
1806833.0,1623757030.754
1807147.0,1623757030.554
1807167.0,1623757030.794
1806545.0,1623757030.833
1806064.0,1623757030.873
1805389.0,1623757030.914
1806608.0,1623757030.713
1804596.0,1623757030.954
1804327.0,1623757030.994
1804007.0,1623757031.035
1803639.0,1623757031.114
1803372.0,1623757031.194
1803253.0,1623757031.275
1803323.0,1623757031.234
1803547.0,1623757031.156
1803683.0,1623757031.074
1803472.0,1623757031.314
1803549.0,1623757031.395
1803416.0,1623757031.355
1803666.0,1623757031.434
1803195.0,1623757031.474
1802284.0,1623757031.515
1801329.0,1623757031.555
1800139.0,1623757031.594
1798739.0,1623757031.636
1797520.0,1623757031.675
1796856.0,1623757031.715
1796188.0,1623757031.757
1795699.0,1623757031.795
1795541.0,1623757031.835
1795682.0,1623757031.876
1796206.0,1623757031.915
1797317.0,1623757031.956
1798574.0,1623757031.996
1800025.0,1623757032.035
1801327.0,1623757032.075
1802463.0,1623757032.116
1802937.0,1623757032.156
1802810.0,1623757032.195
1802923.0,1623757032.237
1803004.0,1623757032.276
1802959.0,1623757032.316
1803175.0,1623757032.357
1803301.0,1623757032.396
1803540.0,1623757032.436
1803768.0,1623757032.477
1804105.0,1623757032.516
1804494.0,1623757032.557
1804735.0,1623757032.597
1805382.0,1623757032.636
1805605.0,1623757032.676
1806175.0,1623757032.717
1806493.0,1623757032.757
1806336.0,1623757032.796
1805883.0,1623757032.838
1805579.0,1623757032.877
1804749.0,1623757032.917
1804617.0,1623757032.958
1804460.0,1623757032.997
1804438.0,1623757033.037
1804569.0,1623757033.078
1804621.0,1623757033.117
1805084.0,1623757033.158
1805517.0,1623757033.198
1805795.0,1623757033.237
1806008.0,1623757033.277
1806353.0,1623757033.319
1807046.0,1623757033.358
1807761.0,1623757033.398
1808219.0,1623757033.439
1808579.0,1623757033.478
1808574.0,1623757033.518
1808301.0,1623757033.56
1807817.0,1623757033.598
1807232.0,1623757033.638
1806899.0,1623757033.679
1806627.0,1623757033.718
1806701.0,1623757033.759
1806579.0,1623757033.799
1806616.0,1623757033.838
1806607.0,1623757033.879
1806636.0,1623757033.92
1806641.0,1623757033.959
1806867.0,1623757033.999
1806937.0,1623757034.04
1807105.0,1623757034.079
1807327.0,1623757034.119
1807436.0,1623757034.161
1807488.0,1623757034.199
1807477.0,1623757034.239
1807060.0,1623757034.28
1806507.0,1623757034.319
1806421.0,1623757034.36
1805851.0,1623757034.401
1805625.0,1623757034.44
1805770.0,1623757034.48
1806094.0,1623757034.521
1806141.0,1623757034.56
1806419.0,1623757034.6
1806878.0,1623757034.641
1807453.0,1623757034.68
1807671.0,1623757034.72
1808201.0,1623757034.762
1808788.0,1623757034.8
1809440.0,1623757034.84
1810068.0,1623757034.881
1810805.0,1623757034.92
1811030.0,1623757034.961
1810804.0,1623757035.002
1810591.0,1623757035.041
1810164.0,1623757035.081
1809650.0,1623757035.122
1809580.0,1623757035.162
1809681.0,1623757035.201
1809862.0,1623757035.242
1810023.0,1623757035.281
1810348.0,1623757035.321
1810502.0,1623757035.363
1811112.0,1623757035.401
1811290.0,1623757035.441
1811686.0,1623757035.482
1812327.0,1623757035.521
1813001.0,1623757035.562
1813517.0,1623757035.603
1813740.0,1623757035.642
1813661.0,1623757035.682
1813265.0,1623757035.723
1813103.0,1623757035.762
1812725.0,1623757035.802
1812620.0,1623757035.843
1812607.0,1623757035.882
1812534.0,1623757035.922
1812809.0,1623757035.964
1812947.0,1623757036.002
1813047.0,1623757036.042
1813180.0,1623757036.083
1813493.0,1623757036.122
1813872.0,1623757036.163
1814144.0,1623757036.204
1814472.0,1623757036.243
1814820.0,1623757036.283
1815091.0,1623757036.324
1814892.0,1623757036.364
1814627.0,1623757036.403
1814169.0,1623757036.444
1813823.0,1623757036.483
1813854.0,1623757036.523
1813833.0,1623757036.565
1813811.0,1623757036.603
1814100.0,1623757036.643
1814052.0,1623757036.684
1814204.0,1623757036.723
1814205.0,1623757036.764
1814561.0,1623757036.805
1814765.0,1623757036.844
1814968.0,1623757036.884
1815354.0,1623757036.925
1815632.0,1623757036.965
1816066.0,1623757037.004
1815825.0,1623757037.045
1815514.0,1623757037.084
1815144.0,1623757037.124
1814769.0,1623757037.166
1814870.0,1623757037.204
1814678.0,1623757037.244
1814776.0,1623757037.285
1814737.0,1623757037.325
1815111.0,1623757037.365
1815038.0,1623757037.406
1815208.0,1623757037.445
1815435.0,1623757037.485
1815746.0,1623757037.526
1815930.0,1623757037.566
1816245.0,1623757037.605
1816518.0,1623757037.646
1816528.0,1623757037.685
1815998.0,1623757037.725
1815604.0,1623757037.767
1815066.0,1623757037.806
1814793.0,1623757037.846
1814618.0,1623757037.887
1814515.0,1623757037.926
1814653.0,1623757037.967
1814411.0,1623757038.007
1814510.0,1623757038.046
1814534.0,1623757038.086
1814676.0,1623757038.127
1814800.0,1623757038.167
1815031.0,1623757038.206
1815305.0,1623757038.247
1815636.0,1623757038.287
1815711.0,1623757038.327
1815735.0,1623757038.368
1815260.0,1623757038.407
1814517.0,1623757038.447
1813944.0,1623757038.488
1813758.0,1623757038.527
1813643.0,1623757038.568
1813588.0,1623757038.608
1813516.0,1623757038.647
1813559.0,1623757038.687
1813836.0,1623757038.768
1813984.0,1623757038.808
1814090.0,1623757038.849
1814223.0,1623757038.888
1813766.0,1623757038.729
1814514.0,1623757038.928
1814947.0,1623757038.97
1815395.0,1623757039.008
1814746.0,1623757039.048
1814412.0,1623757039.089
1813721.0,1623757039.128
1813153.0,1623757039.169
1812746.0,1623757039.21
1812607.0,1623757039.249
1812497.0,1623757039.289
1812477.0,1623757039.33
1812375.0,1623757039.37
1812245.0,1623757039.409
1812484.0,1623757039.45
1812363.0,1623757039.489
1812930.0,1623757039.529
1812786.0,1623757039.571
1813058.0,1623757039.609
1813301.0,1623757039.649
1813561.0,1623757039.691
1813564.0,1623757039.73
1812980.0,1623757039.77
1812465.0,1623757039.811
1811493.0,1623757039.85
1810925.0,1623757039.89
1810864.0,1623757039.931
1810627.0,1623757039.971
1810437.0,1623757040.01
1810339.0,1623757040.051
1810305.0,1623757040.09
1810312.0,1623757040.13
1810470.0,1623757040.172
1810561.0,1623757040.211
1810794.0,1623757040.251
1811104.0,1623757040.292
1811286.0,1623757040.331
1811477.0,1623757040.409
1812048.0,1623757040.449
1812157.0,1623757040.488
1811903.0,1623757040.528
1811358.0,1623757040.569
1810699.0,1623757040.609
1810086.0,1623757040.648
1809730.0,1623757040.69
1809326.0,1623757040.729
1809341.0,1623757040.769
1809167.0,1623757040.811
1809008.0,1623757040.849
1809128.0,1623757040.889
1809042.0,1623757040.93
1809055.0,1623757040.969
1809157.0,1623757041.01
1809446.0,1623757041.05
1809720.0,1623757041.089
1809903.0,1623757041.13
1810176.0,1623757041.171
1810348.0,1623757041.21
1809741.0,1623757041.25
1809343.0,1623757041.291
1808662.0,1623757041.33
1808171.0,1623757041.37
1808179.0,1623757041.412
1807942.0,1623757041.45
1808182.0,1623757041.49
1808039.0,1623757041.531
1808060.0,1623757041.57
1808202.0,1623757041.611
1808237.0,1623757041.652
1808773.0,1623757041.691
1808725.0,1623757041.731
1809405.0,1623757041.772
1809508.0,1623757041.812
1809934.0,1623757041.851
1810513.0,1623757041.892
1810252.0,1623757041.932
1809815.0,1623757041.972
1809318.0,1623757042.013
1808812.0,1623757042.052
1808424.0,1623757042.092
1808114.0,1623757042.133
1807947.0,1623757042.172
1807937.0,1623757042.213
1808006.0,1623757042.253
1808098.0,1623757042.292
1808276.0,1623757042.332
1808430.0,1623757042.374
1808761.0,1623757042.413
1808985.0,1623757042.453
1809192.0,1623757042.494
1809622.0,1623757042.534
1810050.0,1623757042.573
1810728.0,1623757042.615
1810450.0,1623757042.653
1809947.0,1623757042.694
1809582.0,1623757042.735
1808916.0,1623757042.774
1808052.0,1623757042.815
1807921.0,1623757042.855
1807869.0,1623757042.894
1807695.0,1623757042.934
1807426.0,1623757042.975
1807440.0,1623757043.015
1807330.0,1623757043.055
1807346.0,1623757043.096
1807319.0,1623757043.135
1807492.0,1623757043.175
1807753.0,1623757043.217
1807953.0,1623757043.255
1808188.0,1623757043.295
1808056.0,1623757043.336
1807507.0,1623757043.375
1806576.0,1623757043.416
1805484.0,1623757043.457
1804125.0,1623757043.496
1803182.0,1623757043.536
1801928.0,1623757043.577
1801328.0,1623757043.617
1800651.0,1623757043.656
1800294.0,1623757043.697
1799858.0,1623757043.737
1800116.0,1623757043.777
1800097.0,1623757043.818
1800350.0,1623757043.857
1800938.0,1623757043.897
1801851.0,1623757043.938
1802808.0,1623757043.977
1803241.0,1623757044.018
1803419.0,1623757044.058
1803283.0,1623757044.097
1802972.0,1623757044.137
1802945.0,1623757044.178
1803084.0,1623757044.218
1803120.0,1623757044.257
1803094.0,1623757044.299
1803310.0,1623757044.338
1803111.0,1623757044.378
1803326.0,1623757044.419
1803417.0,1623757044.458
1803536.0,1623757044.498
1803570.0,1623757044.539
1803720.0,1623757044.578
1804089.0,1623757044.619
1804091.0,1623757044.659
1803642.0,1623757044.698
1803299.0,1623757044.738
1802523.0,1623757044.78
1802041.0,1623757044.82
1801885.0,1623757044.86
1801727.0,1623757044.901
1801890.0,1623757044.94
1802159.0,1623757044.98
1802322.0,1623757045.023
1802464.0,1623757045.061
1802916.0,1623757045.1
1803418.0,1623757045.136
1803900.0,1623757045.175
1804422.0,1623757045.216
1804800.0,1623757045.256
1805098.0,1623757045.295
1804822.0,1623757045.335
1804412.0,1623757045.376
1803701.0,1623757045.416
1803189.0,1623757045.456
1802786.0,1623757045.497
1802671.0,1623757045.536
1802615.0,1623757045.576
1802744.0,1623757045.618
1803038.0,1623757045.656
1803270.0,1623757045.696
1803428.0,1623757045.737
1803609.0,1623757045.776
1803825.0,1623757045.818
1804405.0,1623757045.859
1804686.0,1623757045.898
1804999.0,1623757045.938
1804816.0,1623757045.98
1804207.0,1623757046.02
1803797.0,1623757046.06
1802827.0,1623757046.101
1802538.0,1623757046.14
1802328.0,1623757046.18
1802340.0,1623757046.223
1802352.0,1623757046.261
1802435.0,1623757046.301
1802475.0,1623757046.342
1802788.0,1623757046.379
1803201.0,1623757046.42
1803430.0,1623757046.46
1803931.0,1623757046.499
1804325.0,1623757046.539
1804650.0,1623757046.58
1805243.0,1623757046.62
1805790.0,1623757046.659
1805648.0,1623757046.7
1805254.0,1623757046.74
1804576.0,1623757046.78
1803803.0,1623757046.821
1803658.0,1623757046.86
1803405.0,1623757046.9
1803405.0,1623757046.941
1803537.0,1623757046.98
1803394.0,1623757047.021
1803783.0,1623757047.062
1803692.0,1623757047.101
1803895.0,1623757047.141
1804421.0,1623757047.183
1804682.0,1623757047.223
1805381.0,1623757047.262
1805815.0,1623757047.302
1806215.0,1623757047.341
1806703.0,1623757047.381
1807241.0,1623757047.423
1807179.0,1623757047.462
1806686.0,1623757047.502
1806429.0,1623757047.543
1805860.0,1623757047.584
1805708.0,1623757047.622
1805639.0,1623757047.663
1805690.0,1623757047.702
1805823.0,1623757047.742
1806010.0,1623757047.783
1805973.0,1623757047.823
1806225.0,1623757047.862
1806765.0,1623757047.903
1806889.0,1623757047.942
1807547.0,1623757047.982
1807820.0,1623757048.024
1808333.0,1623757048.062
1809062.0,1623757048.103
1809559.0,1623757048.144
1809895.0,1623757048.183
1810385.0,1623757048.223
1810151.0,1623757048.264
1809858.0,1623757048.304
1809396.0,1623757048.344
1808987.0,1623757048.384
1809046.0,1623757048.422
1809376.0,1623757048.461
1809392.0,1623757048.503
1809654.0,1623757048.542
1809865.0,1623757048.582
1810020.0,1623757048.624
1810438.0,1623757048.663
1810935.0,1623757048.703
1811283.0,1623757048.744
1811691.0,1623757048.781
1812246.0,1623757048.821
1812679.0,1623757048.862
1813312.0,1623757048.901
1814154.0,1623757048.941
1814537.0,1623757048.982
1814645.0,1623757049.022
1814454.0,1623757049.061
1813965.0,1623757049.102
1813951.0,1623757049.141
1813748.0,1623757049.181
1813844.0,1623757049.223
1813898.0,1623757049.261
1814240.0,1623757049.301
1814334.0,1623757049.343
1814680.0,1623757049.382
1814725.0,1623757049.422
1815080.0,1623757049.463
1815539.0,1623757049.503
1815917.0,1623757049.543
1816456.0,1623757049.584
1817130.0,1623757049.624
1817505.0,1623757049.661
1818086.0,1623757049.703
1818695.0,1623757049.742
1818914.0,1623757049.782
1818869.0,1623757049.824
1818736.0,1623757049.863
1818638.0,1623757049.903
1818147.0,1623757049.944
1818142.0,1623757049.984
1818287.0,1623757050.022
1818435.0,1623757050.054
1818694.0,1623757050.093
1818902.0,1623757050.133
1819198.0,1623757050.174
1819520.0,1623757050.214
1819734.0,1623757050.254
1820243.0,1623757050.295
1820958.0,1623757050.374
1820727.0,1623757050.334
1821641.0,1623757050.416
1822066.0,1623757050.454
1822694.0,1623757050.494
1823006.0,1623757050.535
1823029.0,1623757050.574
1822852.0,1623757050.615
1822465.0,1623757050.655
1822102.0,1623757050.694
1822077.0,1623757050.735
1822094.0,1623757050.776
1822317.0,1623757050.815
1822253.0,1623757050.855
1822636.0,1623757050.896
1822672.0,1623757050.935
1822967.0,1623757050.975
1823006.0,1623757051.017
1823530.0,1623757051.051
1823853.0,1623757051.083
1824136.0,1623757051.122
1824661.0,1623757051.162
1825022.0,1623757051.202
1825507.0,1623757051.242
1825632.0,1623757051.279
1825454.0,1623757051.319
1825202.0,1623757051.36
1824648.0,1623757051.4
1824480.0,1623757051.44
1824322.0,1623757051.481
1824273.0,1623757051.52
1824466.0,1623757051.56
1824521.0,1623757051.602
1824399.0,1623757051.64
1824654.0,1623757051.68
1824798.0,1623757051.721
1824783.0,1623757051.76
1824989.0,1623757051.801
1825257.0,1623757051.841
1825588.0,1623757051.88
1825923.0,1623757051.92
1826146.0,1623757051.962
1826308.0,1623757052.002
1825960.0,1623757052.042
1825355.0,1623757052.083
1824909.0,1623757052.122
1824176.0,1623757052.162
1824057.0,1623757052.204
1824025.0,1623757052.242
1823890.0,1623757052.282
1823723.0,1623757052.323
1823686.0,1623757052.362
1823550.0,1623757052.408
1823592.0,1623757052.449
1823699.0,1623757052.488
1823525.0,1623757052.528
1823280.0,1623757052.569
1822715.0,1623757052.609
1822113.0,1623757052.648
1820958.0,1623757052.689
1819950.0,1623757052.728
1818806.0,1623757052.768
1817701.0,1623757052.81
1817092.0,1623757052.848
1816513.0,1623757052.889
1816346.0,1623757052.93
1816194.0,1623757052.969
1816065.0,1623757053.009
1816120.0,1623757053.05
1816168.0,1623757053.089
1816450.0,1623757053.129
1816626.0,1623757053.17
1816475.0,1623757053.21
1816749.0,1623757053.25
1817101.0,1623757053.291
1817526.0,1623757053.33
1817997.0,1623757053.368
1817937.0,1623757053.41
1817554.0,1623757053.448
1817155.0,1623757053.488
1816557.0,1623757053.53
1816140.0,1623757053.569
1816055.0,1623757053.61
1816169.0,1623757053.65
1816085.0,1623757053.69
1816327.0,1623757053.727
1816392.0,1623757053.766
1816432.0,1623757053.805
1816607.0,1623757053.845
1816819.0,1623757053.886
1816957.0,1623757053.925
1817124.0,1623757053.965
1817508.0,1623757054.007
1817712.0,1623757054.045
1817209.0,1623757054.085
1816648.0,1623757054.126
1815648.0,1623757054.165
1814541.0,1623757054.206
1813652.0,1623757054.247
1813224.0,1623757054.286
1812927.0,1623757054.326
1812791.0,1623757054.367
1812468.0,1623757054.407
1812573.0,1623757054.447
1812333.0,1623757054.488
1811845.0,1623757054.527
1811772.0,1623757054.568
1811993.0,1623757054.61
1811852.0,1623757054.649
1812137.0,1623757054.689
1812164.0,1623757054.73
1811777.0,1623757054.766
1811048.0,1623757054.807
1810098.0,1623757054.847
1809610.0,1623757054.886
1809544.0,1623757054.926
1809799.0,1623757054.968
1810556.0,1623757055.007
1811629.0,1623757055.047
1812466.0,1623757055.088
1813365.0,1623757055.127
1815310.0,1623757055.167
1817700.0,1623757055.209
1819737.0,1623757055.247
1822275.0,1623757055.287
1825109.0,1623757055.328
1827989.0,1623757055.367
1830327.0,1623757055.408
1831663.0,1623757055.449
1832766.0,1623757055.488
1833628.0,1623757055.529
1834319.0,1623757055.571
1835099.0,1623757055.61
1835845.0,1623757055.649
1836664.0,1623757055.691
1837456.0,1623757055.73
1838009.0,1623757055.77
1838641.0,1623757055.812
1839267.0,1623757055.85
1839832.0,1623757055.89
1840641.0,1623757055.931
1841302.0,1623757055.97
1841805.0,1623757056.006
1842597.0,1623757056.047
1843038.0,1623757056.086
1842905.0,1623757056.126
1842941.0,1623757056.167
1842336.0,1623757056.207
1842051.0,1623757056.246
1841648.0,1623757056.287
1841553.0,1623757056.326
1841426.0,1623757056.367
1841861.0,1623757056.408
1842571.0,1623757056.447
1843596.0,1623757056.487
1843964.0,1623757056.528
1845447.0,1623757056.567
1848551.0,1623757056.608
1850533.0,1623757056.648
1851571.0,1623757056.687
1852575.0,1623757056.727
1854445.0,1623757056.769
1856096.0,1623757056.808
1857632.0,1623757056.848
1858274.0,1623757056.889
1859015.0,1623757056.928
1860949.0,1623757056.968
1862476.0,1623757057.011
1864122.0,1623757057.05
1866400.0,1623757057.09
1868162.0,1623757057.131
1868956.0,1623757057.17
1868962.0,1623757057.211
1869165.0,1623757057.244
1869500.0,1623757057.283
1869693.0,1623757057.324
1870187.0,1623757057.365
1871841.0,1623757057.404
1873681.0,1623757057.444
1874852.0,1623757057.485
1875915.0,1623757057.524
1876509.0,1623757057.564
1876945.0,1623757057.606
1877608.0,1623757057.646
1878932.0,1623757057.684
1879516.0,1623757057.726
1880586.0,1623757057.765
1881044.0,1623757057.805
1882076.0,1623757057.846
1882870.0,1623757057.885
1883938.0,1623757057.925
1884842.0,1623757057.963
1885673.0,1623757058.003
1886892.0,1623757058.036
1887832.0,1623757058.075
1888813.0,1623757058.112
1889884.0,1623757058.152
1890182.0,1623757058.194
1889740.0,1623757058.232
1889686.0,1623757058.273
1888435.0,1623757058.314
1888215.0,1623757058.353
1889119.0,1623757058.394
1890476.0,1623757058.432
1891290.0,1623757058.472
1892915.0,1623757058.512
1894121.0,1623757058.553
1895505.0,1623757058.593
1896928.0,1623757058.632
1898000.0,1623757058.673
1898931.0,1623757058.712
1900001.0,1623757058.753
1900812.0,1623757058.794
1901536.0,1623757058.833
1901891.0,1623757058.873
1902044.0,1623757058.914
1902083.0,1623757058.953
1902252.0,1623757058.994
1902417.0,1623757059.034
1902958.0,1623757059.073
1903185.0,1623757059.113
1903687.0,1623757059.155
1903879.0,1623757059.193
1903736.0,1623757059.232
1903773.0,1623757059.274
1903746.0,1623757059.313
1903855.0,1623757059.353
1903923.0,1623757059.395
1904134.0,1623757059.434
1903935.0,1623757059.474
1904101.0,1623757059.515
1903594.0,1623757059.552
1902846.0,1623757059.593
1901974.0,1623757059.634
1901185.0,1623757059.672
1901185.0,1623757059.703
1900431.0,1623757059.744
1900187.0,1623757059.784
1899745.0,1623757059.823
1899273.0,1623757059.865
1898710.0,1623757059.904
1898506.0,1623757059.944
1898184.0,1623757059.985
1897898.0,1623757060.024
1897423.0,1623757060.105
1897597.0,1623757060.064
1897347.0,1623757060.144
1897235.0,1623757060.225
1896977.0,1623757060.264
1897149.0,1623757060.185
1895757.0,1623757060.345
1894906.0,1623757060.378
1896682.0,1623757060.304
1893841.0,1623757060.414
1892800.0,1623757060.452
1892238.0,1623757060.491
1891831.0,1623757060.531
1891289.0,1623757060.573
1890678.0,1623757060.612
1890139.0,1623757060.652
1889795.0,1623757060.693
1889558.0,1623757060.732
1889187.0,1623757060.773
1889014.0,1623757060.814
1888797.0,1623757060.853
1888496.0,1623757060.893
1888184.0,1623757060.931
1888130.0,1623757060.971
1887716.0,1623757061.01
1887513.0,1623757061.051
1886436.0,1623757061.091
1885418.0,1623757061.131
1884125.0,1623757061.173
1883322.0,1623757061.211
1882564.0,1623757061.251
1881887.0,1623757061.292
1880858.0,1623757061.331
1880664.0,1623757061.372
1880176.0,1623757061.412
1879996.0,1623757061.451
1879642.0,1623757061.491
1879665.0,1623757061.532
1879467.0,1623757061.572
1879061.0,1623757061.612
1879135.0,1623757061.654
1879428.0,1623757061.692
1879500.0,1623757061.732
1879024.0,1623757061.774
1878380.0,1623757061.813
1877524.0,1623757061.853
1876523.0,1623757061.894
1876155.0,1623757061.934
1875861.0,1623757061.975
1875888.0,1623757062.015
1875667.0,1623757062.052
1875815.0,1623757062.093
1875962.0,1623757062.134
1875758.0,1623757062.17
1875971.0,1623757062.209
1876010.0,1623757062.25
1875888.0,1623757062.289
1876127.0,1623757062.33
1876265.0,1623757062.371
1876623.0,1623757062.41
1876876.0,1623757062.45
1876328.0,1623757062.491
1876020.0,1623757062.53
1875214.0,1623757062.571
1874434.0,1623757062.612
1873771.0,1623757062.651
1873441.0,1623757062.691
1873178.0,1623757062.732
1872837.0,1623757062.772
1872725.0,1623757062.811
1872518.0,1623757062.853
1872565.0,1623757062.893
1872658.0,1623757062.933
1872364.0,1623757062.974
1872518.0,1623757063.013
1872599.0,1623757063.053
1872720.0,1623757063.094
1872416.0,1623757063.133
1871997.0,1623757063.174
1871394.0,1623757063.215
1870714.0,1623757063.254
1869963.0,1623757063.294
1869850.0,1623757063.336
1869669.0,1623757063.37
1869401.0,1623757063.41
1869528.0,1623757063.451
1869513.0,1623757063.49
1869124.0,1623757063.53
1869166.0,1623757063.572
1868862.0,1623757063.61
1868914.0,1623757063.65
1869011.0,1623757063.692
1869140.0,1623757063.731
1869176.0,1623757063.772
1868995.0,1623757063.812
1868570.0,1623757063.851
1867908.0,1623757063.891
1867459.0,1623757063.932
1867263.0,1623757063.972
1867230.0,1623757064.011
1867396.0,1623757064.052
1867393.0,1623757064.092
1867079.0,1623757064.133
1866911.0,1623757064.175
1866591.0,1623757064.213
1866332.0,1623757064.253
1865975.0,1623757064.295
1865527.0,1623757064.334
1865241.0,1623757064.373
1864727.0,1623757064.412
1864288.0,1623757064.451
1863345.0,1623757064.49
1862265.0,1623757064.529
1861442.0,1623757064.568
1860601.0,1623757064.607
1859652.0,1623757064.646
1858975.0,1623757064.685
1858286.0,1623757064.724
1857247.0,1623757064.763
1856912.0,1623757064.802
1855973.0,1623757064.841
1856035.0,1623757064.88
1855721.0,1623757064.919
1855630.0,1623757064.958
1855656.0,1623757064.997
1855647.0,1623757065.036
1855650.0,1623757065.075
1855755.0,1623757065.114
1855067.0,1623757065.153
1854443.0,1623757065.192
1853629.0,1623757065.231
1852862.0,1623757065.27
1852638.0,1623757065.309
1852194.0,1623757065.348
1851780.0,1623757065.387
1851951.0,1623757065.504
1853250.0,1623757065.582
1852295.0,1623757065.543
1851814.0,1623757065.465
1851681.0,1623757065.426
1854109.0,1623757065.621
1855177.0,1623757065.66
1857868.0,1623757065.738
1856583.0,1623757065.699
1859025.0,1623757065.777
1859906.0,1623757065.816
1860605.0,1623757065.855
1861490.0,1623757065.894
1862211.0,1623757065.933
1863261.0,1623757065.972
1864440.0,1623757066.011
1865519.0,1623757066.05
1866183.0,1623757066.089
1866947.0,1623757066.128
1867975.0,1623757066.167
1868013.0,1623757066.206
1868476.0,1623757066.245
1868558.0,1623757066.284
1869001.0,1623757066.323
1869375.0,1623757066.362
1869811.0,1623757066.401
1869914.0,1623757066.44
1869540.0,1623757066.479
1869348.0,1623757066.518
1868961.0,1623757066.557
1868506.0,1623757066.596
1868359.0,1623757066.635
1868721.0,1623757066.674
1868668.0,1623757066.713
1868789.0,1623757066.752
1868940.0,1623757066.791
1869189.0,1623757066.83
1869455.0,1623757066.869
1869441.0,1623757066.908
1869779.0,1623757066.947
1870002.0,1623757066.986
1870207.0,1623757067.025
1870452.0,1623757067.064
1870687.0,1623757067.103
1870268.0,1623757067.142
1869765.0,1623757067.181
1869041.0,1623757067.22
1868324.0,1623757067.259
1868057.0,1623757067.298
1867825.0,1623757067.337
1867535.0,1623757067.376
1867276.0,1623757067.415
1867114.0,1623757067.454
1866861.0,1623757067.493
1866863.0,1623757067.532
1866598.0,1623757067.571
1866649.0,1623757067.61
1866343.0,1623757067.649
1866433.0,1623757067.688
1866601.0,1623757067.727
1866617.0,1623757067.766
1866057.0,1623757067.805
1865370.0,1623757067.844
1864681.0,1623757067.883
1864114.0,1623757067.922
1863701.0,1623757067.961
1863488.0,1623757068.0
1863249.0,1623757068.039
1863007.0,1623757068.078
1862732.0,1623757068.117
1862511.0,1623757068.156
1862271.0,1623757068.195
1862271.0,1623757068.234
1862311.0,1623757068.273
1862125.0,1623757068.312
1862284.0,1623757068.351
1862196.0,1623757068.39
1862215.0,1623757068.429
1862242.0,1623757068.468
1861866.0,1623757068.507
1861027.0,1623757068.546
1860061.0,1623757068.585
1859487.0,1623757068.624
1858766.0,1623757068.663
1858128.0,1623757068.702
1857912.0,1623757068.741
1857443.0,1623757068.78
1857097.0,1623757068.819
1856715.0,1623757068.858
1856492.0,1623757068.897
1856127.0,1623757068.936
1855973.0,1623757068.975
1855887.0,1623757069.014
1855835.0,1623757069.053
1855674.0,1623757069.092
1855742.0,1623757069.131
1855048.0,1623757069.17
1854343.0,1623757069.209
1853183.0,1623757069.248
1852288.0,1623757069.287
1851314.0,1623757069.326
1850845.0,1623757069.365
1850076.0,1623757069.404
1849640.0,1623757069.443
1849138.0,1623757069.482
1848734.0,1623757069.521
1848228.0,1623757069.56
1847765.0,1623757069.599
1847183.0,1623757069.638
1846873.0,1623757069.677
1846521.0,1623757069.716
1846263.0,1623757069.755
1845952.0,1623757069.794
1845547.0,1623757069.833
1844662.0,1623757069.873
1843488.0,1623757069.913
1842207.0,1623757069.953
1840942.0,1623757069.993
1839811.0,1623757070.033
1839149.0,1623757070.073
1838190.0,1623757070.113
1837484.0,1623757070.153
1836731.0,1623757070.193
1836017.0,1623757070.233
1835525.0,1623757070.273
1834785.0,1623757070.313
1834494.0,1623757070.353
1834215.0,1623757070.393
1833862.0,1623757070.433
1833739.0,1623757070.473
1833356.0,1623757070.513
1833155.0,1623757070.553
1832901.0,1623757070.593
1832193.0,1623757070.633
1831225.0,1623757070.673
1830115.0,1623757070.713
1829149.0,1623757070.753
1828906.0,1623757070.793
1828371.0,1623757070.833
1828028.0,1623757070.873
1827570.0,1623757070.913
1827275.0,1623757070.953
1826957.0,1623757070.993
1826895.0,1623757071.033
1826702.0,1623757071.073
1826588.0,1623757071.113
1826742.0,1623757071.153
1827061.0,1623757071.193
1826956.0,1623757071.233
1827170.0,1623757071.273
1827197.0,1623757071.313
1826940.0,1623757071.353
1826311.0,1623757071.393
1825614.0,1623757071.433
1824909.0,1623757071.473
1824326.0,1623757071.513
1824020.0,1623757071.553
1823755.0,1623757071.593
1823544.0,1623757071.633
1823409.0,1623757071.673
1823296.0,1623757071.713
1823122.0,1623757071.753
1823029.0,1623757071.793
1823143.0,1623757071.833
1822985.0,1623757071.873
1823398.0,1623757071.913
1823507.0,1623757071.953
1823820.0,1623757071.993
1823820.0,1623757072.033
1823988.0,1623757072.073
1824353.0,1623757072.113
1823722.0,1623757072.153
1823366.0,1623757072.193
1822714.0,1623757072.233
1822287.0,1623757072.273
1822492.0,1623757072.313
1822614.0,1623757072.353
1823015.0,1623757072.393
1823261.0,1623757072.433
1823658.0,1623757072.473
1824002.0,1623757072.513
1824561.0,1623757072.553
1825067.0,1623757072.593
1825435.0,1623757072.633
1825944.0,1623757072.673
1826352.0,1623757072.713
1826803.0,1623757072.753
1827102.0,1623757072.793
1827760.0,1623757072.833
1827671.0,1623757072.873
1827305.0,1623757072.913
1826823.0,1623757072.953
1826479.0,1623757072.993
1825898.0,1623757073.033
1825823.0,1623757073.073
1825803.0,1623757073.113
1825568.0,1623757073.153
1825492.0,1623757073.193
1825445.0,1623757073.233
1825587.0,1623757073.273
1825487.0,1623757073.353
1825684.0,1623757073.313
1825683.0,1623757073.433
1825537.0,1623757073.393
1825786.0,1623757073.473
1826025.0,1623757073.513
1826002.0,1623757073.553
1825489.0,1623757073.593
1824691.0,1623757073.633
1823965.0,1623757073.673
1823160.0,1623757073.713
1822891.0,1623757073.753
1822515.0,1623757073.793
1822295.0,1623757073.833
1821723.0,1623757073.913
1821912.0,1623757073.873
1821627.0,1623757073.953
1821432.0,1623757073.993
1821454.0,1623757074.033
1821511.0,1623757074.073
1821736.0,1623757074.153
1821755.0,1623757074.113
1821494.0,1623757074.233
1821892.0,1623757074.193
1820900.0,1623757074.273
1819709.0,1623757074.353
1820198.0,1623757074.313
1819449.0,1623757074.393
1819171.0,1623757074.433
1819101.0,1623757074.473
1819100.0,1623757074.513
1819073.0,1623757074.553
1819150.0,1623757074.593
1819306.0,1623757074.633
1819471.0,1623757074.673
1819460.0,1623757074.713
1819693.0,1623757074.753
1820171.0,1623757074.793
1820257.0,1623757074.833
1819896.0,1623757074.873
1819151.0,1623757074.913
1818189.0,1623757074.953
1817586.0,1623757074.993
1816743.0,1623757075.033
1816480.0,1623757075.073
1816139.0,1623757075.113
1815940.0,1623757075.153
1815876.0,1623757075.193
1815675.0,1623757075.233
1815564.0,1623757075.273
1815777.0,1623757075.313
1815867.0,1623757075.353
1815912.0,1623757075.393
1816008.0,1623757075.433
1816317.0,1623757075.473
1816041.0,1623757075.513
1815651.0,1623757075.553
1814531.0,1623757075.593
1813594.0,1623757075.633
1813059.0,1623757075.673
1812450.0,1623757075.713
1812057.0,1623757075.753
1811984.0,1623757075.793
1811657.0,1623757075.833
1811369.0,1623757075.873
1811044.0,1623757075.913
1811128.0,1623757075.953
1811164.0,1623757075.993
1811016.0,1623757076.033
1810905.0,1623757076.073
1811136.0,1623757076.113
1811004.0,1623757076.153
1811002.0,1623757076.193
1809971.0,1623757076.234
1808848.0,1623757076.274
1807598.0,1623757076.313
1806346.0,1623757076.353
1805447.0,1623757076.394
1804316.0,1623757076.434
1803512.0,1623757076.473
1802609.0,1623757076.515
1801961.0,1623757076.554
1801509.0,1623757076.594
1801368.0,1623757076.635
1801207.0,1623757076.675
1800911.0,1623757076.714
1801079.0,1623757076.753
1801291.0,1623757076.792
1802049.0,1623757076.873
1801775.0,1623757076.832
1801964.0,1623757076.952
1801782.0,1623757076.993
1801904.0,1623757077.032
1802057.0,1623757076.912
1802164.0,1623757077.072
1802562.0,1623757077.113
1803438.0,1623757077.152
1813711.0,1623757077.234
1820414.0,1623757077.272
1825370.0,1623757077.312
1828989.0,1623757077.353
1827288.0,1623757077.392
1825271.0,1623757077.433
1809966.0,1623757077.192
1824655.0,1623757077.473
1824373.0,1623757077.512
1822220.0,1623757077.553
1819541.0,1623757077.594
1818596.0,1623757077.633
1821791.0,1623757077.673
1822910.0,1623757077.754
1823678.0,1623757077.794
1829183.0,1623757077.834
1838126.0,1623757077.873
1824409.0,1623757077.715
1846567.0,1623757077.913
1853144.0,1623757077.955
1859216.0,1623757077.994
1865036.0,1623757078.035
1869569.0,1623757078.075
1874592.0,1623757078.114
1881867.0,1623757078.152
1881867.0,1623757078.189
1888976.0,1623757078.229
1904612.0,1623757078.31
1918355.0,1623757078.389
1911120.0,1623757078.349
1895484.0,1623757078.268
1926219.0,1623757078.469
1923024.0,1623757078.431
1930622.0,1623757078.509
1933827.0,1623757078.55
1937646.0,1623757078.589
1940858.0,1623757078.63
1940304.0,1623757078.67
1941237.0,1623757078.709
1942519.0,1623757078.75
1944861.0,1623757078.791
1949994.0,1623757078.87
1946247.0,1623757078.83
1953024.0,1623757078.911
1954603.0,1623757078.95
1956864.0,1623757078.99
1959367.0,1623757079.032
1967511.0,1623757079.11
1962420.0,1623757079.07
1973315.0,1623757079.191
1973071.0,1623757079.231
1972266.0,1623757079.272
1970735.0,1623757079.152
1972928.0,1623757079.311
1973650.0,1623757079.351
1975583.0,1623757079.392
1976454.0,1623757079.432
1977567.0,1623757079.471
1979616.0,1623757079.512
1985399.0,1623757079.591
1991667.0,1623757079.633
1982093.0,1623757079.551
1993414.0,1623757079.671
1992525.0,1623757079.711
1991630.0,1623757079.752
1991183.0,1623757079.792
1992899.0,1623757079.832
1993776.0,1623757079.873
1992294.0,1623757079.912
1992795.0,1623757079.952
1993550.0,1623757079.993
2000378.0,1623757080.072
2000725.0,1623757080.152
2000718.0,1623757080.192
2002134.0,1623757080.234
1997528.0,1623757080.033
2002153.0,1623757080.113
2003064.0,1623757080.272
2003749.0,1623757080.312
2003071.0,1623757080.354
2003456.0,1623757080.393
2004933.0,1623757080.433
2008268.0,1623757080.474
2010860.0,1623757080.513
2009824.0,1623757080.553
2011063.0,1623757080.594
2010734.0,1623757080.634
2011708.0,1623757080.673
2012699.0,1623757080.714
2013080.0,1623757080.753
2014034.0,1623757080.793
2018001.0,1623757080.835
2019943.0,1623757080.874
2022936.0,1623757080.914
2024379.0,1623757080.955
2026286.0,1623757080.994
2025896.0,1623757081.035
2025857.0,1623757081.075
2025700.0,1623757081.114
2026580.0,1623757081.154
2027800.0,1623757081.195
2028525.0,1623757081.235
2028371.0,1623757081.274
2030873.0,1623757081.316
2031991.0,1623757081.356
2031831.0,1623757081.396
2034850.0,1623757081.438
2037559.0,1623757081.474
2036617.0,1623757081.514
2036640.0,1623757081.556
2035557.0,1623757081.595
2036449.0,1623757081.636
2037342.0,1623757081.677
2037873.0,1623757081.716
2039204.0,1623757081.756
2040539.0,1623757081.797
2040630.0,1623757081.834
2041533.0,1623757081.874
2041356.0,1623757081.915
2040333.0,1623757081.954
2041026.0,1623757081.994
2042224.0,1623757082.036
2043133.0,1623757082.074
2043950.0,1623757082.114
2044832.0,1623757082.155
2045779.0,1623757082.194
2046123.0,1623757082.235
2047093.0,1623757082.275
2049496.0,1623757082.314
2051018.0,1623757082.354
2052513.0,1623757082.396
2054094.0,1623757082.435
2054241.0,1623757082.475
2054438.0,1623757082.516
2052987.0,1623757082.556
2051909.0,1623757082.596
2053190.0,1623757082.638
2063960.0,1623757082.676
2079205.0,1623757082.715
2093775.0,1623757082.756
2097826.0,1623757082.795
2090903.0,1623757082.836
2084794.0,1623757082.877
2079439.0,1623757082.916
2075302.0,1623757082.956
2070982.0,1623757082.998
2067058.0,1623757083.035
2062318.0,1623757083.074
2056335.0,1623757083.107
2050624.0,1623757083.146
2046164.0,1623757083.186
2044245.0,1623757083.228
2045163.0,1623757083.267
2046703.0,1623757083.307
2049876.0,1623757083.348
2052927.0,1623757083.387
2054024.0,1623757083.428
2054335.0,1623757083.468
2053843.0,1623757083.507
2055700.0,1623757083.547
2064675.0,1623757083.588
2070073.0,1623757083.628
2072556.0,1623757083.667
2073745.0,1623757083.709
2074885.0,1623757083.748
2076635.0,1623757083.788
2078110.0,1623757083.831
2078662.0,1623757083.865
2081435.0,1623757083.906
2083936.0,1623757083.947
2084174.0,1623757083.98
2083022.0,1623757084.017
2080646.0,1623757084.055
2078089.0,1623757084.094
2075961.0,1623757084.135
2075485.0,1623757084.176
2074199.0,1623757084.216
2072537.0,1623757084.256
2071107.0,1623757084.297
2068371.0,1623757084.332
2065938.0,1623757084.372
2063122.0,1623757084.414
2061593.0,1623757084.453
2059806.0,1623757084.492
2058072.0,1623757084.534
2056554.0,1623757084.573
2055148.0,1623757084.613
2052688.0,1623757084.654
2050484.0,1623757084.693
2047893.0,1623757084.733
