bvp,time
-42.7,1596631745.203125
-42.62,1596631745.21875
-40.8,1596631745.234375
-37.12,1596631745.25
-31.81,1596631745.265625
-25.42,1596631745.28125
-18.87,1596631745.296875
-13.14,1596631745.3125
-8.95,1596631745.328125
-6.51,1596631745.34375
-5.56,1596631745.359375
-5.51,1596631745.375
-5.68,1596631745.390625
-5.53,1596631745.40625
-4.81,1596631745.421875
-3.8,1596631745.4375
-2.88,1596631745.453125
-2.34,1596631745.46875
-2.07,1596631745.484375
-1.68,1596631745.5
-0.66,1596631745.515625
1.39,1596631745.53125
4.54,1596631745.546875
8.49,1596631745.5625
12.4,1596631745.578125
15.48,1596631745.59375
17.31,1596631745.609375
18.04,1596631745.625
18.18,1596631745.640625
18.23,1596631745.65625
18.46,1596631745.671875
18.89,1596631745.6875
19.5,1596631745.703125
19.49,1596631745.71875
18.39,1596631745.734375
16.48,1596631745.75
14.7,1596631745.765625
14.0,1596631745.78125
14.74,1596631745.796875
16.74,1596631745.8125
19.52,1596631745.828125
22.85,1596631745.84375
24.94,1596631745.859375
24.54,1596631745.875
21.61,1596631745.890625
17.45,1596631745.90625
13.71,1596631745.921875
11.41,1596631745.9375
10.89,1596631745.953125
11.99,1596631745.96875
14.62,1596631745.984375
15.64,1596631746.0
12.29,1596631746.015625
3.42,1596631746.03125
-9.77,1596631746.046875
-25.0,1596631746.0625
-40.23,1596631746.078125
-54.06,1596631746.09375
-66.06,1596631746.109375
-75.99,1596631746.125
-88.21,1596631746.140625
-106.98,1596631746.15625
-134.82,1596631746.171875
-170.66,1596631746.1875
-211.16,1596631746.203125
-252.34,1596631746.21875
-290.44,1596631746.234375
-322.88,1596631746.25
-325.91,1596631746.265625
-285.72,1596631746.28125
-206.38,1596631746.296875
-110.19,1596631746.3125
-21.22,1596631746.328125
47.22,1596631746.34375
93.4,1596631746.359375
122.16,1596631746.375
136.65,1596631746.390625
144.48,1596631746.40625
146.62,1596631746.421875
141.27,1596631746.4375
125.85,1596631746.453125
99.9,1596631746.46875
64.11,1596631746.484375
18.58,1596631746.5
-33.65,1596631746.515625
-91.37,1596631746.53125
-152.61,1596631746.546875
-216.53,1596631746.5625
-267.62,1596631746.578125
-288.98,1596631746.59375
-270.22,1596631746.609375
-214.72,1596631746.625
-137.13,1596631746.640625
-54.97,1596631746.65625
17.58,1596631746.671875
71.02,1596631746.6875
106.92,1596631746.703125
127.64,1596631746.71875
134.52,1596631746.734375
129.65,1596631746.75
116.2,1596631746.765625
98.55,1596631746.78125
80.64,1596631746.796875
66.55,1596631746.8125
59.36,1596631746.828125
59.38,1596631746.84375
64.13,1596631746.859375
69.47,1596631746.875
72.15,1596631746.890625
70.68,1596631746.90625
65.76,1596631746.921875
59.49,1596631746.9375
54.11,1596631746.953125
51.32,1596631746.96875
51.66,1596631746.984375
54.06,1596631747.0
56.4,1596631747.015625
56.95,1596631747.03125
54.82,1596631747.046875
50.22,1596631747.0625
44.21,1596631747.078125
38.03,1596631747.09375
32.63,1596631747.109375
28.66,1596631747.125
25.92,1596631747.140625
23.67,1596631747.15625
21.2,1596631747.171875
18.03,1596631747.1875
14.14,1596631747.203125
9.81,1596631747.21875
5.37,1596631747.234375
0.99,1596631747.25
-3.25,1596631747.265625
-7.59,1596631747.28125
-12.28,1596631747.296875
-17.31,1596631747.3125
-22.41,1596631747.328125
-26.95,1596631747.34375
-30.16,1596631747.359375
-31.36,1596631747.375
-30.19,1596631747.390625
-26.7,1596631747.40625
-21.42,1596631747.421875
-15.15,1596631747.4375
-8.72,1596631747.453125
-2.87,1596631747.46875
1.91,1596631747.484375
5.53,1596631747.5
8.22,1596631747.515625
10.38,1596631747.53125
12.24,1596631747.546875
13.73,1596631747.5625
14.47,1596631747.578125
14.12,1596631747.59375
12.64,1596631747.609375
10.56,1596631747.625
8.82,1596631747.640625
8.35,1596631747.65625
9.6,1596631747.671875
12.3,1596631747.6875
15.67,1596631747.703125
18.8,1596631747.71875
21.16,1596631747.734375
22.77,1596631747.75
23.97,1596631747.765625
25.11,1596631747.78125
26.19,1596631747.796875
26.92,1596631747.8125
26.86,1596631747.828125
25.87,1596631747.84375
24.17,1596631747.859375
22.24,1596631747.875
20.63,1596631747.890625
19.59,1596631747.90625
19.11,1596631747.921875
18.81,1596631747.9375
18.31,1596631747.953125
17.35,1596631747.96875
15.93,1596631747.984375
14.27,1596631748.0
12.68,1596631748.015625
11.43,1596631748.03125
10.65,1596631748.046875
10.27,1596631748.0625
10.09,1596631748.078125
9.88,1596631748.09375
9.39,1596631748.109375
8.43,1596631748.125
6.94,1596631748.140625
4.99,1596631748.15625
2.78,1596631748.171875
0.55,1596631748.1875
-1.49,1596631748.203125
-3.28,1596631748.21875
-4.96,1596631748.234375
-6.76,1596631748.25
-8.92,1596631748.265625
-11.54,1596631748.28125
-14.47,1596631748.296875
-17.4,1596631748.3125
-20.0,1596631748.328125
-22.09,1596631748.34375
-23.8,1596631748.359375
-25.56,1596631748.375
-27.9,1596631748.390625
-31.26,1596631748.40625
-35.72,1596631748.421875
-40.98,1596631748.4375
-46.32,1596631748.453125
-50.78,1596631748.46875
-53.41,1596631748.484375
-53.42,1596631748.5
-50.39,1596631748.515625
-44.36,1596631748.53125
-35.86,1596631748.546875
-25.89,1596631748.5625
-15.63,1596631748.578125
-6.29,1596631748.59375
1.25,1596631748.609375
6.6,1596631748.625
9.89,1596631748.640625
11.67,1596631748.65625
12.63,1596631748.671875
13.39,1596631748.6875
14.29,1596631748.703125
15.44,1596631748.71875
16.66,1596631748.734375
17.78,1596631748.75
18.66,1596631748.765625
19.34,1596631748.78125
19.97,1596631748.796875
20.74,1596631748.8125
21.78,1596631748.828125
23.07,1596631748.84375
24.5,1596631748.859375
25.91,1596631748.875
27.2,1596631748.890625
28.3,1596631748.90625
29.17,1596631748.921875
29.72,1596631748.9375
29.82,1596631748.953125
29.35,1596631748.96875
28.23,1596631748.984375
26.57,1596631749.0
24.63,1596631749.015625
22.76,1596631749.03125
21.21,1596631749.046875
20.07,1596631749.0625
19.2,1596631749.078125
18.3,1596631749.09375
17.08,1596631749.109375
15.4,1596631749.125
13.3,1596631749.140625
11.02,1596631749.15625
8.88,1596631749.171875
7.15,1596631749.1875
5.94,1596631749.203125
5.17,1596631749.21875
4.62,1596631749.234375
3.96,1596631749.25
2.86,1596631749.265625
1.14,1596631749.28125
-1.27,1596631749.296875
-4.23,1596631749.3125
-7.5,1596631749.328125
-10.81,1596631749.34375
-14.01,1596631749.359375
-17.08,1596631749.375
-20.14,1596631749.390625
-23.39,1596631749.40625
-27.07,1596631749.421875
-31.28,1596631749.4375
-35.92,1596631749.453125
-40.62,1596631749.46875
-44.7,1596631749.484375
-47.32,1596631749.5
-47.67,1596631749.515625
-45.2,1596631749.53125
-39.81,1596631749.546875
-31.98,1596631749.5625
-22.63,1596631749.578125
-12.92,1596631749.59375
-3.99,1596631749.609375
3.36,1596631749.625
8.78,1596631749.640625
12.4,1596631749.65625
14.66,1596631749.671875
16.11,1596631749.6875
17.2,1596631749.703125
18.16,1596631749.71875
19.02,1596631749.734375
19.68,1596631749.75
20.1,1596631749.765625
20.39,1596631749.78125
20.73,1596631749.796875
21.29,1596631749.8125
22.1,1596631749.828125
23.0,1596631749.84375
23.77,1596631749.859375
24.27,1596631749.875
24.49,1596631749.890625
24.64,1596631749.90625
24.97,1596631749.921875
25.61,1596631749.9375
26.56,1596631749.953125
27.56,1596631749.96875
28.33,1596631749.984375
28.58,1596631750.0
28.19,1596631750.015625
27.2,1596631750.03125
25.75,1596631750.046875
24.02,1596631750.0625
22.12,1596631750.078125
20.12,1596631750.09375
18.0,1596631750.109375
15.77,1596631750.125
13.42,1596631750.140625
10.96,1596631750.15625
8.45,1596631750.171875
5.96,1596631750.1875
3.55,1596631750.203125
1.25,1596631750.21875
-0.95,1596631750.234375
-3.16,1596631750.25
-5.5,1596631750.265625
-8.09,1596631750.28125
-10.99,1596631750.296875
-14.18,1596631750.3125
-17.57,1596631750.328125
-21.02,1596631750.34375
-24.4,1596631750.359375
-27.6,1596631750.375
-30.51,1596631750.390625
-33.19,1596631750.40625
-35.81,1596631750.421875
-38.71,1596631750.4375
-42.26,1596631750.453125
-46.63,1596631750.46875
-51.6,1596631750.484375
-56.38,1596631750.5
-59.83,1596631750.515625
-60.75,1596631750.53125
-58.38,1596631750.546875
-52.63,1596631750.5625
-44.22,1596631750.578125
-34.39,1596631750.59375
-24.54,1596631750.609375
-15.76,1596631750.625
-8.46,1596631750.640625
-2.27,1596631750.65625
3.89,1596631750.671875
11.46,1596631750.6875
21.75,1596631750.703125
35.4,1596631750.71875
52.18,1596631750.734375
71.01,1596631750.75
90.32,1596631750.765625
108.62,1596631750.78125
124.92,1596631750.796875
138.84,1596631750.8125
150.55,1596631750.828125
160.52,1596631750.84375
169.19,1596631750.859375
176.86,1596631750.875
183.56,1596631750.890625
189.17,1596631750.90625
193.37,1596631750.921875
195.84,1596631750.9375
196.35,1596631750.953125
194.89,1596631750.96875
191.75,1596631750.984375
187.52,1596631751.0
182.94,1596631751.015625
178.71,1596631751.03125
175.27,1596631751.046875
172.69,1596631751.0625
170.63,1596631751.078125
168.65,1596631751.09375
166.37,1596631751.109375
163.8,1596631751.125
161.41,1596631751.140625
159.82,1596631751.15625
159.34,1596631751.171875
159.55,1596631751.1875
159.12,1596631751.203125
156.27,1596631751.21875
149.54,1596631751.234375
138.54,1596631751.25
124.27,1596631751.265625
108.7,1596631751.28125
94.04,1596631751.296875
81.76,1596631751.3125
72.19,1596631751.328125
64.65,1596631751.34375
58.14,1596631751.359375
51.99,1596631751.375
46.31,1596631751.390625
41.87,1596631751.40625
39.82,1596631751.421875
41.16,1596631751.4375
46.67,1596631751.453125
56.8,1596631751.46875
71.59,1596631751.484375
90.34,1596631751.5
111.24,1596631751.515625
131.21,1596631751.53125
146.47,1596631751.546875
153.61,1596631751.5625
150.88,1596631751.578125
139.0,1596631751.59375
120.9,1596631751.609375
100.53,1596631751.625
81.29,1596631751.640625
64.93,1596631751.65625
51.46,1596631751.671875
39.87,1596631751.6875
29.2,1596631751.703125
19.15,1596631751.71875
9.99,1596631751.734375
2.06,1596631751.75
-4.85,1596631751.765625
-11.62,1596631751.78125
-19.54,1596631751.796875
-29.75,1596631751.8125
-42.92,1596631751.828125
-59.11,1596631751.84375
-77.89,1596631751.859375
-98.43,1596631751.875
-119.61,1596631751.890625
-139.99,1596631751.90625
-157.95,1596631751.921875
-171.9,1596631751.9375
-180.68,1596631751.953125
-183.92,1596631751.96875
-182.24,1596631751.984375
-177.25,1596631752.0
-171.15,1596631752.015625
-166.15,1596631752.03125
-163.78,1596631752.046875
-164.35,1596631752.0625
-166.77,1596631752.078125
-168.97,1596631752.09375
-168.63,1596631752.109375
-164.01,1596631752.125
-154.64,1596631752.140625
-141.37,1596631752.15625
-126.0,1596631752.171875
-110.56,1596631752.1875
-96.59,1596631752.203125
-84.84,1596631752.21875
-75.24,1596631752.234375
-66.98,1596631752.25
-58.69,1596631752.265625
-48.57,1596631752.28125
-34.89,1596631752.296875
-16.77,1596631752.3125
4.92,1596631752.328125
27.15,1596631752.34375
45.16,1596631752.359375
53.85,1596631752.375
49.61,1596631752.390625
31.81,1596631752.40625
3.12,1596631752.421875
-31.38,1596631752.4375
-65.91,1596631752.453125
-95.87,1596631752.46875
-118.88,1596631752.484375
-134.75,1596631752.5
-144.72,1596631752.515625
-150.26,1596631752.53125
-152.4,1596631752.546875
-151.46,1596631752.5625
-147.57,1596631752.578125
-141.05,1596631752.59375
-132.92,1596631752.609375
-124.76,1596631752.625
-118.23,1596631752.640625
-114.47,1596631752.65625
-113.69,1596631752.671875
-115.28,1596631752.6875
-118.19,1596631752.703125
-121.52,1596631752.71875
-124.81,1596631752.734375
-127.98,1596631752.75
-131.12,1596631752.765625
-134.14,1596631752.78125
-136.74,1596631752.796875
-138.58,1596631752.8125
-139.46,1596631752.828125
-139.43,1596631752.84375
-138.75,1596631752.859375
-137.65,1596631752.875
-136.18,1596631752.890625
-134.15,1596631752.90625
-131.15,1596631752.921875
-126.77,1596631752.9375
-120.76,1596631752.953125
-113.11,1596631752.96875
-104.05,1596631752.984375
-94.01,1596631753.0
-83.51,1596631753.015625
-73.02,1596631753.03125
-62.92,1596631753.046875
-53.34,1596631753.0625
-44.12,1596631753.078125
-34.82,1596631753.09375
-24.93,1596631753.109375
-14.04,1596631753.125
-2.09,1596631753.140625
10.49,1596631753.15625
22.87,1596631753.171875
33.93,1596631753.1875
42.57,1596631753.203125
47.88,1596631753.21875
49.24,1596631753.234375
46.41,1596631753.25
39.57,1596631753.265625
29.5,1596631753.28125
17.63,1596631753.296875
6.0,1596631753.3125
-3.17,1596631753.328125
-8.06,1596631753.34375
-7.8,1596631753.359375
-2.79,1596631753.375
5.49,1596631753.390625
15.12,1596631753.40625
24.37,1596631753.421875
32.17,1596631753.4375
38.22,1596631753.453125
42.63,1596631753.46875
45.6,1596631753.484375
47.13,1596631753.5
47.06,1596631753.515625
45.31,1596631753.53125
42.08,1596631753.546875
37.87,1596631753.5625
33.39,1596631753.578125
29.24,1596631753.59375
25.84,1596631753.609375
23.26,1596631753.625
21.44,1596631753.640625
20.28,1596631753.65625
19.74,1596631753.671875
19.82,1596631753.6875
20.47,1596631753.703125
21.57,1596631753.71875
22.83,1596631753.734375
23.9,1596631753.75
24.47,1596631753.765625
24.34,1596631753.78125
23.43,1596631753.796875
21.78,1596631753.8125
19.51,1596631753.828125
16.8,1596631753.84375
13.94,1596631753.859375
11.27,1596631753.875
9.11,1596631753.890625
7.68,1596631753.90625
7.01,1596631753.921875
6.9,1596631753.9375
7.05,1596631753.953125
7.04,1596631753.96875
6.55,1596631753.984375
5.37,1596631754.0
3.44,1596631754.015625
0.81,1596631754.03125
-2.33,1596631754.046875
-5.72,1596631754.0625
-9.11,1596631754.078125
-12.22,1596631754.09375
-14.89,1596631754.109375
-17.07,1596631754.125
-18.92,1596631754.140625
-20.68,1596631754.15625
-22.64,1596631754.171875
-24.9,1596631754.1875
-27.25,1596631754.203125
-29.13,1596631754.21875
-29.72,1596631754.234375
-28.18,1596631754.25
-24.04,1596631754.265625
-17.44,1596631754.28125
-9.15,1596631754.296875
-0.4,1596631754.3125
7.57,1596631754.328125
13.84,1596631754.34375
18.02,1596631754.359375
20.18,1596631754.375
20.7,1596631754.390625
20.09,1596631754.40625
18.84,1596631754.421875
17.33,1596631754.4375
15.89,1596631754.453125
14.68,1596631754.46875
13.79,1596631754.484375
13.2,1596631754.5
12.88,1596631754.515625
12.84,1596631754.53125
13.09,1596631754.546875
13.66,1596631754.5625
14.47,1596631754.578125
15.36,1596631754.59375
16.17,1596631754.609375
16.75,1596631754.625
16.99,1596631754.640625
16.84,1596631754.65625
16.15,1596631754.671875
14.8,1596631754.6875
12.75,1596631754.703125
10.08,1596631754.71875
7.07,1596631754.734375
4.05,1596631754.75
1.3,1596631754.765625
-1.04,1596631754.78125
-2.92,1596631754.796875
-4.31,1596631754.8125
-5.17,1596631754.828125
-5.42,1596631754.84375
-5.12,1596631754.859375
-4.51,1596631754.875
-4.08,1596631754.890625
-4.43,1596631754.90625
-6.1,1596631754.921875
-9.4,1596631754.9375
-14.23,1596631754.953125
-20.12,1596631754.96875
-26.3,1596631754.984375
-31.88,1596631755.0
-36.1,1596631755.015625
-38.53,1596631755.03125
-39.14,1596631755.046875
-38.33,1596631755.0625
-36.85,1596631755.078125
-35.55,1596631755.09375
-35.22,1596631755.109375
-36.34,1596631755.125
-38.9,1596631755.140625
-42.27,1596631755.15625
-45.31,1596631755.171875
-46.59,1596631755.1875
-44.86,1596631755.203125
-39.5,1596631755.21875
-30.74,1596631755.234375
-19.62,1596631755.25
-7.68,1596631755.265625
3.51,1596631755.28125
12.83,1596631755.296875
19.69,1596631755.3125
24.11,1596631755.328125
26.46,1596631755.34375
27.21,1596631755.359375
26.82,1596631755.375
25.68,1596631755.390625
24.11,1596631755.40625
22.47,1596631755.421875
21.04,1596631755.4375
20.01,1596631755.453125
19.44,1596631755.46875
19.27,1596631755.484375
19.38,1596631755.5
19.67,1596631755.515625
20.1,1596631755.53125
20.65,1596631755.546875
21.27,1596631755.5625
21.8,1596631755.578125
22.04,1596631755.59375
21.81,1596631755.609375
21.0,1596631755.625
19.7,1596631755.640625
18.02,1596631755.65625
16.07,1596631755.671875
13.82,1596631755.6875
11.24,1596631755.703125
8.33,1596631755.71875
5.27,1596631755.734375
2.37,1596631755.75
-0.04,1596631755.765625
-1.8,1596631755.78125
-3.01,1596631755.796875
-3.94,1596631755.8125
-4.92,1596631755.828125
-6.07,1596631755.84375
-7.31,1596631755.859375
-8.41,1596631755.875
-9.12,1596631755.890625
-9.46,1596631755.90625
-9.68,1596631755.921875
-10.17,1596631755.9375
-11.28,1596631755.953125
-13.16,1596631755.96875
-15.7,1596631755.984375
-18.56,1596631756.0
-21.42,1596631756.015625
-23.98,1596631756.03125
-26.15,1596631756.046875
-27.91,1596631756.0625
-29.42,1596631756.078125
-30.97,1596631756.09375
-32.98,1596631756.109375
-35.91,1596631756.125
-40.05,1596631756.140625
-45.33,1596631756.15625
-51.06,1596631756.171875
-55.96,1596631756.1875
-58.47,1596631756.203125
-57.19,1596631756.21875
-51.44,1596631756.234375
-41.57,1596631756.25
-28.91,1596631756.265625
-15.37,1596631756.28125
-2.86,1596631756.296875
7.26,1596631756.3125
14.35,1596631756.328125
18.56,1596631756.34375
20.48,1596631756.359375
20.83,1596631756.375
20.34,1596631756.390625
19.52,1596631756.40625
18.77,1596631756.421875
18.37,1596631756.4375
18.43,1596631756.453125
18.93,1596631756.46875
19.7,1596631756.484375
20.5,1596631756.5
21.18,1596631756.515625
21.71,1596631756.53125
22.18,1596631756.546875
22.75,1596631756.5625
23.51,1596631756.578125
24.45,1596631756.59375
25.44,1596631756.609375
26.3,1596631756.625
26.81,1596631756.640625
26.79,1596631756.65625
26.09,1596631756.671875
24.65,1596631756.6875
22.58,1596631756.703125
20.08,1596631756.71875
17.5,1596631756.734375
15.17,1596631756.75
13.35,1596631756.765625
12.05,1596631756.78125
11.11,1596631756.796875
10.23,1596631756.8125
9.14,1596631756.828125
7.7,1596631756.84375
5.97,1596631756.859375
4.15,1596631756.875
2.47,1596631756.890625
1.09,1596631756.90625
0.0,1596631756.921875
-0.93,1596631756.9375
-1.9,1596631756.953125
-3.11,1596631756.96875
-4.62,1596631756.984375
-6.43,1596631757.0
-8.43,1596631757.015625
-10.56,1596631757.03125
-12.7,1596631757.046875
-14.79,1596631757.0625
-16.76,1596631757.078125
-18.59,1596631757.09375
-20.36,1596631757.109375
-22.31,1596631757.125
-24.8,1596631757.140625
-28.22,1596631757.15625
-32.74,1596631757.171875
-38.1,1596631757.1875
-43.45,1596631757.203125
-47.5,1596631757.21875
-48.82,1596631757.234375
-46.31,1596631757.25
-39.66,1596631757.265625
-29.46,1596631757.28125
-17.16,1596631757.296875
-4.55,1596631757.3125
6.7,1596631757.328125
15.44,1596631757.34375
21.21,1596631757.359375
24.16,1596631757.375
24.73,1596631757.390625
23.59,1596631757.40625
21.43,1596631757.421875
18.91,1596631757.4375
16.64,1596631757.453125
15.02,1596631757.46875
14.18,1596631757.484375
13.97,1596631757.5
14.12,1596631757.515625
14.39,1596631757.53125
14.74,1596631757.546875
15.33,1596631757.5625
16.33,1596631757.578125
17.79,1596631757.59375
19.58,1596631757.609375
21.39,1596631757.625
22.88,1596631757.640625
23.81,1596631757.65625
24.04,1596631757.671875
23.47,1596631757.6875
22.11,1596631757.703125
20.03,1596631757.71875
17.47,1596631757.734375
14.83,1596631757.75
12.52,1596631757.765625
10.9,1596631757.78125
10.01,1596631757.796875
9.6,1596631757.8125
9.25,1596631757.828125
8.53,1596631757.84375
7.26,1596631757.859375
5.48,1596631757.875
3.52,1596631757.890625
1.73,1596631757.90625
0.32,1596631757.921875
-0.74,1596631757.9375
-1.75,1596631757.953125
-3.1,1596631757.96875
-5.1,1596631757.984375
-7.78,1596631758.0
-10.88,1596631758.015625
-13.99,1596631758.03125
-16.75,1596631758.046875
-19.02,1596631758.0625
-20.91,1596631758.078125
-22.7,1596631758.09375
-24.69,1596631758.109375
-27.19,1596631758.125
-30.43,1596631758.140625
-34.59,1596631758.15625
-39.64,1596631758.171875
-45.18,1596631758.1875
-50.27,1596631758.203125
-53.51,1596631758.21875
-53.46,1596631758.234375
-49.13,1596631758.25
-40.58,1596631758.265625
-28.89,1596631758.28125
-15.89,1596631758.296875
-3.51,1596631758.3125
6.85,1596631758.328125
14.58,1596631758.34375
19.83,1596631758.359375
23.09,1596631758.375
24.92,1596631758.390625
25.7,1596631758.40625
25.58,1596631758.421875
24.71,1596631758.4375
23.26,1596631758.453125
21.61,1596631758.46875
20.22,1596631758.484375
19.48,1596631758.5
19.58,1596631758.515625
20.44,1596631758.53125
21.76,1596631758.546875
23.16,1596631758.5625
24.39,1596631758.578125
25.34,1596631758.59375
26.09,1596631758.609375
26.75,1596631758.625
27.33,1596631758.640625
27.71,1596631758.65625
27.63,1596631758.671875
26.89,1596631758.6875
25.36,1596631758.703125
23.12,1596631758.71875
20.35,1596631758.734375
17.4,1596631758.75
14.57,1596631758.765625
12.14,1596631758.78125
10.23,1596631758.796875
8.82,1596631758.8125
7.73,1596631758.828125
6.67,1596631758.84375
5.34,1596631758.859375
3.57,1596631758.875
1.37,1596631758.890625
-1.06,1596631758.90625
-3.45,1596631758.921875
-5.55,1596631758.9375
-7.26,1596631758.953125
-8.67,1596631758.96875
-10.0,1596631758.984375
-11.49,1596631759.0
-13.29,1596631759.015625
-15.42,1596631759.03125
-17.75,1596631759.046875
-20.11,1596631759.0625
-22.33,1596631759.078125
-24.4,1596631759.09375
-26.41,1596631759.109375
-28.55,1596631759.125
-31.11,1596631759.140625
-34.39,1596631759.15625
-38.62,1596631759.171875
-43.74,1596631759.1875
-49.27,1596631759.203125
-54.25,1596631759.21875
-57.4,1596631759.234375
-57.45,1596631759.25
-53.64,1596631759.265625
-45.99,1596631759.28125
-35.34,1596631759.296875
-23.15,1596631759.3125
-11.0,1596631759.328125
-0.19,1596631759.34375
8.51,1596631759.359375
14.86,1596631759.375
18.99,1596631759.390625
21.2,1596631759.40625
21.85,1596631759.421875
21.31,1596631759.4375
20.03,1596631759.453125
18.52,1596631759.46875
17.28,1596631759.484375
16.65,1596631759.5
16.74,1596631759.515625
17.37,1596631759.53125
18.23,1596631759.546875
19.02,1596631759.5625
19.64,1596631759.578125
20.21,1596631759.59375
20.97,1596631759.609375
22.15,1596631759.625
23.73,1596631759.640625
25.51,1596631759.65625
27.09,1596631759.671875
28.06,1596631759.6875
28.14,1596631759.703125
27.22,1596631759.71875
25.37,1596631759.734375
22.78,1596631759.75
19.79,1596631759.765625
16.75,1596631759.78125
14.03,1596631759.796875
11.84,1596631759.8125
10.2,1596631759.828125
8.9,1596631759.84375
7.62,1596631759.859375
6.07,1596631759.875
4.2,1596631759.890625
2.15,1596631759.90625
0.26,1596631759.921875
-1.23,1596631759.9375
-2.32,1596631759.953125
-3.22,1596631759.96875
-4.38,1596631759.984375
-6.2,1596631760.0
-8.88,1596631760.015625
-12.3,1596631760.03125
-16.03,1596631760.046875
-19.57,1596631760.0625
-22.47,1596631760.078125
-24.55,1596631760.09375
-25.97,1596631760.109375
-27.11,1596631760.125
-28.49,1596631760.140625
-30.57,1596631760.15625
-33.66,1596631760.171875
-37.8,1596631760.1875
-42.71,1596631760.203125
-47.71,1596631760.21875
-51.81,1596631760.234375
-53.8,1596631760.25
-52.58,1596631760.265625
-47.51,1596631760.28125
-38.69,1596631760.296875
-27.0,1596631760.3125
-13.94,1596631760.328125
-1.17,1596631760.34375
9.93,1596631760.359375
18.59,1596631760.375
24.68,1596631760.390625
28.46,1596631760.40625
30.34,1596631760.421875
30.67,1596631760.4375
29.7,1596631760.453125
27.75,1596631760.46875
25.23,1596631760.484375
22.72,1596631760.5
20.79,1596631760.515625
19.84,1596631760.53125
19.95,1596631760.546875
20.92,1596631760.5625
22.41,1596631760.578125
24.18,1596631760.59375
26.11,1596631760.609375
28.16,1596631760.625
30.21,1596631760.640625
31.99,1596631760.65625
33.12,1596631760.671875
33.24,1596631760.6875
32.29,1596631760.703125
30.46,1596631760.71875
28.17,1596631760.734375
25.78,1596631760.75
23.47,1596631760.765625
21.15,1596631760.78125
18.6,1596631760.796875
15.67,1596631760.8125
12.4,1596631760.828125
9.05,1596631760.84375
5.95,1596631760.859375
3.31,1596631760.875
1.15,1596631760.890625
-0.77,1596631760.90625
-2.75,1596631760.921875
-5.09,1596631760.9375
-7.93,1596631760.953125
-11.24,1596631760.96875
-14.8,1596631760.984375
-18.29,1596631761.0
-21.41,1596631761.015625
-23.96,1596631761.03125
-25.9,1596631761.046875
-27.44,1596631761.0625
-28.94,1596631761.078125
-30.9,1596631761.09375
-33.8,1596631761.109375
-37.95,1596631761.125
-43.29,1596631761.140625
-49.31,1596631761.15625
-54.95,1596631761.171875
-58.76,1596631761.1875
-59.32,1596631761.203125
-55.68,1596631761.21875
-47.72,1596631761.234375
-36.29,1596631761.25
-22.9,1596631761.265625
-9.34,1596631761.28125
2.86,1596631761.296875
12.77,1596631761.3125
20.11,1596631761.328125
25.13,1596631761.34375
28.3,1596631761.359375
30.12,1596631761.375
30.97,1596631761.390625
31.1,1596631761.40625
30.71,1596631761.421875
30.0,1596631761.4375
29.2,1596631761.453125
28.66,1596631761.46875
28.64,1596631761.484375
29.32,1596631761.5
30.67,1596631761.515625
32.46,1596631761.53125
34.43,1596631761.546875
36.29,1596631761.5625
37.88,1596631761.578125
39.14,1596631761.59375
40.04,1596631761.609375
40.54,1596631761.625
40.55,1596631761.640625
40.0,1596631761.65625
38.87,1596631761.671875
37.23,1596631761.6875
35.25,1596631761.703125
33.15,1596631761.71875
31.15,1596631761.734375
29.38,1596631761.75
27.84,1596631761.765625
26.42,1596631761.78125
24.89,1596631761.796875
23.08,1596631761.8125
20.92,1596631761.828125
18.52,1596631761.84375
16.12,1596631761.859375
13.96,1596631761.875
12.17,1596631761.890625
10.65,1596631761.90625
9.16,1596631761.921875
7.4,1596631761.9375
5.14,1596631761.953125
2.33,1596631761.96875
-0.94,1596631761.984375
-4.49,1596631762.0
-8.04,1596631762.015625
-11.39,1596631762.03125
-14.35,1596631762.046875
-16.9,1596631762.0625
-19.22,1596631762.078125
-21.68,1596631762.09375
-24.84,1596631762.109375
-29.18,1596631762.125
-34.94,1596631762.140625
-41.93,1596631762.15625
-49.43,1596631762.171875
-56.22,1596631762.1875
-60.9,1596631762.203125
-62.14,1596631762.21875
-59.13,1596631762.234375
-51.89,1596631762.25
-41.24,1596631762.265625
-28.67,1596631762.28125
-15.9,1596631762.296875
-4.42,1596631762.3125
4.82,1596631762.328125
11.48,1596631762.34375
15.75,1596631762.359375
18.09,1596631762.375
19.01,1596631762.390625
19.04,1596631762.40625
18.58,1596631762.421875
17.97,1596631762.4375
17.44,1596631762.453125
17.1,1596631762.46875
17.05,1596631762.484375
17.31,1596631762.5
17.97,1596631762.515625
19.06,1596631762.53125
20.58,1596631762.546875
22.38,1596631762.5625
24.24,1596631762.578125
25.95,1596631762.59375
27.32,1596631762.609375
28.3,1596631762.625
28.85,1596631762.640625
28.95,1596631762.65625
28.5,1596631762.671875
27.45,1596631762.6875
25.82,1596631762.703125
23.8,1596631762.71875
21.68,1596631762.734375
19.71,1596631762.75
17.98,1596631762.765625
16.4,1596631762.78125
14.75,1596631762.796875
12.93,1596631762.8125
10.94,1596631762.828125
8.99,1596631762.84375
7.3,1596631762.859375
5.94,1596631762.875
4.78,1596631762.890625
3.52,1596631762.90625
1.86,1596631762.921875
-0.24,1596631762.9375
-2.64,1596631762.953125
-4.97,1596631762.96875
-6.92,1596631762.984375
-8.42,1596631763.0
-9.7,1596631763.015625
-11.23,1596631763.03125
-13.39,1596631763.046875
-16.35,1596631763.0625
-19.82,1596631763.078125
-23.28,1596631763.09375
-26.19,1596631763.109375
-28.26,1596631763.125
-29.63,1596631763.140625
-30.79,1596631763.15625
-32.38,1596631763.171875
-34.96,1596631763.1875
-38.78,1596631763.203125
-43.75,1596631763.21875
-49.47,1596631763.234375
-55.15,1596631763.25
-59.78,1596631763.265625
-62.18,1596631763.28125
-61.28,1596631763.296875
-56.44,1596631763.3125
-47.75,1596631763.328125
-36.07,1596631763.34375
-22.88,1596631763.359375
-9.86,1596631763.375
1.6,1596631763.390625
10.59,1596631763.40625
16.84,1596631763.421875
20.57,1596631763.4375
22.27,1596631763.453125
22.52,1596631763.46875
21.86,1596631763.484375
20.75,1596631763.5
19.56,1596631763.515625
18.59,1596631763.53125
18.06,1596631763.546875
18.09,1596631763.5625
18.71,1596631763.578125
19.83,1596631763.59375
21.26,1596631763.609375
22.81,1596631763.625
24.31,1596631763.640625
25.73,1596631763.65625
27.06,1596631763.671875
28.34,1596631763.6875
29.46,1596631763.703125
30.22,1596631763.71875
30.35,1596631763.734375
29.69,1596631763.75
28.29,1596631763.765625
26.37,1596631763.78125
24.31,1596631763.796875
22.46,1596631763.8125
21.01,1596631763.828125
19.99,1596631763.84375
19.3,1596631763.859375
18.79,1596631763.875
18.37,1596631763.890625
17.95,1596631763.90625
17.4,1596631763.921875
16.57,1596631763.9375
15.24,1596631763.953125
13.27,1596631763.96875
10.73,1596631763.984375
7.87,1596631764.0
5.12,1596631764.015625
2.85,1596631764.03125
1.24,1596631764.046875
0.13,1596631764.0625
-0.8,1596631764.078125
-2.0,1596631764.09375
-3.77,1596631764.109375
-6.15,1596631764.125
-8.97,1596631764.140625
-11.94,1596631764.15625
-14.81,1596631764.171875
-17.5,1596631764.1875
-20.01,1596631764.203125
-22.5,1596631764.21875
-25.2,1596631764.234375
-28.39,1596631764.25
-32.32,1596631764.265625
-37.06,1596631764.28125
-42.29,1596631764.296875
-47.28,1596631764.3125
-50.84,1596631764.328125
-51.72,1596631764.34375
-49.0,1596631764.359375
-42.5,1596631764.375
-32.91,1596631764.390625
-21.59,1596631764.40625
-10.16,1596631764.421875
0.02,1596631764.4375
8.17,1596631764.453125
14.17,1596631764.46875
18.32,1596631764.484375
20.99,1596631764.5
22.41,1596631764.515625
22.56,1596631764.53125
21.39,1596631764.546875
19.02,1596631764.5625
15.89,1596631764.578125
12.75,1596631764.59375
10.33,1596631764.609375
9.16,1596631764.625
9.28,1596631764.640625
10.4,1596631764.65625
12.0,1596631764.671875
13.68,1596631764.6875
15.21,1596631764.703125
16.56,1596631764.71875
17.8,1596631764.734375
18.91,1596631764.75
19.81,1596631764.765625
20.4,1596631764.78125
20.63,1596631764.796875
20.52,1596631764.8125
20.13,1596631764.828125
19.51,1596631764.84375
18.71,1596631764.859375
17.8,1596631764.875
16.88,1596631764.890625
16.01,1596631764.90625
15.2,1596631764.921875
14.32,1596631764.9375
13.26,1596631764.953125
11.96,1596631764.96875
10.52,1596631764.984375
9.22,1596631765.0
8.38,1596631765.015625
8.19,1596631765.03125
8.6,1596631765.046875
9.29,1596631765.0625
9.79,1596631765.078125
9.64,1596631765.09375
8.61,1596631765.109375
6.66,1596631765.125
4.0,1596631765.140625
0.94,1596631765.15625
-2.2,1596631765.171875
-5.18,1596631765.1875
-7.85,1596631765.203125
-10.11,1596631765.21875
-11.94,1596631765.234375
-13.44,1596631765.25
-14.9,1596631765.265625
-16.87,1596631765.28125
-20.0,1596631765.296875
-24.77,1596631765.3125
-31.12,1596631765.328125
-38.19,1596631765.34375
-44.4,1596631765.359375
-47.92,1596631765.375
-47.24,1596631765.390625
-41.83,1596631765.40625
-32.25,1596631765.421875
-20.06,1596631765.4375
-7.18,1596631765.453125
4.64,1596631765.46875
14.22,1596631765.484375
21.06,1596631765.5
25.19,1596631765.515625
26.98,1596631765.53125
26.89,1596631765.546875
25.44,1596631765.5625
23.12,1596631765.578125
20.47,1596631765.59375
17.99,1596631765.609375
16.09,1596631765.625
15.04,1596631765.640625
14.84,1596631765.65625
15.32,1596631765.671875
16.16,1596631765.6875
17.11,1596631765.703125
18.04,1596631765.71875
18.97,1596631765.734375
19.98,1596631765.75
21.09,1596631765.765625
22.18,1596631765.78125
23.05,1596631765.796875
23.49,1596631765.8125
23.4,1596631765.828125
22.8,1596631765.84375
21.8,1596631765.859375
20.43,1596631765.875
18.67,1596631765.890625
16.43,1596631765.90625
13.69,1596631765.921875
10.6,1596631765.9375
7.47,1596631765.953125
4.67,1596631765.96875
2.42,1596631765.984375
0.71,1596631766.0
-0.75,1596631766.015625
-2.33,1596631766.03125
-4.32,1596631766.046875
-6.72,1596631766.0625
-9.23,1596631766.078125
-11.47,1596631766.09375
-13.11,1596631766.109375
-14.17,1596631766.125
-14.93,1596631766.140625
-15.87,1596631766.15625
-17.3,1596631766.171875
-19.24,1596631766.1875
-21.43,1596631766.203125
-23.45,1596631766.21875
-25.08,1596631766.234375
-26.45,1596631766.25
-28.01,1596631766.265625
-30.38,1596631766.28125
-33.97,1596631766.296875
-38.82,1596631766.3125
-44.46,1596631766.328125
-49.98,1596631766.34375
-54.19,1596631766.359375
-55.93,1596631766.375
-54.31,1596631766.390625
-49.0,1596631766.40625
-40.31,1596631766.421875
-29.28,1596631766.4375
-17.36,1596631766.453125
-6.05,1596631766.46875
3.43,1596631766.484375
10.51,1596631766.5
15.21,1596631766.515625
17.93,1596631766.53125
19.19,1596631766.546875
19.38,1596631766.5625
18.75,1596631766.578125
17.45,1596631766.59375
15.81,1596631766.609375
14.29,1596631766.625
13.52,1596631766.640625
13.99,1596631766.65625
15.94,1596631766.671875
19.22,1596631766.6875
23.33,1596631766.703125
27.63,1596631766.71875
31.49,1596631766.734375
34.54,1596631766.75
36.57,1596631766.765625
37.59,1596631766.78125
37.64,1596631766.796875
36.8,1596631766.8125
35.21,1596631766.828125
33.03,1596631766.84375
30.53,1596631766.859375
28.02,1596631766.875
25.74,1596631766.890625
23.81,1596631766.90625
22.13,1596631766.921875
20.49,1596631766.9375
18.63,1596631766.953125
16.41,1596631766.96875
13.86,1596631766.984375
11.16,1596631767.0
8.58,1596631767.015625
6.36,1596631767.03125
4.58,1596631767.046875
3.18,1596631767.0625
1.9,1596631767.078125
0.43,1596631767.09375
-1.5,1596631767.109375
-4.03,1596631767.125
-7.04,1596631767.140625
-10.35,1596631767.15625
-13.65,1596631767.171875
-16.75,1596631767.1875
-19.49,1596631767.203125
-21.89,1596631767.21875
-24.1,1596631767.234375
-26.42,1596631767.25
-29.26,1596631767.265625
-33.0,1596631767.28125
-37.78,1596631767.296875
-43.23,1596631767.3125
-48.38,1596631767.328125
-51.84,1596631767.34375
-52.22,1596631767.359375
-48.65,1596631767.375
-41.18,1596631767.390625
-30.79,1596631767.40625
-19.07,1596631767.421875
-7.74,1596631767.4375
1.91,1596631767.453125
9.2,1596631767.46875
14.17,1596631767.484375
17.17,1596631767.5
18.69,1596631767.515625
19.14,1596631767.53125
18.74,1596631767.546875
17.68,1596631767.5625
16.2,1596631767.578125
14.7,1596631767.59375
13.72,1596631767.609375
13.73,1596631767.625
15.01,1596631767.640625
17.48,1596631767.65625
20.74,1596631767.671875
24.21,1596631767.6875
27.38,1596631767.703125
29.96,1596631767.71875
31.89,1596631767.734375
33.22,1596631767.75
34.03,1596631767.765625
34.29,1596631767.78125
33.91,1596631767.796875
32.89,1596631767.8125
31.29,1596631767.828125
29.36,1596631767.84375
27.41,1596631767.859375
25.73,1596631767.875
24.53,1596631767.890625
23.86,1596631767.90625
23.68,1596631767.921875
23.81,1596631767.9375
24.04,1596631767.953125
24.06,1596631767.96875
23.68,1596631767.984375
22.72,1596631768.0
21.19,1596631768.015625
19.14,1596631768.03125
16.66,1596631768.046875
13.76,1596631768.0625
10.37,1596631768.078125
6.45,1596631768.09375
2.0,1596631768.109375
-2.78,1596631768.125
-7.55,1596631768.140625
-11.99,1596631768.15625
-15.95,1596631768.171875
-19.54,1596631768.1875
-23.13,1596631768.203125
-27.23,1596631768.21875
-32.21,1596631768.234375
-38.08,1596631768.25
-44.34,1596631768.265625
-49.97,1596631768.28125
-53.71,1596631768.296875
-54.43,1596631768.3125
-51.49,1596631768.328125
-45.02,1596631768.34375
-35.86,1596631768.359375
-25.37,1596631768.375
-15.01,1596631768.390625
-5.95,1596631768.40625
1.08,1596631768.421875
5.87,1596631768.4375
8.56,1596631768.453125
9.54,1596631768.46875
9.24,1596631768.484375
8.1,1596631768.5
6.54,1596631768.515625
4.91,1596631768.53125
3.51,1596631768.546875
2.58,1596631768.5625
2.24,1596631768.578125
2.51,1596631768.59375
3.31,1596631768.609375
4.47,1596631768.625
5.78,1596631768.640625
7.07,1596631768.65625
8.21,1596631768.671875
9.19,1596631768.6875
10.0,1596631768.703125
10.6,1596631768.71875
10.91,1596631768.734375
10.79,1596631768.75
10.1,1596631768.765625
8.78,1596631768.78125
6.89,1596631768.796875
4.6,1596631768.8125
2.17,1596631768.828125
-0.16,1596631768.84375
-2.2,1596631768.859375
-3.9,1596631768.875
-5.36,1596631768.890625
-6.81,1596631768.90625
-8.47,1596631768.921875
-10.47,1596631768.9375
-12.76,1596631768.953125
-15.0,1596631768.96875
-16.69,1596631768.984375
-17.34,1596631769.0
-16.64,1596631769.015625
-14.64,1596631769.03125
-11.75,1596631769.046875
-8.62,1596631769.0625
-5.94,1596631769.078125
-4.16,1596631769.09375
-3.42,1596631769.109375
-3.55,1596631769.125
-4.24,1596631769.140625
-5.23,1596631769.15625
-6.4,1596631769.171875
-7.85,1596631769.1875
-9.74,1596631769.203125
-12.22,1596631769.21875
-15.36,1596631769.234375
-19.15,1596631769.25
-23.57,1596631769.265625
-28.57,1596631769.28125
-33.99,1596631769.296875
-39.38,1596631769.3125
-43.9,1596631769.328125
-46.41,1596631769.34375
-45.83,1596631769.359375
-41.52,1596631769.375
-33.65,1596631769.390625
-23.29,1596631769.40625
-12.14,1596631769.421875
-1.93,1596631769.4375
6.1,1596631769.453125
11.55,1596631769.46875
14.85,1596631769.484375
16.93,1596631769.5
18.64,1596631769.515625
20.49,1596631769.53125
22.53,1596631769.546875
24.47,1596631769.5625
26.04,1596631769.578125
27.12,1596631769.59375
27.78,1596631769.609375
28.22,1596631769.625
28.56,1596631769.640625
28.81,1596631769.65625
28.87,1596631769.671875
28.65,1596631769.6875
28.22,1596631769.703125
27.77,1596631769.71875
27.55,1596631769.734375
27.66,1596631769.75
28.04,1596631769.765625
28.48,1596631769.78125
28.73,1596631769.796875
28.66,1596631769.8125
28.34,1596631769.828125
27.95,1596631769.84375
27.73,1596631769.859375
27.78,1596631769.875
28.07,1596631769.890625
28.42,1596631769.90625
28.64,1596631769.921875
28.6,1596631769.9375
28.29,1596631769.953125
27.77,1596631769.96875
27.18,1596631769.984375
26.64,1596631770.0
26.18,1596631770.015625
25.73,1596631770.03125
25.14,1596631770.046875
24.2,1596631770.0625
22.67,1596631770.078125
20.43,1596631770.09375
17.54,1596631770.109375
14.24,1596631770.125
10.89,1596631770.140625
7.85,1596631770.15625
5.38,1596631770.171875
3.55,1596631770.1875
2.32,1596631770.203125
1.56,1596631770.21875
1.12,1596631770.234375
0.78,1596631770.25
0.28,1596631770.265625
-0.76,1596631770.28125
-2.73,1596631770.296875
-5.96,1596631770.3125
-10.62,1596631770.328125
-16.7,1596631770.34375
-23.96,1596631770.359375
-32.0,1596631770.375
-40.1,1596631770.390625
-47.31,1596631770.40625
-52.4,1596631770.421875
-54.19,1596631770.4375
-51.85,1596631770.453125
-45.34,1596631770.46875
-35.48,1596631770.484375
-23.83,1596631770.5
-12.22,1596631770.515625
-2.26,1596631770.53125
5.04,1596631770.546875
9.4,1596631770.5625
11.15,1596631770.578125
10.97,1596631770.59375
9.67,1596631770.609375
8.07,1596631770.625
6.84,1596631770.640625
6.41,1596631770.65625
7.01,1596631770.671875
8.57,1596631770.6875
10.83,1596631770.703125
13.39,1596631770.71875
15.89,1596631770.734375
18.01,1596631770.75
19.58,1596631770.765625
20.57,1596631770.78125
21.05,1596631770.796875
21.21,1596631770.8125
21.32,1596631770.828125
21.6,1596631770.84375
22.24,1596631770.859375
23.23,1596631770.875
24.33,1596631770.890625
25.14,1596631770.90625
25.21,1596631770.921875
24.23,1596631770.9375
22.23,1596631770.953125
19.6,1596631770.96875
16.98,1596631770.984375
14.96,1596631771.0
13.85,1596631771.015625
13.59,1596631771.03125
13.81,1596631771.046875
14.14,1596631771.0625
14.29,1596631771.078125
14.24,1596631771.09375
14.03,1596631771.109375
13.64,1596631771.125
12.96,1596631771.140625
11.8,1596631771.15625
10.12,1596631771.171875
8.1,1596631771.1875
6.12,1596631771.203125
4.55,1596631771.21875
3.58,1596631771.234375
3.04,1596631771.25
2.49,1596631771.265625
1.52,1596631771.28125
-0.14,1596631771.296875
-2.37,1596631771.3125
-4.81,1596631771.328125
-7.01,1596631771.34375
-8.66,1596631771.359375
-9.75,1596631771.375
-10.51,1596631771.390625
-11.32,1596631771.40625
-12.47,1596631771.421875
-14.0,1596631771.4375
-15.74,1596631771.453125
-17.38,1596631771.46875
-18.7,1596631771.484375
-19.66,1596631771.5
-20.51,1596631771.515625
-21.57,1596631771.53125
-23.25,1596631771.546875
-25.85,1596631771.5625
-29.53,1596631771.578125
-34.31,1596631771.59375
-39.9,1596631771.609375
-45.67,1596631771.625
-50.6,1596631771.640625
-53.44,1596631771.65625
-53.06,1596631771.671875
-48.89,1596631771.6875
-41.21,1596631771.703125
-31.14,1596631771.71875
-20.31,1596631771.734375
-10.29,1596631771.75
-2.22,1596631771.765625
3.45,1596631771.78125
6.88,1596631771.796875
8.55,1596631771.8125
9.02,1596631771.828125
8.8,1596631771.84375
8.27,1596631771.859375
7.76,1596631771.875
7.51,1596631771.890625
7.68,1596631771.90625
8.33,1596631771.921875
9.4,1596631771.9375
10.72,1596631771.953125
12.09,1596631771.96875
13.29,1596631771.984375
14.14,1596631772.0
14.59,1596631772.015625
14.66,1596631772.03125
14.47,1596631772.046875
14.12,1596631772.0625
13.68,1596631772.078125
13.15,1596631772.09375
12.5,1596631772.109375
11.74,1596631772.125
10.91,1596631772.140625
10.09,1596631772.15625
9.32,1596631772.171875
8.59,1596631772.1875
7.78,1596631772.203125
6.85,1596631772.21875
5.82,1596631772.234375
4.83,1596631772.25
4.07,1596631772.265625
3.67,1596631772.28125
3.62,1596631772.296875
3.76,1596631772.3125
3.89,1596631772.328125
3.87,1596631772.34375
3.62,1596631772.359375
3.13,1596631772.375
2.41,1596631772.390625
1.45,1596631772.40625
0.2,1596631772.421875
-1.35,1596631772.4375
-3.18,1596631772.453125
-5.18,1596631772.46875
-7.29,1596631772.484375
-9.5,1596631772.5
-11.85,1596631772.515625
-14.36,1596631772.53125
-16.95,1596631772.546875
-19.39,1596631772.5625
-21.4,1596631772.578125
-22.78,1596631772.59375
-23.53,1596631772.609375
-23.9,1596631772.625
-24.27,1596631772.640625
-24.94,1596631772.65625
-26.02,1596631772.671875
-27.39,1596631772.6875
-28.76,1596631772.703125
-29.95,1596631772.71875
-30.9,1596631772.734375
-31.77,1596631772.75
-32.83,1596631772.765625
-34.36,1596631772.78125
-36.52,1596631772.796875
-39.3,1596631772.8125
-42.47,1596631772.828125
-45.48,1596631772.84375
-47.53,1596631772.859375
-47.73,1596631772.875
-45.33,1596631772.890625
-40.02,1596631772.90625
-32.14,1596631772.921875
-22.7,1596631772.9375
-13.08,1596631772.953125
-4.67,1596631772.96875
1.57,1596631772.984375
5.31,1596631773.0
6.86,1596631773.015625
6.94,1596631773.03125
6.4,1596631773.046875
5.94,1596631773.0625
6.05,1596631773.078125
6.93,1596631773.09375
8.6,1596631773.109375
10.95,1596631773.125
13.83,1596631773.140625
16.94,1596631773.15625
19.93,1596631773.171875
22.32,1596631773.1875
23.76,1596631773.203125
24.08,1596631773.21875
23.45,1596631773.234375
22.25,1596631773.25
20.96,1596631773.265625
19.88,1596631773.28125
19.03,1596631773.296875
18.19,1596631773.3125
17.03,1596631773.328125
15.35,1596631773.34375
13.18,1596631773.359375
10.7,1596631773.375
8.16,1596631773.390625
5.71,1596631773.40625
3.38,1596631773.421875
1.14,1596631773.4375
-1.05,1596631773.453125
-3.14,1596631773.46875
-5.04,1596631773.484375
-6.71,1596631773.5
-8.22,1596631773.515625
-9.75,1596631773.53125
-11.53,1596631773.546875
-13.67,1596631773.5625
-16.21,1596631773.578125
-18.99,1596631773.59375
-21.86,1596631773.609375
-24.7,1596631773.625
-27.54,1596631773.640625
-30.48,1596631773.65625
-33.61,1596631773.671875
-36.91,1596631773.6875
-40.16,1596631773.703125
-43.04,1596631773.71875
-45.32,1596631773.734375
-46.95,1596631773.75
-48.19,1596631773.765625
-49.47,1596631773.78125
-51.26,1596631773.796875
-53.76,1596631773.8125
-56.79,1596631773.828125
-59.75,1596631773.84375
-61.81,1596631773.859375
-62.16,1596631773.875
-60.14,1596631773.890625
-55.43,1596631773.90625
-48.07,1596631773.921875
-38.34,1596631773.9375
-26.84,1596631773.953125
-14.4,1596631773.96875
-2.05,1596631773.984375
9.09,1596631774.0
18.1,1596631774.015625
24.39,1596631774.03125
27.92,1596631774.046875
29.15,1596631774.0625
28.8,1596631774.078125
27.66,1596631774.09375
26.29,1596631774.109375
25.01,1596631774.125
23.93,1596631774.140625
23.09,1596631774.15625
22.53,1596631774.171875
22.34,1596631774.1875
22.63,1596631774.203125
23.44,1596631774.21875
24.7,1596631774.234375
26.27,1596631774.25
27.98,1596631774.265625
29.7,1596631774.28125
31.31,1596631774.296875
32.75,1596631774.3125
33.91,1596631774.328125
34.71,1596631774.34375
35.04,1596631774.359375
34.86,1596631774.375
34.22,1596631774.390625
33.23,1596631774.40625
31.95,1596631774.421875
30.42,1596631774.4375
28.6,1596631774.453125
26.53,1596631774.46875
24.41,1596631774.484375
22.54,1596631774.5
21.23,1596631774.515625
20.54,1596631774.53125
20.26,1596631774.546875
19.89,1596631774.5625
19.01,1596631774.578125
17.49,1596631774.59375
15.6,1596631774.609375
13.82,1596631774.625
12.56,1596631774.640625
11.87,1596631774.65625
11.37,1596631774.671875
10.54,1596631774.6875
8.98,1596631774.703125
6.63,1596631774.71875
3.82,1596631774.734375
1.03,1596631774.75
-1.34,1596631774.765625
-3.18,1596631774.78125
-4.7,1596631774.796875
-6.25,1596631774.8125
-8.1,1596631774.828125
-10.36,1596631774.84375
-12.8,1596631774.859375
-15.06,1596631774.875
-16.77,1596631774.890625
-17.71,1596631774.90625
-17.93,1596631774.921875
-17.72,1596631774.9375
-17.51,1596631774.953125
-17.73,1596631774.96875
-18.8,1596631774.984375
-21.11,1596631775.0
-24.88,1596631775.015625
-30.07,1596631775.03125
-36.19,1596631775.046875
-42.26,1596631775.0625
-46.9,1596631775.078125
-48.72,1596631775.09375
-46.72,1596631775.109375
-40.72,1596631775.125
-31.45,1596631775.140625
-20.39,1596631775.15625
-9.31,1596631775.171875
0.32,1596631775.1875
7.64,1596631775.203125
12.53,1596631775.21875
15.47,1596631775.234375
17.14,1596631775.25
18.17,1596631775.265625
18.9,1596631775.28125
19.44,1596631775.296875
19.83,1596631775.3125
20.12,1596631775.328125
20.46,1596631775.34375
21.06,1596631775.359375
21.97,1596631775.375
23.12,1596631775.390625
24.33,1596631775.40625
25.41,1596631775.421875
26.26,1596631775.4375
26.92,1596631775.453125
27.45,1596631775.46875
27.84,1596631775.484375
27.98,1596631775.5
27.73,1596631775.515625
26.96,1596631775.53125
25.66,1596631775.546875
24.01,1596631775.5625
22.28,1596631775.578125
20.71,1596631775.59375
19.46,1596631775.609375
18.51,1596631775.625
17.72,1596631775.640625
16.86,1596631775.65625
15.77,1596631775.671875
14.34,1596631775.6875
12.55,1596631775.703125
10.49,1596631775.71875
8.3,1596631775.734375
6.2,1596631775.75
4.3,1596631775.765625
2.68,1596631775.78125
1.29,1596631775.796875
-0.0,1596631775.8125
-1.33,1596631775.828125
-2.78,1596631775.84375
-4.32,1596631775.859375
-5.93,1596631775.875
-7.58,1596631775.890625
-9.33,1596631775.90625
-11.28,1596631775.921875
-13.53,1596631775.9375
-16.05,1596631775.953125
-18.74,1596631775.96875
-21.42,1596631775.984375
-23.96,1596631776.0
-26.37,1596631776.015625
-28.85,1596631776.03125
-31.73,1596631776.046875
-35.38,1596631776.0625
-40.03,1596631776.078125
-45.64,1596631776.09375
-51.73,1596631776.109375
-57.39,1596631776.125
-61.34,1596631776.140625
-62.18,1596631776.15625
-58.82,1596631776.171875
-50.85,1596631776.1875
-38.74,1596631776.203125
-23.84,1596631776.21875
-8.04,1596631776.234375
6.65,1596631776.25
18.56,1596631776.265625
26.68,1596631776.28125
30.84,1596631776.296875
31.49,1596631776.3125
29.61,1596631776.328125
26.35,1596631776.34375
22.86,1596631776.359375
20.04,1596631776.375
18.57,1596631776.390625
18.7,1596631776.40625
20.42,1596631776.421875
23.44,1596631776.4375
27.28,1596631776.453125
31.44,1596631776.46875
35.47,1596631776.484375
39.08,1596631776.5
42.14,1596631776.515625
44.7,1596631776.53125
46.83,1596631776.546875
48.58,1596631776.5625
49.86,1596631776.578125
50.52,1596631776.59375
50.37,1596631776.609375
49.34,1596631776.625
47.58,1596631776.640625
45.36,1596631776.65625
43.04,1596631776.671875
40.84,1596631776.6875
38.77,1596631776.703125
36.72,1596631776.71875
34.52,1596631776.734375
32.15,1596631776.75
29.73,1596631776.765625
27.52,1596631776.78125
25.72,1596631776.796875
24.46,1596631776.8125
23.74,1596631776.828125
23.5,1596631776.84375
23.72,1596631776.859375
24.34,1596631776.875
25.25,1596631776.890625
26.23,1596631776.90625
26.99,1596631776.921875
27.32,1596631776.9375
27.21,1596631776.953125
27.05,1596631776.96875
27.42,1596631776.984375
28.96,1596631777.0
32.06,1596631777.015625
36.63,1596631777.03125
42.19,1596631777.046875
48.04,1596631777.0625
53.63,1596631777.078125
58.84,1596631777.09375
63.97,1596631777.109375
69.55,1596631777.125
75.97,1596631777.140625
83.18,1596631777.15625
90.57,1596631777.171875
97.15,1596631777.1875
102.01,1596631777.203125
104.71,1596631777.21875
105.66,1596631777.234375
106.19,1596631777.25
108.23,1596631777.265625
113.93,1596631777.28125
125.09,1596631777.296875
142.66,1596631777.3125
166.41,1596631777.328125
194.7,1596631777.34375
224.64,1596631777.359375
252.37,1596631777.375
273.69,1596631777.390625
284.84,1596631777.40625
283.22,1596631777.421875
268.0,1596631777.4375
240.25,1596631777.453125
202.74,1596631777.46875
159.21,1596631777.484375
113.49,1596631777.5
68.63,1596631777.515625
26.44,1596631777.53125
-12.64,1596631777.546875
-49.13,1596631777.5625
-83.92,1596631777.578125
-117.56,1596631777.59375
-149.97,1596631777.609375
-180.4,1596631777.625
-207.73,1596631777.640625
-230.95,1596631777.65625
-249.34,1596631777.671875
-262.65,1596631777.6875
-271.0,1596631777.703125
-275.01,1596631777.71875
-275.7,1596631777.734375
-274.57,1596631777.75
-273.33,1596631777.765625
-273.46,1596631777.78125
-275.81,1596631777.796875
-280.18,1596631777.8125
-285.62,1596631777.828125
-290.89,1596631777.84375
-295.24,1596631777.859375
-298.85,1596631777.875
-302.64,1596631777.890625
-307.57,1596631777.90625
-313.4,1596631777.921875
-318.1,1596631777.9375
-317.83,1596631777.953125
-308.18,1596631777.96875
-285.9,1596631777.984375
-250.64,1596631778.0
-205.53,1596631778.015625
-156.39,1596631778.03125
-109.72,1596631778.046875
-70.41,1596631778.0625
-40.28,1596631778.078125
-17.95,1596631778.09375
-0.15,1596631778.109375
16.47,1596631778.125
33.97,1596631778.140625
52.64,1596631778.15625
71.59,1596631778.171875
89.63,1596631778.1875
105.99,1596631778.203125
120.44,1596631778.21875
132.96,1596631778.234375
143.27,1596631778.25
150.73,1596631778.265625
154.64,1596631778.28125
154.72,1596631778.296875
151.49,1596631778.3125
146.1,1596631778.328125
139.95,1596631778.34375
134.18,1596631778.359375
129.48,1596631778.375
126.47,1596631778.390625
126.2,1596631778.40625
130.51,1596631778.421875
141.78,1596631778.4375
162.03,1596631778.453125
191.66,1596631778.46875
228.44,1596631778.484375
267.28,1596631778.5
301.13,1596631778.515625
322.8,1596631778.53125
326.94,1596631778.546875
311.57,1596631778.5625
278.29,1596631778.578125
231.53,1596631778.59375
177.04,1596631778.609375
120.32,1596631778.625
65.54,1596631778.640625
15.24,1596631778.65625
-29.54,1596631778.671875
-68.69,1596631778.6875
-102.53,1596631778.703125
-131.28,1596631778.71875
-154.55,1596631778.734375
-170.95,1596631778.75
-178.22,1596631778.765625
-174.09,1596631778.78125
-157.63,1596631778.796875
-130.56,1596631778.8125
-97.6,1596631778.828125
-65.52,1596631778.84375
-40.98,1596631778.859375
-28.5,1596631778.875
-29.24,1596631778.890625
-41.28,1596631778.90625
-61.1,1596631778.921875
-85.03,1596631778.9375
-110.17,1596631778.953125
-134.09,1596631778.96875
-153.96,1596631778.984375
-166.15,1596631779.0
-166.99,1596631779.015625
-154.4,1596631779.03125
-129.65,1596631779.046875
-97.94,1596631779.0625
-67.16,1596631779.078125
-45.1,1596631779.09375
-36.58,1596631779.109375
-41.78,1596631779.125
-56.84,1596631779.140625
-76.09,1596631779.15625
-95.05,1596631779.171875
-112.24,1596631779.1875
-129.26,1596631779.203125
-148.91,1596631779.21875
-172.74,1596631779.234375
-199.18,1596631779.25
-223.3,1596631779.265625
-238.59,1596631779.28125
-239.57,1596631779.296875
-224.34,1596631779.3125
-195.59,1596631779.328125
-159.86,1596631779.34375
-125.25,1596631779.359375
-98.58,1596631779.375
-83.31,1596631779.390625
-78.95,1596631779.40625
-81.98,1596631779.421875
-87.76,1596631779.4375
-92.33,1596631779.453125
-93.44,1596631779.46875
-90.55,1596631779.484375
-84.13,1596631779.5
-74.84,1596631779.515625
-63.18,1596631779.53125
-49.52,1596631779.546875
-34.47,1596631779.5625
-19.05,1596631779.578125
-4.61,1596631779.59375
7.72,1596631779.609375
17.48,1596631779.625
25.06,1596631779.640625
31.62,1596631779.65625
38.4,1596631779.671875
46.16,1596631779.6875
54.94,1596631779.703125
64.04,1596631779.71875
72.44,1596631779.734375
79.27,1596631779.75
84.13,1596631779.765625
87.09,1596631779.78125
88.66,1596631779.796875
89.5,1596631779.8125
90.2,1596631779.828125
91.13,1596631779.84375
92.3,1596631779.859375
93.29,1596631779.875
93.45,1596631779.890625
92.14,1596631779.90625
89.05,1596631779.921875
84.44,1596631779.9375
79.12,1596631779.953125
74.07,1596631779.96875
70.11,1596631779.984375
67.51,1596631780.0
65.99,1596631780.015625
64.86,1596631780.03125
63.44,1596631780.046875
61.36,1596631780.0625
58.61,1596631780.078125
55.48,1596631780.09375
52.32,1596631780.109375
49.43,1596631780.125
46.95,1596631780.140625
44.88,1596631780.15625
43.17,1596631780.171875
41.63,1596631780.1875
39.98,1596631780.203125
37.79,1596631780.21875
34.7,1596631780.234375
30.5,1596631780.25
25.35,1596631780.265625
19.78,1596631780.28125
14.5,1596631780.296875
10.16,1596631780.3125
6.99,1596631780.328125
4.71,1596631780.34375
2.63,1596631780.359375
0.03,1596631780.375
-3.55,1596631780.390625
-8.02,1596631780.40625
-12.92,1596631780.421875
-17.64,1596631780.4375
-21.8,1596631780.453125
-25.46,1596631780.46875
-29.04,1596631780.484375
-33.12,1596631780.5
-38.22,1596631780.515625
-44.64,1596631780.53125
-52.42,1596631780.546875
-61.28,1596631780.5625
-70.54,1596631780.578125
-78.99,1596631780.59375
-85.02,1596631780.609375
-86.94,1596631780.625
-83.47,1596631780.640625
-74.3,1596631780.65625
-60.31,1596631780.671875
-43.37,1596631780.6875
-25.74,1596631780.703125
-9.45,1596631780.71875
4.18,1596631780.734375
14.69,1596631780.75
22.26,1596631780.765625
27.48,1596631780.78125
31.04,1596631780.796875
33.56,1596631780.8125
35.56,1596631780.828125
37.39,1596631780.84375
39.35,1596631780.859375
41.59,1596631780.875
44.13,1596631780.890625
46.87,1596631780.90625
49.65,1596631780.921875
52.27,1596631780.9375
54.58,1596631780.953125
56.5,1596631780.96875
58.04,1596631780.984375
59.25,1596631781.0
60.18,1596631781.015625
60.82,1596631781.03125
61.03,1596631781.046875
60.65,1596631781.0625
59.51,1596631781.078125
57.48,1596631781.09375
54.65,1596631781.109375
51.23,1596631781.125
47.59,1596631781.140625
44.13,1596631781.15625
41.19,1596631781.171875
38.86,1596631781.1875
36.9,1596631781.203125
34.9,1596631781.21875
32.42,1596631781.234375
29.3,1596631781.25
25.74,1596631781.265625
22.33,1596631781.28125
19.73,1596631781.296875
18.4,1596631781.3125
18.39,1596631781.328125
19.28,1596631781.34375
20.35,1596631781.359375
20.73,1596631781.375
19.74,1596631781.390625
17.02,1596631781.40625
12.6,1596631781.421875
6.89,1596631781.4375
0.43,1596631781.453125
-6.32,1596631781.46875
-13.25,1596631781.484375
-20.61,1596631781.5
-28.87,1596631781.515625
-38.46,1596631781.53125
-49.45,1596631781.546875
-61.43,1596631781.5625
-73.51,1596631781.578125
-84.73,1596631781.59375
-94.52,1596631781.609375
-103.27,1596631781.625
-112.67,1596631781.640625
-125.55,1596631781.65625
-145.26,1596631781.671875
-174.59,1596631781.6875
-214.72,1596631781.703125
-264.59,1596631781.71875
-320.83,1596631781.734375
-378.36,1596631781.75
-431.35,1596631781.765625
-474.16,1596631781.78125
-502.16,1596631781.796875
-512.28,1596631781.8125
-503.47,1596631781.828125
-476.82,1596631781.84375
-435.4,1596631781.859375
-383.69,1596631781.875
-326.55,1596631781.890625
-268.23,1596631781.90625
-211.58,1596631781.921875
-157.91,1596631781.9375
-107.24,1596631781.953125
-58.85,1596631781.96875
-11.72,1596631781.984375
35.2,1596631782.0
82.81,1596631782.015625
131.59,1596631782.03125
181.2,1596631782.046875
230.2,1596631782.0625
275.99,1596631782.078125
315.41,1596631782.09375
345.69,1596631782.109375
365.44,1596631782.125
375.14,1596631782.140625
376.96,1596631782.15625
373.74,1596631782.171875
367.91,1596631782.1875
360.61,1596631782.203125
351.6,1596631782.21875
339.91,1596631782.234375
324.69,1596631782.25
305.9,1596631782.265625
284.4,1596631782.28125
261.45,1596631782.296875
238.05,1596631782.3125
214.49,1596631782.328125
190.32,1596631782.34375
164.78,1596631782.359375
137.33,1596631782.375
108.06,1596631782.390625
77.59,1596631782.40625
46.83,1596631782.421875
16.59,1596631782.4375
-12.53,1596631782.453125
-40.06,1596631782.46875
-65.32,1596631782.484375
-87.26,1596631782.5
-104.63,1596631782.515625
-116.3,1596631782.53125
-121.81,1596631782.546875
-121.54,1596631782.5625
-116.65,1596631782.578125
-108.6,1596631782.59375
-98.68,1596631782.609375
-87.75,1596631782.625
-76.16,1596631782.640625
-64.02,1596631782.65625
-51.5,1596631782.671875
-39.01,1596631782.6875
-27.12,1596631782.703125
-16.34,1596631782.71875
-6.9,1596631782.734375
1.33,1596631782.75
8.73,1596631782.765625
15.67,1596631782.78125
22.28,1596631782.796875
28.34,1596631782.8125
33.32,1596631782.828125
36.58,1596631782.84375
37.55,1596631782.859375
35.9,1596631782.875
31.6,1596631782.890625
25.0,1596631782.90625
16.83,1596631782.921875
8.19,1596631782.9375
0.49,1596631782.953125
-4.81,1596631782.96875
-6.46,1596631782.984375
-3.78,1596631783.0
3.09,1596631783.015625
13.19,1596631783.03125
24.99,1596631783.046875
36.78,1596631783.0625
47.15,1596631783.078125
55.23,1596631783.09375
60.83,1596631783.109375
64.23,1596631783.125
65.95,1596631783.140625
66.51,1596631783.15625
66.33,1596631783.171875
65.68,1596631783.1875
64.86,1596631783.203125
64.18,1596631783.21875
63.93,1596631783.234375
64.28,1596631783.25
65.18,1596631783.265625
66.42,1596631783.28125
67.68,1596631783.296875
68.67,1596631783.3125
69.24,1596631783.328125
69.37,1596631783.34375
69.14,1596631783.359375
68.62,1596631783.375
67.85,1596631783.390625
66.77,1596631783.40625
65.33,1596631783.421875
63.49,1596631783.4375
61.3,1596631783.453125
58.89,1596631783.46875
56.4,1596631783.484375
54.01,1596631783.5
51.81,1596631783.515625
49.86,1596631783.53125
48.14,1596631783.546875
46.61,1596631783.5625
45.17,1596631783.578125
43.72,1596631783.59375
42.19,1596631783.609375
40.52,1596631783.625
38.75,1596631783.640625
37.01,1596631783.65625
35.48,1596631783.671875
34.29,1596631783.6875
33.38,1596631783.703125
32.53,1596631783.71875
31.32,1596631783.734375
29.31,1596631783.75
26.15,1596631783.765625
21.73,1596631783.78125
16.13,1596631783.796875
9.67,1596631783.8125
2.77,1596631783.828125
-4.06,1596631783.84375
-10.32,1596631783.859375
-15.66,1596631783.875
-20.01,1596631783.890625
-23.58,1596631783.90625
-26.87,1596631783.921875
-30.53,1596631783.9375
-35.05,1596631783.953125
-40.58,1596631783.96875
-46.75,1596631783.984375
-52.72,1596631784.0
-57.28,1596631784.015625
-59.2,1596631784.03125
-57.56,1596631784.046875
-52.12,1596631784.0625
-43.42,1596631784.078125
-32.69,1596631784.09375
-21.52,1596631784.109375
-11.3,1596631784.125
-2.89,1596631784.140625
3.52,1596631784.15625
8.27,1596631784.171875
11.84,1596631784.1875
14.63,1596631784.203125
16.75,1596631784.21875
18.21,1596631784.234375
19.02,1596631784.25
19.36,1596631784.265625
19.58,1596631784.28125
20.01,1596631784.296875
20.9,1596631784.3125
22.27,1596631784.328125
24.0,1596631784.34375
25.86,1596631784.359375
27.61,1596631784.375
29.05,1596631784.390625
30.07,1596631784.40625
30.66,1596631784.421875
30.82,1596631784.4375
30.66,1596631784.453125
30.17,1596631784.46875
29.32,1596631784.484375
28.04,1596631784.5
26.25,1596631784.515625
24.01,1596631784.53125
21.51,1596631784.546875
19.01,1596631784.5625
16.71,1596631784.578125
14.74,1596631784.59375
13.07,1596631784.609375
11.64,1596631784.625
10.43,1596631784.640625
9.48,1596631784.65625
8.85,1596631784.671875
8.51,1596631784.6875
8.29,1596631784.703125
7.85,1596631784.71875
6.88,1596631784.734375
5.19,1596631784.75
2.76,1596631784.765625
-0.29,1596631784.78125
-3.71,1596631784.796875
-7.27,1596631784.8125
-10.76,1596631784.828125
-13.97,1596631784.84375
-16.71,1596631784.859375
-18.86,1596631784.875
-20.39,1596631784.890625
-21.45,1596631784.90625
-22.31,1596631784.921875
-23.27,1596631784.9375
-24.55,1596631784.953125
-26.22,1596631784.96875
-28.12,1596631784.984375
-30.01,1596631785.0
-31.74,1596631785.015625
-33.32,1596631785.03125
-35.04,1596631785.046875
-37.33,1596631785.0625
-40.59,1596631785.078125
-44.82,1596631785.09375
-49.55,1596631785.109375
-53.8,1596631785.125
-56.36,1596631785.140625
-56.18,1596631785.15625
-52.68,1596631785.171875
-45.97,1596631785.1875
-36.75,1596631785.203125
-26.12,1596631785.21875
-15.23,1596631785.234375
-5.08,1596631785.25
3.69,1596631785.265625
10.77,1596631785.28125
16.17,1596631785.296875
20.07,1596631785.3125
22.76,1596631785.328125
24.56,1596631785.34375
25.78,1596631785.359375
26.67,1596631785.375
27.4,1596631785.390625
28.11,1596631785.40625
28.94,1596631785.421875
30.01,1596631785.4375
31.41,1596631785.453125
33.17,1596631785.46875
35.23,1596631785.484375
37.42,1596631785.5
39.51,1596631785.515625
41.26,1596631785.53125
42.52,1596631785.546875
43.25,1596631785.5625
43.45,1596631785.578125
43.13,1596631785.59375
42.3,1596631785.609375
40.94,1596631785.625
39.13,1596631785.640625
37.03,1596631785.65625
34.95,1596631785.671875
33.15,1596631785.6875
31.8,1596631785.703125
30.87,1596631785.71875
30.14,1596631785.734375
29.35,1596631785.75
28.24,1596631785.765625
26.78,1596631785.78125
25.1,1596631785.796875
23.44,1596631785.8125
22.1,1596631785.828125
21.2,1596631785.84375
20.72,1596631785.859375
20.45,1596631785.875
20.06,1596631785.890625
19.22,1596631785.90625
17.72,1596631785.921875
15.53,1596631785.9375
12.8,1596631785.953125
9.81,1596631785.96875
6.83,1596631785.984375
4.07,1596631786.0
1.61,1596631786.015625
-0.61,1596631786.03125
-2.73,1596631786.046875
-4.89,1596631786.0625
-7.23,1596631786.078125
-9.74,1596631786.09375
-12.31,1596631786.109375
-14.77,1596631786.125
-16.95,1596631786.140625
-18.83,1596631786.15625
-20.56,1596631786.171875
-22.45,1596631786.1875
-24.86,1596631786.203125
-28.03,1596631786.21875
-31.95,1596631786.234375
-36.27,1596631786.25
-40.35,1596631786.265625
-43.31,1596631786.28125
-44.32,1596631786.296875
-42.7,1596631786.3125
-38.2,1596631786.328125
-31.04,1596631786.34375
-21.95,1596631786.359375
-11.99,1596631786.375
-2.31,1596631786.390625
6.08,1596631786.40625
12.59,1596631786.421875
17.05,1596631786.4375
19.66,1596631786.453125
20.86,1596631786.46875
21.12,1596631786.484375
20.84,1596631786.5
20.32,1596631786.515625
19.74,1596631786.53125
19.28,1596631786.546875
19.14,1596631786.5625
19.54,1596631786.578125
20.63,1596631786.59375
22.37,1596631786.609375
24.55,1596631786.625
26.83,1596631786.640625
28.81,1596631786.65625
30.26,1596631786.671875
31.15,1596631786.6875
31.61,1596631786.703125
31.78,1596631786.71875
31.72,1596631786.734375
31.35,1596631786.75
30.55,1596631786.765625
29.25,1596631786.78125
27.52,1596631786.796875
25.59,1596631786.8125
23.72,1596631786.828125
22.1,1596631786.84375
20.85,1596631786.859375
19.95,1596631786.875
19.4,1596631786.890625
19.13,1596631786.90625
19.03,1596631786.921875
18.82,1596631786.9375
18.18,1596631786.953125
16.81,1596631786.96875
14.61,1596631786.984375
11.78,1596631787.0
8.74,1596631787.015625
5.91,1596631787.03125
3.5,1596631787.046875
1.44,1596631787.0625
-0.59,1596631787.078125
-2.86,1596631787.09375
-5.41,1596631787.109375
-8.03,1596631787.125
-10.3,1596631787.140625
-11.91,1596631787.15625
-12.84,1596631787.171875
-13.39,1596631787.1875
-14.05,1596631787.203125
-15.25,1596631787.21875
-17.13,1596631787.234375
-19.46,1596631787.25
-21.84,1596631787.265625
-23.82,1596631787.28125
-25.17,1596631787.296875
-25.94,1596631787.3125
-26.38,1596631787.328125
-26.88,1596631787.34375
-27.78,1596631787.359375
-29.33,1596631787.375
-31.63,1596631787.390625
-34.6,1596631787.40625
-37.94,1596631787.421875
-41.06,1596631787.4375
-43.13,1596631787.453125
-43.24,1596631787.46875
-40.72,1596631787.484375
-35.42,1596631787.5
-27.78,1596631787.515625
-18.78,1596631787.53125
-9.62,1596631787.546875
-1.37,1596631787.5625
5.26,1596631787.578125
10.02,1596631787.59375
13.02,1596631787.609375
14.62,1596631787.625
15.29,1596631787.640625
15.46,1596631787.65625
15.47,1596631787.671875
15.54,1596631787.6875
15.79,1596631787.703125
16.27,1596631787.71875
16.98,1596631787.734375
17.93,1596631787.75
19.06,1596631787.765625
20.26,1596631787.78125
21.36,1596631787.796875
22.23,1596631787.8125
22.76,1596631787.828125
22.98,1596631787.84375
23.04,1596631787.859375
23.07,1596631787.875
23.08,1596631787.890625
23.0,1596631787.90625
22.63,1596631787.921875
21.84,1596631787.9375
20.58,1596631787.953125
18.98,1596631787.96875
17.22,1596631787.984375
15.53,1596631788.0
14.03,1596631788.015625
12.75,1596631788.03125
11.66,1596631788.046875
10.66,1596631788.0625
9.66,1596631788.078125
8.62,1596631788.09375
7.59,1596631788.109375
6.67,1596631788.125
5.95,1596631788.140625
5.53,1596631788.15625
5.38,1596631788.171875
5.39,1596631788.1875
5.35,1596631788.203125
5.1,1596631788.21875
4.53,1596631788.234375
3.7,1596631788.25
2.71,1596631788.265625
1.69,1596631788.28125
0.71,1596631788.296875
-0.3,1596631788.3125
-1.4,1596631788.328125
-2.66,1596631788.34375
-4.08,1596631788.359375
-5.56,1596631788.375
-7.04,1596631788.390625
-8.44,1596631788.40625
-9.81,1596631788.421875
-11.19,1596631788.4375
-12.62,1596631788.453125
-14.06,1596631788.46875
-15.48,1596631788.484375
-16.82,1596631788.5
-18.04,1596631788.515625
-19.16,1596631788.53125
-20.23,1596631788.546875
-21.27,1596631788.5625
-22.38,1596631788.578125
-23.69,1596631788.59375
-25.4,1596631788.609375
-27.65,1596631788.625
-30.48,1596631788.640625
-33.63,1596631788.65625
-36.52,1596631788.671875
-38.39,1596631788.6875
-38.47,1596631788.703125
-36.31,1596631788.71875
-31.9,1596631788.734375
-25.7,1596631788.75
-18.49,1596631788.765625
-11.13,1596631788.78125
-4.36,1596631788.796875
1.33,1596631788.8125
5.68,1596631788.828125
8.63,1596631788.84375
10.3,1596631788.859375
10.87,1596631788.875
10.64,1596631788.890625
9.92,1596631788.90625
9.02,1596631788.921875
8.17,1596631788.9375
7.52,1596631788.953125
7.21,1596631788.96875
7.33,1596631788.984375
7.93,1596631789.0
9.0,1596631789.015625
10.38,1596631789.03125
11.77,1596631789.046875
12.85,1596631789.0625
13.38,1596631789.078125
13.32,1596631789.09375
12.84,1596631789.109375
12.25,1596631789.125
11.82,1596631789.140625
11.63,1596631789.15625
11.53,1596631789.171875
11.21,1596631789.1875
10.41,1596631789.203125
9.04,1596631789.21875
7.29,1596631789.234375
5.52,1596631789.25
4.05,1596631789.265625
3.09,1596631789.28125
2.57,1596631789.296875
2.26,1596631789.3125
1.85,1596631789.328125
1.1,1596631789.34375
0.0,1596631789.359375
-1.27,1596631789.375
-2.42,1596631789.390625
-3.16,1596631789.40625
-3.37,1596631789.421875
-3.12,1596631789.4375
-2.7,1596631789.453125
-2.42,1596631789.46875
-2.51,1596631789.484375
-3.04,1596631789.5
-3.87,1596631789.515625
-4.8,1596631789.53125
-5.71,1596631789.546875
-6.55,1596631789.5625
-7.38,1596631789.578125
-8.31,1596631789.59375
-9.44,1596631789.609375
-10.81,1596631789.625
-12.39,1596631789.640625
-14.1,1596631789.65625
-15.79,1596631789.671875
-17.29,1596631789.6875
-18.45,1596631789.703125
-19.25,1596631789.71875
-19.83,1596631789.734375
-20.45,1596631789.75
-21.38,1596631789.765625
-22.81,1596631789.78125
-24.73,1596631789.796875
-26.99,1596631789.8125
-29.37,1596631789.828125
-31.57,1596631789.84375
-33.23,1596631789.859375
-33.95,1596631789.875
-33.27,1596631789.890625
-30.89,1596631789.90625
-26.77,1596631789.921875
-21.26,1596631789.9375
-15.02,1596631789.953125
-8.85,1596631789.96875
-3.45,1596631789.984375
0.72,1596631790.0
3.58,1596631790.015625
5.27,1596631790.03125
6.11,1596631790.046875
6.4,1596631790.0625
6.4,1596631790.078125
6.28,1596631790.09375
6.14,1596631790.109375
6.02,1596631790.125
5.98,1596631790.140625
6.06,1596631790.15625
6.34,1596631790.171875
6.85,1596631790.1875
7.61,1596631790.203125
8.56,1596631790.21875
9.57,1596631790.234375
10.49,1596631790.25
11.18,1596631790.265625
11.55,1596631790.28125
11.6,1596631790.296875
11.39,1596631790.3125
11.01,1596631790.328125
10.53,1596631790.34375
9.95,1596631790.359375
9.19,1596631790.375
8.22,1596631790.390625
7.07,1596631790.40625
5.84,1596631790.421875
4.73,1596631790.4375
3.84,1596631790.453125
3.17,1596631790.46875
2.57,1596631790.484375
1.87,1596631790.5
0.97,1596631790.515625
-0.1,1596631790.53125
-1.16,1596631790.546875
-2.01,1596631790.5625
-2.54,1596631790.578125
-2.77,1596631790.59375
-2.83,1596631790.609375
-2.89,1596631790.625
-3.1,1596631790.640625
-3.52,1596631790.65625
-4.13,1596631790.671875
-4.91,1596631790.6875
-5.81,1596631790.703125
-6.79,1596631790.71875
-7.79,1596631790.734375
-8.78,1596631790.75
-9.72,1596631790.765625
-10.61,1596631790.78125
-11.49,1596631790.796875
-12.44,1596631790.8125
-13.51,1596631790.828125
-14.71,1596631790.84375
-16.0,1596631790.859375
-17.24,1596631790.875
-18.31,1596631790.890625
-19.15,1596631790.90625
-19.78,1596631790.921875
-20.35,1596631790.9375
-21.1,1596631790.953125
-22.26,1596631790.96875
-23.94,1596631790.984375
-26.11,1596631791.0
-28.48,1596631791.015625
-30.57,1596631791.03125
-31.78,1596631791.046875
-31.55,1596631791.0625
-29.57,1596631791.078125
-25.88,1596631791.09375
-20.87,1596631791.109375
-15.21,1596631791.125
-9.58,1596631791.140625
-4.56,1596631791.15625
-0.48,1596631791.171875
2.51,1596631791.1875
4.44,1596631791.203125
5.41,1596631791.21875
5.6,1596631791.234375
5.27,1596631791.25
4.7,1596631791.265625
4.2,1596631791.28125
3.98,1596631791.296875
4.16,1596631791.3125
4.7,1596631791.328125
5.49,1596631791.34375
6.41,1596631791.359375
7.39,1596631791.375
8.37,1596631791.390625
9.29,1596631791.40625
10.11,1596631791.421875
10.73,1596631791.4375
11.14,1596631791.453125
11.32,1596631791.46875
11.3,1596631791.484375
11.11,1596631791.5
10.72,1596631791.515625
10.09,1596631791.53125
9.14,1596631791.546875
7.89,1596631791.5625
6.41,1596631791.578125
4.9,1596631791.59375
3.55,1596631791.609375
2.46,1596631791.625
1.62,1596631791.640625
0.88,1596631791.65625
0.14,1596631791.671875
-0.64,1596631791.6875
-1.36,1596631791.703125
-1.92,1596631791.71875
-2.24,1596631791.734375
-2.38,1596631791.75
-2.51,1596631791.765625
-2.81,1596631791.78125
-3.38,1596631791.796875
-4.16,1596631791.8125
-5.05,1596631791.828125
-5.88,1596631791.84375
-6.54,1596631791.859375
-7.01,1596631791.875
-7.39,1596631791.890625
-7.78,1596631791.90625
-8.28,1596631791.921875
-8.94,1596631791.9375
-9.8,1596631791.953125
-10.88,1596631791.96875
-12.17,1596631791.984375
-13.67,1596631792.0
-15.27,1596631792.015625
-16.83,1596631792.03125
-18.19,1596631792.046875
-19.28,1596631792.0625
-20.19,1596631792.078125
-21.2,1596631792.09375
-22.64,1596631792.109375
-24.79,1596631792.125
-27.66,1596631792.140625
-30.91,1596631792.15625
-33.88,1596631792.171875
-35.77,1596631792.1875
-35.9,1596631792.203125
-33.93,1596631792.21875
-29.94,1596631792.234375
-24.43,1596631792.25
-18.14,1596631792.265625
-11.88,1596631792.28125
-6.32,1596631792.296875
-1.85,1596631792.3125
1.42,1596631792.328125
3.63,1596631792.34375
5.01,1596631792.359375
5.85,1596631792.375
6.36,1596631792.390625
6.7,1596631792.40625
6.99,1596631792.421875
7.31,1596631792.4375
7.72,1596631792.453125
8.27,1596631792.46875
9.02,1596631792.484375
9.95,1596631792.5
11.04,1596631792.515625
12.23,1596631792.53125
13.5,1596631792.546875
14.78,1596631792.5625
16.04,1596631792.578125
17.2,1596631792.59375
18.17,1596631792.609375
18.89,1596631792.625
19.3,1596631792.640625
19.4,1596631792.65625
19.2,1596631792.671875
18.78,1596631792.6875
18.18,1596631792.703125
17.46,1596631792.71875
16.63,1596631792.734375
15.76,1596631792.75
14.92,1596631792.765625
14.21,1596631792.78125
13.68,1596631792.796875
13.3,1596631792.8125
12.92,1596631792.828125
12.34,1596631792.84375
11.37,1596631792.859375
9.99,1596631792.875
8.35,1596631792.890625
6.72,1596631792.90625
5.36,1596631792.921875
4.36,1596631792.9375
3.64,1596631792.953125
2.92,1596631792.96875
1.96,1596631792.984375
0.67,1596631793.0
-0.87,1596631793.015625
-2.39,1596631793.03125
-3.71,1596631793.046875
-4.76,1596631793.0625
-5.73,1596631793.078125
-6.88,1596631793.09375
-8.44,1596631793.109375
-10.47,1596631793.125
-12.8,1596631793.140625
-15.12,1596631793.15625
-17.11,1596631793.171875
-18.61,1596631793.1875
-19.64,1596631793.203125
-20.4,1596631793.21875
-21.21,1596631793.234375
-22.36,1596631793.25
-24.05,1596631793.265625
-26.37,1596631793.28125
-29.24,1596631793.296875
-32.35,1596631793.3125
-35.19,1596631793.328125
-37.08,1596631793.34375
-37.36,1596631793.359375
-35.57,1596631793.375
-31.68,1596631793.390625
-26.15,1596631793.40625
-19.76,1596631793.421875
-13.4,1596631793.4375
-7.73,1596631793.453125
-3.1,1596631793.46875
0.46,1596631793.484375
3.12,1596631793.5
5.02,1596631793.515625
6.25,1596631793.53125
6.86,1596631793.546875
6.98,1596631793.5625
6.83,1596631793.578125
6.72,1596631793.59375
6.9,1596631793.609375
7.51,1596631793.625
8.49,1596631793.640625
9.67,1596631793.65625
10.84,1596631793.671875
11.86,1596631793.6875
12.71,1596631793.703125
13.43,1596631793.71875
14.15,1596631793.734375
14.92,1596631793.75
15.73,1596631793.765625
16.46,1596631793.78125
16.98,1596631793.796875
17.09,1596631793.8125
16.63,1596631793.828125
15.54,1596631793.84375
13.85,1596631793.859375
11.75,1596631793.875
9.51,1596631793.890625
7.47,1596631793.90625
5.9,1596631793.921875
4.91,1596631793.9375
4.47,1596631793.953125
4.41,1596631793.96875
4.48,1596631793.984375
4.47,1596631794.0
4.23,1596631794.015625
3.69,1596631794.03125
2.86,1596631794.046875
1.78,1596631794.0625
0.59,1596631794.078125
-0.6,1596631794.09375
-1.69,1596631794.109375
-2.64,1596631794.125
-3.48,1596631794.140625
-4.32,1596631794.15625
-5.27,1596631794.171875
-6.42,1596631794.1875
-7.78,1596631794.203125
-9.34,1596631794.21875
-11.06,1596631794.234375
-12.9,1596631794.25
-14.86,1596631794.265625
-16.9,1596631794.28125
-18.99,1596631794.296875
-21.15,1596631794.3125
-23.43,1596631794.328125
-25.86,1596631794.34375
-28.37,1596631794.359375
-30.68,1596631794.375
-32.3,1596631794.390625
-32.6,1596631794.40625
-31.12,1596631794.421875
-27.63,1596631794.4375
-22.43,1596631794.453125
-16.13,1596631794.46875
-9.56,1596631794.484375
-3.49,1596631794.5
1.53,1596631794.515625
5.28,1596631794.53125
7.8,1596631794.546875
9.32,1596631794.5625
10.14,1596631794.578125
10.59,1596631794.59375
10.9,1596631794.609375
11.24,1596631794.625
11.7,1596631794.640625
12.28,1596631794.65625
13.0,1596631794.671875
13.85,1596631794.6875
14.82,1596631794.703125
15.88,1596631794.71875
16.97,1596631794.734375
17.98,1596631794.75
18.83,1596631794.765625
19.43,1596631794.78125
19.81,1596631794.796875
20.05,1596631794.8125
20.25,1596631794.828125
20.41,1596631794.84375
20.47,1596631794.859375
20.26,1596631794.875
19.63,1596631794.890625
18.48,1596631794.90625
16.86,1596631794.921875
14.98,1596631794.9375
13.13,1596631794.953125
11.54,1596631794.96875
10.42,1596631794.984375
9.78,1596631795.0
9.48,1596631795.015625
9.34,1596631795.03125
9.12,1596631795.046875
8.66,1596631795.0625
7.88,1596631795.078125
6.81,1596631795.09375
5.58,1596631795.109375
4.32,1596631795.125
3.16,1596631795.140625
2.12,1596631795.15625
1.18,1596631795.171875
0.22,1596631795.1875
-0.84,1596631795.203125
-2.03,1596631795.21875
-3.3,1596631795.234375
-4.56,1596631795.25
-5.76,1596631795.265625
-6.87,1596631795.28125
-7.95,1596631795.296875
-9.02,1596631795.3125
-10.08,1596631795.328125
-11.1,1596631795.34375
-12.04,1596631795.359375
-12.86,1596631795.375
-13.61,1596631795.390625
-14.33,1596631795.40625
-15.08,1596631795.421875
-15.94,1596631795.4375
-17.02,1596631795.453125
-18.5,1596631795.46875
-20.55,1596631795.484375
-23.18,1596631795.5
-26.27,1596631795.515625
-29.4,1596631795.53125
-31.97,1596631795.546875
-33.34,1596631795.5625
-33.03,1596631795.578125
-30.81,1596631795.59375
-26.82,1596631795.609375
-21.51,1596631795.625
-15.53,1596631795.640625
-9.58,1596631795.65625
-4.26,1596631795.671875
0.06,1596631795.6875
3.31,1596631795.703125
5.57,1596631795.71875
7.07,1596631795.734375
8.03,1596631795.75
8.61,1596631795.765625
9.01,1596631795.78125
9.38,1596631795.796875
9.92,1596631795.8125
10.79,1596631795.828125
12.04,1596631795.84375
13.6,1596631795.859375
15.29,1596631795.875
16.89,1596631795.890625
18.18,1596631795.90625
19.06,1596631795.921875
19.52,1596631795.9375
19.67,1596631795.953125
19.68,1596631795.96875
19.67,1596631795.984375
19.7,1596631796.0
19.69,1596631796.015625
19.51,1596631796.03125
19.05,1596631796.046875
18.26,1596631796.0625
17.22,1596631796.078125
16.08,1596631796.09375
14.95,1596631796.109375
13.86,1596631796.125
12.81,1596631796.140625
11.83,1596631796.15625
11.0,1596631796.171875
10.43,1596631796.1875
10.18,1596631796.203125
10.19,1596631796.21875
10.24,1596631796.234375
10.08,1596631796.25
9.56,1596631796.265625
8.67,1596631796.28125
7.6,1596631796.296875
6.55,1596631796.3125
5.61,1596631796.328125
4.79,1596631796.34375
3.93,1596631796.359375
2.92,1596631796.375
1.75,1596631796.390625
0.53,1596631796.40625
-0.56,1596631796.421875
-1.38,1596631796.4375
-1.93,1596631796.453125
-2.35,1596631796.46875
-2.86,1596631796.484375
-3.64,1596631796.5
-4.77,1596631796.515625
-6.19,1596631796.53125
-7.73,1596631796.546875
-9.22,1596631796.5625
-10.54,1596631796.578125
-11.66,1596631796.59375
-12.65,1596631796.609375
-13.62,1596631796.625
-14.71,1596631796.640625
-16.0,1596631796.65625
-17.59,1596631796.671875
-19.5,1596631796.6875
-21.67,1596631796.703125
-23.86,1596631796.71875
-25.65,1596631796.734375
-26.52,1596631796.75
-26.0,1596631796.765625
-23.85,1596631796.78125
-20.19,1596631796.796875
-15.49,1596631796.8125
-10.4,1596631796.828125
-5.56,1596631796.84375
-1.48,1596631796.859375
1.62,1596631796.875
3.67,1596631796.890625
4.82,1596631796.90625
5.31,1596631796.921875
5.47,1596631796.9375
5.57,1596631796.953125
5.83,1596631796.96875
6.31,1596631796.984375
6.91,1596631797.0
7.52,1596631797.015625
8.06,1596631797.03125
8.55,1596631797.046875
9.11,1596631797.0625
9.82,1596631797.078125
10.69,1596631797.09375
11.59,1596631797.109375
12.32,1596631797.125
12.74,1596631797.140625
12.83,1596631797.15625
12.69,1596631797.171875
12.44,1596631797.1875
12.14,1596631797.203125
11.69,1596631797.21875
10.98,1596631797.234375
9.93,1596631797.25
8.6,1596631797.265625
7.24,1596631797.28125
6.15,1596631797.296875
5.52,1596631797.3125
5.34,1596631797.328125
5.42,1596631797.34375
5.48,1596631797.359375
5.35,1596631797.375
4.98,1596631797.390625
4.45,1596631797.40625
3.91,1596631797.421875
3.43,1596631797.4375
3.03,1596631797.453125
2.68,1596631797.46875
2.31,1596631797.484375
1.85,1596631797.5
1.23,1596631797.515625
0.41,1596631797.53125
-0.58,1596631797.546875
-1.67,1596631797.5625
-2.72,1596631797.578125
-3.61,1596631797.59375
-4.3,1596631797.609375
-4.89,1596631797.625
-5.55,1596631797.640625
-6.42,1596631797.65625
-7.52,1596631797.671875
-8.75,1596631797.6875
-9.96,1596631797.703125
-11.01,1596631797.71875
-11.85,1596631797.734375
-12.52,1596631797.75
-13.15,1596631797.765625
-13.9,1596631797.78125
-14.91,1596631797.796875
-16.27,1596631797.8125
-17.98,1596631797.828125
-19.89,1596631797.84375
-21.71,1596631797.859375
-23.04,1596631797.875
-23.48,1596631797.890625
-22.71,1596631797.90625
-20.62,1596631797.921875
-17.36,1596631797.9375
-13.29,1596631797.953125
-8.93,1596631797.96875
-4.81,1596631797.984375
-1.37,1596631798.0
1.14,1596631798.015625
2.69,1596631798.03125
3.42,1596631798.046875
3.59,1596631798.0625
3.43,1596631798.078125
3.17,1596631798.09375
2.92,1596631798.109375
2.8,1596631798.125
2.91,1596631798.140625
3.32,1596631798.15625
4.05,1596631798.171875
5.06,1596631798.1875
6.24,1596631798.203125
7.39,1596631798.21875
8.37,1596631798.234375
9.09,1596631798.25
9.52,1596631798.265625
9.69,1596631798.28125
9.61,1596631798.296875
9.34,1596631798.3125
8.91,1596631798.328125
8.38,1596631798.34375
7.82,1596631798.359375
7.25,1596631798.375
6.65,1596631798.390625
5.98,1596631798.40625
5.19,1596631798.421875
4.34,1596631798.4375
3.57,1596631798.453125
3.07,1596631798.46875
2.9,1596631798.484375
3.05,1596631798.5
3.29,1596631798.515625
3.4,1596631798.53125
3.22,1596631798.546875
2.76,1596631798.5625
2.12,1596631798.578125
1.44,1596631798.59375
0.81,1596631798.609375
0.21,1596631798.625
-0.39,1596631798.640625
-1.0,1596631798.65625
-1.59,1596631798.671875
-2.11,1596631798.6875
-2.56,1596631798.703125
-3.02,1596631798.71875
-3.58,1596631798.734375
-4.31,1596631798.75
-5.15,1596631798.765625
-5.99,1596631798.78125
-6.72,1596631798.796875
-7.33,1596631798.8125
-7.94,1596631798.828125
-8.69,1596631798.84375
-9.67,1596631798.859375
-10.84,1596631798.875
-12.03,1596631798.890625
-13.06,1596631798.90625
-13.84,1596631798.921875
-14.47,1596631798.9375
-15.18,1596631798.953125
-16.18,1596631798.96875
-17.59,1596631798.984375
-19.31,1596631799.0
-21.09,1596631799.015625
-22.54,1596631799.03125
-23.32,1596631799.046875
-23.14,1596631799.0625
-21.89,1596631799.078125
-19.56,1596631799.09375
-16.33,1596631799.109375
-12.51,1596631799.125
-8.53,1596631799.140625
-4.86,1596631799.15625
-1.83,1596631799.171875
0.39,1596631799.1875
1.84,1596631799.203125
2.73,1596631799.21875
3.33,1596631799.234375
3.85,1596631799.25
4.37,1596631799.265625
4.89,1596631799.28125
5.38,1596631799.296875
5.85,1596631799.3125
6.32,1596631799.328125
6.86,1596631799.34375
7.47,1596631799.359375
8.09,1596631799.375
8.63,1596631799.390625
9.05,1596631799.40625
9.34,1596631799.421875
9.58,1596631799.4375
9.84,1596631799.453125
10.13,1596631799.46875
10.35,1596631799.484375
10.33,1596631799.5
9.94,1596631799.515625
9.17,1596631799.53125
8.17,1596631799.546875
7.17,1596631799.5625
6.39,1596631799.578125
5.93,1596631799.59375
5.73,1596631799.609375
5.66,1596631799.625
5.58,1596631799.640625
5.43,1596631799.65625
5.21,1596631799.671875
4.93,1596631799.6875
4.64,1596631799.703125
4.31,1596631799.71875
3.97,1596631799.734375
3.66,1596631799.75
3.41,1596631799.765625
3.26,1596631799.78125
3.14,1596631799.796875
2.95,1596631799.8125
2.57,1596631799.828125
1.97,1596631799.84375
1.16,1596631799.859375
0.26,1596631799.875
-0.67,1596631799.890625
-1.57,1596631799.90625
-2.42,1596631799.921875
-3.18,1596631799.9375
-3.79,1596631799.953125
-4.24,1596631799.96875
-4.55,1596631799.984375
-4.83,1596631800.0
-5.25,1596631800.015625
-5.96,1596631800.03125
-7.01,1596631800.046875
-8.29,1596631800.0625
-9.64,1596631800.078125
-10.81,1596631800.09375
-11.66,1596631800.109375
-12.18,1596631800.125
-12.53,1596631800.140625
-12.97,1596631800.15625
-13.79,1596631800.171875
-15.17,1596631800.1875
-17.12,1596631800.203125
-19.46,1596631800.21875
-21.83,1596631800.234375
-23.84,1596631800.25
-25.11,1596631800.265625
-25.34,1596631800.28125
-24.39,1596631800.296875
-22.21,1596631800.3125
-18.88,1596631800.328125
-14.7,1596631800.34375
-10.09,1596631800.359375
-5.58,1596631800.375
-1.7,1596631800.390625
1.18,1596631800.40625
2.92,1596631800.421875
3.62,1596631800.4375
3.56,1596631800.453125
3.11,1596631800.46875
2.6,1596631800.484375
2.27,1596631800.5
2.25,1596631800.515625
2.61,1596631800.53125
3.36,1596631800.546875
4.49,1596631800.5625
5.92,1596631800.578125
7.56,1596631800.59375
9.22,1596631800.609375
10.7,1596631800.625
11.84,1596631800.640625
12.54,1596631800.65625
12.82,1596631800.671875
12.79,1596631800.6875
12.6,1596631800.703125
12.34,1596631800.71875
12.05,1596631800.734375
11.66,1596631800.75
11.1,1596631800.765625
10.32,1596631800.78125
9.34,1596631800.796875
8.25,1596631800.8125
7.2,1596631800.828125
6.26,1596631800.84375
5.49,1596631800.859375
4.86,1596631800.875
4.29,1596631800.890625
3.73,1596631800.90625
3.18,1596631800.921875
2.64,1596631800.9375
2.15,1596631800.953125
1.74,1596631800.96875
1.42,1596631800.984375
1.15,1596631801.0
0.86,1596631801.015625
0.46,1596631801.03125
-0.11,1596631801.046875
-0.88,1596631801.0625
-1.8,1596631801.078125
-2.77,1596631801.09375
-3.7,1596631801.109375
-4.54,1596631801.125
-5.3,1596631801.140625
-6.03,1596631801.15625
-6.81,1596631801.171875
-7.65,1596631801.1875
-8.55,1596631801.203125
-9.46,1596631801.21875
-10.3,1596631801.234375
-11.09,1596631801.25
-11.88,1596631801.265625
-12.77,1596631801.28125
-13.83,1596631801.296875
-15.06,1596631801.3125
-16.42,1596631801.328125
-17.87,1596631801.34375
-19.46,1596631801.359375
-21.27,1596631801.375
-23.33,1596631801.390625
-25.5,1596631801.40625
-27.38,1596631801.421875
-28.36,1596631801.4375
-27.82,1596631801.453125
-25.47,1596631801.46875
-21.46,1596631801.484375
-16.44,1596631801.5
-11.26,1596631801.515625
-6.7,1596631801.53125
-3.18,1596631801.546875
-0.7,1596631801.5625
0.98,1596631801.578125
2.2,1596631801.59375
3.17,1596631801.609375
3.93,1596631801.625
4.42,1596631801.640625
4.63,1596631801.65625
4.6,1596631801.671875
4.53,1596631801.6875
4.59,1596631801.703125
4.95,1596631801.71875
5.64,1596631801.734375
6.57,1596631801.75
7.62,1596631801.765625
8.71,1596631801.78125
9.73,1596631801.796875
10.66,1596631801.8125
11.46,1596631801.828125
12.11,1596631801.84375
12.58,1596631801.859375
12.85,1596631801.875
12.93,1596631801.890625
12.81,1596631801.90625
12.53,1596631801.921875
12.09,1596631801.9375
11.5,1596631801.953125
10.79,1596631801.96875
10.0,1596631801.984375
9.21,1596631802.0
8.53,1596631802.015625
8.03,1596631802.03125
7.69,1596631802.046875
7.41,1596631802.0625
7.03,1596631802.078125
6.42,1596631802.09375
5.51,1596631802.109375
4.4,1596631802.125
3.23,1596631802.140625
2.22,1596631802.15625
1.48,1596631802.171875
0.98,1596631802.1875
0.64,1596631802.203125
0.32,1596631802.21875
-0.02,1596631802.234375
-0.4,1596631802.25
-0.76,1596631802.265625
-1.16,1596631802.28125
-1.73,1596631802.296875
-2.66,1596631802.3125
-4.06,1596631802.328125
-5.95,1596631802.34375
-8.18,1596631802.359375
-10.53,1596631802.375
-12.75,1596631802.390625
-14.68,1596631802.40625
-16.22,1596631802.421875
-17.4,1596631802.4375
-18.32,1596631802.453125
-19.17,1596631802.46875
-20.2,1596631802.484375
-21.67,1596631802.5
-23.75,1596631802.515625
-26.43,1596631802.53125
-29.39,1596631802.546875
-32.06,1596631802.5625
-33.66,1596631802.578125
-33.53,1596631802.59375
-31.31,1596631802.609375
-27.13,1596631802.625
-21.56,1596631802.640625
-15.47,1596631802.65625
-9.67,1596631802.671875
-4.71,1596631802.6875
-0.78,1596631802.703125
2.19,1596631802.71875
4.37,1596631802.734375
5.92,1596631802.75
6.91,1596631802.765625
7.43,1596631802.78125
7.64,1596631802.796875
7.8,1596631802.8125
8.18,1596631802.828125
8.95,1596631802.84375
10.1,1596631802.859375
11.47,1596631802.875
12.8,1596631802.890625
13.9,1596631802.90625
14.71,1596631802.921875
15.35,1596631802.9375
16.03,1596631802.953125
16.87,1596631802.96875
17.88,1596631802.984375
18.87,1596631803.0
19.56,1596631803.015625
19.68,1596631803.03125
19.16,1596631803.046875
18.08,1596631803.0625
16.73,1596631803.078125
15.38,1596631803.09375
14.21,1596631803.109375
13.29,1596631803.125
12.58,1596631803.140625
12.02,1596631803.15625
11.52,1596631803.171875
11.04,1596631803.1875
10.55,1596631803.203125
10.04,1596631803.21875
9.46,1596631803.234375
8.78,1596631803.25
7.99,1596631803.265625
7.08,1596631803.28125
6.09,1596631803.296875
5.13,1596631803.3125
4.31,1596631803.328125
3.74,1596631803.34375
3.41,1596631803.359375
3.19,1596631803.375
2.89,1596631803.390625
2.32,1596631803.40625
1.37,1596631803.421875
0.11,1596631803.4375
-1.3,1596631803.453125
-2.72,1596631803.46875
-4.04,1596631803.484375
-5.34,1596631803.5
-6.71,1596631803.515625
-8.25,1596631803.53125
-9.96,1596631803.546875
-11.71,1596631803.5625
-13.34,1596631803.578125
-14.74,1596631803.59375
-15.94,1596631803.609375
-17.09,1596631803.625
-18.52,1596631803.640625
-20.49,1596631803.65625
-23.12,1596631803.671875
-26.24,1596631803.6875
-29.36,1596631803.703125
-31.79,1596631803.71875
-32.81,1596631803.734375
-31.92,1596631803.75
-28.96,1596631803.765625
-24.23,1596631803.78125
-18.31,1596631803.796875
-11.95,1596631803.8125
-5.82,1596631803.828125
-0.43,1596631803.84375
3.91,1596631803.859375
7.12,1596631803.875
9.24,1596631803.890625
10.42,1596631803.90625
10.89,1596631803.921875
10.94,1596631803.9375
10.84,1596631803.953125
10.83,1596631803.96875
10.98,1596631803.984375
11.31,1596631804.0
11.76,1596631804.015625
12.27,1596631804.03125
12.87,1596631804.046875
13.64,1596631804.0625
14.65,1596631804.078125
15.97,1596631804.09375
17.54,1596631804.109375
19.19,1596631804.125
20.64,1596631804.140625
21.62,1596631804.15625
21.95,1596631804.171875
21.6,1596631804.1875
20.69,1596631804.203125
19.49,1596631804.21875
18.26,1596631804.234375
17.19,1596631804.25
16.31,1596631804.265625
15.57,1596631804.28125
14.84,1596631804.296875
14.04,1596631804.3125
13.11,1596631804.328125
12.08,1596631804.34375
11.01,1596631804.359375
9.97,1596631804.375
9.03,1596631804.390625
8.24,1596631804.40625
7.63,1596631804.421875
7.17,1596631804.4375
6.75,1596631804.453125
6.23,1596631804.46875
5.46,1596631804.484375
4.39,1596631804.5
3.07,1596631804.515625
1.64,1596631804.53125
0.24,1596631804.546875
-1.04,1596631804.5625
-2.26,1596631804.578125
-3.53,1596631804.59375
-5.0,1596631804.609375
-6.73,1596631804.625
-8.69,1596631804.640625
-10.72,1596631804.65625
-12.64,1596631804.671875
-14.31,1596631804.6875
-15.68,1596631804.703125
-16.82,1596631804.71875
-17.89,1596631804.734375
-19.18,1596631804.75
-21.01,1596631804.765625
-23.61,1596631804.78125
-26.98,1596631804.796875
-30.74,1596631804.8125
-34.13,1596631804.828125
-36.17,1596631804.84375
-36.01,1596631804.859375
-33.23,1596631804.875
-28.03,1596631804.890625
-21.18,1596631804.90625
-13.75,1596631804.921875
-6.74,1596631804.9375
-0.84,1596631804.953125
3.66,1596631804.96875
6.79,1596631804.984375
8.77,1596631805.0
9.85,1596631805.015625
10.33,1596631805.03125
10.48,1596631805.046875
10.62,1596631805.0625
11.01,1596631805.078125
11.84,1596631805.09375
13.12,1596631805.109375
14.73,1596631805.125
16.46,1596631805.140625
18.06,1596631805.15625
19.42,1596631805.171875
20.51,1596631805.1875
21.37,1596631805.203125
22.06,1596631805.21875
22.57,1596631805.234375
22.85,1596631805.25
22.79,1596631805.265625
22.35,1596631805.28125
21.56,1596631805.296875
20.54,1596631805.3125
19.42,1596631805.328125
18.31,1596631805.34375
17.2,1596631805.359375
16.07,1596631805.375
14.89,1596631805.390625
13.69,1596631805.40625
12.6,1596631805.421875
11.73,1596631805.4375
11.1,1596631805.453125
10.65,1596631805.46875
10.26,1596631805.484375
9.76,1596631805.5
9.1,1596631805.515625
8.28,1596631805.53125
7.37,1596631805.546875
6.44,1596631805.5625
5.51,1596631805.578125
4.53,1596631805.59375
3.46,1596631805.609375
2.27,1596631805.625
1.0,1596631805.640625
-0.29,1596631805.65625
-1.51,1596631805.671875
-2.64,1596631805.6875
-3.68,1596631805.703125
-4.68,1596631805.71875
-5.67,1596631805.734375
-6.7,1596631805.75
-7.8,1596631805.765625
-9.03,1596631805.78125
-10.43,1596631805.796875
-11.98,1596631805.8125
-13.59,1596631805.828125
-15.08,1596631805.84375
-16.28,1596631805.859375
-17.1,1596631805.875
-17.63,1596631805.890625
-18.09,1596631805.90625
-18.82,1596631805.921875
-20.08,1596631805.9375
-21.97,1596631805.953125
-24.37,1596631805.96875
-26.97,1596631805.984375
-29.23,1596631806.0
-30.56,1596631806.015625
-30.4,1596631806.03125
-28.41,1596631806.046875
-24.55,1596631806.0625
-19.16,1596631806.078125
-12.86,1596631806.09375
-6.42,1596631806.109375
-0.54,1596631806.125
4.27,1596631806.140625
7.79,1596631806.15625
10.08,1596631806.171875
11.39,1596631806.1875
12.05,1596631806.203125
12.38,1596631806.21875
12.63,1596631806.234375
12.91,1596631806.25
13.25,1596631806.265625
13.63,1596631806.28125
14.07,1596631806.296875
14.65,1596631806.3125
15.46,1596631806.328125
16.51,1596631806.34375
17.73,1596631806.359375
18.94,1596631806.375
19.96,1596631806.390625
20.64,1596631806.40625
20.97,1596631806.421875
20.99,1596631806.4375
20.78,1596631806.453125
20.4,1596631806.46875
19.86,1596631806.484375
19.13,1596631806.5
18.2,1596631806.515625
17.11,1596631806.53125
15.91,1596631806.546875
14.66,1596631806.5625
13.41,1596631806.578125
12.21,1596631806.59375
11.05,1596631806.609375
9.91,1596631806.625
8.78,1596631806.640625
7.67,1596631806.65625
6.65,1596631806.671875
5.8,1596631806.6875
5.16,1596631806.703125
4.77,1596631806.71875
4.55,1596631806.734375
4.36,1596631806.75
4.0,1596631806.765625
3.32,1596631806.78125
2.26,1596631806.796875
0.87,1596631806.8125
-0.68,1596631806.828125
-2.16,1596631806.84375
-3.41,1596631806.859375
-4.36,1596631806.875
-5.1,1596631806.890625
-5.79,1596631806.90625
-6.61,1596631806.921875
-7.68,1596631806.9375
-9.01,1596631806.953125
-10.51,1596631806.96875
-12.06,1596631806.984375
-13.56,1596631807.0
-15.02,1596631807.015625
-16.48,1596631807.03125
-18.04,1596631807.046875
-19.74,1596631807.0625
-21.65,1596631807.078125
-23.75,1596631807.09375
-26.0,1596631807.109375
-28.24,1596631807.125
-30.19,1596631807.140625
-31.37,1596631807.15625
-31.28,1596631807.171875
-29.48,1596631807.1875
-25.82,1596631807.203125
-20.54,1596631807.21875
-14.28,1596631807.234375
-7.87,1596631807.25
-2.11,1596631807.265625
2.5,1596631807.28125
5.85,1596631807.296875
8.16,1596631807.3125
9.78,1596631807.328125
11.03,1596631807.34375
12.08,1596631807.359375
12.96,1596631807.375
13.66,1596631807.390625
14.22,1596631807.40625
14.78,1596631807.421875
15.47,1596631807.4375
16.33,1596631807.453125
17.29,1596631807.46875
18.16,1596631807.484375
18.81,1596631807.5
19.23,1596631807.515625
19.48,1596631807.53125
19.7,1596631807.546875
19.94,1596631807.5625
20.09,1596631807.578125
19.98,1596631807.59375
19.45,1596631807.609375
18.47,1596631807.625
17.15,1596631807.640625
15.66,1596631807.65625
14.12,1596631807.671875
12.56,1596631807.6875
10.94,1596631807.703125
9.26,1596631807.71875
7.6,1596631807.734375
6.09,1596631807.75
4.88,1596631807.765625
4.01,1596631807.78125
3.42,1596631807.796875
2.97,1596631807.8125
2.55,1596631807.828125
2.14,1596631807.84375
1.8,1596631807.859375
1.64,1596631807.875
1.69,1596631807.890625
1.89,1596631807.90625
2.08,1596631807.921875
2.1,1596631807.9375
1.81,1596631807.953125
1.19,1596631807.96875
0.31,1596631807.984375
-0.71,1596631808.0
-1.69,1596631808.015625
-2.53,1596631808.03125
-3.15,1596631808.046875
-3.54,1596631808.0625
-3.7,1596631808.078125
-3.65,1596631808.09375
-3.44,1596631808.109375
-3.14,1596631808.125
-2.96,1596631808.140625
-3.18,1596631808.15625
-4.01,1596631808.171875
-5.48,1596631808.1875
-7.33,1596631808.203125
-9.1,1596631808.21875
-10.32,1596631808.234375
-10.77,1596631808.25
-10.62,1596631808.265625
-10.36,1596631808.28125
-10.59,1596631808.296875
-11.7,1596631808.3125
-13.71,1596631808.328125
-16.26,1596631808.34375
-18.74,1596631808.359375
-20.51,1596631808.375
-21.1,1596631808.390625
-20.3,1596631808.40625
-18.13,1596631808.421875
-14.86,1596631808.4375
-10.88,1596631808.453125
-6.63,1596631808.46875
-2.58,1596631808.484375
0.86,1596631808.5
3.37,1596631808.515625
4.78,1596631808.53125
5.12,1596631808.546875
4.65,1596631808.5625
3.78,1596631808.578125
2.95,1596631808.59375
2.5,1596631808.609375
2.54,1596631808.625
2.96,1596631808.640625
3.57,1596631808.65625
4.17,1596631808.671875
4.68,1596631808.6875
5.15,1596631808.703125
5.63,1596631808.71875
6.2,1596631808.734375
6.88,1596631808.75
7.64,1596631808.765625
8.43,1596631808.78125
9.11,1596631808.796875
9.56,1596631808.8125
9.62,1596631808.828125
9.21,1596631808.84375
8.41,1596631808.859375
7.41,1596631808.875
6.47,1596631808.890625
5.78,1596631808.90625
5.35,1596631808.921875
5.09,1596631808.9375
4.87,1596631808.953125
4.62,1596631808.96875
4.38,1596631808.984375
4.21,1596631809.0
4.13,1596631809.015625
4.11,1596631809.03125
4.01,1596631809.046875
3.72,1596631809.0625
3.19,1596631809.078125
2.49,1596631809.09375
1.7,1596631809.109375
0.94,1596631809.125
0.26,1596631809.140625
-0.38,1596631809.15625
-1.07,1596631809.171875
-1.92,1596631809.1875
-2.97,1596631809.203125
-4.16,1596631809.21875
-5.36,1596631809.234375
-6.44,1596631809.25
-7.36,1596631809.265625
-8.17,1596631809.28125
-9.01,1596631809.296875
-9.97,1596631809.3125
-11.04,1596631809.328125
-12.15,1596631809.34375
-13.26,1596631809.359375
-14.42,1596631809.375
-15.76,1596631809.390625
-17.38,1596631809.40625
-19.21,1596631809.421875
-20.92,1596631809.4375
-22.01,1596631809.453125
-22.05,1596631809.46875
-20.79,1596631809.484375
-18.3,1596631809.5
-14.9,1596631809.515625
-11.01,1596631809.53125
-7.05,1596631809.546875
-3.39,1596631809.5625
-0.31,1596631809.578125
2.0,1596631809.59375
3.45,1596631809.609375
4.13,1596631809.625
4.2,1596631809.640625
3.93,1596631809.65625
3.53,1596631809.671875
3.2,1596631809.6875
3.02,1596631809.703125
3.06,1596631809.71875
3.42,1596631809.734375
4.14,1596631809.75
5.21,1596631809.765625
6.5,1596631809.78125
7.74,1596631809.796875
8.7,1596631809.8125
9.24,1596631809.828125
9.36,1596631809.84375
9.18,1596631809.859375
8.9,1596631809.875
8.64,1596631809.890625
8.41,1596631809.90625
8.16,1596631809.921875
7.82,1596631809.9375
7.3,1596631809.953125
6.61,1596631809.96875
5.82,1596631809.984375
5.02,1596631810.0
4.29,1596631810.015625
3.7,1596631810.03125
3.22,1596631810.046875
2.82,1596631810.0625
2.43,1596631810.078125
2.03,1596631810.09375
1.63,1596631810.109375
1.26,1596631810.125
0.95,1596631810.140625
0.69,1596631810.15625
0.39,1596631810.171875
-0.02,1596631810.1875
-0.57,1596631810.203125
-1.22,1596631810.21875
-1.89,1596631810.234375
-2.49,1596631810.25
-3.06,1596631810.265625
-3.68,1596631810.28125
-4.49,1596631810.296875
-5.57,1596631810.3125
-6.82,1596631810.328125
-8.09,1596631810.34375
-9.17,1596631810.359375
-9.89,1596631810.375
-10.25,1596631810.390625
-10.38,1596631810.40625
-10.53,1596631810.421875
-10.96,1596631810.4375
-11.86,1596631810.453125
-13.36,1596631810.46875
-15.37,1596631810.484375
-17.66,1596631810.5
-19.81,1596631810.515625
-21.27,1596631810.53125
-21.54,1596631810.546875
-20.28,1596631810.5625
-17.49,1596631810.578125
-13.49,1596631810.59375
-8.9,1596631810.609375
-4.39,1596631810.625
-0.55,1596631810.640625
2.3,1596631810.65625
4.09,1596631810.671875
5.02,1596631810.6875
5.35,1596631810.703125
5.32,1596631810.71875
5.07,1596631810.734375
4.71,1596631810.75
4.3,1596631810.765625
3.94,1596631810.78125
3.7,1596631810.796875
3.66,1596631810.8125
3.8,1596631810.828125
4.12,1596631810.84375
4.61,1596631810.859375
5.29,1596631810.875
6.19,1596631810.890625
7.26,1596631810.90625
8.41,1596631810.921875
9.41,1596631810.9375
10.07,1596631810.953125
10.27,1596631810.96875
10.04,1596631810.984375
9.51,1596631811.0
8.82,1596631811.015625
8.05,1596631811.03125
7.19,1596631811.046875
6.23,1596631811.0625
5.21,1596631811.078125
4.27,1596631811.09375
3.55,1596631811.109375
3.15,1596631811.125
3.02,1596631811.140625
3.03,1596631811.15625
2.97,1596631811.171875
2.76,1596631811.1875
2.4,1596631811.203125
1.99,1596631811.21875
1.59,1596631811.234375
1.18,1596631811.25
0.63,1596631811.265625
-0.15,1596631811.28125
-1.17,1596631811.296875
-2.29,1596631811.3125
-3.3,1596631811.328125
-4.02,1596631811.34375
-4.39,1596631811.359375
-4.58,1596631811.375
-4.83,1596631811.390625
-5.43,1596631811.40625
-6.49,1596631811.421875
-7.94,1596631811.4375
-9.56,1596631811.453125
-11.05,1596631811.46875
-12.22,1596631811.484375
-13.06,1596631811.5
-13.75,1596631811.515625
-14.59,1596631811.53125
-15.83,1596631811.546875
-17.58,1596631811.5625
-19.71,1596631811.578125
-21.91,1596631811.59375
-23.72,1596631811.609375
-24.72,1596631811.625
-24.56,1596631811.640625
-23.05,1596631811.65625
-20.25,1596631811.671875
-16.43,1596631811.6875
-12.06,1596631811.703125
-7.7,1596631811.71875
-3.86,1596631811.734375
-0.84,1596631811.75
1.29,1596631811.765625
2.64,1596631811.78125
3.45,1596631811.796875
3.97,1596631811.8125
4.37,1596631811.828125
4.77,1596631811.84375
5.22,1596631811.859375
5.79,1596631811.875
6.5,1596631811.890625
7.3,1596631811.90625
8.07,1596631811.921875
8.71,1596631811.9375
9.17,1596631811.953125
9.47,1596631811.96875
9.74,1596631811.984375
10.11,1596631812.0
10.63,1596631812.015625
11.25,1596631812.03125
11.81,1596631812.046875
12.13,1596631812.0625
12.1,1596631812.078125
11.7,1596631812.09375
11.03,1596631812.109375
10.27,1596631812.125
9.58,1596631812.140625
9.01,1596631812.15625
8.53,1596631812.171875
8.06,1596631812.1875
7.52,1596631812.203125
6.94,1596631812.21875
6.36,1596631812.234375
5.88,1596631812.25
5.54,1596631812.265625
5.27,1596631812.28125
4.98,1596631812.296875
4.55,1596631812.3125
3.96,1596631812.328125
3.29,1596631812.34375
2.69,1596631812.359375
2.27,1596631812.375
2.08,1596631812.390625
2.06,1596631812.40625
2.01,1596631812.421875
1.77,1596631812.4375
1.23,1596631812.453125
0.37,1596631812.46875
-0.73,1596631812.484375
-1.88,1596631812.5
-2.94,1596631812.515625
-3.81,1596631812.53125
-4.5,1596631812.546875
-5.09,1596631812.5625
-5.7,1596631812.578125
-6.42,1596631812.59375
-7.24,1596631812.609375
-8.07,1596631812.625
-8.83,1596631812.640625
-9.46,1596631812.65625
-10.0,1596631812.671875
-10.57,1596631812.6875
-11.32,1596631812.703125
-12.33,1596631812.71875
-13.62,1596631812.734375
-15.16,1596631812.75
-16.9,1596631812.765625
-18.77,1596631812.78125
-20.66,1596631812.796875
-22.32,1596631812.8125
-23.39,1596631812.828125
-23.4,1596631812.84375
-21.98,1596631812.859375
-19.04,1596631812.875
-14.88,1596631812.890625
-10.15,1596631812.90625
-5.57,1596631812.921875
-1.76,1596631812.9375
0.99,1596631812.953125
2.76,1596631812.96875
3.85,1596631812.984375
4.58,1596631813.0
5.16,1596631813.015625
5.61,1596631813.03125
5.88,1596631813.046875
5.93,1596631813.0625
5.79,1596631813.078125
5.64,1596631813.09375
5.72,1596631813.109375
6.25,1596631813.125
7.31,1596631813.140625
8.8,1596631813.15625
10.46,1596631813.171875
11.93,1596631813.1875
12.95,1596631813.203125
13.4,1596631813.21875
13.37,1596631813.234375
13.11,1596631813.25
12.85,1596631813.265625
12.7,1596631813.28125
12.57,1596631813.296875
12.28,1596631813.3125
11.66,1596631813.328125
10.71,1596631813.34375
9.59,1596631813.359375
8.52,1596631813.375
7.69,1596631813.390625
7.09,1596631813.40625
6.58,1596631813.421875
5.97,1596631813.4375
5.18,1596631813.453125
4.31,1596631813.46875
3.55,1596631813.484375
3.1,1596631813.5
2.99,1596631813.515625
3.11,1596631813.53125
3.17,1596631813.546875
2.89,1596631813.5625
2.09,1596631813.578125
0.82,1596631813.59375
-0.72,1596631813.609375
-2.19,1596631813.625
-3.33,1596631813.640625
-4.07,1596631813.65625
-4.55,1596631813.671875
-5.06,1596631813.6875
-5.84,1596631813.703125
-6.96,1596631813.71875
-8.28,1596631813.734375
-9.52,1596631813.75
-10.45,1596631813.765625
-11.03,1596631813.78125
-11.47,1596631813.796875
-12.01,1596631813.8125
-12.83,1596631813.828125
-13.97,1596631813.84375
-15.36,1596631813.859375
-16.94,1596631813.875
-18.72,1596631813.890625
-20.72,1596631813.90625
-22.79,1596631813.921875
-24.55,1596631813.9375
-25.44,1596631813.953125
-24.93,1596631813.96875
-22.76,1596631813.984375
-19.12,1596631814.0
-14.57,1596631814.015625
-9.79,1596631814.03125
-5.37,1596631814.046875
-1.65,1596631814.0625
1.31,1596631814.078125
3.6,1596631814.09375
5.31,1596631814.109375
6.51,1596631814.125
7.26,1596631814.140625
7.65,1596631814.15625
7.78,1596631814.171875
7.84,1596631814.1875
8.01,1596631814.203125
8.41,1596631814.21875
9.1,1596631814.234375
10.03,1596631814.25
11.1,1596631814.265625
12.18,1596631814.28125
13.17,1596631814.296875
13.99,1596631814.3125
14.6,1596631814.328125
14.99,1596631814.34375
15.18,1596631814.359375
15.19,1596631814.375
15.04,1596631814.390625
14.71,1596631814.40625
14.19,1596631814.421875
13.45,1596631814.4375
12.49,1596631814.453125
11.33,1596631814.46875
10.06,1596631814.484375
8.82,1596631814.5
7.75,1596631814.515625
6.97,1596631814.53125
6.53,1596631814.546875
6.35,1596631814.5625
6.34,1596631814.578125
6.4,1596631814.59375
6.47,1596631814.609375
6.51,1596631814.625
6.53,1596631814.640625
6.5,1596631814.65625
6.36,1596631814.671875
6.04,1596631814.6875
5.5,1596631814.703125
4.8,1596631814.71875
4.07,1596631814.734375
3.48,1596631814.75
3.15,1596631814.765625
3.08,1596631814.78125
3.1,1596631814.796875
3.0,1596631814.8125
2.58,1596631814.828125
1.8,1596631814.84375
0.81,1596631814.859375
-0.17,1596631814.875
-1.0,1596631814.890625
-1.7,1596631814.90625
-2.45,1596631814.921875
-3.5,1596631814.9375
-4.92,1596631814.953125
-6.59,1596631814.96875
-8.23,1596631814.984375
-9.55,1596631815.0
-10.43,1596631815.015625
-11.0,1596631815.03125
-11.55,1596631815.046875
-12.4,1596631815.0625
-13.79,1596631815.078125
-15.79,1596631815.09375
-18.28,1596631815.109375
-20.97,1596631815.125
-23.43,1596631815.140625
-25.12,1596631815.15625
-25.58,1596631815.171875
-24.5,1596631815.1875
-21.87,1596631815.203125
-18.01,1596631815.21875
-13.44,1596631815.234375
-8.78,1596631815.25
-4.48,1596631815.265625
-0.9,1596631815.28125
1.82,1596631815.296875
3.65,1596631815.3125
4.68,1596631815.328125
5.07,1596631815.34375
5.06,1596631815.359375
4.93,1596631815.375
4.9,1596631815.390625
5.09,1596631815.40625
5.56,1596631815.421875
6.28,1596631815.4375
7.21,1596631815.453125
8.29,1596631815.46875
9.47,1596631815.484375
10.66,1596631815.5
11.78,1596631815.515625
12.75,1596631815.53125
13.5,1596631815.546875
14.03,1596631815.5625
14.32,1596631815.578125
14.34,1596631815.59375
14.07,1596631815.609375
13.53,1596631815.625
12.77,1596631815.640625
11.92,1596631815.65625
11.06,1596631815.671875
10.23,1596631815.6875
9.46,1596631815.703125
8.7,1596631815.71875
7.99,1596631815.734375
7.38,1596631815.75
6.99,1596631815.765625
6.86,1596631815.78125
6.95,1596631815.796875
7.16,1596631815.8125
7.33,1596631815.828125
7.38,1596631815.84375
7.27,1596631815.859375
7.02,1596631815.875
6.65,1596631815.890625
6.16,1596631815.90625
5.5,1596631815.921875
4.66,1596631815.9375
3.69,1596631815.953125
2.7,1596631815.96875
1.84,1596631815.984375
1.21,1596631816.0
0.79,1596631816.015625
0.45,1596631816.03125
-0.01,1596631816.046875
-0.75,1596631816.0625
-1.83,1596631816.078125
-3.15,1596631816.09375
-4.56,1596631816.109375
-5.89,1596631816.125
-7.07,1596631816.140625
-8.09,1596631816.15625
-9.04,1596631816.171875
-9.97,1596631816.1875
-10.92,1596631816.203125
-11.87,1596631816.21875
-12.82,1596631816.234375
-13.84,1596631816.25
-15.08,1596631816.265625
-16.72,1596631816.28125
-18.87,1596631816.296875
-21.42,1596631816.3125
-24.04,1596631816.328125
-26.17,1596631816.34375
-27.19,1596631816.359375
-26.63,1596631816.375
-24.34,1596631816.390625
-20.56,1596631816.40625
-15.81,1596631816.421875
-10.76,1596631816.4375
-6.0,1596631816.453125
-1.91,1596631816.46875
1.36,1596631816.484375
3.83,1596631816.5
5.57,1596631816.515625
6.63,1596631816.53125
7.03,1596631816.546875
6.83,1596631816.5625
6.15,1596631816.578125
5.27,1596631816.59375
4.48,1596631816.609375
4.11,1596631816.625
4.34,1596631816.640625
5.22,1596631816.65625
6.63,1596631816.671875
8.36,1596631816.6875
10.14,1596631816.703125
11.72,1596631816.71875
12.95,1596631816.734375
13.78,1596631816.75
14.23,1596631816.765625
14.37,1596631816.78125
14.21,1596631816.796875
13.75,1596631816.8125
12.99,1596631816.828125
11.97,1596631816.84375
10.84,1596631816.859375
9.83,1596631816.875
9.09,1596631816.890625
8.69,1596631816.90625
8.51,1596631816.921875
8.3,1596631816.9375
7.86,1596631816.953125
7.13,1596631816.96875
6.21,1596631816.984375
5.35,1596631817.0
4.78,1596631817.015625
4.56,1596631817.03125
4.59,1596631817.046875
4.63,1596631817.0625
4.42,1596631817.078125
3.86,1596631817.09375
2.96,1596631817.109375
1.92,1596631817.125
0.86,1596631817.140625
-0.13,1596631817.15625
-1.09,1596631817.171875
-2.06,1596631817.1875
-3.09,1596631817.203125
-4.15,1596631817.21875
-5.19,1596631817.234375
-6.25,1596631817.25
-7.41,1596631817.265625
-8.77,1596631817.28125
-10.34,1596631817.296875
-11.98,1596631817.3125
-13.47,1596631817.328125
-14.61,1596631817.34375
-15.46,1596631817.359375
-16.24,1596631817.375
-17.36,1596631817.390625
-19.14,1596631817.40625
-21.66,1596631817.421875
-24.71,1596631817.4375
-27.77,1596631817.453125
-30.2,1596631817.46875
-31.37,1596631817.484375
-30.87,1596631817.5
-28.55,1596631817.515625
-24.65,1596631817.53125
-19.67,1596631817.546875
-14.26,1596631817.5625
-9.06,1596631817.578125
-4.52,1596631817.59375
-0.83,1596631817.609375
2.05,1596631817.625
4.26,1596631817.640625
5.96,1596631817.65625
7.26,1596631817.671875
8.2,1596631817.6875
8.84,1596631817.703125
9.3,1596631817.71875
9.7,1596631817.734375
10.19,1596631817.75
10.81,1596631817.765625
11.55,1596631817.78125
12.32,1596631817.796875
13.06,1596631817.8125
13.72,1596631817.828125
14.33,1596631817.84375
14.94,1596631817.859375
15.61,1596631817.875
16.32,1596631817.890625
16.99,1596631817.90625
17.48,1596631817.921875
17.63,1596631817.9375
17.33,1596631817.953125
16.54,1596631817.96875
15.37,1596631817.984375
14.0,1596631818.0
12.69,1596631818.015625
11.61,1596631818.03125
10.86,1596631818.046875
10.37,1596631818.0625
9.98,1596631818.078125
9.57,1596631818.09375
9.12,1596631818.109375
8.71,1596631818.125
8.43,1596631818.140625
8.3,1596631818.15625
8.22,1596631818.171875
8.04,1596631818.1875
7.66,1596631818.203125
7.15,1596631818.21875
6.66,1596631818.234375
6.34,1596631818.25
6.22,1596631818.265625
6.08,1596631818.28125
5.62,1596631818.296875
4.61,1596631818.3125
3.06,1596631818.328125
1.21,1596631818.34375
-0.55,1596631818.359375
-1.95,1596631818.375
-2.89,1596631818.390625
-3.57,1596631818.40625
-4.25,1596631818.421875
-5.2,1596631818.4375
-6.49,1596631818.453125
-8.06,1596631818.46875
-9.75,1596631818.484375
-11.42,1596631818.5
-13.03,1596631818.515625
-14.59,1596631818.53125
-16.16,1596631818.546875
-17.83,1596631818.5625
-19.65,1596631818.578125
-21.69,1596631818.59375
-24.01,1596631818.609375
-26.63,1596631818.625
-29.41,1596631818.640625
-32.05,1596631818.65625
-34.06,1596631818.671875
-34.85,1596631818.6875
-33.96,1596631818.703125
-31.21,1596631818.71875
-26.77,1596631818.734375
-21.15,1596631818.75
-15.02,1596631818.765625
-9.06,1596631818.78125
-3.8,1596631818.796875
0.46,1596631818.8125
3.61,1596631818.828125
5.67,1596631818.84375
6.83,1596631818.859375
7.34,1596631818.875
7.47,1596631818.890625
7.53,1596631818.90625
7.7,1596631818.921875
8.11,1596631818.9375
8.77,1596631818.953125
9.62,1596631818.96875
10.62,1596631818.984375
11.73,1596631819.0
12.94,1596631819.015625
14.2,1596631819.03125
15.4,1596631819.046875
16.39,1596631819.0625
17.04,1596631819.078125
17.29,1596631819.09375
17.22,1596631819.109375
16.96,1596631819.125
16.67,1596631819.140625
16.41,1596631819.15625
16.14,1596631819.171875
15.74,1596631819.1875
15.12,1596631819.203125
14.32,1596631819.21875
13.43,1596631819.234375
12.6,1596631819.25
11.92,1596631819.265625
11.36,1596631819.28125
10.84,1596631819.296875
10.27,1596631819.3125
9.62,1596631819.328125
8.93,1596631819.34375
8.28,1596631819.359375
7.71,1596631819.375
7.16,1596631819.390625
6.55,1596631819.40625
5.73,1596631819.421875
4.63,1596631819.4375
3.3,1596631819.453125
1.89,1596631819.46875
0.6,1596631819.484375
-0.42,1596631819.5
-1.18,1596631819.515625
-1.86,1596631819.53125
-2.72,1596631819.546875
-3.99,1596631819.5625
-5.71,1596631819.578125
-7.72,1596631819.59375
-9.77,1596631819.609375
-11.65,1596631819.625
-13.27,1596631819.640625
-14.75,1596631819.65625
-16.33,1596631819.671875
-18.23,1596631819.6875
-20.59,1596631819.703125
-23.33,1596631819.71875
-26.21,1596631819.734375
-28.84,1596631819.75
-30.69,1596631819.765625
-31.23,1596631819.78125
-30.04,1596631819.796875
-27.01,1596631819.8125
-22.36,1596631819.828125
-16.66,1596631819.84375
-10.65,1596631819.859375
-5.03,1596631819.875
-0.28,1596631819.890625
3.43,1596631819.90625
6.19,1596631819.921875
8.2,1596631819.9375
9.62,1596631819.953125
10.53,1596631819.96875
10.94,1596631819.984375
10.85,1596631820.0
10.4,1596631820.015625
9.82,1596631820.03125
9.42,1596631820.046875
9.49,1596631820.0625
10.19,1596631820.078125
11.55,1596631820.09375
13.4,1596631820.109375
15.51,1596631820.125
17.56,1596631820.140625
19.29,1596631820.15625
20.46,1596631820.171875
20.94,1596631820.1875
20.72,1596631820.203125
19.91,1596631820.21875
18.71,1596631820.234375
17.37,1596631820.25
16.12,1596631820.265625
15.06,1596631820.28125
14.18,1596631820.296875
13.39,1596631820.3125
12.56,1596631820.328125
11.66,1596631820.34375
10.69,1596631820.359375
9.72,1596631820.375
8.84,1596631820.390625
8.07,1596631820.40625
7.37,1596631820.421875
6.67,1596631820.4375
5.87,1596631820.453125
4.92,1596631820.46875
3.86,1596631820.484375
2.77,1596631820.5
1.73,1596631820.515625
0.77,1596631820.53125
-0.17,1596631820.546875
-1.17,1596631820.5625
-2.32,1596631820.578125
-3.67,1596631820.59375
-5.2,1596631820.609375
-6.84,1596631820.625
-8.53,1596631820.640625
-10.23,1596631820.65625
-11.92,1596631820.671875
-13.55,1596631820.6875
-15.06,1596631820.703125
-16.42,1596631820.71875
-17.68,1596631820.734375
-19.02,1596631820.75
-20.67,1596631820.765625
-22.85,1596631820.78125
-25.6,1596631820.796875
-28.71,1596631820.8125
-31.67,1596631820.828125
-33.79,1596631820.84375
-34.38,1596631820.859375
-32.96,1596631820.875
-29.45,1596631820.890625
-24.23,1596631820.90625
-17.99,1596631820.921875
-11.57,1596631820.9375
-5.66,1596631820.953125
-0.66,1596631820.96875
3.36,1596631820.984375
6.54,1596631821.0
9.03,1596631821.015625
10.92,1596631821.03125
12.22,1596631821.046875
12.95,1596631821.0625
13.27,1596631821.078125
13.46,1596631821.09375
13.81,1596631821.109375
14.53,1596631821.125
15.63,1596631821.140625
16.98,1596631821.15625
18.4,1596631821.171875
19.72,1596631821.1875
20.88,1596631821.203125
21.86,1596631821.21875
22.64,1596631821.234375
23.17,1596631821.25
23.37,1596631821.265625
23.16,1596631821.28125
22.52,1596631821.296875
21.45,1596631821.3125
20.03,1596631821.328125
18.37,1596631821.34375
16.66,1596631821.359375
15.09,1596631821.375
13.82,1596631821.390625
12.93,1596631821.40625
12.39,1596631821.421875
12.08,1596631821.4375
11.86,1596631821.453125
11.67,1596631821.46875
11.49,1596631821.484375
11.28,1596631821.5
10.96,1596631821.515625
10.41,1596631821.53125
9.52,1596631821.546875
8.3,1596631821.5625
6.89,1596631821.578125
5.53,1596631821.59375
4.41,1596631821.609375
3.59,1596631821.625
2.93,1596631821.640625
2.24,1596631821.65625
1.36,1596631821.671875
0.24,1596631821.6875
-1.02,1596631821.703125
-2.25,1596631821.71875
-3.3,1596631821.734375
-4.18,1596631821.75
-4.95,1596631821.765625
-5.8,1596631821.78125
-6.86,1596631821.796875
-8.13,1596631821.8125
-9.54,1596631821.828125
-10.9,1596631821.84375
-12.12,1596631821.859375
-13.18,1596631821.875
-14.24,1596631821.890625
-15.49,1596631821.90625
-17.13,1596631821.921875
-19.26,1596631821.9375
-21.84,1596631821.953125
-24.69,1596631821.96875
-27.45,1596631821.984375
-29.61,1596631822.0
-30.61,1596631822.015625
-29.94,1596631822.03125
-27.34,1596631822.046875
-22.93,1596631822.0625
-17.24,1596631822.078125
-11.05,1596631822.09375
-5.14,1596631822.109375
-0.11,1596631822.125
3.79,1596631822.140625
6.61,1596631822.15625
8.56,1596631822.171875
9.86,1596631822.1875
10.68,1596631822.203125
11.14,1596631822.21875
11.33,1596631822.234375
11.36,1596631822.25
11.38,1596631822.265625
11.55,1596631822.28125
11.99,1596631822.296875
12.72,1596631822.3125
13.69,1596631822.328125
14.8,1596631822.34375
15.89,1596631822.359375
16.84,1596631822.375
17.58,1596631822.390625
18.06,1596631822.40625
18.25,1596631822.421875
18.09,1596631822.4375
17.53,1596631822.453125
16.58,1596631822.46875
15.32,1596631822.484375
13.94,1596631822.5
12.64,1596631822.515625
11.57,1596631822.53125
10.75,1596631822.546875
10.13,1596631822.5625
9.58,1596631822.578125
9.04,1596631822.59375
8.51,1596631822.609375
8.05,1596631822.625
7.67,1596631822.640625
7.28,1596631822.65625
6.76,1596631822.671875
6.02,1596631822.6875
5.09,1596631822.703125
4.13,1596631822.71875
3.31,1596631822.734375
2.71,1596631822.75
2.21,1596631822.765625
1.57,1596631822.78125
0.56,1596631822.796875
-0.86,1596631822.8125
-2.5,1596631822.828125
-4.03,1596631822.84375
-5.17,1596631822.859375
-5.84,1596631822.875
-6.19,1596631822.890625
-6.53,1596631822.90625
-7.12,1596631822.921875
-8.09,1596631822.9375
-9.44,1596631822.953125
-11.05,1596631822.96875
-12.79,1596631822.984375
-14.63,1596631823.0
-16.57,1596631823.015625
-18.65,1596631823.03125
-20.87,1596631823.046875
-23.22,1596631823.0625
-25.6,1596631823.078125
-27.89,1596631823.09375
-29.82,1596631823.109375
-31.03,1596631823.125
