PPG GREEN,time
2076413.0,1596631745.208
2076871.0,1596631745.248
2077032.0,1596631745.288
2077582.0,1596631745.329
2078086.0,1596631745.368
2079211.0,1596631745.408
2079622.0,1596631745.449
2080288.0,1596631745.489
2080889.0,1596631745.528
2081906.0,1596631745.569
2082832.0,1596631745.608
2083850.0,1596631745.648
2083869.0,1596631745.69
2082687.0,1596631745.729
2080287.0,1596631745.769
2079049.0,1596631745.81
2077602.0,1596631745.849
2076128.0,1596631745.89
2075214.0,1596631745.93
2074522.0,1596631745.969
2073390.0,1596631746.009
2072368.0,1596631746.05
2071255.0,1596631746.09
2070643.0,1596631746.13
2070469.0,1596631746.171
2070202.0,1596631746.21
2070154.0,1596631746.292
2070249.0,1596631746.25
2070000.0,1596631746.33
2070480.0,1596631746.37
2070169.0,1596631746.411
2070896.0,1596631746.45
2072538.0,1596631746.571
2073884.0,1596631746.652
2071614.0,1596631746.532
2072957.0,1596631746.611
2074604.0,1596631746.692
2075416.0,1596631746.731
2071320.0,1596631746.491
2075739.0,1596631746.811
2073918.0,1596631746.851
2071873.0,1596631746.893
2069531.0,1596631746.932
2076164.0,1596631746.772
2068330.0,1596631746.972
2067372.0,1596631747.013
2066273.0,1596631747.052
2065109.0,1596631747.093
2064184.0,1596631747.133
2063143.0,1596631747.172
2062261.0,1596631747.212
2061723.0,1596631747.254
2060887.0,1596631747.293
2060925.0,1596631747.333
2061098.0,1596631747.374
2060588.0,1596631747.413
2061131.0,1596631747.453
2061266.0,1596631747.495
2061265.0,1596631747.533
2061281.0,1596631747.573
2061862.0,1596631747.614
2062369.0,1596631747.654
2062825.0,1596631747.694
2063741.0,1596631747.735
2064582.0,1596631747.774
2065203.0,1596631747.814
2065722.0,1596631747.855
2066800.0,1596631747.895
2064043.0,1596631747.975
2066140.0,1596631747.934
2061176.0,1596631748.015
2058907.0,1596631748.055
2056822.0,1596631748.097
2054694.0,1596631748.135
2053594.0,1596631748.175
2052008.0,1596631748.216
2050564.0,1596631748.255
2048992.0,1596631748.296
2047538.0,1596631748.336
2046682.0,1596631748.375
2045878.0,1596631748.416
2045235.0,1596631748.457
2045002.0,1596631748.497
2044911.0,1596631748.536
2044782.0,1596631748.577
2044620.0,1596631748.616
2044409.0,1596631748.656
2044762.0,1596631748.698
2044229.0,1596631748.737
2044395.0,1596631748.777
2044687.0,1596631748.818
2045037.0,1596631748.857
2045415.0,1596631748.898
2046075.0,1596631748.938
2045135.0,1596631748.977
2042494.0,1596631749.017
2039976.0,1596631749.059
2037987.0,1596631749.098
2036424.0,1596631749.138
2035543.0,1596631749.179
2033802.0,1596631749.218
2031877.0,1596631749.258
2029585.0,1596631749.3
2027745.0,1596631749.338
2024960.0,1596631749.379
2021763.0,1596631749.42
2017858.0,1596631749.459
2014157.0,1596631749.5
2012131.0,1596631749.54
2011084.0,1596631749.579
2009409.0,1596631749.619
2007679.0,1596631749.661
2005729.0,1596631749.7
2005318.0,1596631749.74
2007275.0,1596631749.781
2012009.0,1596631749.82
2017159.0,1596631749.86
2022683.0,1596631749.902
2027972.0,1596631749.94
2032048.0,1596631749.98
2033323.0,1596631750.021
2034769.0,1596631750.06
2038441.0,1596631750.101
2050423.0,1596631750.179
2047269.0,1596631750.14
2053664.0,1596631750.219
2059239.0,1596631750.26
2066285.0,1596631750.3
2071816.0,1596631750.339
2076372.0,1596631750.38
2082594.0,1596631750.419
2088487.0,1596631750.459
2094056.0,1596631750.501
2099288.0,1596631750.539
2104666.0,1596631750.58
2109459.0,1596631750.621
2114599.0,1596631750.66
2119476.0,1596631750.7
2123839.0,1596631750.741
2128163.0,1596631750.78
2131775.0,1596631750.82
2134397.0,1596631750.861
2135636.0,1596631750.901
2133730.0,1596631750.94
2130235.0,1596631750.981
2128687.0,1596631751.021
2131286.0,1596631751.061
2135320.0,1596631751.102
2139288.0,1596631751.141
2143680.0,1596631751.181
2145516.0,1596631751.222
2152875.0,1596631751.302
2157768.0,1596631751.342
2209639.0,1596631751.662
2214454.0,1596631751.704
2219535.0,1596631751.742
2227610.0,1596631751.782
2236915.0,1596631751.823
2242347.0,1596631751.863
2247487.0,1596631751.903
2252582.0,1596631751.944
2257794.0,1596631751.983
2190227.0,1596631751.502
2195434.0,1596631751.542
2200092.0,1596631751.583
2182924.0,1596631751.463
2205051.0,1596631751.622
2163586.0,1596631751.381
2261345.0,1596631752.023
2173007.0,1596631751.421
2265587.0,1596631752.064
2268501.0,1596631752.104
2270905.0,1596631752.143
2273242.0,1596631752.184
2280626.0,1596631752.264
2284592.0,1596631752.305
2276476.0,1596631752.223
2287743.0,1596631752.344
2290893.0,1596631752.384
2292872.0,1596631752.425
2292133.0,1596631752.464
2146704.0,1596631751.261
2287783.0,1596631752.505
2285182.0,1596631752.624
2284674.0,1596631752.545
2284312.0,1596631752.584
2286309.0,1596631752.666
2287368.0,1596631752.705
2286936.0,1596631752.786
2286781.0,1596631752.865
2286999.0,1596631752.907
2286411.0,1596631752.825
2287533.0,1596631752.745
2288208.0,1596631752.945
2289747.0,1596631752.985
2290589.0,1596631753.026
2291515.0,1596631753.065
2294353.0,1596631753.147
2298748.0,1596631753.226
2292544.0,1596631753.106
2300830.0,1596631753.267
2296193.0,1596631753.186
2301498.0,1596631753.307
2303176.0,1596631753.346
2305633.0,1596631753.387
2308355.0,1596631753.426
2309727.0,1596631753.467
2312025.0,1596631753.508
2314502.0,1596631753.547
2316707.0,1596631753.587
2319139.0,1596631753.628
2319479.0,1596631753.667
2319434.0,1596631753.708
2318662.0,1596631753.748
2318969.0,1596631753.787
2318400.0,1596631753.828
2318807.0,1596631753.869
2319639.0,1596631753.909
2320749.0,1596631753.948
2321924.0,1596631753.989
2322790.0,1596631754.028
2323951.0,1596631754.068
2325036.0,1596631754.11
2326290.0,1596631754.149
2327765.0,1596631754.189
2329303.0,1596631754.23
2331150.0,1596631754.269
2333435.0,1596631754.31
2335995.0,1596631754.35
2337228.0,1596631754.389
2338646.0,1596631754.429
2340243.0,1596631754.47
2341752.0,1596631754.51
2343842.0,1596631754.549
2345480.0,1596631754.591
2344887.0,1596631754.63
2344219.0,1596631754.67
2342627.0,1596631754.711
2341350.0,1596631754.75
2341137.0,1596631754.79
2341148.0,1596631754.831
2341734.0,1596631754.87
2342119.0,1596631754.911
2342006.0,1596631754.952
2342902.0,1596631754.991
2342917.0,1596631755.031
2344196.0,1596631755.072
2345081.0,1596631755.112
2345896.0,1596631755.151
2346897.0,1596631755.192
2348746.0,1596631755.231
2349481.0,1596631755.271
2350902.0,1596631755.313
2352092.0,1596631755.352
2353609.0,1596631755.392
2354888.0,1596631755.433
2355962.0,1596631755.472
2356991.0,1596631755.513
2358472.0,1596631755.553
2359554.0,1596631755.592
2359731.0,1596631755.632
2358416.0,1596631755.673
2356756.0,1596631755.713
2354517.0,1596631755.753
2353410.0,1596631755.794
2351875.0,1596631755.833
2351064.0,1596631755.873
2350980.0,1596631755.915
2350535.0,1596631755.953
2349938.0,1596631755.993
2349372.0,1596631756.034
2349440.0,1596631756.073
2349452.0,1596631756.114
2349589.0,1596631756.155
2350276.0,1596631756.194
2350560.0,1596631756.234
2351006.0,1596631756.275
2351713.0,1596631756.315
2352493.0,1596631756.354
2353177.0,1596631756.395
2353543.0,1596631756.434
2354389.0,1596631756.474
2355533.0,1596631756.516
2356425.0,1596631756.555
2357320.0,1596631756.595
2358538.0,1596631756.636
2358122.0,1596631756.675
2356396.0,1596631756.716
2354274.0,1596631756.756
2351203.0,1596631756.795
2348922.0,1596631756.835
2347779.0,1596631756.876
2347968.0,1596631756.916
2347469.0,1596631756.956
2347570.0,1596631756.997
2346966.0,1596631757.036
2346877.0,1596631757.076
2346784.0,1596631757.118
2346908.0,1596631757.156
2347881.0,1596631757.196
2348402.0,1596631757.237
2348614.0,1596631757.276
2349221.0,1596631757.317
2350090.0,1596631757.358
2350248.0,1596631757.397
2351398.0,1596631757.437
2352747.0,1596631757.478
2353617.0,1596631757.518
2354856.0,1596631757.557
2356184.0,1596631757.598
2356968.0,1596631757.638
2355807.0,1596631757.678
2353493.0,1596631757.72
2349924.0,1596631757.758
2346854.0,1596631757.798
2345634.0,1596631757.839
2344041.0,1596631757.878
2343659.0,1596631757.919
2343561.0,1596631757.96
2343157.0,1596631757.999
2342635.0,1596631758.039
2342411.0,1596631758.08
2341845.0,1596631758.12
2342581.0,1596631758.159
2343102.0,1596631758.2
2344108.0,1596631758.239
2344764.0,1596631758.279
2345355.0,1596631758.321
2346110.0,1596631758.36
2347035.0,1596631758.4
2348300.0,1596631758.441
2349349.0,1596631758.48
2349996.0,1596631758.521
2351345.0,1596631758.561
2352416.0,1596631758.6
2353262.0,1596631758.641
2353263.0,1596631758.682
2351783.0,1596631758.721
2348585.0,1596631758.761
2344576.0,1596631758.802
2342006.0,1596631758.841
2340018.0,1596631758.881
2339263.0,1596631758.923
2338824.0,1596631758.961
2337589.0,1596631759.001
2336849.0,1596631759.043
2335731.0,1596631759.082
2334944.0,1596631759.122
2334734.0,1596631759.163
2334594.0,1596631759.202
2335035.0,1596631759.242
2335099.0,1596631759.283
2335673.0,1596631759.323
2336125.0,1596631759.362
2336790.0,1596631759.403
2337426.0,1596631759.442
2337475.0,1596631759.482
2338753.0,1596631759.524
2339250.0,1596631759.562
2340264.0,1596631759.602
2340878.0,1596631759.643
2341031.0,1596631759.682
2339443.0,1596631759.723
2335777.0,1596631759.764
2332002.0,1596631759.803
2328116.0,1596631759.843
2326003.0,1596631759.884
2324256.0,1596631759.924
2322846.0,1596631759.963
2321339.0,1596631760.004
2320071.0,1596631760.043
2317496.0,1596631760.083
2315853.0,1596631760.125
2315104.0,1596631760.163
2314773.0,1596631760.203
2314725.0,1596631760.245
2314621.0,1596631760.284
2315339.0,1596631760.324
2315448.0,1596631760.365
2316178.0,1596631760.404
2316400.0,1596631760.444
2316747.0,1596631760.485
2317808.0,1596631760.525
2318411.0,1596631760.564
2319113.0,1596631760.605
2315455.0,1596631760.684
2318091.0,1596631760.644
2310347.0,1596631760.726
2305439.0,1596631760.765
2301629.0,1596631760.805
2298451.0,1596631760.846
2296540.0,1596631760.885
2294869.0,1596631760.926
2293354.0,1596631760.966
2290657.0,1596631761.005
2289079.0,1596631761.045
2287758.0,1596631761.086
2287030.0,1596631761.126
2286152.0,1596631761.165
2284303.0,1596631761.246
2285131.0,1596631761.207
2283900.0,1596631761.286
2283920.0,1596631761.327
2283358.0,1596631761.366
2282573.0,1596631761.406
2281748.0,1596631761.447
2280492.0,1596631761.486
2280073.0,1596631761.527
2279795.0,1596631761.567
2280288.0,1596631761.606
2280390.0,1596631761.646
2277695.0,1596631761.688
2272115.0,1596631761.727
2265267.0,1596631761.767
2260491.0,1596631761.808
2256291.0,1596631761.847
2253537.0,1596631761.887
2251667.0,1596631761.929
2250281.0,1596631761.967
2248148.0,1596631762.007
2245974.0,1596631762.048
2244816.0,1596631762.087
2243863.0,1596631762.128
2244061.0,1596631762.17
2244057.0,1596631762.209
2244649.0,1596631762.25
2245350.0,1596631762.291
2245622.0,1596631762.33
2246319.0,1596631762.37
2246614.0,1596631762.411
2247657.0,1596631762.45
2248539.0,1596631762.49
2249593.0,1596631762.532
2251214.0,1596631762.57
2252569.0,1596631762.61
2256590.0,1596631762.731
2254777.0,1596631762.772
2250548.0,1596631762.811
2246555.0,1596631762.851
2243436.0,1596631762.892
2241925.0,1596631762.932
2241117.0,1596631762.971
2240131.0,1596631763.012
2237740.0,1596631763.092
2239606.0,1596631763.051
2236458.0,1596631763.133
2235747.0,1596631763.172
2255921.0,1596631762.691
2253845.0,1596631762.652
2234237.0,1596631763.212
2234303.0,1596631763.253
2233624.0,1596631763.292
2233109.0,1596631763.333
2233195.0,1596631763.373
2232395.0,1596631763.412
2232621.0,1596631763.452
2232285.0,1596631763.493
2231859.0,1596631763.533
2231785.0,1596631763.573
2232807.0,1596631763.614
2229070.0,1596631763.854
2234099.0,1596631763.813
2235284.0,1596631763.735
2234661.0,1596631763.693
2223129.0,1596631763.893
2218716.0,1596631763.934
2212614.0,1596631764.014
2215346.0,1596631763.975
2235370.0,1596631763.773
2234020.0,1596631763.653
2211259.0,1596631764.054
2209950.0,1596631764.095
2208221.0,1596631764.135
2207184.0,1596631764.174
2206896.0,1596631764.215
2206799.0,1596631764.254
2207662.0,1596631764.294
2208428.0,1596631764.336
2210011.0,1596631764.374
2211684.0,1596631764.415
2213619.0,1596631764.456
2215825.0,1596631764.495
2217230.0,1596631764.536
2218902.0,1596631764.576
2220439.0,1596631764.615
2222506.0,1596631764.655
2223462.0,1596631764.696
2225126.0,1596631764.775
2224818.0,1596631764.736
2218284.0,1596631764.896
2207292.0,1596631764.976
2226144.0,1596631764.816
2223671.0,1596631764.856
2212071.0,1596631764.937
2203268.0,1596631765.016
2198636.0,1596631765.096
2196701.0,1596631765.137
2200593.0,1596631765.057
2194995.0,1596631765.177
2193164.0,1596631765.217
2190727.0,1596631765.298
2188314.0,1596631765.377
2192148.0,1596631765.257
2189252.0,1596631765.338
2189064.0,1596631765.418
2190449.0,1596631765.457
2191616.0,1596631765.497
2193208.0,1596631765.539
2194641.0,1596631765.578
2196442.0,1596631765.618
2198249.0,1596631765.659
2200004.0,1596631765.698
2201892.0,1596631765.739
2203978.0,1596631765.779
2205698.0,1596631765.818
2204788.0,1596631765.858
2200581.0,1596631765.899
2196069.0,1596631765.939
2193479.0,1596631765.979
2191788.0,1596631766.02
2192083.0,1596631766.059
2192510.0,1596631766.099
2192179.0,1596631766.141
2192146.0,1596631766.179
2191614.0,1596631766.219
2191872.0,1596631766.26
2193643.0,1596631766.299
2195224.0,1596631766.34
2197293.0,1596631766.381
2199291.0,1596631766.42
2200879.0,1596631766.46
2202657.0,1596631766.501
2204962.0,1596631766.541
2207571.0,1596631766.58
2209800.0,1596631766.621
2211817.0,1596631766.66
2214080.0,1596631766.7
2216006.0,1596631766.742
2217730.0,1596631766.781
2218096.0,1596631766.821
2215215.0,1596631766.862
2210631.0,1596631766.901
2206993.0,1596631766.942
2205188.0,1596631766.982
2204100.0,1596631767.021
2204564.0,1596631767.061
2204527.0,1596631767.103
2203746.0,1596631767.142
2202440.0,1596631767.182
2202394.0,1596631767.223
2202780.0,1596631767.262
2203638.0,1596631767.302
2204299.0,1596631767.344
2205233.0,1596631767.382
2205981.0,1596631767.422
2206432.0,1596631767.464
2206250.0,1596631767.503
2206823.0,1596631767.543
2207432.0,1596631767.584
2208716.0,1596631767.623
2209302.0,1596631767.663
2209979.0,1596631767.704
2211967.0,1596631767.744
2211506.0,1596631767.784
2208350.0,1596631767.825
2204263.0,1596631767.864
2200931.0,1596631767.904
2199319.0,1596631767.946
2197934.0,1596631767.984
2198416.0,1596631768.024
2198208.0,1596631768.065
2198485.0,1596631768.104
2197877.0,1596631768.145
2198299.0,1596631768.186
2199924.0,1596631768.225
2201195.0,1596631768.265
2202687.0,1596631768.306
2203650.0,1596631768.346
2205356.0,1596631768.385
2206567.0,1596631768.426
2208523.0,1596631768.465
2210077.0,1596631768.506
2211492.0,1596631768.547
2214073.0,1596631768.586
2216393.0,1596631768.626
2218686.0,1596631768.667
2221233.0,1596631768.706
2223911.0,1596631768.747
2225801.0,1596631768.787
2225708.0,1596631768.826
2222864.0,1596631768.867
2218113.0,1596631768.908
2214089.0,1596631768.948
2211517.0,1596631768.987
2210792.0,1596631769.028
2211816.0,1596631769.067
2211969.0,1596631769.107
2211247.0,1596631769.149
2211010.0,1596631769.187
2211047.0,1596631769.228
2211958.0,1596631769.269
2213252.0,1596631769.308
2214190.0,1596631769.348
2215887.0,1596631769.389
2217591.0,1596631769.428
2218642.0,1596631769.468
2220220.0,1596631769.509
2221987.0,1596631769.549
2224633.0,1596631769.588
2227343.0,1596631769.629
2229616.0,1596631769.668
2232119.0,1596631769.708
2232626.0,1596631769.75
2233211.0,1596631769.789
2233564.0,1596631769.829
2232798.0,1596631769.87
2228116.0,1596631769.909
2222544.0,1596631769.95
2219036.0,1596631769.99
2216196.0,1596631770.029
2214023.0,1596631770.069
2212789.0,1596631770.11
2212147.0,1596631770.15
2212417.0,1596631770.19
2212122.0,1596631770.231
2211034.0,1596631770.27
2210538.0,1596631770.31
2210239.0,1596631770.352
2210444.0,1596631770.39
2210161.0,1596631770.43
2210717.0,1596631770.471
2211724.0,1596631770.51
2212566.0,1596631770.551
2214066.0,1596631770.591
2215321.0,1596631770.63
2216445.0,1596631770.671
2217737.0,1596631770.712
2219345.0,1596631770.751
2221587.0,1596631770.791
2223346.0,1596631770.832
2225200.0,1596631770.871
2226962.0,1596631770.911
2229324.0,1596631770.953
2232287.0,1596631770.991
2234035.0,1596631771.031
2236114.0,1596631771.073
2236047.0,1596631771.112
2233656.0,1596631771.152
2231777.0,1596631771.193
2230251.0,1596631771.232
2230159.0,1596631771.272
2230212.0,1596631771.313
2229987.0,1596631771.353
2230809.0,1596631771.392
2230529.0,1596631771.433
2229941.0,1596631771.472
2229892.0,1596631771.512
2229791.0,1596631771.554
2229970.0,1596631771.593
2230039.0,1596631771.633
2230983.0,1596631771.674
2231809.0,1596631771.713
2233695.0,1596631771.754
2234737.0,1596631771.794
2236012.0,1596631771.833
2237210.0,1596631771.873
2239110.0,1596631771.914
2240074.0,1596631771.954
2241332.0,1596631771.993
2242698.0,1596631772.034
2243958.0,1596631772.073
2246651.0,1596631772.114
2248648.0,1596631772.155
2251007.0,1596631772.194
2253614.0,1596631772.234
2255546.0,1596631772.275
2257014.0,1596631772.314
2256135.0,1596631772.355
2255984.0,1596631772.395
2255842.0,1596631772.434
2256362.0,1596631772.474
2256759.0,1596631772.515
2257661.0,1596631772.555
2258295.0,1596631772.595
2259168.0,1596631772.636
2258897.0,1596631772.675
2258640.0,1596631772.715
2259658.0,1596631772.757
2261003.0,1596631772.795
2263470.0,1596631772.835
2265277.0,1596631772.876
2267301.0,1596631772.915
2268975.0,1596631772.956
2270929.0,1596631772.997
2274279.0,1596631773.036
2277729.0,1596631773.076
2281031.0,1596631773.117
2283133.0,1596631773.157
2284937.0,1596631773.196
2287316.0,1596631773.237
2289979.0,1596631773.276
2292119.0,1596631773.316
2292431.0,1596631773.358
2291382.0,1596631773.397
2289492.0,1596631773.437
2288204.0,1596631773.478
2287738.0,1596631773.517
2287439.0,1596631773.558
2287935.0,1596631773.598
2288525.0,1596631773.637
2287710.0,1596631773.677
2285278.0,1596631773.718
2283143.0,1596631773.758
2282424.0,1596631773.797
2282767.0,1596631773.839
2284098.0,1596631773.878
2285937.0,1596631773.959
2285173.0,1596631773.918
2287322.0,1596631773.998
2288416.0,1596631774.038
2289271.0,1596631774.079
2290121.0,1596631774.118
2291472.0,1596631774.159
2293005.0,1596631774.2
2294553.0,1596631774.24
2296519.0,1596631774.28
2298912.0,1596631774.321
2301445.0,1596631774.36
2303839.0,1596631774.4
2306019.0,1596631774.441
2307986.0,1596631774.48
2308034.0,1596631774.52
2306478.0,1596631774.562
2304344.0,1596631774.6
2302588.0,1596631774.64
2301173.0,1596631774.682
2300022.0,1596631774.721
2299409.0,1596631774.761
2298981.0,1596631774.802
2298429.0,1596631774.841
2297207.0,1596631774.881
2297185.0,1596631774.922
2296954.0,1596631774.962
2297268.0,1596631775.001
2298127.0,1596631775.042
2299701.0,1596631775.082
2301693.0,1596631775.122
2303518.0,1596631775.163
2304552.0,1596631775.202
2305156.0,1596631775.242
2306159.0,1596631775.283
2307843.0,1596631775.322
2309791.0,1596631775.363
2311716.0,1596631775.403
2312929.0,1596631775.442
2313106.0,1596631775.483
2313850.0,1596631775.524
2314964.0,1596631775.563
2313868.0,1596631775.603
2311015.0,1596631775.644
2306218.0,1596631775.683
2303083.0,1596631775.723
2300706.0,1596631775.765
2298613.0,1596631775.803
2296060.0,1596631775.844
2293505.0,1596631775.885
2291658.0,1596631775.924
2289346.0,1596631775.965
2286777.0,1596631776.005
2286673.0,1596631776.044
2289963.0,1596631776.084
2292909.0,1596631776.125
2296848.0,1596631776.165
2300700.0,1596631776.204
2303263.0,1596631776.246
2306874.0,1596631776.285
2309978.0,1596631776.325
2312986.0,1596631776.367
2315043.0,1596631776.405
2315431.0,1596631776.445
2317264.0,1596631776.486
2319322.0,1596631776.525
2320969.0,1596631776.566
2326398.0,1596631776.606
2340188.0,1596631776.645
2351474.0,1596631776.686
2357595.0,1596631776.727
2357228.0,1596631776.847
2358247.0,1596631776.806
2359819.0,1596631776.766
2355420.0,1596631776.886
2352432.0,1596631776.926
2349334.0,1596631777.006
2349451.0,1596631776.968
2353853.0,1596631777.088
2349774.0,1596631777.046
2360195.0,1596631777.127
2368714.0,1596631777.167
2375328.0,1596631777.208
2381437.0,1596631777.247
2386482.0,1596631777.287
2390520.0,1596631777.328
2394092.0,1596631777.368
2392879.0,1596631777.407
2390205.0,1596631777.449
2397893.0,1596631777.488
2402843.0,1596631777.528
2406953.0,1596631777.57
2410126.0,1596631777.608
2410255.0,1596631777.648
2408373.0,1596631777.689
2405790.0,1596631777.728
2404847.0,1596631777.769
2410370.0,1596631777.809
2416491.0,1596631777.849
2417753.0,1596631777.889
2419221.0,1596631777.93
2418368.0,1596631777.969
2420657.0,1596631778.009
2420708.0,1596631778.05
2422910.0,1596631778.089
2426373.0,1596631778.129
2429139.0,1596631778.171
2430416.0,1596631778.209
2431226.0,1596631778.25
2430669.0,1596631778.291
2430315.0,1596631778.33
2430203.0,1596631778.371
2430735.0,1596631778.411
2432324.0,1596631778.45
2434503.0,1596631778.49
2435757.0,1596631778.531
2437021.0,1596631778.571
2437660.0,1596631778.611
2436506.0,1596631778.652
2432246.0,1596631778.691
2429186.0,1596631778.731
2426408.0,1596631778.773
2424866.0,1596631778.811
2423467.0,1596631778.851
2420543.0,1596631778.892
2416063.0,1596631778.931
2410978.0,1596631778.972
2405798.0,1596631779.013
2402010.0,1596631779.052
2397295.0,1596631779.092
2392758.0,1596631779.133
2388643.0,1596631779.173
2385025.0,1596631779.212
2381142.0,1596631779.253
2378358.0,1596631779.292
2375765.0,1596631779.332
2373910.0,1596631779.374
2371858.0,1596631779.412
2370485.0,1596631779.452
2368975.0,1596631779.494
2368218.0,1596631779.533
2367545.0,1596631779.573
2367167.0,1596631779.614
2366880.0,1596631779.653
2366955.0,1596631779.693
2367688.0,1596631779.734
2367751.0,1596631779.774
2368168.0,1596631779.813
2368851.0,1596631779.854
2371445.0,1596631779.893
2380270.0,1596631779.933
2390245.0,1596631779.975
2398794.0,1596631780.013
2401967.0,1596631780.054
2400532.0,1596631780.095
2398397.0,1596631780.134
2395635.0,1596631780.174
2391688.0,1596631780.215
2387595.0,1596631780.254
2384609.0,1596631780.294
2382578.0,1596631780.335
2381624.0,1596631780.375
2377947.0,1596631780.414
2375771.0,1596631780.455
2375802.0,1596631780.494
2378503.0,1596631780.534
2380341.0,1596631780.576
2383250.0,1596631780.614
2386521.0,1596631780.655
2389396.0,1596631780.696
2392283.0,1596631780.735
2394215.0,1596631780.775
2396537.0,1596631780.816
2398131.0,1596631780.855
2399425.0,1596631780.895
2400587.0,1596631780.936
2402014.0,1596631780.976
2404314.0,1596631781.015
2407612.0,1596631781.056
2410812.0,1596631781.095
2405604.0,1596631781.135
2392410.0,1596631781.177
2377428.0,1596631781.216
2367490.0,1596631781.256
2343312.0,1596631781.297
2329961.0,1596631781.336
2316271.0,1596631781.377
2303520.0,1596631781.417
2291466.0,1596631781.456
2280163.0,1596631781.496
2271113.0,1596631781.537
2261489.0,1596631781.577
2252870.0,1596631781.617
2246040.0,1596631781.658
2238984.0,1596631781.697
2233499.0,1596631781.737
2228266.0,1596631781.778
2224799.0,1596631781.817
2220804.0,1596631781.857
2217224.0,1596631781.898
2212982.0,1596631781.937
2207615.0,1596631781.978
2205194.0,1596631782.018
2203250.0,1596631782.057
2202403.0,1596631782.097
2200885.0,1596631782.138
2198893.0,1596631782.178
2197176.0,1596631782.218
2194305.0,1596631782.259
2191395.0,1596631782.298
2189014.0,1596631782.338
2185377.0,1596631782.38
2179404.0,1596631782.418
2169718.0,1596631782.458
2159155.0,1596631782.499
2149244.0,1596631782.538
2141055.0,1596631782.579
2133623.0,1596631782.62
2127267.0,1596631782.659
2122285.0,1596631782.699
2118582.0,1596631782.74
2115840.0,1596631782.78
2115019.0,1596631782.819
2114526.0,1596631782.86
2113754.0,1596631782.899
2113248.0,1596631782.939
2111752.0,1596631782.981
2110226.0,1596631783.02
2108783.0,1596631783.06
2105864.0,1596631783.101
2102187.0,1596631783.14
2099193.0,1596631783.181
2095860.0,1596631783.221
2093277.0,1596631783.26
2090448.0,1596631783.3
2088257.0,1596631783.341
2085688.0,1596631783.381
2083481.0,1596631783.421
2080590.0,1596631783.462
2073242.0,1596631783.501
2062101.0,1596631783.541
2050288.0,1596631783.583
2039690.0,1596631783.621
2031272.0,1596631783.661
2022472.0,1596631783.702
2015174.0,1596631783.741
1999978.0,1596631783.823
1992043.0,1596631783.862
2007984.0,1596631783.782
1985439.0,1596631783.902
1973987.0,1596631783.983
1968661.0,1596631784.022
1979438.0,1596631783.943
1964085.0,1596631784.063
1959114.0,1596631784.102
1950085.0,1596631784.184
1954689.0,1596631784.143
1946099.0,1596631784.223
1943044.0,1596631784.263
1940191.0,1596631784.304
1937509.0,1596631784.343
1934554.0,1596631784.384
1929695.0,1596631784.463
1931759.0,1596631784.424
1927645.0,1596631784.504
1925650.0,1596631784.545
1914845.0,1596631784.624
1922712.0,1596631784.584
1893083.0,1596631784.704
1903678.0,1596631784.665
1875619.0,1596631784.786
1883582.0,1596631784.744
1861688.0,1596631784.865
1868042.0,1596631784.825
1848249.0,1596631784.945
1855220.0,1596631784.906
1841484.0,1596631784.986
1835576.0,1596631785.026
1830975.0,1596631785.065
1826807.0,1596631785.105
1823631.0,1596631785.147
1820739.0,1596631785.186
1817877.0,1596631785.226
1815172.0,1596631785.267
1810368.0,1596631785.346
1812663.0,1596631785.306
1806835.0,1596631785.426
1808548.0,1596631785.388
1805179.0,1596631785.508
1805751.0,1596631785.466
1804764.0,1596631785.547
1804061.0,1596631785.587
1803886.0,1596631785.628
1803615.0,1596631785.667
1803671.0,1596631785.707
1801737.0,1596631785.748
1794865.0,1596631785.788
1786461.0,1596631785.827
1779570.0,1596631785.869
1773988.0,1596631785.908
1769526.0,1596631785.948
1765908.0,1596631785.99
1762912.0,1596631786.028
1758964.0,1596631786.068
1755227.0,1596631786.109
1752101.0,1596631786.148
1750138.0,1596631786.189
1748907.0,1596631786.229
1747966.0,1596631786.268
1747955.0,1596631786.308
1747631.0,1596631786.349
1747187.0,1596631786.389
1747703.0,1596631786.428
1747754.0,1596631786.469
1749133.0,1596631786.549
1747986.0,1596631786.509
1750448.0,1596631786.591
1751515.0,1596631786.629
1752751.0,1596631786.669
1754351.0,1596631786.71
1756306.0,1596631786.749
1757922.0,1596631786.79
1760346.0,1596631786.831
1762652.0,1596631786.87
1763591.0,1596631786.91
1760243.0,1596631786.951
1754375.0,1596631786.991
1749363.0,1596631787.03
1745758.0,1596631787.071
1743020.0,1596631787.11
1740944.0,1596631787.15
1739397.0,1596631787.192
1738082.0,1596631787.231
1736454.0,1596631787.271
1735140.0,1596631787.312
1734441.0,1596631787.351
1735394.0,1596631787.471
1737017.0,1596631787.511
1738092.0,1596631787.553
1734760.0,1596631787.432
1739245.0,1596631787.592
1740792.0,1596631787.632
1742185.0,1596631787.673
1744106.0,1596631787.712
1734267.0,1596631787.392
1746412.0,1596631787.752
1748784.0,1596631787.794
1751583.0,1596631787.832
1768071.0,1596631788.073
1753896.0,1596631787.872
1765228.0,1596631788.034
1772989.0,1596631788.154
1771326.0,1596631788.113
1771035.0,1596631788.194
1767566.0,1596631788.233
1756927.0,1596631787.914
1759640.0,1596631787.953
1762187.0,1596631787.993
1764442.0,1596631788.275
1762770.0,1596631788.314
1761501.0,1596631788.354
1760698.0,1596631788.396
1761073.0,1596631788.434
1759941.0,1596631788.474
1759421.0,1596631788.515
1759634.0,1596631788.554
1760650.0,1596631788.595
1763745.0,1596631788.674
1762034.0,1596631788.635
1765370.0,1596631788.714
1767056.0,1596631788.756
1768888.0,1596631788.795
1770956.0,1596631788.835
1772989.0,1596631788.876
1774983.0,1596631788.915
1777408.0,1596631788.955
1782146.0,1596631789.035
1784435.0,1596631789.075
1786924.0,1596631789.116
1789664.0,1596631789.155
1792242.0,1596631789.196
1779566.0,1596631788.997
1794801.0,1596631789.236
1797370.0,1596631789.275
1796732.0,1596631789.316
1794101.0,1596631789.357
1791268.0,1596631789.396
1789186.0,1596631789.436
1787827.0,1596631789.477
1787485.0,1596631789.516
1787095.0,1596631789.598
1785723.0,1596631789.676
1787189.0,1596631789.556
1786092.0,1596631789.636
1785815.0,1596631789.717
1786111.0,1596631789.757
1786986.0,1596631789.797
1788020.0,1596631789.838
1789636.0,1596631789.877
1790886.0,1596631789.917
1792034.0,1596631789.958
1793742.0,1596631789.998
1795142.0,1596631790.037
1796353.0,1596631790.078
1798221.0,1596631790.117
1800025.0,1596631790.157
1801392.0,1596631790.199
1803409.0,1596631790.238
1805403.0,1596631790.278
1807340.0,1596631790.319
1809035.0,1596631790.358
1810921.0,1596631790.399
1813021.0,1596631790.439
1813350.0,1596631790.478
1810380.0,1596631790.518
1806270.0,1596631790.559
1803111.0,1596631790.599
1800860.0,1596631790.639
1799027.0,1596631790.68
1797928.0,1596631790.719
1797138.0,1596631790.759
1795607.0,1596631790.801
1794398.0,1596631790.839
1793061.0,1596631790.879
1792238.0,1596631790.92
1792529.0,1596631790.959
1792892.0,1596631791.0
1793130.0,1596631791.041
1793763.0,1596631791.08
1794348.0,1596631791.12
1794569.0,1596631791.161
1794770.0,1596631791.201
1795306.0,1596631791.24
1795648.0,1596631791.281
1796356.0,1596631791.32
1797004.0,1596631791.36
1797211.0,1596631791.402
1798209.0,1596631791.441
1798813.0,1596631791.481
1799428.0,1596631791.522
1800565.0,1596631791.561
1801278.0,1596631791.602
1799058.0,1596631791.642
1794004.0,1596631791.681
1788973.0,1596631791.721
1784336.0,1596631791.762
1781391.0,1596631791.802
1778542.0,1596631791.842
1776422.0,1596631791.883
1773802.0,1596631791.922
1771272.0,1596631791.962
1768428.0,1596631792.004
1766558.0,1596631792.042
1765271.0,1596631792.082
1763913.0,1596631792.123
1763579.0,1596631792.162
1763475.0,1596631792.203
1763197.0,1596631792.244
1763398.0,1596631792.283
1763970.0,1596631792.323
1764274.0,1596631792.364
1764907.0,1596631792.404
1766096.0,1596631792.443
1767181.0,1596631792.484
1768290.0,1596631792.523
1770215.0,1596631792.563
1771317.0,1596631792.605
1773038.0,1596631792.644
1774041.0,1596631792.684
1775935.0,1596631792.725
1776727.0,1596631792.764
1774459.0,1596631792.805
1770221.0,1596631792.845
1765667.0,1596631792.884
1762265.0,1596631792.924
1759261.0,1596631792.965
1757070.0,1596631793.005
1755470.0,1596631793.045
1753235.0,1596631793.086
1750574.0,1596631793.125
1748250.0,1596631793.165
1746124.0,1596631793.207
1744962.0,1596631793.245
1744014.0,1596631793.285
1743672.0,1596631793.327
1743473.0,1596631793.366
1743208.0,1596631793.406
1742737.0,1596631793.447
1742450.0,1596631793.486
1742245.0,1596631793.526
1742468.0,1596631793.567
1743426.0,1596631793.607
1743881.0,1596631793.646
1744469.0,1596631793.687
1745338.0,1596631793.727
1746486.0,1596631793.767
1747622.0,1596631793.809
1745712.0,1596631793.847
1741407.0,1596631793.887
1736892.0,1596631793.928
1733354.0,1596631793.967
1731053.0,1596631794.008
1728955.0,1596631794.049
1727579.0,1596631794.088
1726256.0,1596631794.128
1724233.0,1596631794.169
1722694.0,1596631794.209
1721751.0,1596631794.248
1721218.0,1596631794.289
1721400.0,1596631794.328
1722171.0,1596631794.368
1723105.0,1596631794.41
1724251.0,1596631794.449
1725503.0,1596631794.489
1727000.0,1596631794.53
1728838.0,1596631794.569
1730476.0,1596631794.61
1732382.0,1596631794.65
1734641.0,1596631794.689
1736511.0,1596631794.73
1738743.0,1596631794.771
1740942.0,1596631794.81
1742620.0,1596631794.85
1744458.0,1596631794.891
1746352.0,1596631794.93
1748039.0,1596631794.97
1747994.0,1596631795.012
1745002.0,1596631795.05
1741391.0,1596631795.091
1739385.0,1596631795.132
1737852.0,1596631795.171
1736661.0,1596631795.212
1736359.0,1596631795.252
1736189.0,1596631795.291
1735926.0,1596631795.331
1736218.0,1596631795.372
1736969.0,1596631795.412
1738148.0,1596631795.452
1739669.0,1596631795.493
1741832.0,1596631795.532
1743911.0,1596631795.572
1746170.0,1596631795.614
1748830.0,1596631795.652
1751156.0,1596631795.692
1753743.0,1596631795.733
1756535.0,1596631795.772
1759380.0,1596631795.813
1762590.0,1596631795.854
1765857.0,1596631795.893
1769230.0,1596631795.933
1772673.0,1596631795.974
1776137.0,1596631796.014
1779854.0,1596631796.053
1783238.0,1596631796.094
1787107.0,1596631796.133
1790377.0,1596631796.173
1791761.0,1596631796.215
1791744.0,1596631796.254
1791950.0,1596631796.294
1792631.0,1596631796.335
1793893.0,1596631796.374
1795645.0,1596631796.415
1797207.0,1596631796.455
1798996.0,1596631796.494
1799994.0,1596631796.535
1801629.0,1596631796.576
1803462.0,1596631796.615
1805794.0,1596631796.655
1808378.0,1596631796.696
1810820.0,1596631796.735
1813498.0,1596631796.775
1816575.0,1596631796.817
1819305.0,1596631796.855
1821636.0,1596631796.896
1824398.0,1596631796.937
1827399.0,1596631796.976
1830393.0,1596631797.017
1833709.0,1596631797.057
1836763.0,1596631797.096
1840075.0,1596631797.136
1843061.0,1596631797.177
1846056.0,1596631797.217
1849542.0,1596631797.257
1852711.0,1596631797.298
1854725.0,1596631797.337
1855358.0,1596631797.377
1855811.0,1596631797.419
1857150.0,1596631797.457
1858786.0,1596631797.497
1860341.0,1596631797.538
1862206.0,1596631797.577
1863944.0,1596631797.618
1865261.0,1596631797.658
1867145.0,1596631797.697
1868753.0,1596631797.738
1871086.0,1596631797.779
1873344.0,1596631797.818
1875612.0,1596631797.858
1877800.0,1596631797.899
1880429.0,1596631797.938
1882417.0,1596631797.978
1885131.0,1596631798.02
1887614.0,1596631798.058
1890202.0,1596631798.098
1892627.0,1596631798.139
1895146.0,1596631798.178
1897684.0,1596631798.219
1900407.0,1596631798.259
1903217.0,1596631798.298
1905810.0,1596631798.339
1908352.0,1596631798.38
1913174.0,1596631798.459
1910666.0,1596631798.419
1915345.0,1596631798.5
1915307.0,1596631798.539
1914947.0,1596631798.579
1915196.0,1596631798.621
1915535.0,1596631798.659
1922139.0,1596631799.021
1917682.0,1596631798.779
1918426.0,1596631798.82
1918674.0,1596631798.861
1919269.0,1596631798.9
1920128.0,1596631798.94
1920852.0,1596631798.981
1923705.0,1596631799.06
1924832.0,1596631799.101
1916203.0,1596631798.699
1916857.0,1596631798.74
1926143.0,1596631799.14
1929021.0,1596631799.222
1927248.0,1596631799.18
1929990.0,1596631799.26
1931811.0,1596631799.301
1933091.0,1596631799.342
1936714.0,1596631799.422
1934713.0,1596631799.381
1938395.0,1596631799.462
1939963.0,1596631799.501
1943487.0,1596631799.582
1945643.0,1596631799.622
1947580.0,1596631799.661
1948646.0,1596631799.703
1948992.0,1596631799.742
1947241.0,1596631799.782
1945723.0,1596631799.824
1944549.0,1596631799.862
1942896.0,1596631799.943
1942416.0,1596631799.982
1943771.0,1596631799.902
1941666.0,1596631800.023
1940721.0,1596631800.063
1942017.0,1596631799.541
1940094.0,1596631800.102
1939003.0,1596631800.142
1938303.0,1596631800.184
1937939.0,1596631800.223
1938121.0,1596631800.263
1938420.0,1596631800.304
1938484.0,1596631800.343
1938917.0,1596631800.383
1938942.0,1596631800.425
1940053.0,1596631800.544
1938937.0,1596631800.463
1940433.0,1596631800.583
1939430.0,1596631800.503
1941395.0,1596631800.624
1945202.0,1596631800.825
1944169.0,1596631800.785
1945889.0,1596631800.864
1941795.0,1596631800.665
1942540.0,1596631800.704
1944118.0,1596631800.905
1940679.0,1596631800.944
1937658.0,1596631800.984
1943397.0,1596631800.744
1932258.0,1596631801.065
1930404.0,1596631801.105
1928466.0,1596631801.146
1926744.0,1596631801.185
1924125.0,1596631801.226
1922092.0,1596631801.266
1920319.0,1596631801.305
1918660.0,1596631801.345
1917570.0,1596631801.386
1915614.0,1596631801.465
1934557.0,1596631801.026
1916785.0,1596631801.426
1913029.0,1596631801.507
1910240.0,1596631801.546
1908806.0,1596631801.586
1907681.0,1596631801.628
1907109.0,1596631801.706
1907321.0,1596631801.666
1906378.0,1596631801.786
1906664.0,1596631801.747
1906198.0,1596631801.827
1906195.0,1596631801.868
1906011.0,1596631801.907
1906395.0,1596631801.947
1906596.0,1596631801.988
1905482.0,1596631802.028
1901756.0,1596631802.067
1896854.0,1596631802.108
1892413.0,1596631802.147
1888507.0,1596631802.187
1885141.0,1596631802.229
1882088.0,1596631802.268
1879767.0,1596631802.308
1877254.0,1596631802.349
1874253.0,1596631802.388
1871930.0,1596631802.429
1870097.0,1596631802.469
1868292.0,1596631802.508
1867091.0,1596631802.548
1865960.0,1596631802.589
1864888.0,1596631802.629
1864468.0,1596631802.669
1863409.0,1596631802.71
1862761.0,1596631802.749
1862030.0,1596631802.789
1861268.0,1596631802.831
1861032.0,1596631802.869
1860787.0,1596631802.909
1860742.0,1596631802.95
1860892.0,1596631802.989
1861083.0,1596631803.03
1861577.0,1596631803.071
1862209.0,1596631803.11
1862807.0,1596631803.15
1862171.0,1596631803.191
1858591.0,1596631803.231
1854602.0,1596631803.27
1850821.0,1596631803.311
1847848.0,1596631803.35
1845213.0,1596631803.391
1843233.0,1596631803.432
1841603.0,1596631803.471
1839204.0,1596631803.511
1836524.0,1596631803.552
1834870.0,1596631803.591
1833509.0,1596631803.632
1832702.0,1596631803.672
1832329.0,1596631803.711
1832386.0,1596631803.751
1832296.0,1596631803.793
1831990.0,1596631803.832
1832067.0,1596631803.872
1832527.0,1596631803.913
1832742.0,1596631803.952
1833678.0,1596631803.992
1834672.0,1596631804.034
1835286.0,1596631804.072
1836793.0,1596631804.112
1837881.0,1596631804.153
1838822.0,1596631804.193
1840689.0,1596631804.233
1841918.0,1596631804.274
1841421.0,1596631804.313
1838135.0,1596631804.353
1835225.0,1596631804.394
1832881.0,1596631804.434
1831099.0,1596631804.473
1829961.0,1596631804.515
1829018.0,1596631804.554
1828078.0,1596631804.594
1826970.0,1596631804.636
1825833.0,1596631804.674
1825545.0,1596631804.714
1825421.0,1596631804.755
1825672.0,1596631804.794
1826350.0,1596631804.835
1827155.0,1596631804.876
1827865.0,1596631804.915
1828947.0,1596631804.955
1829805.0,1596631804.996
1830561.0,1596631805.036
1831931.0,1596631805.075
1833525.0,1596631805.116
1834961.0,1596631805.155
1836655.0,1596631805.196
1838246.0,1596631805.237
1839314.0,1596631805.276
1840972.0,1596631805.316
1842294.0,1596631805.357
1843390.0,1596631805.396
1844939.0,1596631805.437
1845275.0,1596631805.477
1843270.0,1596631805.517
1841130.0,1596631805.557
1839193.0,1596631805.598
1838266.0,1596631805.638
1837517.0,1596631805.677
1837341.0,1596631805.718
1837299.0,1596631805.757
1836882.0,1596631805.797
1836848.0,1596631805.839
1837040.0,1596631805.878
1837889.0,1596631805.918
1839185.0,1596631805.959
1840443.0,1596631805.998
1841784.0,1596631806.039
1843970.0,1596631806.079
1844942.0,1596631806.118
1846110.0,1596631806.159
1847716.0,1596631806.2
1848956.0,1596631806.24
1850235.0,1596631806.279
1850797.0,1596631806.32
1852129.0,1596631806.359
1853343.0,1596631806.399
1855862.0,1596631806.441
1858457.0,1596631806.48
1862233.0,1596631806.52
1865612.0,1596631806.561
1870372.0,1596631806.6
1870556.0,1596631806.641
1871340.0,1596631806.681
1872637.0,1596631806.72
1874418.0,1596631806.76
1875663.0,1596631806.801
1877516.0,1596631806.841
1879161.0,1596631806.881
1881266.0,1596631806.922
1883867.0,1596631806.961
1886339.0,1596631807.001
1889151.0,1596631807.043
1892423.0,1596631807.081
1895265.0,1596631807.121
1898149.0,1596631807.162
1901256.0,1596631807.201
1903734.0,1596631807.242
1905962.0,1596631807.282
1908761.0,1596631807.321
1911488.0,1596631807.361
1913738.0,1596631807.403
1916646.0,1596631807.442
1919153.0,1596631807.482
1921948.0,1596631807.523
1924583.0,1596631807.562
1927467.0,1596631807.602
1929869.0,1596631807.644
1933064.0,1596631807.682
1936302.0,1596631807.722
1939830.0,1596631807.763
1942739.0,1596631807.802
1943411.0,1596631807.843
1944057.0,1596631807.884
1944538.0,1596631807.923
1946531.0,1596631807.963
1948414.0,1596631808.004
1950656.0,1596631808.044
1952678.0,1596631808.083
1954072.0,1596631808.124
1955099.0,1596631808.163
1955803.0,1596631808.203
1956912.0,1596631808.245
1958399.0,1596631808.284
1960173.0,1596631808.324
1961947.0,1596631808.365
1963256.0,1596631808.404
1964335.0,1596631808.445
1965756.0,1596631808.485
1967338.0,1596631808.524
1969288.0,1596631808.564
1971711.0,1596631808.605
1973395.0,1596631808.645
1975796.0,1596631808.684
1978138.0,1596631808.726
1979898.0,1596631808.765
1982645.0,1596631808.805
1984581.0,1596631808.847
1985665.0,1596631808.885
1985501.0,1596631808.925
1984567.0,1596631808.966
1983928.0,1596631809.005
1984391.0,1596631809.046
1984556.0,1596631809.086
1984617.0,1596631809.126
1984848.0,1596631809.166
1984619.0,1596631809.207
1984937.0,1596631809.246
1985360.0,1596631809.286
1985705.0,1596631809.327
1985965.0,1596631809.366
1986847.0,1596631809.406
1987664.0,1596631809.448
1988442.0,1596631809.486
1989483.0,1596631809.526
1990330.0,1596631809.568
1990773.0,1596631809.607
1991635.0,1596631809.647
1992205.0,1596631809.688
1993470.0,1596631809.727
1994507.0,1596631809.767
1995548.0,1596631809.808
1996342.0,1596631809.848
1997833.0,1596631809.887
1998869.0,1596631809.928
1999249.0,1596631809.968
1997680.0,1596631810.008
1995198.0,1596631810.05
1993327.0,1596631810.088
1991934.0,1596631810.128
1990450.0,1596631810.169
1989958.0,1596631810.208
1989368.0,1596631810.249
1987983.0,1596631810.289
1985609.0,1596631810.369
1984569.0,1596631810.41
1986703.0,1596631810.328
1984470.0,1596631810.449
1984046.0,1596631810.489
1983582.0,1596631810.569
1983379.0,1596631810.609
1983494.0,1596631810.53
1982845.0,1596631810.689
1983438.0,1596631810.651
1983342.0,1596631810.729
1983031.0,1596631810.771
1983325.0,1596631810.81
1983914.0,1596631810.85
1983674.0,1596631810.891
1984145.0,1596631810.93
1984778.0,1596631810.97
1982315.0,1596631811.09
1978809.0,1596631811.131
1975268.0,1596631811.171
1984841.0,1596631811.051
1971857.0,1596631811.211
1985138.0,1596631811.011
1969432.0,1596631811.252
1966933.0,1596631811.291
1964225.0,1596631811.331
1962184.0,1596631811.372
1959318.0,1596631811.411
1957145.0,1596631811.452
1955018.0,1596631811.492
1952509.0,1596631811.571
1953367.0,1596631811.531
1951281.0,1596631811.613
1950645.0,1596631811.652
1949717.0,1596631811.692
1949398.0,1596631811.733
1948280.0,1596631811.772
1948111.0,1596631811.812
1947763.0,1596631811.854
1947707.0,1596631811.892
1947937.0,1596631811.932
1948030.0,1596631811.974
1948515.0,1596631812.053
1949123.0,1596631812.094
1949525.0,1596631812.133
1950301.0,1596631812.173
1950691.0,1596631812.214
1950665.0,1596631812.254
1948475.0,1596631812.293
1944476.0,1596631812.335
1940674.0,1596631812.374
1937114.0,1596631812.414
1948624.0,1596631812.013
1934326.0,1596631812.456
1931822.0,1596631812.494
1929508.0,1596631812.534
1926740.0,1596631812.575
1924069.0,1596631812.614
1921386.0,1596631812.655
1918903.0,1596631812.696
1917206.0,1596631812.735
1916396.0,1596631812.775
1915336.0,1596631812.816
1914756.0,1596631812.856
1913797.0,1596631812.895
1912717.0,1596631812.936
1911511.0,1596631813.057
1911208.0,1596631813.096
1910770.0,1596631813.136
1911094.0,1596631813.177
1911752.0,1596631813.015
1911412.0,1596631813.216
1911995.0,1596631812.975
1911568.0,1596631813.257
1912091.0,1596631813.297
1912435.0,1596631813.336
1909260.0,1596631813.418
1912028.0,1596631813.376
1904527.0,1596631813.457
1897396.0,1596631813.538
1900479.0,1596631813.497
1891253.0,1596631813.617
1893978.0,1596631813.577
1886196.0,1596631813.697
1888633.0,1596631813.659
1883477.0,1596631813.738
1880817.0,1596631813.779
1878720.0,1596631813.818
1877089.0,1596631813.859
1876032.0,1596631813.899
1874889.0,1596631813.938
1874005.0,1596631813.978
1873408.0,1596631814.019
1872130.0,1596631814.099
1872888.0,1596631814.059
1871872.0,1596631814.14
1872082.0,1596631814.179
1871741.0,1596631814.219
1872088.0,1596631814.261
1871966.0,1596631814.299
1872898.0,1596631814.339
1873393.0,1596631814.381
1873999.0,1596631814.42
1874625.0,1596631814.46
1875544.0,1596631814.501
1876457.0,1596631814.54
1877404.0,1596631814.58
1876388.0,1596631814.621
1869265.0,1596631814.7
1873109.0,1596631814.661
1866987.0,1596631814.742
1864972.0,1596631814.781
1862780.0,1596631814.821
1860919.0,1596631814.863
1859482.0,1596631814.901
1855824.0,1596631814.982
1857568.0,1596631814.941
1852982.0,1596631815.062
1853885.0,1596631815.022
1852092.0,1596631815.103
1851390.0,1596631815.142
1851448.0,1596631815.182
1851032.0,1596631815.223
1850957.0,1596631815.263
1850706.0,1596631815.302
1850684.0,1596631815.344
1850868.0,1596631815.383
1851081.0,1596631815.423
1851684.0,1596631815.465
1852243.0,1596631815.503
1852917.0,1596631815.543
1853584.0,1596631815.584
1854657.0,1596631815.623
1855784.0,1596631815.664
1856733.0,1596631815.704
1858349.0,1596631815.743
1859065.0,1596631815.783
1857523.0,1596631815.825
1855035.0,1596631815.864
1852290.0,1596631815.904
1850138.0,1596631815.945
1849087.0,1596631815.984
1848309.0,1596631816.024
1847994.0,1596631816.066
1847004.0,1596631816.104
1845732.0,1596631816.144
1844809.0,1596631816.185
1844739.0,1596631816.224
1844653.0,1596631816.265
1845012.0,1596631816.306
1845146.0,1596631816.345
1845844.0,1596631816.385
1846700.0,1596631816.426
1847703.0,1596631816.466
1848005.0,1596631816.505
1849403.0,1596631816.546
1850666.0,1596631816.585
1851997.0,1596631816.625
1853308.0,1596631816.667
1854612.0,1596631816.705
1856137.0,1596631816.746
1857987.0,1596631816.787
1859825.0,1596631816.826
1861638.0,1596631816.867
1862985.0,1596631816.907
1862360.0,1596631816.946
1859806.0,1596631816.986
1857393.0,1596631817.027
1855677.0,1596631817.067
1854160.0,1596631817.106
1852663.0,1596631817.148
1852344.0,1596631817.187
1851287.0,1596631817.227
1851007.0,1596631817.269
1850072.0,1596631817.307
1849587.0,1596631817.347
1849555.0,1596631817.388
1850268.0,1596631817.427
1850053.0,1596631817.468
1849289.0,1596631817.508
1849630.0,1596631817.547
1850026.0,1596631817.588
1850945.0,1596631817.629
1852102.0,1596631817.668
1853422.0,1596631817.708
1854935.0,1596631817.749
1856268.0,1596631817.788
1858315.0,1596631817.828
1860051.0,1596631817.87
1862195.0,1596631817.908
1864123.0,1596631817.948
1866439.0,1596631817.99
1868765.0,1596631818.029
1870588.0,1596631818.069
1872200.0,1596631818.11
1872169.0,1596631818.149
1870033.0,1596631818.189
1867877.0,1596631818.23
1866533.0,1596631818.27
1865672.0,1596631818.309
1865187.0,1596631818.35
1864763.0,1596631818.389
1864083.0,1596631818.43
1862974.0,1596631818.471
1862361.0,1596631818.51
1861923.0,1596631818.55
1861708.0,1596631818.591
1861915.0,1596631818.63
1862474.0,1596631818.671
1862621.0,1596631818.711
1863282.0,1596631818.75
1863721.0,1596631818.79
1863573.0,1596631818.832
1863412.0,1596631818.871
1863227.0,1596631818.911
1863783.0,1596631818.952
1865192.0,1596631818.991
1867234.0,1596631819.031
1869757.0,1596631819.073
1872371.0,1596631819.111
1874921.0,1596631819.151
1877480.0,1596631819.193
1878503.0,1596631819.232
1876708.0,1596631819.272
1875237.0,1596631819.313
1874625.0,1596631819.352
1873942.0,1596631819.392
1873735.0,1596631819.433
1873883.0,1596631819.473
1873827.0,1596631819.512
1873349.0,1596631819.554
1872866.0,1596631819.593
1873011.0,1596631819.633
1873412.0,1596631819.675
1873750.0,1596631819.713
1874525.0,1596631819.753
1874988.0,1596631819.794
1876198.0,1596631819.833
1876829.0,1596631819.874
1877838.0,1596631819.915
1878866.0,1596631819.954
1879760.0,1596631819.994
1880613.0,1596631820.035
1882113.0,1596631820.075
1883679.0,1596631820.114
1884852.0,1596631820.155
1885841.0,1596631820.194
1887542.0,1596631820.235
1888563.0,1596631820.276
1887951.0,1596631820.315
1885185.0,1596631820.355
1881561.0,1596631820.396
1879529.0,1596631820.435
1877608.0,1596631820.476
1875906.0,1596631820.516
1874502.0,1596631820.555
1873517.0,1596631820.595
1872314.0,1596631820.637
1871015.0,1596631820.676
1870075.0,1596631820.716
1869239.0,1596631820.757
1869155.0,1596631820.796
1869172.0,1596631820.836
1869844.0,1596631820.878
1870244.0,1596631820.916
1870351.0,1596631820.956
1870965.0,1596631820.998
1871006.0,1596631821.037
1871437.0,1596631821.078
1872092.0,1596631821.118
1872718.0,1596631821.157
1873903.0,1596631821.197
1874767.0,1596631821.238
1875411.0,1596631821.278
1876399.0,1596631821.317
1877432.0,1596631821.359
1878663.0,1596631821.398
1879811.0,1596631821.438
1879376.0,1596631821.48
1875983.0,1596631821.518
1872520.0,1596631821.558
1870175.0,1596631821.599
1868182.0,1596631821.638
1866757.0,1596631821.679
1866190.0,1596631821.72
1865213.0,1596631821.759
1863617.0,1596631821.799
1862558.0,1596631821.84
1861810.0,1596631821.88
1861581.0,1596631821.919
1861455.0,1596631821.96
1861912.0,1596631821.999
1862155.0,1596631822.04
1863057.0,1596631822.081
1863400.0,1596631822.12
1863891.0,1596631822.16
1864404.0,1596631822.201
1865671.0,1596631822.24
1866763.0,1596631822.281
1867648.0,1596631822.322
1868755.0,1596631822.361
1870015.0,1596631822.402
1871456.0,1596631822.443
1872265.0,1596631822.482
1872211.0,1596631822.522
1871911.0,1596631822.563
1870333.0,1596631822.602
1866690.0,1596631822.642
1863215.0,1596631822.684
1860809.0,1596631822.722
1859748.0,1596631822.763
1858529.0,1596631822.804
1857383.0,1596631822.843
1856374.0,1596631822.884
1854883.0,1596631822.924
1853679.0,1596631822.963
1853071.0,1596631823.003
1852856.0,1596631823.045
1852916.0,1596631823.084
1853764.0,1596631823.124
1854553.0,1596631823.165
1856278.0,1596631823.244
1855419.0,1596631823.204
1857615.0,1596631823.325
1858463.0,1596631823.365
1856955.0,1596631823.286
1859239.0,1596631823.406
1860520.0,1596631823.445
1861898.0,1596631823.486
1863117.0,1596631823.526
1864819.0,1596631823.565
1866342.0,1596631823.606
1867992.0,1596631823.647
1869438.0,1596631823.687
1871041.0,1596631823.726
1872645.0,1596631823.767
1873378.0,1596631823.806
1871418.0,1596631823.846
1868513.0,1596631823.888
1865022.0,1596631823.967
1864300.0,1596631824.008
1862258.0,1596631824.047
1866478.0,1596631823.927
1859256.0,1596631824.128
1858186.0,1596631824.167
1857762.0,1596631824.207
1861122.0,1596631824.088
1857783.0,1596631824.248
1858241.0,1596631824.288
1858770.0,1596631824.327
1859403.0,1596631824.369
1860231.0,1596631824.408
1861092.0,1596631824.448
1862219.0,1596631824.489
1863849.0,1596631824.528
1865528.0,1596631824.568
1866858.0,1596631824.609
1867971.0,1596631824.648
1869410.0,1596631824.689
1870839.0,1596631824.729
1872625.0,1596631824.768
1873867.0,1596631824.808
1875450.0,1596631824.85
1875676.0,1596631824.889
1872800.0,1596631824.929
1867204.0,1596631825.049
1868522.0,1596631825.009
1870311.0,1596631824.97
1866636.0,1596631825.091
1866363.0,1596631825.169
1865727.0,1596631825.21
1865453.0,1596631825.249
1865984.0,1596631825.129
1865877.0,1596631825.29
1866409.0,1596631825.331
1867252.0,1596631825.37
1868227.0,1596631825.41
1869061.0,1596631825.451
1870682.0,1596631825.491
1871624.0,1596631825.53
1873031.0,1596631825.571
1874312.0,1596631825.61
1875791.0,1596631825.65
1877175.0,1596631825.692
1879357.0,1596631825.73
1881050.0,1596631825.77
1882801.0,1596631825.812
1884777.0,1596631825.851
1887069.0,1596631825.891
1889710.0,1596631825.932
1891903.0,1596631825.971
1894295.0,1596631826.011
1895465.0,1596631826.052
1894467.0,1596631826.092
1892802.0,1596631826.131
1891937.0,1596631826.172
1892331.0,1596631826.212
1892071.0,1596631826.252
1892295.0,1596631826.293
1892723.0,1596631826.332
1892990.0,1596631826.372
1892917.0,1596631826.413
1893244.0,1596631826.452
1893964.0,1596631826.493
1895421.0,1596631826.533
1896017.0,1596631826.572
1897195.0,1596631826.612
1898643.0,1596631826.654
1899690.0,1596631826.693
1901075.0,1596631826.733
1902032.0,1596631826.774
1902864.0,1596631826.813
1903941.0,1596631826.853
1904759.0,1596631826.895
1906189.0,1596631826.933
1907739.0,1596631826.973
1908587.0,1596631827.014
1909553.0,1596631827.053
1910545.0,1596631827.094
1911970.0,1596631827.135
1912564.0,1596631827.174
1908983.0,1596631827.255
1911245.0,1596631827.214
1907269.0,1596631827.295
1906393.0,1596631827.334
1905328.0,1596631827.375
1904888.0,1596631827.414
1904629.0,1596631827.454
1903853.0,1596631827.496
1903443.0,1596631827.535
1902844.0,1596631827.575
1902753.0,1596631827.616
1902989.0,1596631827.655
1903978.0,1596631827.696
1904409.0,1596631827.736
1905008.0,1596631827.775
1905658.0,1596631827.815
1906428.0,1596631827.856
1906920.0,1596631827.896
1907762.0,1596631827.936
1908153.0,1596631827.977
1909688.0,1596631828.016
1910711.0,1596631828.056
1911687.0,1596631828.098
1912848.0,1596631828.136
1914159.0,1596631828.176
1915313.0,1596631828.217
1916701.0,1596631828.257
1916815.0,1596631828.297
1914992.0,1596631828.338
1912744.0,1596631828.377
1910437.0,1596631828.417
1909316.0,1596631828.458
1908067.0,1596631828.498
1907825.0,1596631828.537
1907318.0,1596631828.578
1906537.0,1596631828.618
1905679.0,1596631828.658
1905199.0,1596631828.699
1905368.0,1596631828.738
1905870.0,1596631828.778
1905907.0,1596631828.819
1906876.0,1596631828.858
1907818.0,1596631828.899
1908804.0,1596631828.939
1909425.0,1596631828.978
1910681.0,1596631829.019
1911679.0,1596631829.06
1913344.0,1596631829.099
1914557.0,1596631829.139
1916264.0,1596631829.18
1918065.0,1596631829.219
1919536.0,1596631829.259
1921307.0,1596631829.301
1923246.0,1596631829.339
1924811.0,1596631829.379
1926824.0,1596631829.421
1928188.0,1596631829.46
1927514.0,1596631829.501
1924512.0,1596631829.541
1922103.0,1596631829.58
1919945.0,1596631829.62
1918744.0,1596631829.661
1917552.0,1596631829.701
1916944.0,1596631829.74
1915693.0,1596631829.782
1913976.0,1596631829.821
1912795.0,1596631829.861
1911678.0,1596631829.903
1911197.0,1596631829.941
1911249.0,1596631829.981
1910786.0,1596631830.022
1910940.0,1596631830.061
1911529.0,1596631830.102
1911453.0,1596631830.143
1911536.0,1596631830.182
1912149.0,1596631830.222
1912467.0,1596631830.263
1913260.0,1596631830.303
1913755.0,1596631830.342
1914713.0,1596631830.383
1915873.0,1596631830.423
1916961.0,1596631830.463
1918170.0,1596631830.504
1919529.0,1596631830.543
1919340.0,1596631830.583
1916865.0,1596631830.624
1913007.0,1596631830.663
1909907.0,1596631830.704
1907942.0,1596631830.745
1905865.0,1596631830.784
1904725.0,1596631830.824
1903105.0,1596631830.865
1901803.0,1596631830.905
1899923.0,1596631830.944
1898516.0,1596631830.985
1897305.0,1596631831.024
1896788.0,1596631831.064
1896604.0,1596631831.106
1896342.0,1596631831.145
1896824.0,1596631831.185
1897002.0,1596631831.226
1896954.0,1596631831.265
1896899.0,1596631831.306
1897652.0,1596631831.346
1897857.0,1596631831.385
1898528.0,1596631831.426
1899449.0,1596631831.467
1900431.0,1596631831.507
1901377.0,1596631831.546
1902374.0,1596631831.587
1903500.0,1596631831.626
1904762.0,1596631831.666
1905214.0,1596631831.708
1902558.0,1596631831.747
1898460.0,1596631831.787
1895711.0,1596631831.828
1893436.0,1596631831.867
1891311.0,1596631831.908
1889727.0,1596631831.948
1888542.0,1596631831.987
1886457.0,1596631832.027
1885006.0,1596631832.069
1883179.0,1596631832.108
1882281.0,1596631832.148
1881871.0,1596631832.189
1881514.0,1596631832.228
1881278.0,1596631832.268
1880837.0,1596631832.31
1881329.0,1596631832.348
1881143.0,1596631832.389
1880947.0,1596631832.43
1881357.0,1596631832.469
1881671.0,1596631832.51
1882037.0,1596631832.55
1883010.0,1596631832.589
1883949.0,1596631832.629
1884903.0,1596631832.67
1886110.0,1596631832.71
1887274.0,1596631832.75
1888675.0,1596631832.791
1889058.0,1596631832.83
1886801.0,1596631832.87
1883683.0,1596631832.912
1880602.0,1596631832.95
1878489.0,1596631832.99
1876932.0,1596631833.031
1875918.0,1596631833.07
1875189.0,1596631833.111
1873665.0,1596631833.151
1871987.0,1596631833.19
1870868.0,1596631833.23
1870384.0,1596631833.272
1869694.0,1596631833.311
1869774.0,1596631833.351
1870126.0,1596631833.392
1870310.0,1596631833.431
1871000.0,1596631833.471
1871389.0,1596631833.513
1871914.0,1596631833.551
1872244.0,1596631833.591
1873295.0,1596631833.632
1873834.0,1596631833.671
1875193.0,1596631833.712
1876262.0,1596631833.752
1877230.0,1596631833.791
1878853.0,1596631833.832
1880069.0,1596631833.873
1881155.0,1596631833.912
1880759.0,1596631833.952
1877554.0,1596631833.993
1873852.0,1596631834.032
1870567.0,1596631834.072
1868294.0,1596631834.114
1866562.0,1596631834.152
1864563.0,1596631834.192
1863233.0,1596631834.234
1861310.0,1596631834.273
1859396.0,1596631834.313
1858204.0,1596631834.352
1857365.0,1596631834.391
1856898.0,1596631834.431
1856497.0,1596631834.472
1856323.0,1596631834.512
1856648.0,1596631834.551
1856846.0,1596631834.592
1856955.0,1596631834.631
1857614.0,1596631834.671
1858428.0,1596631834.713
1859418.0,1596631834.752
1860494.0,1596631834.792
1861668.0,1596631834.833
1864945.0,1596631834.913
1866774.0,1596631834.953
1869025.0,1596631834.992
1870933.0,1596631835.032
1873282.0,1596631835.073
1876070.0,1596631835.113
1863384.0,1596631834.872
1876308.0,1596631835.152
1874352.0,1596631835.194
1871789.0,1596631835.233
1867381.0,1596631835.315
1865864.0,1596631835.353
1869182.0,1596631835.273
1865070.0,1596631835.393
1863850.0,1596631835.434
1861690.0,1596631835.473
1859848.0,1596631835.514
1858355.0,1596631835.554
1857074.0,1596631835.594
1856516.0,1596631835.634
1855577.0,1596631835.754
1856320.0,1596631835.675
1856082.0,1596631835.715
1856464.0,1596631835.916
1856882.0,1596631835.954
1855766.0,1596631835.834
1855590.0,1596631835.795
1855904.0,1596631835.874
1857787.0,1596631835.994
1858280.0,1596631836.036
1860685.0,1596631836.115
1861890.0,1596631836.156
1859481.0,1596631836.075
1862883.0,1596631836.195
1863809.0,1596631836.235
1862032.0,1596631836.276
1854824.0,1596631836.355
1851937.0,1596631836.396
1858168.0,1596631836.316
1850200.0,1596631836.435
1848589.0,1596631836.476
1847198.0,1596631836.517
1845894.0,1596631836.556
1843998.0,1596631836.596
1842295.0,1596631836.637
1840891.0,1596631836.676
1840351.0,1596631836.717
1840428.0,1596631836.757
1840192.0,1596631836.796
1840105.0,1596631836.836
1840864.0,1596631836.878
1841287.0,1596631836.917
1842220.0,1596631836.998
1841471.0,1596631836.957
1842817.0,1596631837.037
1843900.0,1596631837.077
1844749.0,1596631837.119
1845726.0,1596631837.157
1847048.0,1596631837.198
1848144.0,1596631837.239
1849221.0,1596631837.278
1850606.0,1596631837.319
1852106.0,1596631837.359
1853005.0,1596631837.398
1851597.0,1596631837.438
1847987.0,1596631837.479
1844629.0,1596631837.519
1842517.0,1596631837.559
1838073.0,1596631837.679
1840809.0,1596631837.6
1839393.0,1596631837.639
1836744.0,1596631837.721
1835886.0,1596631837.759
1834562.0,1596631837.799
1834024.0,1596631837.84
1833929.0,1596631837.879
1834536.0,1596631837.92
1835271.0,1596631837.961
1836301.0,1596631838.0
1837507.0,1596631838.04
1838406.0,1596631838.081
1839235.0,1596631838.121
1840834.0,1596631838.16
1842075.0,1596631838.201
1843405.0,1596631838.24
1844824.0,1596631838.28
1848264.0,1596631838.361
1849615.0,1596631838.401
1846286.0,1596631838.322
1851624.0,1596631838.442
1855246.0,1596631838.522
1853005.0,1596631838.481
1856508.0,1596631838.562
1856547.0,1596631838.601
1854044.0,1596631838.641
1848408.0,1596631838.722
1850987.0,1596631838.683
1845382.0,1596631838.803
1846695.0,1596631838.762
1844569.0,1596631838.842
1842422.0,1596631838.924
1843654.0,1596631838.882
1841464.0,1596631838.962
1840311.0,1596631839.003
1840549.0,1596631839.083
1840018.0,1596631839.044
1840893.0,1596631839.124
1841583.0,1596631839.164
1842553.0,1596631839.203
1843706.0,1596631839.243
1844771.0,1596631839.284
1845741.0,1596631839.324
1846783.0,1596631839.364
1848217.0,1596631839.405
1850087.0,1596631839.444
1851789.0,1596631839.484
1853394.0,1596631839.526
1854909.0,1596631839.564
1856900.0,1596631839.604
1858670.0,1596631839.645
1860719.0,1596631839.684
1861146.0,1596631839.725
1859081.0,1596631839.766
1855639.0,1596631839.805
1853353.0,1596631839.845
1851895.0,1596631839.886
1850524.0,1596631839.926
1849669.0,1596631839.965
1848939.0,1596631840.006
1847771.0,1596631840.045
1846113.0,1596631840.086
1845545.0,1596631840.127
1845215.0,1596631840.166
1845030.0,1596631840.206
1845778.0,1596631840.247
1846393.0,1596631840.286
1846999.0,1596631840.327
1847493.0,1596631840.367
1848092.0,1596631840.406
1849070.0,1596631840.447
1849974.0,1596631840.488
1850854.0,1596631840.527
1852109.0,1596631840.567
1853238.0,1596631840.608
1854631.0,1596631840.647
1855754.0,1596631840.687
1857423.0,1596631840.729
1858869.0,1596631840.767
1860492.0,1596631840.808
1861945.0,1596631840.849
1861239.0,1596631840.888
1858201.0,1596631840.929
1854658.0,1596631840.969
1851865.0,1596631841.008
1850259.0,1596631841.048
1848404.0,1596631841.089
1847286.0,1596631841.129
1846531.0,1596631841.169
1845384.0,1596631841.21
1843728.0,1596631841.249
1843013.0,1596631841.289
1842297.0,1596631841.331
1842194.0,1596631841.369
1842283.0,1596631841.409
1842567.0,1596631841.45
1843477.0,1596631841.49
1843450.0,1596631841.53
1844106.0,1596631841.571
1844762.0,1596631841.61
1845137.0,1596631841.65
1846114.0,1596631841.691
1847219.0,1596631841.731
1848117.0,1596631841.77
1848981.0,1596631841.811
1850065.0,1596631841.851
1850982.0,1596631841.891
1851738.0,1596631841.932
1852956.0,1596631841.971
1849687.0,1596631842.011
1845706.0,1596631842.052
1841745.0,1596631842.091
1838692.0,1596631842.132
1836343.0,1596631842.172
1834828.0,1596631842.211
1833681.0,1596631842.251
1831731.0,1596631842.292
1829890.0,1596631842.332
1828659.0,1596631842.372
1827372.0,1596631842.413
1827198.0,1596631842.452
1827348.0,1596631842.492
1827758.0,1596631842.534
1828081.0,1596631842.572
1828285.0,1596631842.612
1828636.0,1596631842.653
1829571.0,1596631842.692
1830104.0,1596631842.733
1831187.0,1596631842.773
1832139.0,1596631842.812
1833490.0,1596631842.853
1834633.0,1596631842.894
1835909.0,1596631842.933
1837940.0,1596631842.973
1839456.0,1596631843.014
1840513.0,1596631843.053
1838254.0,1596631843.093
1834310.0,1596631843.135
1830074.0,1596631843.173
1826965.0,1596631843.213
1824524.0,1596631843.254
1822628.0,1596631843.293
1821441.0,1596631843.334
1819475.0,1596631843.375
1817886.0,1596631843.414
1815801.0,1596631843.454
1814181.0,1596631843.495
1813742.0,1596631843.535
1813343.0,1596631843.574
1812951.0,1596631843.615
1812855.0,1596631843.654
1813248.0,1596631843.694
1812722.0,1596631843.736
1812893.0,1596631843.774
1813303.0,1596631843.814
1813251.0,1596631843.855
1813961.0,1596631843.895
1814538.0,1596631843.935
1815246.0,1596631843.976
1816143.0,1596631844.015
1816902.0,1596631844.055
1817832.0,1596631844.096
1818991.0,1596631844.136
1820341.0,1596631844.175
1818286.0,1596631844.216
1814514.0,1596631844.255
1810594.0,1596631844.295
1807232.0,1596631844.337
1804932.0,1596631844.376
1803374.0,1596631844.416
1802238.0,1596631844.457
1801014.0,1596631844.496
1798997.0,1596631844.537
1797209.0,1596631844.577
1796292.0,1596631844.616
1795414.0,1596631844.656
1795457.0,1596631844.697
1795826.0,1596631844.737
1796541.0,1596631844.776
1796792.0,1596631844.817
1797278.0,1596631844.856
1797633.0,1596631844.897
1798525.0,1596631844.938
1799373.0,1596631844.977
1800381.0,1596631845.017
1801538.0,1596631845.058
1802910.0,1596631845.097
1804021.0,1596631845.138
1805510.0,1596631845.178
1806965.0,1596631845.217
1808664.0,1596631845.257
1808249.0,1596631845.298
1804929.0,1596631845.338
1800315.0,1596631845.378
1793177.0,1596631845.458
1796065.0,1596631845.419
1790883.0,1596631845.498
1788807.0,1596631845.54
1787484.0,1596631845.578
1785399.0,1596631845.618
1783728.0,1596631845.659
1782282.0,1596631845.698
1781000.0,1596631845.739
1781441.0,1596631845.779
1781616.0,1596631845.818
1782077.0,1596631845.858
1782610.0,1596631845.9
1783462.0,1596631845.939
1784124.0,1596631845.979
1784837.0,1596631846.02
1785672.0,1596631846.059
1786914.0,1596631846.099
1787954.0,1596631846.141
1789674.0,1596631846.179
1791272.0,1596631846.219
1792789.0,1596631846.26
1794065.0,1596631846.299
1795759.0,1596631846.34
1797377.0,1596631846.434
1799437.0,1596631846.473
1799819.0,1596631846.513
1796412.0,1596631846.554
1791699.0,1596631846.594
1784877.0,1596631846.674
1787930.0,1596631846.633
1782925.0,1596631846.713
1781638.0,1596631846.753
1780188.0,1596631846.795
1778662.0,1596631846.833
1776946.0,1596631846.874
1775534.0,1596631846.915
1775305.0,1596631846.954
1775603.0,1596631846.994
1775784.0,1596631847.035
1776955.0,1596631847.074
1777997.0,1596631847.114
1779050.0,1596631847.155
1780181.0,1596631847.195
1781836.0,1596631847.234
1783204.0,1596631847.275
1785037.0,1596631847.314
1786921.0,1596631847.355
1788843.0,1596631847.396
1791088.0,1596631847.435
1793152.0,1596631847.475
1795181.0,1596631847.516
1797471.0,1596631847.555
1796880.0,1596631847.596
1793509.0,1596631847.636
1790314.0,1596631847.675
1788086.0,1596631847.715
1786493.0,1596631847.756
1785381.0,1596631847.796
1784954.0,1596631847.836
1784628.0,1596631847.877
1783498.0,1596631847.916
1782525.0,1596631847.956
1782002.0,1596631847.998
1782622.0,1596631848.036
1782899.0,1596631848.076
1784018.0,1596631848.117
1784969.0,1596631848.157
1786249.0,1596631848.197
1787568.0,1596631848.238
1788425.0,1596631848.277
1790029.0,1596631848.317
1791789.0,1596631848.358
1793460.0,1596631848.398
1795434.0,1596631848.437
1797306.0,1596631848.478
1799606.0,1596631848.517
1801698.0,1596631848.557
1804159.0,1596631848.599
1806602.0,1596631848.638
1809113.0,1596631848.678
1810422.0,1596631848.719
1808323.0,1596631848.758
1805604.0,1596631848.799
1803661.0,1596631848.839
1802551.0,1596631848.878
1802208.0,1596631848.918
1802314.0,1596631848.959
1802423.0,1596631848.999
1801863.0,1596631849.039
1801311.0,1596631849.08
1801379.0,1596631849.119
1801853.0,1596631849.159
1802730.0,1596631849.201
1804312.0,1596631849.239
1805498.0,1596631849.279
1806977.0,1596631849.32
1808430.0,1596631849.359
1809598.0,1596631849.4
1811100.0,1596631849.441
1812581.0,1596631849.48
1814145.0,1596631849.52
1815744.0,1596631849.561
1817658.0,1596631849.6
1819829.0,1596631849.64
1821400.0,1596631849.681
1823401.0,1596631849.72
1825413.0,1596631849.76
1827364.0,1596631849.802
1827484.0,1596631849.84
1824723.0,1596631849.88
1821755.0,1596631849.922
1819428.0,1596631849.961
1817964.0,1596631850.001
1817767.0,1596631850.042
1817531.0,1596631850.081
1817485.0,1596631850.121
1817136.0,1596631850.162
1816510.0,1596631850.202
1816484.0,1596631850.241
1817055.0,1596631850.282
1818050.0,1596631850.321
1819497.0,1596631850.362
1820857.0,1596631850.403
1822581.0,1596631850.442
1823778.0,1596631850.482
1825573.0,1596631850.523
1827293.0,1596631850.562
1828831.0,1596631850.603
1831023.0,1596631850.643
1833178.0,1596631850.682
1835096.0,1596631850.723
1837200.0,1596631850.764
1839637.0,1596631850.803
1841699.0,1596631850.843
1842268.0,1596631850.884
1839583.0,1596631850.923
1835672.0,1596631850.963
1833063.0,1596631851.005
1831383.0,1596631851.043
1830404.0,1596631851.083
1829681.0,1596631851.124
1828964.0,1596631851.164
1827980.0,1596631851.204
1826659.0,1596631851.245
1825933.0,1596631851.284
1825947.0,1596631851.324
1826212.0,1596631851.365
1826673.0,1596631851.405
1827439.0,1596631851.444
1828426.0,1596631851.485
1829126.0,1596631851.524
1830237.0,1596631851.565
1831192.0,1596631851.606
1832576.0,1596631851.645
1833972.0,1596631851.685
1835374.0,1596631851.726
1837473.0,1596631851.765
1839471.0,1596631851.806
1841762.0,1596631851.846
1844007.0,1596631851.885
1845800.0,1596631851.926
1848431.0,1596631851.967
1850911.0,1596631852.007
1852532.0,1596631852.046
1850612.0,1596631852.087
1845970.0,1596631852.126
1842489.0,1596631852.166
1840659.0,1596631852.208
1838756.0,1596631852.246
1838011.0,1596631852.287
1837071.0,1596631852.328
1835762.0,1596631852.367
1833986.0,1596631852.408
1832694.0,1596631852.448
1831769.0,1596631852.487
1831286.0,1596631852.527
1831407.0,1596631852.569
1831603.0,1596631852.608
1832141.0,1596631852.647
1832533.0,1596631852.689
1832934.0,1596631852.728
1833106.0,1596631852.768
1834037.0,1596631852.809
1834555.0,1596631852.848
1835470.0,1596631852.888
1836332.0,1596631852.929
1837703.0,1596631852.968
1838850.0,1596631853.009
1840308.0,1596631853.049
1842049.0,1596631853.088
1844083.0,1596631853.128
1845528.0,1596631853.169
1844506.0,1596631853.209
1840058.0,1596631853.248
1836196.0,1596631853.289
1833510.0,1596631853.329
1831910.0,1596631853.369
1831500.0,1596631853.41
1831231.0,1596631853.449
1830477.0,1596631853.489
1829696.0,1596631853.53
1828315.0,1596631853.569
1827525.0,1596631853.61
1827686.0,1596631853.65
1828417.0,1596631853.689
1829064.0,1596631853.729
1830255.0,1596631853.77
1831480.0,1596631853.81
1832111.0,1596631853.85
1833137.0,1596631853.891
1834269.0,1596631853.93
1835055.0,1596631853.97
1836373.0,1596631854.012
1838316.0,1596631854.05
1839779.0,1596631854.09
1841411.0,1596631854.131
1843144.0,1596631854.17
1844917.0,1596631854.211
1846451.0,1596631854.251
1843301.0,1596631854.29
1837607.0,1596631854.331
1833316.0,1596631854.372
1830199.0,1596631854.411
1827655.0,1596631854.451
1825633.0,1596631854.492
1823963.0,1596631854.531
1821982.0,1596631854.571
1819265.0,1596631854.613
1816495.0,1596631854.651
1815004.0,1596631854.691
1813626.0,1596631854.732
1812554.0,1596631854.771
1811535.0,1596631854.812
1810599.0,1596631854.853
1809606.0,1596631854.892
1808893.0,1596631854.932
1808320.0,1596631854.973
1808133.0,1596631855.012
1808161.0,1596631855.052
1808779.0,1596631855.093
1810003.0,1596631855.132
1811220.0,1596631855.172
1813115.0,1596631855.214
1815194.0,1596631855.252
1817465.0,1596631855.292
1819711.0,1596631855.333
1818139.0,1596631855.372
1813268.0,1596631855.413
1808505.0,1596631855.454
1805639.0,1596631855.493
1803918.0,1596631855.533
1802361.0,1596631855.574
1801863.0,1596631855.614
1797694.0,1596631855.694
1799746.0,1596631855.653
1794871.0,1596631855.733
1792871.0,1596631855.773
1791116.0,1596631855.815
1789662.0,1596631855.892
1790382.0,1596631855.853
1789498.0,1596631855.931
1789803.0,1596631855.97
1789729.0,1596631856.011
1790235.0,1596631856.052
1791043.0,1596631856.091
1792175.0,1596631856.131
1793088.0,1596631856.173
1793981.0,1596631856.212
1795537.0,1596631856.25
1797742.0,1596631856.291
1799141.0,1596631856.327
1801362.0,1596631856.367
1801373.0,1596631856.409
1797437.0,1596631856.447
1792334.0,1596631856.487
1789000.0,1596631856.529
1786385.0,1596631856.568
1784630.0,1596631856.609
1783979.0,1596631856.649
1782915.0,1596631856.688
1781490.0,1596631856.728
1780204.0,1596631856.769
1779006.0,1596631856.809
1778912.0,1596631856.849
1779819.0,1596631856.89
1780599.0,1596631856.929
1782152.0,1596631856.969
1783346.0,1596631857.011
1784673.0,1596631857.049
1785897.0,1596631857.089
1787713.0,1596631857.13
1789615.0,1596631857.169
1791323.0,1596631857.21
1793272.0,1596631857.25
1795293.0,1596631857.289
1797915.0,1596631857.329
1800200.0,1596631857.37
1802783.0,1596631857.411
1805575.0,1596631857.45
1805558.0,1596631857.491
1802727.0,1596631857.53
1799385.0,1596631857.57
1798383.0,1596631857.612
1797768.0,1596631857.65
1798334.0,1596631857.691
1799439.0,1596631857.732
1800493.0,1596631857.771
1800699.0,1596631857.812
1800601.0,1596631857.852
1801384.0,1596631857.891
1802716.0,1596631857.931
1804043.0,1596631857.972
1805984.0,1596631858.012
1807592.0,1596631858.051
1809936.0,1596631858.092
1811481.0,1596631858.131
1812969.0,1596631858.172
1814791.0,1596631858.214
1816589.0,1596631858.252
1817995.0,1596631858.293
1820427.0,1596631858.332
1822206.0,1596631858.371
1824832.0,1596631858.412
1826969.0,1596631858.451
1829257.0,1596631858.49
1831344.0,1596631858.529
1830909.0,1596631858.568
1828409.0,1596631858.607
1826639.0,1596631858.646
1826315.0,1596631858.685
1826533.0,1596631858.724
1827603.0,1596631858.763
1829036.0,1596631858.802
1829493.0,1596631858.841
1830193.0,1596631858.88
1830612.0,1596631858.919
1832005.0,1596631858.958
1833309.0,1596631858.997
1835382.0,1596631859.036
1836958.0,1596631859.075
1838511.0,1596631859.114
1840090.0,1596631859.153
1840834.0,1596631859.192
1841702.0,1596631859.231
1841670.0,1596631859.27
1842144.0,1596631859.309
1843024.0,1596631859.348
1843249.0,1596631859.387
1844384.0,1596631859.426
1845026.0,1596631859.465
1843249.0,1596631859.504
1839326.0,1596631859.543
1835458.0,1596631859.582
1834345.0,1596631859.621
1833499.0,1596631859.699
1833440.0,1596631859.738
1833789.0,1596631859.777
1832601.0,1596631859.816
1832852.0,1596631859.855
1834066.0,1596631859.894
1835346.0,1596631859.933
1836965.0,1596631859.972
1838349.0,1596631860.011
1839434.0,1596631860.05
1841815.0,1596631860.089
1833930.0,1596631859.66
1843824.0,1596631860.128
1844740.0,1596631860.206
1844135.0,1596631860.245
1844281.0,1596631860.284
1844014.0,1596631860.323
1842891.0,1596631860.362
1841622.0,1596631860.401
1840256.0,1596631860.44
1844636.0,1596631860.167
1833855.0,1596631860.518
1828989.0,1596631860.557
1838414.0,1596631860.479
1826073.0,1596631860.596
1824163.0,1596631860.635
1824248.0,1596631860.674
1824530.0,1596631860.713
1823955.0,1596631860.752
1823080.0,1596631860.791
1822947.0,1596631860.83
1823022.0,1596631860.869
1823909.0,1596631860.908
1824593.0,1596631860.947
1825802.0,1596631860.986
1826476.0,1596631861.025
1828639.0,1596631861.103
1830350.0,1596631861.181
1830825.0,1596631861.22
1832421.0,1596631861.259
1829530.0,1596631861.142
1827418.0,1596631861.064
1834175.0,1596631861.298
1836298.0,1596631861.337
1838569.0,1596631861.415
1838318.0,1596631861.376
1835758.0,1596631861.454
1832985.0,1596631861.493
1831288.0,1596631861.532
1830677.0,1596631861.571
1830303.0,1596631861.61
1831141.0,1596631861.649
1830982.0,1596631861.688
1830893.0,1596631861.727
1831113.0,1596631861.766
1831826.0,1596631861.805
1832088.0,1596631861.844
1832678.0,1596631861.883
1833289.0,1596631861.922
1834064.0,1596631861.961
1835084.0,1596631862.0
1836970.0,1596631862.039
1837979.0,1596631862.078
1838349.0,1596631862.117
1839264.0,1596631862.156
1841082.0,1596631862.195
1843112.0,1596631862.234
1843064.0,1596631862.273
1839810.0,1596631862.312
1836846.0,1596631862.351
1835271.0,1596631862.39
1834183.0,1596631862.429
1834304.0,1596631862.468
1834805.0,1596631862.507
1835633.0,1596631862.546
1836421.0,1596631862.585
1837326.0,1596631862.624
1838700.0,1596631862.663
1840392.0,1596631862.702
1842378.0,1596631862.741
1844940.0,1596631862.78
1847055.0,1596631862.819
1849429.0,1596631862.858
1851521.0,1596631862.897
1853871.0,1596631862.936
1856503.0,1596631862.975
1858236.0,1596631863.014
1860121.0,1596631863.053
1862194.0,1596631863.092
1865080.0,1596631863.131
1867210.0,1596631863.17
1866076.0,1596631863.209
1862815.0,1596631863.248
1860309.0,1596631863.287
1859198.0,1596631863.326
1858647.0,1596631863.365
1858556.0,1596631863.404
1858591.0,1596631863.443
1858843.0,1596631863.482
1858065.0,1596631863.521
1857722.0,1596631863.56
1858169.0,1596631863.599
1859357.0,1596631863.638
1860235.0,1596631863.677
1861795.0,1596631863.716
1863158.0,1596631863.755
1865041.0,1596631863.794
1866673.0,1596631863.833
1868246.0,1596631863.872
1870069.0,1596631863.911
1872146.0,1596631863.95
1874326.0,1596631863.989
1876273.0,1596631864.028
1878969.0,1596631864.067
1879642.0,1596631864.106
1877330.0,1596631864.145
1874692.0,1596631864.184
1872525.0,1596631864.223
1871672.0,1596631864.263
1871567.0,1596631864.303
1871524.0,1596631864.343
1871864.0,1596631864.383
1871903.0,1596631864.423
1871381.0,1596631864.463
1871476.0,1596631864.503
1872422.0,1596631864.543
1873457.0,1596631864.583
1874820.0,1596631864.623
1876723.0,1596631864.663
1879892.0,1596631864.743
1878199.0,1596631864.703
1881032.0,1596631864.783
1882685.0,1596631864.823
1884760.0,1596631864.863
1888885.0,1596631864.943
1886747.0,1596631864.903
1890871.0,1596631864.983
1893207.0,1596631865.023
1895735.0,1596631865.063
1897491.0,1596631865.103
1897428.0,1596631865.143
1895072.0,1596631865.183
1893084.0,1596631865.223
1891748.0,1596631865.263
1889926.0,1596631865.343
1890769.0,1596631865.303
1889048.0,1596631865.423
1889323.0,1596631865.383
1888333.0,1596631865.463
1887715.0,1596631865.503
1887193.0,1596631865.543
1887709.0,1596631865.583
1889096.0,1596631865.663
1888179.0,1596631865.623
1889826.0,1596631865.703
1890854.0,1596631865.743
1891856.0,1596631865.783
1893149.0,1596631865.823
1895999.0,1596631865.903
1894705.0,1596631865.863
1897778.0,1596631865.943
1899693.0,1596631865.983
1901522.0,1596631866.023
1905444.0,1596631866.103
1903021.0,1596631866.063
1906917.0,1596631866.143
1909076.0,1596631866.183
1908083.0,1596631866.263
1909682.0,1596631866.223
1905075.0,1596631866.303
1903726.0,1596631866.343
1902983.0,1596631866.383
1902287.0,1596631866.423
1902292.0,1596631866.463
1902722.0,1596631866.503
1901934.0,1596631866.543
1901222.0,1596631866.583
1903879.0,1596631866.623
1906736.0,1596631866.663
1910106.0,1596631866.703
1912884.0,1596631866.743
1914523.0,1596631866.783
1916080.0,1596631866.823
1917265.0,1596631866.863
1918266.0,1596631866.903
1919381.0,1596631866.943
1920347.0,1596631866.983
1921758.0,1596631867.023
1923556.0,1596631867.063
1925195.0,1596631867.103
1926768.0,1596631867.143
1928334.0,1596631867.183
1930170.0,1596631867.223
1931763.0,1596631867.263
1932473.0,1596631867.303
1929713.0,1596631867.343
1926613.0,1596631867.383
1923935.0,1596631867.423
1922758.0,1596631867.463
1921517.0,1596631867.503
1921159.0,1596631867.543
1920400.0,1596631867.583
1919417.0,1596631867.623
1918407.0,1596631867.663
1917827.0,1596631867.703
1917650.0,1596631867.743
1917973.0,1596631867.783
1918623.0,1596631867.823
1919212.0,1596631867.863
1920304.0,1596631867.903
1920916.0,1596631867.943
1921442.0,1596631867.983
1921925.0,1596631868.023
1922322.0,1596631868.063
1923279.0,1596631868.103
1923876.0,1596631868.143
1924720.0,1596631868.183
1926185.0,1596631868.223
1925858.0,1596631868.263
1923125.0,1596631868.303
1918803.0,1596631868.343
1915007.0,1596631868.383
1912747.0,1596631868.423
1910476.0,1596631868.463
1909527.0,1596631868.503
1908098.0,1596631868.543
1906374.0,1596631868.583
1904608.0,1596631868.623
1903038.0,1596631868.663
1902226.0,1596631868.703
1901746.0,1596631868.743
1901746.0,1596631868.783
1901749.0,1596631868.823
1901881.0,1596631868.863
1902083.0,1596631868.903
1902770.0,1596631868.943
1903434.0,1596631868.983
1903834.0,1596631869.023
1904721.0,1596631869.063
1905701.0,1596631869.103
1907187.0,1596631869.143
1908215.0,1596631869.183
1910064.0,1596631869.223
1911239.0,1596631869.263
1911706.0,1596631869.303
1908497.0,1596631869.343
1904392.0,1596631869.383
1899880.0,1596631869.423
1897197.0,1596631869.463
1894740.0,1596631869.503
1893593.0,1596631869.543
1891633.0,1596631869.583
1889294.0,1596631869.623
1887190.0,1596631869.663
1884804.0,1596631869.703
1883277.0,1596631869.743
1882262.0,1596631869.783
1881931.0,1596631869.823
1881340.0,1596631869.863
1881307.0,1596631869.903
1881439.0,1596631869.943
1881096.0,1596631869.983
1881216.0,1596631870.023
1881031.0,1596631870.063
1879732.0,1596631870.103
1876409.0,1596631870.143
1871266.0,1596631870.183
1865586.0,1596631870.223
1860632.0,1596631870.263
1858284.0,1596631870.347
1856975.0,1596631870.386
1854738.0,1596631870.426
1848040.0,1596631870.467
1841603.0,1596631870.507
1835953.0,1596631870.547
1832227.0,1596631870.588
1828776.0,1596631870.627
1833703.0,1596631870.667
1839665.0,1596631870.709
1844801.0,1596631870.747
1848170.0,1596631870.787
1846470.0,1596631870.829
1848615.0,1596631870.868
1851621.0,1596631870.91
1847680.0,1596631870.95
1836341.0,1596631870.99
1838624.0,1596631871.03
1840582.0,1596631871.071
1845233.0,1596631871.111
1852252.0,1596631871.151
1858974.0,1596631871.192
1865315.0,1596631871.231
1871208.0,1596631871.272
1877072.0,1596631871.312
1882958.0,1596631871.349
1887724.0,1596631871.382
1892951.0,1596631871.423
1895476.0,1596631871.462
1894214.0,1596631871.503
1891307.0,1596631871.543
1888938.0,1596631871.582
1887231.0,1596631871.622
1886848.0,1596631871.663
1886945.0,1596631871.703
1886515.0,1596631871.743
1880556.0,1596631871.784
1871568.0,1596631871.823
1867023.0,1596631871.863
1871623.0,1596631871.905
1877039.0,1596631871.943
1877790.0,1596631871.983
1875372.0,1596631872.024
1874414.0,1596631872.063
1875846.0,1596631872.097
1880053.0,1596631872.133
1885869.0,1596631872.169
1892414.0,1596631872.209
1899290.0,1596631872.251
1906345.0,1596631872.291
1914659.0,1596631872.33
1923249.0,1596631872.372
1931441.0,1596631872.411
1936826.0,1596631872.451
1939601.0,1596631872.491
1942459.0,1596631872.53
1945478.0,1596631872.57
1948394.0,1596631872.611
1949737.0,1596631872.65
1945382.0,1596631872.686
1938065.0,1596631872.726
1938646.0,1596631872.765
1941439.0,1596631872.805
1940567.0,1596631872.846
1938160.0,1596631872.886
1936413.0,1596631872.926
1933969.0,1596631872.967
1932498.0,1596631873.006
1933197.0,1596631873.046
1934630.0,1596631873.088
1936740.0,1596631873.126
1940017.0,1596631873.166
1944285.0,1596631873.207
1949323.0,1596631873.246
1954871.0,1596631873.287
1959095.0,1596631873.328
1962144.0,1596631873.367
1963074.0,1596631873.408
1960130.0,1596631873.449
1954056.0,1596631873.489
1948293.0,1596631873.529
1944196.0,1596631873.571
1944822.0,1596631873.61
1945570.0,1596631873.65
1942839.0,1596631873.692
1939013.0,1596631873.73
1934013.0,1596631873.77
1930689.0,1596631873.812
1929526.0,1596631873.851
1929740.0,1596631873.892
1932355.0,1596631873.931
1936264.0,1596631873.97
1941241.0,1596631874.01
1946229.0,1596631874.051
1949402.0,1596631874.091
1951443.0,1596631874.13
1951172.0,1596631874.171
1951028.0,1596631874.21
1951461.0,1596631874.25
1952060.0,1596631874.292
1953687.0,1596631874.33
1958497.0,1596631874.37
1960100.0,1596631874.412
1956381.0,1596631874.451
1950851.0,1596631874.491
1945469.0,1596631874.532
1941648.0,1596631874.571
1940212.0,1596631874.611
1939599.0,1596631874.652
1939738.0,1596631874.692
1939945.0,1596631874.731
1938078.0,1596631874.773
1936150.0,1596631874.812
1935112.0,1596631874.85
1933789.0,1596631874.892
1932560.0,1596631874.931
1934412.0,1596631874.971
1934001.0,1596631875.012
1931607.0,1596631875.051
1927567.0,1596631875.092
1921672.0,1596631875.133
1917637.0,1596631875.17
1913925.0,1596631875.21
1914075.0,1596631875.25
1920496.0,1596631875.29
1930297.0,1596631875.33
1937490.0,1596631875.371
1939238.0,1596631875.41
1929581.0,1596631875.45
1921427.0,1596631875.492
1919444.0,1596631875.53
1917595.0,1596631875.57
1911596.0,1596631875.611
1905412.0,1596631875.65
1904442.0,1596631875.691
1902142.0,1596631875.731
1900422.0,1596631875.77
1898421.0,1596631875.81
1896576.0,1596631875.852
1897787.0,1596631875.891
1901420.0,1596631875.931
1907123.0,1596631875.972
1913742.0,1596631876.011
1920616.0,1596631876.051
1928432.0,1596631876.093
1936586.0,1596631876.132
1943699.0,1596631876.172
1949585.0,1596631876.212
1955286.0,1596631876.251
1960490.0,1596631876.292
1965707.0,1596631876.332
1970504.0,1596631876.372
1974195.0,1596631876.412
1978667.0,1596631876.453
1984334.0,1596631876.491
1989085.0,1596631876.53
1992216.0,1596631876.571
1994152.0,1596631876.61
1995741.0,1596631876.65
2000618.0,1596631876.73
1997953.0,1596631876.692
2003995.0,1596631876.77
2007149.0,1596631876.811
2009282.0,1596631876.85
2011171.0,1596631876.891
2013237.0,1596631876.932
2015266.0,1596631876.971
2017383.0,1596631877.011
2019730.0,1596631877.052
2021541.0,1596631877.092
2024213.0,1596631877.131
2026302.0,1596631877.172
2029379.0,1596631877.211
2031587.0,1596631877.242
2033723.0,1596631877.284
2035962.0,1596631877.322
2038140.0,1596631877.362
2040044.0,1596631877.404
2042065.0,1596631877.443
2044436.0,1596631877.484
2045536.0,1596631877.524
2045017.0,1596631877.563
2044598.0,1596631877.603
2044078.0,1596631877.644
2043906.0,1596631877.684
2044484.0,1596631877.723
2045315.0,1596631877.764
2046550.0,1596631877.803
2047157.0,1596631877.844
2047709.0,1596631877.885
2048756.0,1596631877.924
2049968.0,1596631877.964
2051783.0,1596631878.005
2053166.0,1596631878.044
2055415.0,1596631878.085
2057238.0,1596631878.125
2058802.0,1596631878.164
2060370.0,1596631878.204
2062767.0,1596631878.245
2064442.0,1596631878.285
2066614.0,1596631878.325
2068870.0,1596631878.366
2070600.0,1596631878.405
2073432.0,1596631878.445
2075283.0,1596631878.487
2077241.0,1596631878.525
2077211.0,1596631878.565
2075877.0,1596631878.606
2075242.0,1596631878.645
2074742.0,1596631878.686
2075080.0,1596631878.727
2075442.0,1596631878.766
2076323.0,1596631878.806
2077451.0,1596631878.847
2078329.0,1596631878.887
2078883.0,1596631878.926
2079871.0,1596631878.967
2081320.0,1596631879.006
2083022.0,1596631879.046
2084620.0,1596631879.088
2087152.0,1596631879.127
2089461.0,1596631879.167
2091627.0,1596631879.208
2094118.0,1596631879.247
2096530.0,1596631879.288
2098872.0,1596631879.328
2101226.0,1596631879.367
2103746.0,1596631879.407
2106540.0,1596631879.448
2109134.0,1596631879.488
2111510.0,1596631879.528
2114009.0,1596631879.569
2115038.0,1596631879.608
2114261.0,1596631879.648
2112336.0,1596631879.69
2111016.0,1596631879.728
2110523.0,1596631879.768
2110250.0,1596631879.809
2110563.0,1596631879.848
2110892.0,1596631879.889
2110742.0,1596631879.93
2110153.0,1596631879.969
2110601.0,1596631880.009
2110515.0,1596631880.05
2111286.0,1596631880.09
2111881.0,1596631880.129
2112631.0,1596631880.17
2113351.0,1596631880.209
2114393.0,1596631880.249
2115203.0,1596631880.291
2115972.0,1596631880.33
2116525.0,1596631880.37
2117530.0,1596631880.411
2118918.0,1596631880.45
2120317.0,1596631880.491
2121347.0,1596631880.531
2122713.0,1596631880.57
2122600.0,1596631880.61
2120835.0,1596631880.651
2116878.0,1596631880.691
2114082.0,1596631880.73
2111726.0,1596631880.772
2109361.0,1596631880.811
2108621.0,1596631880.851
2107289.0,1596631880.892
2106058.0,1596631880.931
2104341.0,1596631880.971
2102651.0,1596631881.012
2102230.0,1596631881.051
2101725.0,1596631881.092
2101285.0,1596631881.132
2101128.0,1596631881.171
2101335.0,1596631881.211
2101525.0,1596631881.252
2101563.0,1596631881.292
2101658.0,1596631881.331
2102256.0,1596631881.373
2102672.0,1596631881.412
2103212.0,1596631881.452
2103930.0,1596631881.493
2104952.0,1596631881.532
2105362.0,1596631881.572
2104646.0,1596631881.613
2100107.0,1596631881.652
2095285.0,1596631881.693
2090529.0,1596631881.733
2086861.0,1596631881.772
2083505.0,1596631881.812
2081510.0,1596631881.853
2078658.0,1596631881.893
2076012.0,1596631881.932
2073290.0,1596631881.974
2071143.0,1596631882.013
2069463.0,1596631882.053
2068279.0,1596631882.095
2068029.0,1596631882.133
2067745.0,1596631882.173
2067358.0,1596631882.215
2067074.0,1596631882.254
2067441.0,1596631882.295
2067357.0,1596631882.334
2067495.0,1596631882.373
2068562.0,1596631882.412
2070144.0,1596631882.49
2069224.0,1596631882.451
2071131.0,1596631882.529
2072726.0,1596631882.568
2074020.0,1596631882.607
2075152.0,1596631882.646
2075237.0,1596631882.685
2071034.0,1596631882.724
2066052.0,1596631882.763
2061739.0,1596631882.802
2057587.0,1596631882.841
2054589.0,1596631882.88
2052963.0,1596631882.919
2051285.0,1596631882.958
2049088.0,1596631882.997
2046458.0,1596631883.036
2044720.0,1596631883.075
2042963.0,1596631883.114
2042252.0,1596631883.153
2041314.0,1596631883.192
2040928.0,1596631883.231
2040792.0,1596631883.27
2040732.0,1596631883.309
2040471.0,1596631883.387
2041294.0,1596631883.426
2041612.0,1596631883.465
2043505.0,1596631883.543
2042395.0,1596631883.504
2044499.0,1596631883.582
2045385.0,1596631883.621
2046450.0,1596631883.66
2048334.0,1596631883.699
2048699.0,1596631883.738
2040753.0,1596631883.348
2045404.0,1596631883.777
2040915.0,1596631883.816
2036568.0,1596631883.855
2033450.0,1596631883.894
2028394.0,1596631884.012
2031167.0,1596631883.933
2026924.0,1596631884.052
2024426.0,1596631884.092
2021762.0,1596631884.172
2022986.0,1596631884.132
2021308.0,1596631884.212
2021435.0,1596631884.252
2021184.0,1596631884.292
2021958.0,1596631884.332
2022031.0,1596631884.372
2022178.0,1596631884.412
2025724.0,1596631884.452
2026470.0,1596631884.492
2028708.0,1596631884.532
2031850.0,1596631884.572
2035631.0,1596631884.612
2037745.0,1596631884.652
2040093.0,1596631884.692
2029559.0,1596631883.972
2040664.0,1596631884.732
2042500.0,1596631884.772
2044220.0,1596631884.812
2044626.0,1596631884.852
2042128.0,1596631884.892
2038471.0,1596631884.932
2032484.0,1596631885.012
2035823.0,1596631884.972
2026018.0,1596631885.092
2022508.0,1596631885.132
2019769.0,1596631885.172
2028621.0,1596631885.052
2016742.0,1596631885.212
2014378.0,1596631885.252
2015127.0,1596631885.292
2017365.0,1596631885.372
2018116.0,1596631885.412
2016224.0,1596631885.332
2017996.0,1596631885.452
2017467.0,1596631885.492
2016703.0,1596631885.532
2016258.0,1596631885.572
2016025.0,1596631885.612
2016498.0,1596631885.652
2017331.0,1596631885.692
2018309.0,1596631885.732
2018891.0,1596631885.772
2020030.0,1596631885.812
2020555.0,1596631885.852
2021442.0,1596631885.892
2022156.0,1596631885.932
2023329.0,1596631885.972
2023473.0,1596631886.012
2018732.0,1596631886.052
2012616.0,1596631886.092
2007508.0,1596631886.132
2003281.0,1596631886.172
1999562.0,1596631886.212
1996232.0,1596631886.252
1993125.0,1596631886.292
1990294.0,1596631886.332
1986712.0,1596631886.372
1983932.0,1596631886.412
1981933.0,1596631886.452
1980230.0,1596631886.492
1978909.0,1596631886.532
1978530.0,1596631886.572
1978079.0,1596631886.612
1977341.0,1596631886.652
1976711.0,1596631886.692
1977050.0,1596631886.732
1977120.0,1596631886.772
1977268.0,1596631886.812
1978003.0,1596631886.852
1978451.0,1596631886.892
1979311.0,1596631886.932
1980251.0,1596631886.972
1981345.0,1596631887.012
1982385.0,1596631887.052
1983341.0,1596631887.092
1983276.0,1596631887.132
1979370.0,1596631887.172
1972944.0,1596631887.212
1967642.0,1596631887.252
1963071.0,1596631887.292
1959342.0,1596631887.332
1956761.0,1596631887.372
1954238.0,1596631887.412
1951701.0,1596631887.452
1948693.0,1596631887.492
1945744.0,1596631887.532
1944025.0,1596631887.572
1943220.0,1596631887.612
1942283.0,1596631887.652
1941726.0,1596631887.692
1941811.0,1596631887.732
1941407.0,1596631887.772
1941457.0,1596631887.812
1941409.0,1596631887.852
1941555.0,1596631887.892
1942592.0,1596631887.932
1943104.0,1596631887.972
1944132.0,1596631888.012
1945605.0,1596631888.052
1946612.0,1596631888.092
1947962.0,1596631888.132
1949909.0,1596631888.172
1951514.0,1596631888.212
1953367.0,1596631888.252
1955329.0,1596631888.292
1955648.0,1596631888.332
1951584.0,1596631888.372
1945767.0,1596631888.412
1940395.0,1596631888.452
1936905.0,1596631888.492
1933770.0,1596631888.532
1931590.0,1596631888.572
1929803.0,1596631888.612
1927744.0,1596631888.652
1925481.0,1596631888.692
1924174.0,1596631888.732
1923054.0,1596631888.772
1923238.0,1596631888.812
1922960.0,1596631888.852
1923546.0,1596631888.892
1924459.0,1596631888.932
1924853.0,1596631888.972
1925500.0,1596631889.012
1926344.0,1596631889.052
1927608.0,1596631889.092
1928600.0,1596631889.132
1930222.0,1596631889.172
1931984.0,1596631889.212
1933445.0,1596631889.252
1935212.0,1596631889.292
1939179.0,1596631889.372
1937394.0,1596631889.332
1941217.0,1596631889.412
1943828.0,1596631889.452
1946139.0,1596631889.492
1948138.0,1596631889.532
1947099.0,1596631889.572
1943380.0,1596631889.612
1939549.0,1596631889.652
1937358.0,1596631889.692
1935032.0,1596631889.732
1934005.0,1596631889.772
1933897.0,1596631889.812
1933623.0,1596631889.852
1932572.0,1596631889.892
1931852.0,1596631889.932
1932260.0,1596631889.972
1932628.0,1596631890.012
1933918.0,1596631890.052
1935363.0,1596631890.092
1936874.0,1596631890.132
1938397.0,1596631890.172
1940218.0,1596631890.212
1942335.0,1596631890.252
1944339.0,1596631890.292
1946546.0,1596631890.332
1948927.0,1596631890.372
1952060.0,1596631890.412
1954572.0,1596631890.452
1957304.0,1596631890.492
1960308.0,1596631890.532
1963540.0,1596631890.572
1966372.0,1596631890.612
1969317.0,1596631890.652
1971908.0,1596631890.692
1971108.0,1596631890.732
1969119.0,1596631890.772
1967405.0,1596631890.812
1966367.0,1596631890.852
1965795.0,1596631890.892
1966316.0,1596631890.932
1966805.0,1596631890.972
1967205.0,1596631891.012
1967009.0,1596631891.052
1967747.0,1596631891.092
1968396.0,1596631891.132
1969891.0,1596631891.172
1971553.0,1596631891.212
1973065.0,1596631891.252
1975064.0,1596631891.292
1976574.0,1596631891.332
1978907.0,1596631891.372
1980688.0,1596631891.412
1982453.0,1596631891.452
1984744.0,1596631891.492
1987681.0,1596631891.532
1990552.0,1596631891.572
1993837.0,1596631891.612
1997900.0,1596631891.652
2000903.0,1596631891.692
2004204.0,1596631891.732
2007267.0,1596631891.772
2010034.0,1596631891.812
2013293.0,1596631891.852
2016007.0,1596631891.892
2015890.0,1596631891.932
2014590.0,1596631891.972
2013475.0,1596631892.012
2012698.0,1596631892.052
2012464.0,1596631892.092
2012242.0,1596631892.132
2012262.0,1596631892.172
2012444.0,1596631892.212
2011882.0,1596631892.252
2011416.0,1596631892.292
2011761.0,1596631892.332
2012054.0,1596631892.372
2013106.0,1596631892.412
2014483.0,1596631892.452
2015474.0,1596631892.492
2016200.0,1596631892.532
2017557.0,1596631892.572
2018640.0,1596631892.612
2019817.0,1596631892.652
2021499.0,1596631892.692
2022703.0,1596631892.732
2024658.0,1596631892.772
2026230.0,1596631892.812
2028044.0,1596631892.852
2030210.0,1596631892.892
2032270.0,1596631892.932
2033984.0,1596631892.972
2036588.0,1596631893.012
2038466.0,1596631893.052
2038415.0,1596631893.092
2035846.0,1596631893.132
2033259.0,1596631893.172
2031485.0,1596631893.212
2030236.0,1596631893.252
2029708.0,1596631893.292
2029615.0,1596631893.332
2029139.0,1596631893.372
2028609.0,1596631893.412
2027624.0,1596631893.452
2027551.0,1596631893.492
2027856.0,1596631893.532
2028132.0,1596631893.572
2028671.0,1596631893.612
2029430.0,1596631893.652
2030350.0,1596631893.692
2030957.0,1596631893.732
2031393.0,1596631893.772
2032517.0,1596631893.812
2033752.0,1596631893.852
2035349.0,1596631893.892
2036648.0,1596631893.932
2037718.0,1596631893.972
2039416.0,1596631894.012
2041196.0,1596631894.052
2043377.0,1596631894.092
2045919.0,1596631894.132
2049123.0,1596631894.172
2051776.0,1596631894.212
2051164.0,1596631894.252
2049145.0,1596631894.29
2046811.0,1596631894.329
2044328.0,1596631894.369
2042297.0,1596631894.41
2040375.0,1596631894.45
2038958.0,1596631894.489
2037442.0,1596631894.53
2035592.0,1596631894.569
2033383.0,1596631894.609
2032364.0,1596631894.651
2031462.0,1596631894.69
2030566.0,1596631894.73
2029883.0,1596631894.772
2029442.0,1596631894.811
2029255.0,1596631894.852
2029114.0,1596631894.892
2029054.0,1596631894.931
2028847.0,1596631894.972
2029146.0,1596631895.014
2029370.0,1596631895.053
2030047.0,1596631895.092
2030148.0,1596631895.134
2031130.0,1596631895.173
2031626.0,1596631895.213
2032630.0,1596631895.255
2033363.0,1596631895.293
2034611.0,1596631895.334
2035945.0,1596631895.375
2033018.0,1596631895.454
2028684.0,1596631895.495
2036118.0,1596631895.414
2024229.0,1596631895.534
2020416.0,1596631895.574
2017876.0,1596631895.615
2014977.0,1596631895.655
2013108.0,1596631895.694
2010399.0,1596631895.735
2007658.0,1596631895.774
2005065.0,1596631895.814
2003356.0,1596631895.856
2001758.0,1596631895.895
2000084.0,1596631895.976
1999250.0,1596631896.013
1998754.0,1596631896.054
1998526.0,1596631896.094
1997909.0,1596631896.134
1997137.0,1596631896.174
1997521.0,1596631896.215
1997131.0,1596631896.255
1997225.0,1596631896.295
1997486.0,1596631896.336
2000872.0,1596631896.685
1997790.0,1596631896.413
1999455.0,1596631896.455
2001109.0,1596631896.493
2000664.0,1596631895.935
2004046.0,1596631896.524
1999618.0,1596631896.724
1999216.0,1596631896.765
1999225.0,1596631896.806
2005790.0,1596631896.565
1997421.0,1596631896.373
2004923.0,1596631896.604
2002746.0,1596631896.645
2000100.0,1596631896.845
2000379.0,1596631896.885
1999934.0,1596631896.926
2000441.0,1596631896.965
2001323.0,1596631897.005
2002478.0,1596631897.047
2003462.0,1596631897.085
2005976.0,1596631897.167
2008811.0,1596631897.24
2009993.0,1596631897.281
2011742.0,1596631897.316
2013406.0,1596631897.354
2005025.0,1596631897.125
2007186.0,1596631897.206
2015637.0,1596631897.395
2018022.0,1596631897.435
2020268.0,1596631897.475
2022446.0,1596631897.516
2025064.0,1596631897.553
2027406.0,1596631897.594
2030039.0,1596631897.635
2031664.0,1596631897.674
2030063.0,1596631897.714
2026326.0,1596631897.756
2023515.0,1596631897.794
2021139.0,1596631897.836
2019106.0,1596631897.876
2017294.0,1596631897.915
2016269.0,1596631897.956
2015332.0,1596631897.997
2013453.0,1596631898.037
2012522.0,1596631898.074
2011435.0,1596631898.116
2011511.0,1596631898.155
2011684.0,1596631898.195
2012129.0,1596631898.237
2012077.0,1596631898.275
2012950.0,1596631898.316
2013224.0,1596631898.357
2013971.0,1596631898.396
2015011.0,1596631898.435
2015909.0,1596631898.476
2016839.0,1596631898.515
2018269.0,1596631898.555
2019452.0,1596631898.597
2020917.0,1596631898.636
2022864.0,1596631898.675
2024779.0,1596631898.716
2027133.0,1596631898.755
2029212.0,1596631898.795
2031182.0,1596631898.837
2032740.0,1596631898.875
2031119.0,1596631898.915
2027371.0,1596631898.957
2023726.0,1596631898.996
2021095.0,1596631899.036
2019409.0,1596631899.077
2018821.0,1596631899.116
2018617.0,1596631899.156
2017702.0,1596631899.197
2017483.0,1596631899.237
2016530.0,1596631899.276
2016185.0,1596631899.317
2016804.0,1596631899.356
2017372.0,1596631899.396
2018074.0,1596631899.438
2019022.0,1596631899.477
2019435.0,1596631899.517
2019844.0,1596631899.558
2020831.0,1596631899.597
2021194.0,1596631899.638
2022222.0,1596631899.678
2023946.0,1596631899.717
2025397.0,1596631899.757
2027438.0,1596631899.798
2029305.0,1596631899.838
2030747.0,1596631899.877
2033188.0,1596631899.919
2036959.0,1596631899.998
2034758.0,1596631899.958
2037899.0,1596631900.039
2035394.0,1596631900.078
2032497.0,1596631900.118
2031131.0,1596631900.159
2030182.0,1596631900.198
2030310.0,1596631900.239
2030455.0,1596631900.279
2031047.0,1596631900.318
2030706.0,1596631900.358
2030237.0,1596631900.4
2030559.0,1596631900.439
2030977.0,1596631900.479
2031475.0,1596631900.52
2032926.0,1596631900.559
2033932.0,1596631900.599
2034676.0,1596631900.641
2035185.0,1596631900.679
2034984.0,1596631900.719
2035896.0,1596631900.76
2036480.0,1596631900.799
2037053.0,1596631900.84
2037930.0,1596631900.881
2039295.0,1596631900.92
2040363.0,1596631900.96
2042157.0,1596631901.001
2043522.0,1596631901.04
2044713.0,1596631901.08
2041627.0,1596631901.121
2037186.0,1596631901.16
2032290.0,1596631901.2
2028082.0,1596631901.242
2025204.0,1596631901.28
2022885.0,1596631901.32
2020325.0,1596631901.362
2018023.0,1596631901.401
2015393.0,1596631901.441
2013084.0,1596631901.482
2011401.0,1596631901.521
2009799.0,1596631901.561
2009094.0,1596631901.602
2009106.0,1596631901.642
2008929.0,1596631901.681
2008960.0,1596631901.722
2008696.0,1596631901.761
2008803.0,1596631901.802
2009363.0,1596631901.844
2009902.0,1596631901.878
2011018.0,1596631901.916
2011827.0,1596631901.957
2013204.0,1596631901.996
2014584.0,1596631902.038
2015719.0,1596631902.078
2016824.0,1596631902.117
2018545.0,1596631902.158
2020186.0,1596631902.199
2019409.0,1596631902.237
2015381.0,1596631902.276
2009179.0,1596631902.318
2004349.0,1596631902.353
2004349.0,1596631902.393
2000166.0,1596631902.435
1996648.0,1596631902.473
1993844.0,1596631902.514
1991510.0,1596631902.555
1988118.0,1596631902.594
1985369.0,1596631902.635
1982361.0,1596631902.675
1980572.0,1596631902.714
1979198.0,1596631902.754
1977908.0,1596631902.795
1977390.0,1596631902.835
1976685.0,1596631902.874
1976086.0,1596631902.915
1976258.0,1596631902.954
1976319.0,1596631902.995
1976470.0,1596631903.037
1976826.0,1596631903.076
1977580.0,1596631903.116
1978529.0,1596631903.158
1979449.0,1596631903.196
1980601.0,1596631903.238
1982452.0,1596631903.278
1984062.0,1596631903.317
1983498.0,1596631903.358
1979727.0,1596631903.399
1974123.0,1596631903.439
1969652.0,1596631903.478
1965640.0,1596631903.519
1962518.0,1596631903.557
1960696.0,1596631903.596
1958693.0,1596631903.629
1956355.0,1596631903.667
1954118.0,1596631903.708
1952217.0,1596631903.749
1950677.0,1596631903.788
1950334.0,1596631903.829
1950441.0,1596631903.869
1950212.0,1596631903.908
1950453.0,1596631903.948
1950577.0,1596631903.989
1950469.0,1596631904.029
1951213.0,1596631904.069
1951812.0,1596631904.11
1952390.0,1596631904.149
1953513.0,1596631904.189
1955016.0,1596631904.231
1956482.0,1596631904.269
1957601.0,1596631904.304
1959092.0,1596631904.34
1960667.0,1596631904.376
1961985.0,1596631904.417
1961673.0,1596631904.457
1957246.0,1596631904.496
1951353.0,1596631904.536
1945962.0,1596631904.578
1941447.0,1596631904.617
1937424.0,1596631904.657
1934527.0,1596631904.698
1932268.0,1596631904.737
1929163.0,1596631904.778
1925883.0,1596631904.813
1923113.0,1596631904.851
1921281.0,1596631904.891
1920106.0,1596631904.932
1919212.0,1596631904.971
1918687.0,1596631905.012
1918950.0,1596631905.053
1918318.0,1596631905.092
1918680.0,1596631905.132
1918865.0,1596631905.173
1918994.0,1596631905.213
1920345.0,1596631905.252
1920937.0,1596631905.293
1922637.0,1596631905.332
1924149.0,1596631905.373
1925422.0,1596631905.414
1926933.0,1596631905.453
1928593.0,1596631905.493
1930331.0,1596631905.535
1932105.0,1596631905.615
1932563.0,1596631905.574
1927855.0,1596631905.655
1922231.0,1596631905.694
1916983.0,1596631905.735
1913739.0,1596631905.776
1910222.0,1596631905.816
1907792.0,1596631905.856
1905950.0,1596631905.896
1903094.0,1596631905.935
1900443.0,1596631905.976
1897961.0,1596631906.019
1896109.0,1596631906.057
1895231.0,1596631906.097
1894935.0,1596631906.13
1895346.0,1596631906.169
1895354.0,1596631906.209
1894906.0,1596631906.301
1894537.0,1596631906.34
1893914.0,1596631906.38
1894296.0,1596631906.421
1895237.0,1596631906.461
1896715.0,1596631906.5
1897579.0,1596631906.542
1898792.0,1596631906.581
1900005.0,1596631906.621
1900942.0,1596631906.662
1902687.0,1596631906.701
1904247.0,1596631906.741
1906122.0,1596631906.782
1906672.0,1596631906.821
1903002.0,1596631906.862
1897593.0,1596631906.894
1892233.0,1596631906.931
1888539.0,1596631906.969
1884824.0,1596631907.01
1882057.0,1596631907.05
1879854.0,1596631907.09
1877632.0,1596631907.131
1875271.0,1596631907.17
1873291.0,1596631907.21
1871845.0,1596631907.253
1871719.0,1596631907.289
1871308.0,1596631907.329
1871341.0,1596631907.371
1871335.0,1596631907.41
1871542.0,1596631907.451
1871757.0,1596631907.491
1872852.0,1596631907.53
1873801.0,1596631907.571
1875345.0,1596631907.612
1876895.0,1596631907.65
1878540.0,1596631907.689
1881231.0,1596631907.73
1883455.0,1596631907.769
1886200.0,1596631907.808
1886200.0,1596631907.846
1888504.0,1596631907.885
1891881.0,1596631907.925
1895146.0,1596631907.966
1898027.0,1596631908.005
1901607.0,1596631908.046
1903989.0,1596631908.086
1903542.0,1596631908.125
1900659.0,1596631908.165
1898594.0,1596631908.207
1897820.0,1596631908.246
1897300.0,1596631908.286
1897458.0,1596631908.327
1898098.0,1596631908.366
1898002.0,1596631908.406
1897961.0,1596631908.448
1898308.0,1596631908.486
1899389.0,1596631908.527
1900994.0,1596631908.569
1902620.0,1596631908.608
1904190.0,1596631908.649
1906461.0,1596631908.69
1908514.0,1596631908.729
1910222.0,1596631908.769
1912180.0,1596631908.811
1914570.0,1596631908.851
1917444.0,1596631908.89
1919905.0,1596631908.931
1922634.0,1596631908.969
1925384.0,1596631909.009
1928145.0,1596631909.05
1931825.0,1596631909.08
1934720.0,1596631909.12
1937869.0,1596631909.161
1941421.0,1596631909.2
1944396.0,1596631909.241
1945461.0,1596631909.281
1944746.0,1596631909.32
1944242.0,1596631909.361
1944799.0,1596631909.402
1945682.0,1596631909.442
1947411.0,1596631909.481
1949911.0,1596631909.522
1951260.0,1596631909.561
1952901.0,1596631909.601
1954044.0,1596631909.643
1955745.0,1596631909.682
1958213.0,1596631909.722
1960838.0,1596631909.763
1963570.0,1596631909.803
1966184.0,1596631909.84
1968628.0,1596631909.873
1970718.0,1596631909.909
1974135.0,1596631909.949
1977743.0,1596631909.991
1981327.0,1596631910.031
1984111.0,1596631910.07
1987264.0,1596631910.112
1990651.0,1596631910.151
1993746.0,1596631910.191
1996726.0,1596631910.231
1997598.0,1596631910.269
1995994.0,1596631910.304
1994340.0,1596631910.345
1993846.0,1596631910.384
1993242.0,1596631910.425
1992570.0,1596631910.465
1992019.0,1596631910.504
1991006.0,1596631910.544
1989530.0,1596631910.585
1988934.0,1596631910.625
1988394.0,1596631910.664
1990476.0,1596631910.706
1992896.0,1596631910.745
1995120.0,1596631910.785
1997294.0,1596631910.827
1999932.0,1596631910.865
2001674.0,1596631910.905
2004392.0,1596631910.946
2006812.0,1596631910.986
2008902.0,1596631911.027
2011214.0,1596631911.066
2013557.0,1596631911.102
2016556.0,1596631911.136
2018769.0,1596631911.173
2021555.0,1596631911.211
2023870.0,1596631911.251
2026028.0,1596631911.292
2028325.0,1596631911.331
2030348.0,1596631911.372
2028481.0,1596631911.413
2025386.0,1596631911.451
2023360.0,1596631911.491
2021622.0,1596631911.533
2020097.0,1596631911.572
2019451.0,1596631911.613
2018630.0,1596631911.654
2017918.0,1596631911.691
2017167.0,1596631911.731
2016098.0,1596631911.772
2016254.0,1596631911.812
2016368.0,1596631911.851
2016613.0,1596631911.892
2016924.0,1596631911.931
2017691.0,1596631911.971
2018274.0,1596631912.013
2018558.0,1596631912.051
2019742.0,1596631912.091
2020441.0,1596631912.133
2021059.0,1596631912.172
2022440.0,1596631912.213
2024232.0,1596631912.253
2025240.0,1596631912.292
2026611.0,1596631912.332
2028059.0,1596631912.373
2029830.0,1596631912.413
2031283.0,1596631912.452
2032717.0,1596631912.493
2033375.0,1596631912.531
2029689.0,1596631912.571
2026053.0,1596631912.613
2024669.0,1596631912.651
2024493.0,1596631912.691
2024297.0,1596631912.733
2024325.0,1596631912.772
2025225.0,1596631912.813
2024654.0,1596631912.854
2024406.0,1596631912.893
2023877.0,1596631912.933
2024139.0,1596631912.972
2025209.0,1596631913.012
2025706.0,1596631913.052
2027157.0,1596631913.093
2028118.0,1596631913.132
2029217.0,1596631913.172
2031025.0,1596631913.253
2029878.0,1596631913.215
2031719.0,1596631913.293
2032905.0,1596631913.332
2032905.0,1596631913.367
2034100.0,1596631913.408
2035727.0,1596631913.448
2037296.0,1596631913.488
2038527.0,1596631913.528
2040550.0,1596631913.569
2043195.0,1596631913.609
2045223.0,1596631913.648
2043734.0,1596631913.728
2046466.0,1596631913.689
2040054.0,1596631913.768
2036068.0,1596631913.81
2033231.0,1596631913.849
2031724.0,1596631913.889
2030387.0,1596631913.93
2029788.0,1596631913.969
2027619.0,1596631914.01
2025396.0,1596631914.051
2023610.0,1596631914.09
2022853.0,1596631914.131
2022403.0,1596631914.172
2022113.0,1596631914.212
2022611.0,1596631914.252
2022694.0,1596631914.293
2022712.0,1596631914.332
2023435.0,1596631914.372
2023566.0,1596631914.414
2024535.0,1596631914.452
2025076.0,1596631914.492
2026302.0,1596631914.534
2027585.0,1596631914.572
2029440.0,1596631914.608
2031120.0,1596631914.648
2031425.0,1596631914.687
2028403.0,1596631914.728
2023106.0,1596631914.769
2019027.0,1596631914.808
2015574.0,1596631914.848
2013602.0,1596631914.889
2011865.0,1596631914.928
2010396.0,1596631914.968
2008036.0,1596631915.01
2005997.0,1596631915.048
2003640.0,1596631915.089
2002800.0,1596631915.13
2002033.0,1596631915.169
2001622.0,1596631915.21
2002157.0,1596631915.25
2001825.0,1596631915.29
2001810.0,1596631915.33
2001836.0,1596631915.372
2002329.0,1596631915.412
2002335.0,1596631915.451
2003436.0,1596631915.492
2003983.0,1596631915.531
2004833.0,1596631915.572
2006546.0,1596631915.613
2007240.0,1596631915.652
2008556.0,1596631915.692
2008222.0,1596631915.734
2003739.0,1596631915.772
1998162.0,1596631915.814
1993202.0,1596631915.854
1989422.0,1596631915.893
1986091.0,1596631915.927
1983923.0,1596631915.968
1981699.0,1596631916.008
1979305.0,1596631916.048
1976634.0,1596631916.089
1974232.0,1596631916.128
1972521.0,1596631916.168
1971422.0,1596631916.21
1970584.0,1596631916.248
1970258.0,1596631916.288
1969866.0,1596631916.329
1969490.0,1596631916.369
1969919.0,1596631916.409
1969451.0,1596631916.45
1969763.0,1596631916.489
1970467.0,1596631916.529
1970937.0,1596631916.57
1971459.0,1596631916.603
1972232.0,1596631916.634
1973967.0,1596631916.675
1975092.0,1596631916.712
1977053.0,1596631916.752
1976545.0,1596631916.794
1973038.0,1596631916.832
1967908.0,1596631916.872
1964147.0,1596631916.913
1961416.0,1596631916.953
1960096.0,1596631916.994
1959289.0,1596631917.034
1958256.0,1596631917.074
1956820.0,1596631917.114
1955350.0,1596631917.15
1954407.0,1596631917.19
1954589.0,1596631917.229
1955166.0,1596631917.27
1955745.0,1596631917.309
1957151.0,1596631917.35
1957928.0,1596631917.392
1959310.0,1596631917.43
1959696.0,1596631917.47
1960586.0,1596631917.511
1961367.0,1596631917.55
1962276.0,1596631917.591
1963806.0,1596631917.632
1964593.0,1596631917.671
1965848.0,1596631917.711
1967875.0,1596631917.752
1968925.0,1596631917.792
1967841.0,1596631917.831
1963357.0,1596631917.873
1958853.0,1596631917.912
1955540.0,1596631917.952
1952816.0,1596631917.994
1950787.0,1596631918.033
1948875.0,1596631918.073
1947314.0,1596631918.114
1945952.0,1596631918.153
1943914.0,1596631918.194
1942391.0,1596631918.233
1941878.0,1596631918.272
1941507.0,1596631918.311
1942059.0,1596631918.35
1941888.0,1596631918.389
1942325.0,1596631918.428
1942887.0,1596631918.467
1943546.0,1596631918.506
1944682.0,1596631918.545
1945981.0,1596631918.584
1948210.0,1596631918.623
1950644.0,1596631918.662
1953238.0,1596631918.701
1955748.0,1596631918.74
1958269.0,1596631918.779
1961216.0,1596631918.818
1963488.0,1596631918.857
1966576.0,1596631918.896
1969319.0,1596631918.935
1972447.0,1596631918.974
1975691.0,1596631919.013
1978817.0,1596631919.052
1978258.0,1596631919.091
1975187.0,1596631919.13
1972881.0,1596631919.169
1971902.0,1596631919.208
1971425.0,1596631919.247
1971345.0,1596631919.286
1970698.0,1596631919.325
1970963.0,1596631919.364
1970914.0,1596631919.403
1971710.0,1596631919.442
1973519.0,1596631919.481
1975261.0,1596631919.52
1977172.0,1596631919.559
1978775.0,1596631919.598
1981210.0,1596631919.676
1982051.0,1596631919.715
1980083.0,1596631919.637
1982629.0,1596631919.754
1982761.0,1596631919.793
1983529.0,1596631919.832
1984357.0,1596631919.871
1988080.0,1596631919.949
1986186.0,1596631919.91
1990022.0,1596631919.988
1992379.0,1596631920.027
1993259.0,1596631920.066
1994232.0,1596631920.105
1995517.0,1596631920.144
1996643.0,1596631920.183
1998766.0,1596631920.222
2000670.0,1596631920.261
2000909.0,1596631920.3
1999337.0,1596631920.339
1997204.0,1596631920.378
1996513.0,1596631920.417
1996072.0,1596631920.456
1997086.0,1596631920.573
1996863.0,1596631920.534
1997560.0,1596631920.612
1998494.0,1596631920.651
1999413.0,1596631920.69
1996413.0,1596631920.495
2000784.0,1596631920.729
2003318.0,1596631920.768
2003318.0,1596631920.807
2005743.0,1596631920.846
2016058.0,1596631921.002
2007803.0,1596631920.885
2018704.0,1596631921.041
2021395.0,1596631921.08
2013208.0,1596631920.963
2010263.0,1596631920.924
2023604.0,1596631921.119
2025629.0,1596631921.158
2030902.0,1596631921.236
2028488.0,1596631921.197
2035359.0,1596631921.314
2032887.0,1596631921.275
2040212.0,1596631921.392
2038191.0,1596631921.353
2039803.0,1596631921.431
2038474.0,1596631921.47
2037205.0,1596631921.509
2036492.0,1596631921.548
2037114.0,1596631921.587
2038716.0,1596631921.665
2037610.0,1596631921.626
2038830.0,1596631921.704
2038435.0,1596631921.743
2038326.0,1596631921.782
2038993.0,1596631921.821
2039851.0,1596631921.86
2041482.0,1596631921.899
2042951.0,1596631921.938
2044371.0,1596631921.977
2046338.0,1596631922.016
2048204.0,1596631922.055
2049685.0,1596631922.094
2050840.0,1596631922.133
2052954.0,1596631922.172
2056922.0,1596631922.25
2054647.0,1596631922.211
2058662.0,1596631922.289
2057796.0,1596631922.328
2054739.0,1596631922.368
2052191.0,1596631922.408
2050373.0,1596631922.448
2049303.0,1596631922.488
2048623.0,1596631922.528
2045458.0,1596631922.648
2047831.0,1596631922.568
2047367.0,1596631922.608
2044092.0,1596631922.688
2043230.0,1596631922.728
2042961.0,1596631922.768
2042909.0,1596631922.808
2043476.0,1596631922.888
2044522.0,1596631922.968
2045213.0,1596631923.008
2043365.0,1596631922.848
2044572.0,1596631922.928
2045426.0,1596631923.048
2045989.0,1596631923.088
2046843.0,1596631923.128
2047502.0,1596631923.168
2048664.0,1596631923.208
2047135.0,1596631923.288
2042012.0,1596631923.328
2048932.0,1596631923.248
2036359.0,1596631923.368
2022752.0,1596631923.528
2025476.0,1596631923.488
2028459.0,1596631923.448
2017842.0,1596631923.608
2014813.0,1596631923.648
2012468.0,1596631923.688
2020803.0,1596631923.568
2032654.0,1596631923.408
2009472.0,1596631923.808
2010320.0,1596631923.768
2011409.0,1596631923.728
2008712.0,1596631923.928
2009558.0,1596631923.848
2009188.0,1596631924.008
2008974.0,1596631923.888
2008545.0,1596631923.968
2009604.0,1596631924.048
2009981.0,1596631924.088
2010994.0,1596631924.128
2011082.0,1596631924.168
2012052.0,1596631924.208
2012954.0,1596631924.248
2013546.0,1596631924.288
2014584.0,1596631924.328
2015671.0,1596631924.368
2016601.0,1596631924.408
2017544.0,1596631924.448
2018601.0,1596631924.488
2017923.0,1596631924.568
2013190.0,1596631924.608
2019594.0,1596631924.528
2008406.0,1596631924.648
2004435.0,1596631924.688
2001518.0,1596631924.728
1994683.0,1596631924.848
1999152.0,1596631924.768
1996804.0,1596631924.808
1991988.0,1596631924.888
1989877.0,1596631924.928
1988026.0,1596631924.968
1986410.0,1596631925.008
1985836.0,1596631925.048
1985672.0,1596631925.088
1985377.0,1596631925.128
1985024.0,1596631925.168
1985010.0,1596631925.208
1985106.0,1596631925.248
1985407.0,1596631925.288
1985975.0,1596631925.328
1986654.0,1596631925.368
1987389.0,1596631925.408
1989340.0,1596631925.488
1988331.0,1596631925.448
1990609.0,1596631925.528
1991991.0,1596631925.568
1993531.0,1596631925.608
1995075.0,1596631925.648
1996508.0,1596631925.688
1998247.0,1596631925.728
1996956.0,1596631925.768
1993088.0,1596631925.808
1989513.0,1596631925.848
1986791.0,1596631925.888
1984311.0,1596631925.928
1982580.0,1596631925.968
1981152.0,1596631926.008
1979517.0,1596631926.048
1977983.0,1596631926.088
1976811.0,1596631926.128
1976703.0,1596631926.168
1976721.0,1596631926.208
1978191.0,1596631926.288
1977069.0,1596631926.248
1978905.0,1596631926.328
1980235.0,1596631926.368
1981072.0,1596631926.448
1982287.0,1596631926.488
1980235.0,1596631926.408
1984392.0,1596631926.568
1983118.0,1596631926.528
1985649.0,1596631926.608
1987021.0,1596631926.648
1988511.0,1596631926.688
1991221.0,1596631926.768
1992086.0,1596631926.808
1989839.0,1596631926.728
1992974.0,1596631926.848
1994261.0,1596631926.888
1993696.0,1596631926.928
1990357.0,1596631926.968
1986604.0,1596631927.008
1983427.0,1596631927.048
1981384.0,1596631927.128
1982308.0,1596631927.088
1981529.0,1596631927.168
1980814.0,1596631927.208
1979456.0,1596631927.248
1976807.0,1596631927.368
1977162.0,1596631927.408
1977782.0,1596631927.448
1976900.0,1596631927.328
1977722.0,1596631927.288
1978508.0,1596631927.488
1979321.0,1596631927.528
1980137.0,1596631927.568
1980460.0,1596631927.608
1980981.0,1596631927.648
1980719.0,1596631927.688
1980279.0,1596631927.728
1979058.0,1596631927.768
1979166.0,1596631927.808
1979233.0,1596631927.848
1979244.0,1596631927.888
1977419.0,1596631927.928
1972852.0,1596631927.968
1966923.0,1596631928.008
1962186.0,1596631928.048
1957055.0,1596631928.088
1951376.0,1596631928.128
1945554.0,1596631928.168
1939731.0,1596631928.208
1932604.0,1596631928.288
1934216.0,1596631928.248
1934893.0,1596631928.328
1938119.0,1596631928.368
1955296.0,1596631928.448
1944899.0,1596631928.408
1967216.0,1596631928.488
1976893.0,1596631928.528
1982053.0,1596631928.568
1984284.0,1596631928.608
1986878.0,1596631928.648
1989561.0,1596631928.688
1992711.0,1596631928.728
1996117.0,1596631928.768
2007110.0,1596631928.848
2014756.0,1596631928.888
2001060.0,1596631928.808
2020072.0,1596631928.928
2022301.0,1596631928.968
