bvp,time
55.51,1567412820.0
55.98,1567412820.015625
56.38,1567412820.03125
56.11,1567412820.046875
54.58,1567412820.0625
51.54,1567412820.078125
47.21,1567412820.09375
42.23,1567412820.109375
37.32,1567412820.125
33.04,1567412820.140625
29.45,1567412820.15625
26.14,1567412820.171875
22.4,1567412820.1875
17.45,1567412820.203125
10.73,1567412820.21875
1.94,1567412820.234375
-8.81,1567412820.25
-20.97,1567412820.265625
-33.49,1567412820.28125
-44.79,1567412820.296875
-52.9,1567412820.3125
-55.92,1567412820.328125
-52.56,1567412820.34375
-42.69,1567412820.359375
-27.51,1567412820.375
-9.3,1567412820.390625
9.23,1567412820.40625
25.79,1567412820.421875
39.01,1567412820.4375
48.61,1567412820.453125
55.06,1567412820.46875
59.09,1567412820.484375
61.25,1567412820.5
61.81,1567412820.515625
60.88,1567412820.53125
58.67,1567412820.546875
55.64,1567412820.5625
52.45,1567412820.578125
49.87,1567412820.59375
48.53,1567412820.609375
48.71,1567412820.625
50.28,1567412820.640625
52.65,1567412820.65625
54.87,1567412820.671875
55.73,1567412820.6875
54.07,1567412820.703125
48.96,1567412820.71875
39.99,1567412820.734375
27.37,1567412820.75
11.85,1567412820.765625
-5.39,1567412820.78125
-22.99,1567412820.796875
-39.68,1567412820.8125
-54.43,1567412820.828125
-66.76,1567412820.84375
-76.74,1567412820.859375
-84.99,1567412820.875
-92.37,1567412820.890625
-99.64,1567412820.90625
-107.08,1567412820.921875
-114.47,1567412820.9375
-121.24,1567412820.953125
-126.89,1567412820.96875
-131.31,1567412820.984375
-134.79,1567412821.0
-138.02,1567412821.015625
-141.72,1567412821.03125
-146.45,1567412821.046875
-152.23,1567412821.0625
-158.24,1567412821.078125
-162.51,1567412821.09375
-162.03,1567412821.109375
-153.43,1567412821.125
-134.22,1567412821.140625
-104.12,1567412821.15625
-65.7,1567412821.171875
-23.9,1567412821.1875
15.58,1567412821.203125
48.18,1567412821.21875
71.91,1567412821.234375
87.37,1567412821.25
96.76,1567412821.265625
102.32,1567412821.28125
105.26,1567412821.296875
105.68,1567412821.3125
103.27,1567412821.328125
98.19,1567412821.34375
91.53,1567412821.359375
85.01,1567412821.375
80.21,1567412821.390625
77.87,1567412821.40625
77.68,1567412821.421875
78.53,1567412821.4375
79.15,1567412821.453125
78.59,1567412821.46875
76.5,1567412821.484375
72.9,1567412821.5
67.93,1567412821.515625
61.63,1567412821.53125
53.95,1567412821.546875
44.98,1567412821.5625
35.07,1567412821.578125
24.9,1567412821.59375
15.24,1567412821.609375
6.72,1567412821.625
-0.41,1567412821.640625
-6.22,1567412821.65625
-11.04,1567412821.671875
-15.27,1567412821.6875
-19.28,1567412821.703125
-23.39,1567412821.71875
-27.92,1567412821.734375
-33.21,1567412821.75
-39.54,1567412821.765625
-47.09,1567412821.78125
-55.87,1567412821.796875
-65.63,1567412821.8125
-75.75,1567412821.828125
-85.06,1567412821.84375
-91.81,1567412821.859375
-93.93,1567412821.875
-89.57,1567412821.890625
-77.85,1567412821.90625
-59.38,1567412821.921875
-36.35,1567412821.9375
-11.87,1567412821.953125
10.96,1567412821.96875
30.1,1567412821.984375
44.92,1567412822.0
56.04,1567412822.015625
64.55,1567412822.03125
71.3,1567412822.046875
76.51,1567412822.0625
79.94,1567412822.078125
81.39,1567412822.09375
81.09,1567412822.109375
79.82,1567412822.125
78.59,1567412822.140625
78.17,1567412822.15625
78.79,1567412822.171875
80.11,1567412822.1875
81.56,1567412822.203125
82.74,1567412822.21875
83.6,1567412822.234375
84.36,1567412822.25
85.27,1567412822.265625
86.33,1567412822.28125
87.26,1567412822.296875
87.6,1567412822.3125
86.91,1567412822.328125
84.97,1567412822.34375
81.8,1567412822.359375
77.62,1567412822.375
72.75,1567412822.390625
67.52,1567412822.40625
62.23,1567412822.421875
57.1,1567412822.4375
52.26,1567412822.453125
47.72,1567412822.46875
43.38,1567412822.484375
39.02,1567412822.5
34.38,1567412822.515625
29.28,1567412822.53125
23.61,1567412822.546875
17.43,1567412822.5625
11.0,1567412822.578125
4.74,1567412822.59375
-0.9,1567412822.609375
-5.5,1567412822.625
-8.87,1567412822.640625
-11.06,1567412822.65625
-12.3,1567412822.671875
-12.94,1567412822.6875
-13.23,1567412822.703125
-13.32,1567412822.71875
-13.22,1567412822.734375
-12.86,1567412822.75
-12.19,1567412822.765625
-11.28,1567412822.78125
-10.29,1567412822.796875
-9.41,1567412822.8125
-8.78,1567412822.828125
-8.43,1567412822.84375
-8.33,1567412822.859375
-8.36,1567412822.875
-8.45,1567412822.890625
-8.54,1567412822.90625
-8.57,1567412822.921875
-8.43,1567412822.9375
-8.0,1567412822.953125
-7.16,1567412822.96875
-5.99,1567412822.984375
-4.73,1567412823.0
-3.79,1567412823.015625
-3.5,1567412823.03125
-3.98,1567412823.046875
-5.07,1567412823.0625
-6.44,1567412823.078125
-7.8,1567412823.09375
-9.09,1567412823.109375
-10.5,1567412823.125
-12.32,1567412823.140625
-14.74,1567412823.15625
-17.73,1567412823.171875
-21.04,1567412823.1875
-24.41,1567412823.203125
-27.68,1567412823.21875
-30.83,1567412823.234375
-33.9,1567412823.25
-36.88,1567412823.265625
-39.62,1567412823.28125
-41.91,1567412823.296875
-43.61,1567412823.3125
-44.72,1567412823.328125
-45.44,1567412823.34375
-46.0,1567412823.359375
-46.59,1567412823.375
-47.27,1567412823.390625
-47.95,1567412823.40625
-48.49,1567412823.421875
-48.73,1567412823.4375
-48.54,1567412823.453125
-47.83,1567412823.46875
-46.57,1567412823.484375
-44.75,1567412823.5
-42.54,1567412823.515625
-40.16,1567412823.53125
-37.94,1567412823.546875
-36.26,1567412823.5625
-35.53,1567412823.578125
-36.17,1567412823.59375
-38.57,1567412823.609375
-43.0,1567412823.625
-49.42,1567412823.640625
-57.39,1567412823.65625
-66.13,1567412823.671875
-74.6,1567412823.6875
-81.92,1567412823.703125
-87.54,1567412823.71875
-91.41,1567412823.734375
-93.89,1567412823.75
-95.54,1567412823.765625
-96.92,1567412823.78125
-98.39,1567412823.796875
-100.12,1567412823.8125
-102.01,1567412823.828125
-103.72,1567412823.84375
-104.7,1567412823.859375
-104.33,1567412823.875
-102.09,1567412823.890625
-97.88,1567412823.90625
-92.08,1567412823.921875
-85.56,1567412823.9375
-79.31,1567412823.953125
-74.12,1567412823.96875
-70.34,1567412823.984375
-67.84,1567412824.0
-66.18,1567412824.015625
-64.89,1567412824.03125
-63.67,1567412824.046875
-62.44,1567412824.0625
-61.21,1567412824.078125
-60.14,1567412824.09375
-59.45,1567412824.109375
-59.56,1567412824.125
-60.85,1567412824.140625
-63.52,1567412824.15625
-67.1,1567412824.171875
-70.28,1567412824.1875
-71.04,1567412824.203125
-67.23,1567412824.21875
-57.45,1567412824.234375
-41.64,1567412824.25
-21.41,1567412824.265625
0.58,1567412824.28125
21.36,1567412824.296875
38.75,1567412824.3125
51.79,1567412824.328125
60.77,1567412824.34375
66.72,1567412824.359375
70.84,1567412824.375
74.06,1567412824.390625
76.91,1567412824.40625
79.74,1567412824.421875
82.81,1567412824.4375
86.39,1567412824.453125
90.62,1567412824.46875
95.37,1567412824.484375
100.15,1567412824.5
104.21,1567412824.515625
106.86,1567412824.53125
107.71,1567412824.546875
106.87,1567412824.5625
104.82,1567412824.578125
102.24,1567412824.59375
99.56,1567412824.609375
96.73,1567412824.625
93.07,1567412824.640625
87.4,1567412824.65625
78.5,1567412824.671875
65.55,1567412824.6875
48.62,1567412824.703125
28.82,1567412824.71875
8.1,1567412824.734375
-11.08,1567412824.75
-26.3,1567412824.765625
-35.72,1567412824.78125
-38.88,1567412824.796875
-37.17,1567412824.8125
-33.91,1567412824.828125
-33.47,1567412824.84375
-39.6,1567412824.859375
-53.53,1567412824.875
-72.86,1567412824.890625
-92.13,1567412824.90625
-104.94,1567412824.921875
-106.49,1567412824.9375
-95.29,1567412824.953125
-73.11,1567412824.96875
-43.56,1567412824.984375
-10.49,1567412825.0
22.55,1567412825.015625
51.65,1567412825.03125
71.7,1567412825.046875
76.68,1567412825.0625
61.72,1567412825.078125
25.86,1567412825.09375
-26.28,1567412825.109375
-85.49,1567412825.125
-141.19,1567412825.140625
-185.31,1567412825.15625
-214.61,1567412825.171875
-230.26,1567412825.1875
-235.32,1567412825.203125
-231.92,1567412825.21875
-220.09,1567412825.234375
-198.65,1567412825.25
-167.34,1567412825.265625
-128.4,1567412825.28125
-86.58,1567412825.296875
-47.29,1567412825.3125
-14.31,1567412825.328125
11.66,1567412825.34375
32.74,1567412825.359375
52.32,1567412825.375
72.98,1567412825.390625
95.08,1567412825.40625
116.57,1567412825.421875
133.85,1567412825.4375
143.42,1567412825.453125
143.57,1567412825.46875
135.29,1567412825.484375
122.11,1567412825.5
108.82,1567412825.515625
99.49,1567412825.53125
95.63,1567412825.546875
95.55,1567412825.5625
95.12,1567412825.578125
89.83,1567412825.59375
76.89,1567412825.609375
56.46,1567412825.625
31.27,1567412825.640625
5.16,1567412825.65625
-18.65,1567412825.671875
-38.44,1567412825.6875
-53.6,1567412825.703125
-63.59,1567412825.71875
-66.97,1567412825.734375
-61.52,1567412825.75
-45.26,1567412825.765625
-17.88,1567412825.78125
18.37,1567412825.796875
58.84,1567412825.8125
97.74,1567412825.828125
130.01,1567412825.84375
152.72,1567412825.859375
165.67,1567412825.875
170.97,1567412825.890625
171.81,1567412825.90625
171.18,1567412825.921875
171.23,1567412825.9375
173.24,1567412825.953125
178.03,1567412825.96875
185.99,1567412825.984375
196.61,1567412826.0
207.69,1567412826.015625
215.21,1567412826.03125
214.21,1567412826.046875
200.79,1567412826.0625
174.09,1567412826.078125
137.23,1567412826.09375
96.47,1567412826.109375
58.92,1567412826.125
29.98,1567412826.140625
11.78,1567412826.15625
3.26,1567412826.171875
1.49,1567412826.1875
3.29,1567412826.203125
6.26,1567412826.21875
8.86,1567412826.234375
10.01,1567412826.25
8.76,1567412826.265625
4.31,1567412826.28125
-3.53,1567412826.296875
-14.13,1567412826.3125
-26.13,1567412826.328125
-37.79,1567412826.34375
-47.69,1567412826.359375
-55.29,1567412826.375
-61.08,1567412826.390625
-66.5,1567412826.40625
-73.29,1567412826.421875
-82.75,1567412826.4375
-95.02,1567412826.453125
-108.72,1567412826.46875
-121.17,1567412826.484375
-129.27,1567412826.5
-130.6,1567412826.515625
-124.26,1567412826.53125
-111.28,1567412826.546875
-94.15,1567412826.5625
-75.91,1567412826.578125
-59.14,1567412826.59375
-45.36,1567412826.609375
-34.93,1567412826.625
-27.45,1567412826.640625
-22.3,1567412826.65625
-18.96,1567412826.671875
-17.15,1567412826.6875
-16.68,1567412826.703125
-17.3,1567412826.71875
-18.63,1567412826.734375
-20.19,1567412826.75
-21.55,1567412826.765625
-22.45,1567412826.78125
-22.85,1567412826.796875
-22.87,1567412826.8125
-22.59,1567412826.828125
-21.87,1567412826.84375
-20.23,1567412826.859375
-16.98,1567412826.875
-11.42,1567412826.890625
-3.36,1567412826.90625
6.7,1567412826.921875
17.48,1567412826.9375
27.33,1567412826.953125
34.76,1567412826.96875
38.88,1567412826.984375
39.66,1567412827.0
37.53,1567412827.015625
33.05,1567412827.03125
26.44,1567412827.046875
17.55,1567412827.0625
6.07,1567412827.078125
-8.11,1567412827.09375
-24.63,1567412827.109375
-42.61,1567412827.125
-60.73,1567412827.140625
-77.36,1567412827.15625
-90.65,1567412827.171875
-98.75,1567412827.1875
-100.11,1567412827.203125
-93.98,1567412827.21875
-80.87,1567412827.234375
-62.66,1567412827.25
-42.27,1567412827.265625
-22.84,1567412827.28125
-6.86,1567412827.296875
4.46,1567412827.3125
11.27,1567412827.328125
14.63,1567412827.34375
15.97,1567412827.359375
16.48,1567412827.375
16.99,1567412827.390625
17.98,1567412827.40625
19.84,1567412827.421875
22.95,1567412827.4375
27.64,1567412827.453125
34.02,1567412827.46875
41.81,1567412827.484375
50.4,1567412827.5
59.0,1567412827.515625
66.93,1567412827.53125
73.91,1567412827.546875
80.06,1567412827.5625
85.68,1567412827.578125
90.99,1567412827.59375
95.92,1567412827.609375
100.02,1567412827.625
102.77,1567412827.640625
103.74,1567412827.65625
102.89,1567412827.671875
100.54,1567412827.6875
97.3,1567412827.703125
93.88,1567412827.71875
90.76,1567412827.734375
88.14,1567412827.75
85.75,1567412827.765625
82.85,1567412827.78125
78.45,1567412827.796875
71.62,1567412827.8125
61.91,1567412827.828125
49.76,1567412827.84375
36.68,1567412827.859375
24.94,1567412827.875
16.98,1567412827.890625
14.54,1567412827.90625
18.16,1567412827.921875
26.92,1567412827.9375
38.92,1567412827.953125
51.93,1567412827.96875
64.14,1567412827.984375
74.56,1567412828.0
83.02,1567412828.015625
89.89,1567412828.03125
95.61,1567412828.046875
100.44,1567412828.0625
104.36,1567412828.078125
107.21,1567412828.09375
108.86,1567412828.109375
109.42,1567412828.125
109.24,1567412828.140625
108.8,1567412828.15625
108.51,1567412828.171875
108.54,1567412828.1875
108.78,1567412828.203125
108.92,1567412828.21875
108.59,1567412828.234375
107.59,1567412828.25
105.83,1567412828.265625
103.32,1567412828.28125
100.02,1567412828.296875
95.76,1567412828.3125
90.23,1567412828.328125
83.14,1567412828.34375
74.43,1567412828.359375
64.38,1567412828.375
53.68,1567412828.390625
43.27,1567412828.40625
34.06,1567412828.421875
26.61,1567412828.4375
20.89,1567412828.453125
16.22,1567412828.46875
11.44,1567412828.484375
5.34,1567412828.5
-2.91,1567412828.515625
-13.39,1567412828.53125
-25.35,1567412828.546875
-37.32,1567412828.5625
-47.33,1567412828.578125
-53.38,1567412828.59375
-53.81,1567412828.609375
-47.77,1567412828.625
-35.52,1567412828.640625
-18.57,1567412828.65625
0.65,1567412828.671875
19.41,1567412828.6875
35.47,1567412828.703125
47.64,1567412828.71875
55.9,1567412828.734375
61.0,1567412828.75
63.89,1567412828.765625
65.19,1567412828.78125
65.14,1567412828.796875
63.89,1567412828.8125
61.78,1567412828.828125
59.43,1567412828.84375
57.55,1567412828.859375
56.44,1567412828.875
55.88,1567412828.890625
55.19,1567412828.90625
53.75,1567412828.921875
51.27,1567412828.9375
47.95,1567412828.953125
44.2,1567412828.96875
40.2,1567412828.984375
35.75,1567412829.0
30.32,1567412829.015625
23.31,1567412829.03125
14.45,1567412829.046875
3.8,1567412829.0625
-8.3,1567412829.078125
-21.36,1567412829.09375
-34.82,1567412829.109375
-47.99,1567412829.125
-60.04,1567412829.140625
-70.19,1567412829.15625
-78.06,1567412829.171875
-83.87,1567412829.1875
-88.62,1567412829.203125
-93.73,1567412829.21875
-100.55,1567412829.234375
-109.82,1567412829.25
-121.28,1567412829.265625
-133.58,1567412829.28125
-144.57,1567412829.296875
-151.81,1567412829.3125
-153.27,1567412829.328125
-148.0,1567412829.34375
-136.46,1567412829.359375
-120.45,1567412829.375
-102.62,1567412829.390625
-85.61,1567412829.40625
-71.32,1567412829.421875
-60.51,1567412829.4375
-52.83,1567412829.453125
-47.38,1567412829.46875
-43.22,1567412829.484375
-39.78,1567412829.5
-36.94,1567412829.515625
-34.79,1567412829.53125
-33.32,1567412829.546875
-32.24,1567412829.5625
-30.99,1567412829.578125
-29.03,1567412829.59375
-26.16,1567412829.609375
-22.66,1567412829.625
-19.19,1567412829.640625
-16.49,1567412829.65625
-14.9,1567412829.671875
-14.27,1567412829.6875
-14.0,1567412829.703125
-13.49,1567412829.71875
-12.55,1567412829.734375
-11.51,1567412829.75
-11.17,1567412829.765625
-12.35,1567412829.78125
-15.51,1567412829.796875
-20.56,1567412829.8125
-26.87,1567412829.828125
-33.59,1567412829.84375
-39.91,1567412829.859375
-45.31,1567412829.875
-49.6,1567412829.890625
-52.93,1567412829.90625
-55.68,1567412829.921875
-58.44,1567412829.9375
-61.86,1567412829.953125
-66.51,1567412829.96875
-72.63,1567412829.984375
-79.76,1567412830.0
-86.7,1567412830.015625
-91.62,1567412830.03125
-92.58,1567412830.046875
-88.19,1567412830.0625
-78.17,1567412830.078125
-63.52,1567412830.09375
-46.15,1567412830.109375
-28.31,1567412830.125
-11.87,1567412830.140625
2.06,1567412830.15625
13.1,1567412830.171875
21.38,1567412830.1875
27.16,1567412830.203125
30.71,1567412830.21875
32.29,1567412830.234375
32.31,1567412830.25
31.39,1567412830.265625
30.28,1567412830.28125
29.74,1567412830.296875
30.27,1567412830.3125
32.02,1567412830.328125
34.71,1567412830.34375
37.76,1567412830.359375
40.48,1567412830.375
42.24,1567412830.390625
42.69,1567412830.40625
41.82,1567412830.421875
39.85,1567412830.4375
37.13,1567412830.453125
33.98,1567412830.46875
30.54,1567412830.484375
26.75,1567412830.5
22.44,1567412830.515625
17.49,1567412830.53125
12.02,1567412830.546875
6.37,1567412830.5625
1.07,1567412830.578125
-3.36,1567412830.59375
-6.68,1567412830.609375
-9.06,1567412830.625
-11.01,1567412830.640625
-13.28,1567412830.65625
-16.6,1567412830.671875
-21.49,1567412830.6875
-28.07,1567412830.703125
-36.01,1567412830.71875
-44.46,1567412830.734375
-52.1,1567412830.75
-57.33,1567412830.765625
-58.57,1567412830.78125
-54.74,1567412830.796875
-45.55,1567412830.8125
-31.64,1567412830.828125
-14.34,1567412830.84375
4.76,1567412830.859375
24.12,1567412830.875
42.58,1567412830.890625
59.25,1567412830.90625
73.39,1567412830.921875
84.3,1567412830.9375
91.33,1567412830.953125
94.14,1567412830.96875
93.01,1567412830.984375
88.97,1567412831.0
83.71,1567412831.015625
79.26,1567412831.03125
77.38,1567412831.046875
79.11,1567412831.0625
84.54,1567412831.078125
92.89,1567412831.09375
102.9,1567412831.109375
113.21,1567412831.125
122.62,1567412831.140625
130.07,1567412831.15625
134.52,1567412831.171875
134.82,1567412831.1875
130.0,1567412831.203125
119.61,1567412831.21875
104.17,1567412831.234375
85.19,1567412831.25
64.88,1567412831.265625
45.46,1567412831.28125
28.6,1567412831.296875
14.97,1567412831.3125
4.31,1567412831.328125
-4.33,1567412831.34375
-12.08,1567412831.359375
-20.07,1567412831.375
-29.13,1567412831.390625
-39.74,1567412831.40625
-51.99,1567412831.421875
-65.56,1567412831.4375
-79.63,1567412831.453125
-92.98,1567412831.46875
-104.12,1567412831.484375
-111.6,1567412831.5
-114.45,1567412831.515625
-112.47,1567412831.53125
-106.44,1567412831.546875
-97.94,1567412831.5625
-88.89,1567412831.578125
-80.97,1567412831.59375
-75.07,1567412831.609375
-71.12,1567412831.625
-68.36,1567412831.640625
-65.87,1567412831.65625
-63.13,1567412831.671875
-60.28,1567412831.6875
-57.99,1567412831.703125
-56.98,1567412831.71875
-57.57,1567412831.734375
-59.36,1567412831.75
-61.43,1567412831.765625
-62.62,1567412831.78125
-62.06,1567412831.796875
-59.46,1567412831.8125
-55.19,1567412831.828125
-50.04,1567412831.84375
-44.86,1567412831.859375
-40.3,1567412831.875
-36.61,1567412831.890625
-33.72,1567412831.90625
-31.42,1567412831.921875
-29.65,1567412831.9375
-28.59,1567412831.953125
-28.64,1567412831.96875
-30.16,1567412831.984375
-33.2,1567412832.0
-37.38,1567412832.015625
-42.02,1567412832.03125
-46.47,1567412832.046875
-50.46,1567412832.0625
-54.09,1567412832.078125
-57.64,1567412832.09375
-61.18,1567412832.109375
-64.28,1567412832.125
-66.18,1567412832.140625
-66.17,1567412832.15625
-64.03,1567412832.171875
-60.15,1567412832.1875
-55.23,1567412832.203125
-49.83,1567412832.21875
-43.99,1567412832.234375
-37.28,1567412832.25
-29.14,1567412832.265625
-19.39,1567412832.28125
-8.46,1567412832.296875
2.71,1567412832.3125
13.07,1567412832.328125
21.95,1567412832.34375
29.2,1567412832.359375
35.16,1567412832.375
40.19,1567412832.390625
44.4,1567412832.40625
47.48,1567412832.421875
48.84,1567412832.4375
48.02,1567412832.453125
45.04,1567412832.46875
40.52,1567412832.484375
35.56,1567412832.5
31.31,1567412832.515625
28.45,1567412832.53125
27.03,1567412832.546875
26.47,1567412832.5625
25.9,1567412832.578125
24.55,1567412832.59375
22.06,1567412832.609375
18.42,1567412832.625
13.82,1567412832.640625
8.44,1567412832.65625
2.29,1567412832.671875
-4.76,1567412832.6875
-12.78,1567412832.703125
-21.73,1567412832.71875
-31.36,1567412832.734375
-41.31,1567412832.75
-51.17,1567412832.765625
-60.61,1567412832.78125
-69.41,1567412832.796875
-77.53,1567412832.8125
-85.24,1567412832.828125
-93.12,1567412832.84375
-101.95,1567412832.859375
-112.54,1567412832.875
-125.31,1567412832.890625
-139.96,1567412832.90625
-155.36,1567412832.921875
-169.75,1567412832.9375
-181.2,1567412832.953125
-188.23,1567412832.96875
-190.22,1567412832.984375
-187.74,1567412833.0
-182.37,1567412833.015625
-176.34,1567412833.03125
-171.82,1567412833.046875
-170.24,1567412833.0625
-171.71,1567412833.078125
-175.02,1567412833.09375
-178.16,1567412833.109375
-179.13,1567412833.125
-176.91,1567412833.140625
-171.82,1567412833.15625
-165.28,1567412833.171875
-158.99,1567412833.1875
-154.04,1567412833.203125
-150.38,1567412833.21875
-146.95,1567412833.234375
-142.36,1567412833.25
-135.63,1567412833.265625
-126.47,1567412833.28125
-115.07,1567412833.296875
-101.46,1567412833.3125
-85.08,1567412833.328125
-64.67,1567412833.34375
-38.69,1567412833.359375
-6.02,1567412833.375
33.57,1567412833.390625
79.06,1567412833.40625
128.27,1567412833.421875
178.03,1567412833.4375
224.65,1567412833.453125
264.4,1567412833.46875
294.19,1567412833.484375
312.27,1567412833.5
318.67,1567412833.515625
315.06,1567412833.53125
304.22,1567412833.546875
289.0,1567412833.5625
271.47,1567412833.578125
252.52,1567412833.59375
232.14,1567412833.609375
210.02,1567412833.625
186.38,1567412833.640625
162.25,1567412833.65625
139.45,1567412833.671875
120.03,1567412833.6875
105.58,1567412833.703125
96.69,1567412833.71875
92.69,1567412833.734375
91.77,1567412833.75
91.53,1567412833.765625
89.63,1567412833.78125
84.45,1567412833.796875
75.52,1567412833.8125
63.74,1567412833.828125
51.2,1567412833.84375
40.7,1567412833.859375
34.87,1567412833.875
35.39,1567412833.890625
42.37,1567412833.90625
54.23,1567412833.921875
68.27,1567412833.9375
81.47,1567412833.953125
91.48,1567412833.96875
97.04,1567412833.984375
98.07,1567412834.0
95.31,1567412834.015625
89.8,1567412834.03125
82.56,1567412834.046875
74.47,1567412834.0625
66.18,1567412834.078125
58.08,1567412834.09375
50.21,1567412834.109375
42.09,1567412834.125
32.85,1567412834.140625
21.45,1567412834.15625
7.23,1567412834.171875
-9.65,1567412834.1875
-28.0,1567412834.203125
-45.58,1567412834.21875
-59.71,1567412834.234375
-68.0,1567412834.25
-69.2,1567412834.265625
-63.72,1567412834.28125
-53.62,1567412834.296875
-42.08,1567412834.3125
-32.35,1567412834.328125
-26.88,1567412834.34375
-26.7,1567412834.359375
-31.36,1567412834.375
-39.31,1567412834.390625
-48.44,1567412834.40625
-56.64,1567412834.421875
-62.13,1567412834.4375
-63.7,1567412834.453125
-60.75,1567412834.46875
-53.43,1567412834.484375
-42.51,1567412834.5
-29.29,1567412834.515625
-15.2,1567412834.53125
-1.53,1567412834.546875
10.84,1567412834.5625
21.49,1567412834.578125
30.26,1567412834.59375
37.12,1567412834.609375
42.02,1567412834.625
44.97,1567412834.640625
46.15,1567412834.65625
45.98,1567412834.671875
45.07,1567412834.6875
44.04,1567412834.703125
43.37,1567412834.71875
43.17,1567412834.734375
43.3,1567412834.75
43.32,1567412834.765625
42.74,1567412834.78125
41.12,1567412834.796875
38.23,1567412834.8125
34.03,1567412834.828125
28.72,1567412834.84375
22.56,1567412834.859375
15.67,1567412834.875
7.94,1567412834.890625
-0.89,1567412834.90625
-11.12,1567412834.921875
-22.73,1567412834.9375
-35.29,1567412834.953125
-47.92,1567412834.96875
-59.63,1567412834.984375
-69.59,1567412835.0
-77.49,1567412835.015625
-83.58,1567412835.03125
-88.61,1567412835.046875
-93.61,1567412835.0625
-99.49,1567412835.078125
-106.79,1567412835.09375
-115.42,1567412835.109375
-124.5,1567412835.125
-132.38,1567412835.140625
-136.98,1567412835.15625
-136.3,1567412835.171875
-129.08,1567412835.1875
-115.31,1567412835.203125
-96.4,1567412835.21875
-74.78,1567412835.234375
-53.21,1567412835.25
-34.0,1567412835.265625
-18.39,1567412835.28125
-6.57,1567412835.296875
2.06,1567412835.3125
8.36,1567412835.328125
12.97,1567412835.34375
16.27,1567412835.359375
18.41,1567412835.375
19.59,1567412835.390625
20.22,1567412835.40625
20.9,1567412835.421875
22.29,1567412835.4375
24.83,1567412835.453125
28.57,1567412835.46875
33.07,1567412835.484375
37.55,1567412835.5
41.1,1567412835.515625
43.05,1567412835.53125
43.17,1567412835.546875
41.65,1567412835.5625
38.97,1567412835.578125
35.56,1567412835.59375
31.6,1567412835.609375
27.0,1567412835.625
21.48,1567412835.640625
14.79,1567412835.65625
6.99,1567412835.671875
-1.53,1567412835.6875
-10.07,1567412835.703125
-17.81,1567412835.71875
-24.12,1567412835.734375
-28.71,1567412835.75
-31.92,1567412835.765625
-34.54,1567412835.78125
-37.66,1567412835.796875
-42.26,1567412835.8125
-48.96,1567412835.828125
-57.75,1567412835.84375
-68.02,1567412835.859375
-78.49,1567412835.875
-87.39,1567412835.890625
-92.72,1567412835.90625
-92.59,1567412835.921875
-85.83,1567412835.9375
-72.46,1567412835.953125
-53.99,1567412835.96875
-33.01,1567412835.984375
-12.49,1567412836.0
5.21,1567412836.015625
18.99,1567412836.03125
29.1,1567412836.046875
36.64,1567412836.0625
42.73,1567412836.078125
48.01,1567412836.09375
52.4,1567412836.109375
55.44,1567412836.125
56.74,1567412836.140625
56.38,1567412836.15625
54.93,1567412836.171875
53.19,1567412836.1875
51.93,1567412836.203125
51.53,1567412836.21875
51.97,1567412836.234375
52.91,1567412836.25
53.84,1567412836.265625
54.28,1567412836.28125
53.87,1567412836.296875
52.44,1567412836.3125
49.93,1567412836.328125
46.5,1567412836.34375
42.3,1567412836.359375
37.48,1567412836.375
32.13,1567412836.390625
26.22,1567412836.40625
19.69,1567412836.421875
12.56,1567412836.4375
5.01,1567412836.453125
-2.62,1567412836.46875
-9.85,1567412836.484375
-16.22,1567412836.5
-21.44,1567412836.515625
-25.5,1567412836.53125
-28.7,1567412836.546875
-31.6,1567412836.5625
-34.93,1567412836.578125
-39.45,1567412836.59375
-45.83,1567412836.609375
-54.33,1567412836.625
-64.44,1567412836.640625
-74.74,1567412836.65625
-82.91,1567412836.671875
-86.33,1567412836.6875
-82.96,1567412836.703125
-72.14,1567412836.71875
-55.02,1567412836.734375
-34.21,1567412836.75
-12.95,1567412836.765625
6.03,1567412836.78125
21.18,1567412836.796875
32.31,1567412836.8125
40.13,1567412836.828125
45.55,1567412836.84375
49.23,1567412836.859375
51.44,1567412836.875
52.24,1567412836.890625
51.74,1567412836.90625
50.31,1567412836.921875
48.5,1567412836.9375
46.86,1567412836.953125
45.85,1567412836.96875
45.61,1567412836.984375
46.08,1567412837.0
46.97,1567412837.015625
47.88,1567412837.03125
48.39,1567412837.046875
48.08,1567412837.0625
46.62,1567412837.078125
43.87,1567412837.09375
39.87,1567412837.109375
34.82,1567412837.125
29.0,1567412837.140625
22.69,1567412837.15625
16.02,1567412837.171875
9.03,1567412837.1875
1.74,1567412837.203125
-5.82,1567412837.21875
-13.53,1567412837.234375
-21.2,1567412837.25
-28.68,1567412837.265625
-35.92,1567412837.28125
-43.0,1567412837.296875
-50.16,1567412837.3125
-57.64,1567412837.328125
-65.64,1567412837.34375
-74.31,1567412837.359375
-83.81,1567412837.375
-94.18,1567412837.390625
-105.21,1567412837.40625
-116.08,1567412837.421875
-125.15,1567412837.4375
-130.14,1567412837.453125
-128.65,1567412837.46875
-119.07,1567412837.484375
-101.41,1567412837.5
-77.54,1567412837.515625
-50.77,1567412837.53125
-24.78,1567412837.546875
-2.5,1567412837.5625
14.7,1567412837.578125
26.98,1567412837.59375
35.48,1567412837.609375
41.45,1567412837.625
45.75,1567412837.640625
48.61,1567412837.65625
50.03,1567412837.671875
50.1,1567412837.6875
49.33,1567412837.703125
48.56,1567412837.71875
48.69,1567412837.734375
50.34,1567412837.75
53.53,1567412837.765625
57.73,1567412837.78125
61.99,1567412837.796875
65.29,1567412837.8125
66.83,1567412837.828125
66.21,1567412837.84375
63.41,1567412837.859375
58.68,1567412837.875
52.35,1567412837.890625
44.69,1567412837.90625
35.86,1567412837.921875
25.98,1567412837.9375
15.14,1567412837.953125
3.53,1567412837.96875
-8.56,1567412837.984375
-20.79,1567412838.0
-32.8,1567412838.015625
-44.29,1567412838.03125
-55.16,1567412838.046875
-65.43,1567412838.0625
-75.34,1567412838.078125
-85.21,1567412838.09375
-95.46,1567412838.109375
-106.5,1567412838.125
-118.68,1567412838.140625
-132.16,1567412838.15625
-146.71,1567412838.171875
-161.44,1567412838.1875
-174.79,1567412838.203125
-184.67,1567412838.21875
-189.17,1567412838.234375
-187.13,1567412838.25
-178.81,1567412838.265625
-165.87,1567412838.28125
-150.97,1567412838.296875
-136.82,1567412838.3125
-125.29,1567412838.328125
-116.96,1567412838.34375
-110.93,1567412838.359375
-105.45,1567412838.375
-98.59,1567412838.390625
-88.86,1567412838.40625
-75.68,1567412838.421875
-59.32,1567412838.4375
-40.65,1567412838.453125
-20.7,1567412838.46875
-0.39,1567412838.484375
19.67,1567412838.5
39.05,1567412838.515625
57.38,1567412838.53125
74.27,1567412838.546875
89.31,1567412838.5625
102.22,1567412838.578125
112.93,1567412838.59375
121.7,1567412838.609375
128.9,1567412838.625
134.92,1567412838.640625
139.99,1567412838.65625
144.08,1567412838.671875
147.01,1567412838.6875
148.48,1567412838.703125
148.3,1567412838.71875
146.45,1567412838.734375
143.22,1567412838.75
139.14,1567412838.765625
134.85,1567412838.78125
130.85,1567412838.796875
127.36,1567412838.8125
124.23,1567412838.828125
121.03,1567412838.84375
117.18,1567412838.859375
112.18,1567412838.875
105.56,1567412838.890625
97.0,1567412838.90625
86.26,1567412838.921875
73.44,1567412838.9375
59.25,1567412838.953125
45.2,1567412838.96875
33.49,1567412838.984375
26.48,1567412839.0
25.94,1567412839.015625
32.36,1567412839.03125
44.7,1567412839.046875
60.71,1567412839.0625
77.71,1567412839.078125
93.38,1567412839.09375
106.41,1567412839.109375
116.51,1567412839.125
124.23,1567412839.140625
130.32,1567412839.15625
135.33,1567412839.171875
139.27,1567412839.1875
141.7,1567412839.203125
141.95,1567412839.21875
139.6,1567412839.234375
134.81,1567412839.25
128.38,1567412839.265625
121.55,1567412839.28125
115.51,1567412839.296875
110.89,1567412839.3125
107.64,1567412839.328125
105.11,1567412839.34375
102.55,1567412839.359375
99.42,1567412839.375
95.62,1567412839.390625
91.35,1567412839.40625
86.83,1567412839.421875
82.15,1567412839.4375
77.17,1567412839.453125
71.71,1567412839.46875
65.65,1567412839.484375
59.02,1567412839.5
51.92,1567412839.515625
44.5,1567412839.53125
36.94,1567412839.546875
29.44,1567412839.5625
22.28,1567412839.578125
15.75,1567412839.59375
10.06,1567412839.609375
5.16,1567412839.625
0.67,1567412839.640625
-4.01,1567412839.65625
-9.61,1567412839.671875
-16.7,1567412839.6875
-25.34,1567412839.703125
-34.92,1567412839.71875
-44.05,1567412839.734375
-50.87,1567412839.75
-53.51,1567412839.765625
-50.74,1567412839.78125
-42.51,1567412839.796875
-30.07,1567412839.8125
-15.66,1567412839.828125
-1.79,1567412839.84375
9.48,1567412839.859375
17.08,1567412839.875
21.03,1567412839.890625
22.19,1567412839.90625
21.7,1567412839.921875
20.59,1567412839.9375
19.47,1567412839.953125
18.51,1567412839.96875
17.59,1567412839.984375
16.54,1567412840.0
15.31,1567412840.015625
14.08,1567412840.03125
13.16,1567412840.046875
12.82,1567412840.0625
13.14,1567412840.078125
13.86,1567412840.09375
14.54,1567412840.109375
14.65,1567412840.125
13.83,1567412840.140625
11.97,1567412840.15625
9.23,1567412840.171875
5.86,1567412840.1875
2.15,1567412840.203125
-1.66,1567412840.21875
-5.45,1567412840.234375
-9.16,1567412840.25
-12.82,1567412840.265625
-16.49,1567412840.28125
-20.25,1567412840.296875
-24.13,1567412840.3125
-28.14,1567412840.328125
-32.19,1567412840.34375
-36.18,1567412840.359375
-39.97,1567412840.375
-43.5,1567412840.390625
-46.79,1567412840.40625
-49.99,1567412840.421875
-53.31,1567412840.4375
-56.99,1567412840.453125
-61.25,1567412840.46875
-66.06,1567412840.484375
-71.03,1567412840.5
-75.22,1567412840.515625
-77.29,1567412840.53125
-75.78,1567412840.546875
-69.71,1567412840.5625
-59.13,1567412840.578125
-45.22,1567412840.59375
-30.1,1567412840.609375
-16.04,1567412840.625
-4.72,1567412840.640625
3.25,1567412840.65625
8.35,1567412840.671875
11.59,1567412840.6875
13.95,1567412840.703125
15.84,1567412840.71875
17.17,1567412840.734375
17.57,1567412840.75
16.88,1567412840.765625
15.35,1567412840.78125
13.57,1567412840.796875
12.17,1567412840.8125
11.55,1567412840.828125
11.69,1567412840.84375
12.27,1567412840.859375
12.81,1567412840.875
12.94,1567412840.890625
12.52,1567412840.90625
11.61,1567412840.921875
10.42,1567412840.9375
9.1,1567412840.953125
7.69,1567412840.96875
6.06,1567412840.984375
4.02,1567412841.0
1.41,1567412841.015625
-1.8,1567412841.03125
-5.48,1567412841.046875
-9.42,1567412841.0625
-13.38,1567412841.078125
-17.21,1567412841.09375
-20.77,1567412841.109375
-23.98,1567412841.125
-26.76,1567412841.140625
-29.06,1567412841.15625
-31.0,1567412841.171875
-32.88,1567412841.1875
-35.16,1567412841.203125
-38.3,1567412841.21875
-42.6,1567412841.234375
-47.88,1567412841.25
-53.49,1567412841.265625
-58.22,1567412841.28125
-60.66,1567412841.296875
-59.58,1567412841.3125
-54.34,1567412841.328125
-45.21,1567412841.34375
-33.4,1567412841.359375
-20.67,1567412841.375
-8.8,1567412841.390625
0.94,1567412841.40625
8.09,1567412841.421875
12.94,1567412841.4375
16.17,1567412841.453125
18.38,1567412841.46875
19.84,1567412841.484375
20.48,1567412841.5
20.12,1567412841.515625
18.74,1567412841.53125
16.6,1567412841.546875
14.26,1567412841.5625
12.32,1567412841.578125
11.13,1567412841.59375
10.76,1567412841.609375
10.87,1567412841.625
11.01,1567412841.640625
10.73,1567412841.65625
9.83,1567412841.671875
8.34,1567412841.6875
6.43,1567412841.703125
4.25,1567412841.71875
1.83,1567412841.734375
-0.93,1567412841.75
-4.13,1567412841.765625
-7.77,1567412841.78125
-11.66,1567412841.796875
-15.52,1567412841.8125
-19.06,1567412841.828125
-22.08,1567412841.84375
-24.54,1567412841.859375
-26.53,1567412841.875
-28.26,1567412841.890625
-29.92,1567412841.90625
-31.79,1567412841.921875
-34.13,1567412841.9375
-37.19,1567412841.953125
-41.16,1567412841.96875
-46.02,1567412841.984375
-51.44,1567412842.0
-56.73,1567412842.015625
-60.88,1567412842.03125
-62.76,1567412842.046875
-61.46,1567412842.0625
-56.61,1567412842.078125
-48.62,1567412842.09375
-38.59,1567412842.109375
-28.0,1567412842.125
-18.26,1567412842.140625
-10.25,1567412842.15625
-4.22,1567412842.171875
0.11,1567412842.1875
3.23,1567412842.203125
5.56,1567412842.21875
7.25,1567412842.234375
8.31,1567412842.25
8.69,1567412842.265625
8.5,1567412842.28125
8.02,1567412842.296875
7.6,1567412842.3125
7.52,1567412842.328125
7.84,1567412842.34375
8.42,1567412842.359375
8.98,1567412842.375
9.27,1567412842.390625
9.16,1567412842.40625
8.69,1567412842.421875
7.98,1567412842.4375
7.15,1567412842.453125
6.14,1567412842.46875
4.74,1567412842.484375
2.68,1567412842.5
-0.16,1567412842.515625
-3.66,1567412842.53125
-7.51,1567412842.546875
-11.23,1567412842.5625
-14.47,1567412842.578125
-17.07,1567412842.59375
-19.1,1567412842.609375
-20.74,1567412842.625
-22.21,1567412842.640625
-23.63,1567412842.65625
-25.06,1567412842.671875
-26.58,1567412842.6875
-28.31,1567412842.703125
-30.45,1567412842.71875
-33.16,1567412842.734375
-36.44,1567412842.75
-39.99,1567412842.765625
-43.09,1567412842.78125
-44.79,1567412842.796875
-44.06,1567412842.8125
-40.19,1567412842.828125
-33.08,1567412842.84375
-23.39,1567412842.859375
-12.39,1567412842.875
-1.59,1567412842.890625
7.74,1567412842.90625
14.93,1567412842.921875
20.02,1567412842.9375
23.52,1567412842.953125
26.09,1567412842.96875
28.1,1567412842.984375
29.49,1567412843.0
29.95,1567412843.015625
29.13,1567412843.03125
27.05,1567412843.046875
24.17,1567412843.0625
21.29,1567412843.078125
19.19,1567412843.09375
18.34,1567412843.109375
18.72,1567412843.125
19.88,1567412843.140625
21.18,1567412843.15625
22.13,1567412843.171875
22.47,1567412843.1875
22.21,1567412843.203125
21.46,1567412843.21875
20.29,1567412843.234375
18.74,1567412843.25
16.84,1567412843.265625
14.65,1567412843.28125
12.34,1567412843.296875
10.0,1567412843.3125
7.57,1567412843.328125
4.81,1567412843.34375
1.4,1567412843.359375
-2.73,1567412843.375
-7.34,1567412843.390625
-11.8,1567412843.40625
-15.46,1567412843.421875
-17.92,1567412843.4375
-19.31,1567412843.453125
-20.3,1567412843.46875
-21.73,1567412843.484375
-24.23,1567412843.5
-27.86,1567412843.515625
-32.04,1567412843.53125
-35.81,1567412843.546875
-38.13,1567412843.5625
-38.25,1567412843.578125
-35.81,1567412843.59375
-30.91,1567412843.609375
-23.92,1567412843.625
-15.42,1567412843.640625
-6.13,1567412843.65625
3.14,1567412843.671875
11.57,1567412843.6875
18.47,1567412843.703125
23.45,1567412843.71875
26.47,1567412843.734375
27.83,1567412843.75
28.01,1567412843.765625
27.42,1567412843.78125
26.28,1567412843.796875
24.65,1567412843.8125
22.55,1567412843.828125
20.12,1567412843.84375
17.68,1567412843.859375
15.56,1567412843.875
13.96,1567412843.890625
12.78,1567412843.90625
11.69,1567412843.921875
10.33,1567412843.9375
8.48,1567412843.953125
6.19,1567412843.96875
3.69,1567412843.984375
1.24,1567412844.0
-1.07,1567412844.015625
-3.3,1567412844.03125
-5.58,1567412844.046875
-7.93,1567412844.0625
-10.26,1567412844.078125
-12.36,1567412844.09375
-14.1,1567412844.109375
-15.55,1567412844.125
-17.08,1567412844.140625
-19.19,1567412844.15625
-22.36,1567412844.171875
-26.9,1567412844.1875
-32.77,1567412844.203125
-39.67,1567412844.21875
-47.2,1567412844.234375
-55.02,1567412844.25
-62.87,1567412844.265625
-70.54,1567412844.28125
-77.69,1567412844.296875
-83.66,1567412844.3125
-87.46,1567412844.328125
-87.97,1567412844.34375
-84.28,1567412844.359375
-76.12,1567412844.375
-64.04,1567412844.390625
-49.4,1567412844.40625
-33.94,1567412844.421875
-19.37,1567412844.4375
-6.85,1567412844.453125
3.13,1567412844.46875
10.73,1567412844.484375
16.38,1567412844.5
20.42,1567412844.515625
23.04,1567412844.53125
24.26,1567412844.546875
24.19,1567412844.5625
23.22,1567412844.578125
22.04,1567412844.59375
21.38,1567412844.609375
21.77,1567412844.625
23.24,1567412844.640625
25.34,1567412844.65625
27.36,1567412844.671875
28.63,1567412844.6875
28.83,1567412844.703125
27.97,1567412844.71875
26.3,1567412844.734375
24.05,1567412844.75
21.35,1567412844.765625
18.27,1567412844.78125
14.91,1567412844.796875
11.44,1567412844.8125
8.09,1567412844.828125
4.98,1567412844.84375
2.07,1567412844.859375
-0.84,1567412844.875
-3.93,1567412844.890625
-7.25,1567412844.90625
-10.59,1567412844.921875
-13.7,1567412844.9375
-16.39,1567412844.953125
-18.8,1567412844.96875
-21.38,1567412844.984375
-24.69,1567412845.0
-29.25,1567412845.015625
-35.23,1567412845.03125
-42.4,1567412845.046875
-50.12,1567412845.0625
-57.4,1567412845.078125
-63.05,1567412845.09375
-65.81,1567412845.109375
-64.64,1567412845.125
-59.02,1567412845.140625
-49.25,1567412845.15625
-36.53,1567412845.171875
-22.78,1567412845.1875
-10.08,1567412845.203125
-0.05,1567412845.21875
6.6,1567412845.234375
10.15,1567412845.25
11.48,1567412845.265625
11.55,1567412845.28125
10.96,1567412845.296875
9.81,1567412845.3125
8.04,1567412845.328125
5.7,1567412845.34375
3.13,1567412845.359375
0.92,1567412845.375
-0.51,1567412845.390625
-1.06,1567412845.40625
-1.06,1567412845.421875
-0.95,1567412845.4375
-1.08,1567412845.453125
-1.48,1567412845.46875
-2.0,1567412845.484375
-2.49,1567412845.5
-2.97,1567412845.515625
-3.62,1567412845.53125
-4.68,1567412845.546875
-6.28,1567412845.5625
-8.4,1567412845.578125
-10.88,1567412845.59375
-13.59,1567412845.609375
-16.29,1567412845.625
-18.7,1567412845.640625
-20.38,1567412845.65625
-20.83,1567412845.671875
-19.66,1567412845.6875
-16.82,1567412845.703125
-12.67,1567412845.71875
-7.97,1567412845.734375
-3.69,1567412845.75
-0.72,1567412845.765625
0.26,1567412845.78125
-1.08,1567412845.796875
-4.57,1567412845.8125
-9.55,1567412845.828125
-14.71,1567412845.84375
-18.34,1567412845.859375
-18.67,1567412845.875
-14.43,1567412845.890625
-5.43,1567412845.90625
7.23,1567412845.921875
21.37,1567412845.9375
34.38,1567412845.953125
44.11,1567412845.96875
49.54,1567412845.984375
50.99,1567412846.0
49.85,1567412846.015625
47.86,1567412846.03125
46.43,1567412846.046875
46.16,1567412846.0625
46.68,1567412846.078125
46.84,1567412846.09375
45.02,1567412846.109375
39.68,1567412846.125
29.83,1567412846.140625
15.49,1567412846.15625
-2.1,1567412846.171875
-20.62,1567412846.1875
-37.15,1567412846.203125
-48.91,1567412846.21875
-53.96,1567412846.234375
-51.67,1567412846.25
-42.73,1567412846.265625
-28.85,1567412846.28125
-12.31,1567412846.296875
4.51,1567412846.3125
19.33,1567412846.328125
30.25,1567412846.34375
35.98,1567412846.359375
36.15,1567412846.375
31.54,1567412846.390625
24.01,1567412846.40625
16.02,1567412846.421875
9.86,1567412846.4375
6.76,1567412846.453125
6.37,1567412846.46875
6.72,1567412846.484375
4.89,1567412846.5
-1.96,1567412846.515625
-15.63,1567412846.53125
-36.04,1567412846.546875
-61.17,1567412846.5625
-87.36,1567412846.578125
-110.1,1567412846.59375
-125.1,1567412846.609375
-129.23,1567412846.625
-121.3,1567412846.640625
-102.38,1567412846.65625
-75.52,1567412846.671875
-44.99,1567412846.6875
-15.17,1567412846.703125
10.45,1567412846.71875
29.96,1567412846.734375
43.15,1567412846.75
51.09,1567412846.765625
55.41,1567412846.78125
57.63,1567412846.796875
58.64,1567412846.8125
58.73,1567412846.828125
57.79,1567412846.84375
55.62,1567412846.859375
52.25,1567412846.875
48.02,1567412846.890625
43.45,1567412846.90625
39.1,1567412846.921875
35.35,1567412846.9375
32.29,1567412846.953125
29.78,1567412846.96875
27.5,1567412846.984375
25.1,1567412847.0
22.27,1567412847.015625
18.8,1567412847.03125
14.57,1567412847.046875
9.6,1567412847.0625
4.01,1567412847.078125
-1.96,1567412847.09375
-8.07,1567412847.109375
-14.12,1567412847.125
-20.05,1567412847.140625
-26.07,1567412847.15625
-32.59,1567412847.171875
-40.18,1567412847.1875
-49.25,1567412847.203125
-59.83,1567412847.21875
-71.38,1567412847.234375
-82.92,1567412847.25
-93.3,1567412847.265625
-101.71,1567412847.28125
-107.85,1567412847.296875
-111.92,1567412847.3125
-114.33,1567412847.328125
-115.2,1567412847.34375
-114.15,1567412847.359375
-110.31,1567412847.375
-102.69,1567412847.390625
-90.74,1567412847.40625
-74.73,1567412847.421875
-55.87,1567412847.4375
-35.98,1567412847.453125
-16.99,1567412847.46875
-0.37,1567412847.484375
13.21,1567412847.5
23.86,1567412847.515625
32.21,1567412847.53125
39.02,1567412847.546875
44.85,1567412847.5625
49.87,1567412847.578125
54.01,1567412847.59375
57.11,1567412847.609375
59.09,1567412847.625
60.1,1567412847.640625
60.43,1567412847.65625
60.48,1567412847.671875
60.69,1567412847.6875
61.34,1567412847.703125
62.54,1567412847.71875
64.11,1567412847.734375
65.65,1567412847.75
66.68,1567412847.765625
66.84,1567412847.78125
66.0,1567412847.796875
64.29,1567412847.8125
61.93,1567412847.828125
59.16,1567412847.84375
56.05,1567412847.859375
52.57,1567412847.875
48.59,1567412847.890625
43.98,1567412847.90625
38.7,1567412847.921875
32.84,1567412847.9375
26.65,1567412847.953125
20.47,1567412847.96875
14.73,1567412847.984375
9.77,1567412848.0
5.71,1567412848.015625
2.38,1567412848.03125
-0.69,1567412848.046875
-4.18,1567412848.0625
-8.79,1567412848.078125
-15.03,1567412848.09375
-23.04,1567412848.109375
-32.43,1567412848.125
-42.15,1567412848.140625
-50.58,1567412848.15625
-55.84,1567412848.171875
-56.3,1567412848.1875
-51.09,1567412848.203125
-40.51,1567412848.21875
-26.06,1567412848.234375
-9.97,1567412848.25
5.41,1567412848.265625
18.34,1567412848.28125
28.04,1567412848.296875
34.71,1567412848.3125
39.12,1567412848.328125
42.16,1567412848.34375
44.32,1567412848.359375
45.74,1567412848.375
46.19,1567412848.390625
45.52,1567412848.40625
43.86,1567412848.421875
41.72,1567412848.4375
39.84,1567412848.453125
38.87,1567412848.46875
39.07,1567412848.484375
40.18,1567412848.5
41.55,1567412848.515625
42.41,1567412848.53125
42.24,1567412848.546875
40.92,1567412848.5625
38.68,1567412848.578125
35.94,1567412848.59375
33.05,1567412848.609375
30.17,1567412848.625
27.26,1567412848.640625
24.21,1567412848.65625
21.01,1567412848.671875
17.77,1567412848.6875
14.74,1567412848.703125
12.13,1567412848.71875
10.04,1567412848.734375
8.47,1567412848.75
7.29,1567412848.765625
6.38,1567412848.78125
5.55,1567412848.796875
4.6,1567412848.8125
3.2,1567412848.828125
0.91,1567412848.84375
-2.81,1567412848.859375
-8.32,1567412848.875
-15.54,1567412848.890625
-23.65,1567412848.90625
-31.09,1567412848.921875
-35.86,1567412848.9375
-36.16,1567412848.953125
-31.05,1567412848.96875
-20.85,1567412848.984375
-7.13,1567412849.0
7.84,1567412849.015625
21.85,1567412849.03125
33.43,1567412849.046875
42.11,1567412849.0625
48.23,1567412849.078125
52.55,1567412849.09375
55.75,1567412849.109375
58.19,1567412849.125
59.9,1567412849.140625
60.74,1567412849.15625
60.71,1567412849.171875
60.01,1567412849.1875
59.12,1567412849.203125
58.54,1567412849.21875
58.67,1567412849.234375
59.57,1567412849.25
60.95,1567412849.265625
62.37,1567412849.28125
63.32,1567412849.296875
63.47,1567412849.3125
62.69,1567412849.328125
61.0,1567412849.34375
58.44,1567412849.359375
55.06,1567412849.375
50.88,1567412849.390625
45.99,1567412849.40625
40.62,1567412849.421875
35.09,1567412849.4375
29.66,1567412849.453125
24.49,1567412849.46875
19.52,1567412849.484375
14.47,1567412849.5
9.02,1567412849.515625
2.98,1567412849.53125
-3.64,1567412849.546875
-10.56,1567412849.5625
-17.45,1567412849.578125
-24.09,1567412849.59375
-30.64,1567412849.609375
-37.58,1567412849.625
-45.52,1567412849.640625
-54.8,1567412849.65625
-65.23,1567412849.671875
-75.92,1567412849.6875
-85.55,1567412849.703125
-92.73,1567412849.71875
-96.44,1567412849.734375
-96.45,1567412849.75
-93.32,1567412849.765625
-88.22,1567412849.78125
-82.5,1567412849.796875
-77.32,1567412849.8125
-73.35,1567412849.828125
-70.75,1567412849.84375
-69.29,1567412849.859375
-68.63,1567412849.875
-68.55,1567412849.890625
-68.99,1567412849.90625
-69.89,1567412849.921875
-71.07,1567412849.9375
-72.04,1567412849.953125
-72.11,1567412849.96875
-70.54,1567412849.984375
-66.93,1567412850.0
-61.41,1567412850.015625
-54.58,1567412850.03125
-47.31,1567412850.046875
-40.41,1567412850.0625
-34.4,1567412850.078125
-29.41,1567412850.09375
-25.24,1567412850.109375
-21.62,1567412850.125
-18.27,1567412850.140625
-15.12,1567412850.15625
-12.24,1567412850.171875
-9.79,1567412850.1875
-7.91,1567412850.203125
-6.68,1567412850.21875
-6.06,1567412850.234375
-5.99,1567412850.25
-6.35,1567412850.265625
-7.03,1567412850.28125
-7.97,1567412850.296875
-9.09,1567412850.3125
-10.38,1567412850.328125
-11.85,1567412850.34375
-13.67,1567412850.359375
-16.08,1567412850.375
-19.4,1567412850.390625
-23.93,1567412850.40625
-29.71,1567412850.421875
-36.45,1567412850.4375
-43.39,1567412850.453125
-49.3,1567412850.46875
-52.67,1567412850.484375
-52.07,1567412850.5
-46.54,1567412850.515625
-36.08,1567412850.53125
-21.76,1567412850.546875
-5.55,1567412850.5625
10.23,1567412850.578125
23.64,1567412850.59375
33.59,1567412850.609375
40.09,1567412850.625
43.85,1567412850.640625
45.83,1567412850.65625
46.76,1567412850.671875
46.98,1567412850.6875
46.61,1567412850.703125
45.83,1567412850.71875
45.03,1567412850.734375
44.69,1567412850.75
45.23,1567412850.765625
46.78,1567412850.78125
49.12,1567412850.796875
51.82,1567412850.8125
54.41,1567412850.828125
56.56,1567412850.84375
58.05,1567412850.859375
58.79,1567412850.875
58.76,1567412850.890625
57.98,1567412850.90625
56.53,1567412850.921875
54.57,1567412850.9375
52.2,1567412850.953125
49.49,1567412850.96875
46.4,1567412850.984375
42.73,1567412851.0
38.23,1567412851.015625
32.68,1567412851.03125
25.94,1567412851.046875
18.07,1567412851.0625
9.35,1567412851.078125
0.3,1567412851.09375
-8.46,1567412851.109375
-16.37,1567412851.125
-23.16,1567412851.140625
-29.0,1567412851.15625
-34.45,1567412851.171875
-40.3,1567412851.1875
-47.06,1567412851.203125
-54.63,1567412851.21875
-62.05,1567412851.234375
-67.69,1567412851.25
-69.88,1567412851.265625
-67.57,1567412851.28125
-60.93,1567412851.296875
-51.29,1567412851.3125
-40.7,1567412851.328125
-30.94,1567412851.34375
-22.86,1567412851.359375
-16.07,1567412851.375
-9.28,1567412851.390625
-0.95,1567412851.40625
9.96,1567412851.421875
23.6,1567412851.4375
39.02,1567412851.453125
54.35,1567412851.46875
67.01,1567412851.484375
74.23,1567412851.5
73.76,1567412851.515625
64.74,1567412851.53125
48.31,1567412851.546875
27.68,1567412851.5625
7.3,1567412851.578125
-8.46,1567412851.59375
-16.75,1567412851.609375
-17.05,1567412851.625
-11.07,1567412851.640625
-1.82,1567412851.65625
7.52,1567412851.671875
14.6,1567412851.6875
18.23,1567412851.703125
18.21,1567412851.71875
15.05,1567412851.734375
9.6,1567412851.75
2.95,1567412851.765625
-3.62,1567412851.78125
-8.78,1567412851.796875
-11.43,1567412851.8125
-11.05,1567412851.828125
-7.99,1567412851.84375
-3.52,1567412851.859375
0.48,1567412851.875
2.12,1567412851.890625
-0.05,1567412851.90625
-6.54,1567412851.921875
-16.86,1567412851.9375
-29.62,1567412851.953125
-42.82,1567412851.96875
-54.31,1567412851.984375
-62.11,1567412852.0
-64.95,1567412852.015625
-62.45,1567412852.03125
-55.37,1567412852.046875
-45.26,1567412852.0625
-34.12,1567412852.078125
-23.76,1567412852.09375
-15.39,1567412852.109375
-9.49,1567412852.125
-5.87,1567412852.140625
-4.05,1567412852.15625
-3.35,1567412852.171875
-3.08,1567412852.1875
-2.48,1567412852.203125
-0.74,1567412852.21875
2.83,1567412852.234375
8.62,1567412852.25
16.54,1567412852.265625
25.97,1567412852.28125
35.87,1567412852.296875
45.12,1567412852.3125
52.71,1567412852.328125
57.96,1567412852.34375
60.62,1567412852.359375
60.89,1567412852.375
59.38,1567412852.390625
57.0,1567412852.40625
54.84,1567412852.421875
53.78,1567412852.4375
54.27,1567412852.453125
56.11,1567412852.46875
58.49,1567412852.484375
60.33,1567412852.5
60.79,1567412852.515625
59.62,1567412852.53125
57.27,1567412852.546875
54.69,1567412852.5625
52.86,1567412852.578125
52.24,1567412852.59375
52.67,1567412852.609375
53.39,1567412852.625
53.43,1567412852.640625
51.94,1567412852.65625
48.41,1567412852.671875
42.57,1567412852.6875
34.41,1567412852.703125
24.22,1567412852.71875
12.76,1567412852.734375
1.39,1567412852.75
-8.16,1567412852.765625
-14.48,1567412852.78125
-17.33,1567412852.796875
-18.05,1567412852.8125
-19.34,1567412852.828125
-24.17,1567412852.84375
-34.32,1567412852.859375
-49.46,1567412852.875
-67.06,1567412852.890625
-83.42,1567412852.90625
-95.15,1567412852.921875
-100.43,1567412852.9375
-99.52,1567412852.953125
-94.32,1567412852.96875
-87.49,1567412852.984375
-81.42,1567412853.0
-77.63,1567412853.015625
-76.49,1567412853.03125
-77.3,1567412853.046875
-78.59,1567412853.0625
-78.34,1567412853.078125
-74.31,1567412853.09375
-64.49,1567412853.109375
-47.63,1567412853.125
-23.8,1567412853.140625
5.4,1567412853.15625
37.04,1567412853.171875
67.59,1567412853.1875
93.96,1567412853.203125
114.23,1567412853.21875
127.94,1567412853.234375
135.53,1567412853.25
137.61,1567412853.265625
134.2,1567412853.28125
124.64,1567412853.296875
108.01,1567412853.3125
83.8,1567412853.328125
52.54,1567412853.34375
15.83,1567412853.359375
-23.87,1567412853.375
-63.66,1567412853.390625
-100.57,1567412853.40625
-131.9,1567412853.421875
-155.52,1567412853.4375
-170.41,1567412853.453125
-176.87,1567412853.46875
-176.59,1567412853.484375
-172.05,1567412853.5
-165.63,1567412853.515625
-158.56,1567412853.53125
-150.53,1567412853.546875
-140.06,1567412853.5625
-125.5,1567412853.578125
-106.04,1567412853.59375
-82.35,1567412853.609375
-56.4,1567412853.625
-30.63,1567412853.640625
-7.06,1567412853.65625
13.29,1567412853.671875
30.34,1567412853.6875
44.43,1567412853.703125
55.76,1567412853.71875
64.15,1567412853.734375
69.25,1567412853.75
71.04,1567412853.765625
70.14,1567412853.78125
67.8,1567412853.796875
65.52,1567412853.8125
64.41,1567412853.828125
64.83,1567412853.84375
66.42,1567412853.859375
68.38,1567412853.875
69.96,1567412853.890625
70.74,1567412853.90625
70.65,1567412853.921875
69.83,1567412853.9375
68.35,1567412853.953125
66.16,1567412853.96875
63.15,1567412853.984375
59.26,1567412854.0
54.61,1567412854.015625
49.45,1567412854.03125
43.99,1567412854.046875
38.36,1567412854.0625
32.52,1567412854.078125
26.42,1567412854.09375
20.11,1567412854.109375
13.79,1567412854.125
7.73,1567412854.140625
2.11,1567412854.15625
-3.04,1567412854.171875
-7.92,1567412854.1875
-12.83,1567412854.203125
-18.1,1567412854.21875
-24.06,1567412854.234375
-31.05,1567412854.25
-39.27,1567412854.265625
-48.68,1567412854.28125
-58.59,1567412854.296875
-67.57,1567412854.3125
-73.6,1567412854.328125
-74.59,1567412854.34375
-69.26,1567412854.359375
-57.67,1567412854.375
-41.4,1567412854.390625
-23.03,1567412854.40625
-5.34,1567412854.421875
9.64,1567412854.4375
21.02,1567412854.453125
29.04,1567412854.46875
34.63,1567412854.484375
38.74,1567412854.5
41.99,1567412854.515625
44.54,1567412854.53125
46.29,1567412854.546875
47.21,1567412854.5625
47.49,1567412854.578125
47.54,1567412854.59375
47.86,1567412854.609375
48.79,1567412854.625
50.29,1567412854.640625
51.99,1567412854.65625
53.34,1567412854.671875
53.86,1567412854.6875
53.32,1567412854.703125
51.77,1567412854.71875
49.45,1567412854.734375
46.56,1567412854.75
43.22,1567412854.765625
39.45,1567412854.78125
35.27,1567412854.796875
30.8,1567412854.8125
26.21,1567412854.828125
21.66,1567412854.84375
17.15,1567412854.859375
12.53,1567412854.875
7.57,1567412854.890625
2.2,1567412854.90625
-3.36,1567412854.921875
-8.67,1567412854.9375
-13.2,1567412854.953125
-16.71,1567412854.96875
-19.37,1567412854.984375
-21.79,1567412855.0
-24.82,1567412855.015625
-29.29,1567412855.03125
-35.69,1567412855.046875
-43.95,1567412855.0625
-53.24,1567412855.078125
-61.92,1567412855.09375
-67.84,1567412855.109375
-68.87,1567412855.125
-63.63,1567412855.140625
-52.1,1567412855.15625
-35.82,1567412855.171875
-17.46,1567412855.1875
0.08,1567412855.203125
14.56,1567412855.21875
25.07,1567412855.234375
31.97,1567412855.25
36.43,1567412855.265625
39.65,1567412855.28125
42.37,1567412855.296875
44.67,1567412855.3125
46.23,1567412855.328125
46.79,1567412855.34375
46.42,1567412855.359375
45.59,1567412855.375
44.94,1567412855.390625
44.95,1567412855.40625
45.69,1567412855.421875
46.84,1567412855.4375
47.83,1567412855.453125
48.17,1567412855.46875
47.59,1567412855.484375
46.09,1567412855.5
43.78,1567412855.515625
40.79,1567412855.53125
37.16,1567412855.546875
32.9,1567412855.5625
28.1,1567412855.578125
22.93,1567412855.59375
17.6,1567412855.609375
12.22,1567412855.625
6.78,1567412855.640625
1.23,1567412855.65625
-4.41,1567412855.671875
-9.96,1567412855.6875
-15.12,1567412855.703125
-19.6,1567412855.71875
-23.3,1567412855.734375
-26.35,1567412855.75
-29.17,1567412855.765625
-32.28,1567412855.78125
-36.21,1567412855.796875
-41.42,1567412855.8125
-48.12,1567412855.828125
-56.19,1567412855.84375
-64.9,1567412855.859375
-72.8,1567412855.875
-77.9,1567412855.890625
-78.13,1567412855.90625
-72.14,1567412855.921875
-59.95,1567412855.9375
-43.14,1567412855.953125
-24.42,1567412855.96875
-6.7,1567412855.984375
7.76,1567412856.0
18.06,1567412856.015625
24.64,1567412856.03125
28.79,1567412856.046875
31.93,1567412856.0625
34.96,1567412856.078125
38.03,1567412856.09375
40.73,1567412856.109375
42.4,1567412856.125
42.63,1567412856.140625
41.42,1567412856.15625
39.24,1567412856.171875
36.79,1567412856.1875
34.74,1567412856.203125
33.51,1567412856.21875
33.18,1567412856.234375
33.47,1567412856.25
33.95,1567412856.265625
34.07,1567412856.28125
33.41,1567412856.296875
31.64,1567412856.3125
28.68,1567412856.328125
24.6,1567412856.34375
19.64,1567412856.359375
14.12,1567412856.375
8.32,1567412856.390625
2.46,1567412856.40625
-3.34,1567412856.421875
-9.01,1567412856.4375
-14.49,1567412856.453125
-19.7,1567412856.46875
-24.57,1567412856.484375
-29.02,1567412856.5
-33.06,1567412856.515625
-36.74,1567412856.53125
-40.2,1567412856.546875
-43.74,1567412856.5625
-47.72,1567412856.578125
-52.6,1567412856.59375
-58.78,1567412856.609375
-66.32,1567412856.625
-74.65,1567412856.640625
-82.41,1567412856.65625
-87.57,1567412856.671875
-87.93,1567412856.6875
-81.92,1567412856.703125
-69.25,1567412856.71875
-51.27,1567412856.734375
-30.6,1567412856.75
-10.34,1567412856.765625
6.94,1567412856.78125
19.94,1567412856.796875
28.7,1567412856.8125
34.28,1567412856.828125
38.01,1567412856.84375
40.88,1567412856.859375
43.27,1567412856.875
45.03,1567412856.890625
45.85,1567412856.90625
45.6,1567412856.921875
44.53,1567412856.9375
43.15,1567412856.953125
42.04,1567412856.96875
41.54,1567412856.984375
41.63,1567412857.0
41.95,1567412857.015625
42.04,1567412857.03125
41.54,1567412857.046875
40.29,1567412857.0625
38.29,1567412857.078125
35.6,1567412857.09375
32.2,1567412857.109375
28.02,1567412857.125
22.96,1567412857.140625
17.09,1567412857.15625
10.64,1567412857.171875
4.0,1567412857.1875
-2.48,1567412857.203125
-8.56,1567412857.21875
-14.19,1567412857.234375
-19.48,1567412857.25
-24.54,1567412857.265625
-29.4,1567412857.28125
-33.97,1567412857.296875
-38.16,1567412857.3125
-41.94,1567412857.328125
-45.5,1567412857.34375
-49.2,1567412857.359375
-53.57,1567412857.375
-59.02,1567412857.390625
-65.69,1567412857.40625
-73.13,1567412857.421875
-80.23,1567412857.4375
-85.24,1567412857.453125
-86.23,1567412857.46875
-81.69,1567412857.484375
-71.27,1567412857.5
-56.01,1567412857.515625
-38.28,1567412857.53125
-20.93,1567412857.546875
-6.41,1567412857.5625
4.02,1567412857.578125
10.5,1567412857.59375
14.13,1567412857.609375
16.23,1567412857.625
17.68,1567412857.640625
18.65,1567412857.65625
18.86,1567412857.671875
17.98,1567412857.6875
16.02,1567412857.703125
13.38,1567412857.71875
10.68,1567412857.734375
8.41,1567412857.75
6.71,1567412857.765625
5.42,1567412857.78125
4.16,1567412857.796875
2.59,1567412857.8125
0.48,1567412857.828125
-2.38,1567412857.84375
-6.16,1567412857.859375
-11.07,1567412857.875
-17.26,1567412857.890625
-24.7,1567412857.90625
-33.14,1567412857.921875
-42.18,1567412857.9375
-51.41,1567412857.953125
-60.62,1567412857.96875
-69.91,1567412857.984375
-79.53,1567412858.0
-89.78,1567412858.015625
-100.83,1567412858.03125
-112.56,1567412858.046875
-124.68,1567412858.0625
-136.82,1567412858.078125
-148.62,1567412858.09375
-159.88,1567412858.109375
-170.57,1567412858.125
-180.95,1567412858.140625
-191.55,1567412858.15625
-203.09,1567412858.171875
-216.17,1567412858.1875
-230.83,1567412858.203125
-246.12,1567412858.21875
-260.06,1567412858.234375
-270.02,1567412858.25
-273.48,1567412858.265625
-268.94,1567412858.28125
-256.44,1567412858.296875
-237.41,1567412858.3125
-214.06,1567412858.328125
-188.45,1567412858.34375
-161.77,1567412858.359375
-134.19,1567412858.375
-105.18,1567412858.390625
-74.11,1567412858.40625
-40.81,1567412858.421875
-5.82,1567412858.4375
29.81,1567412858.453125
64.83,1567412858.46875
98.11,1567412858.484375
128.83,1567412858.5
156.48,1567412858.515625
180.74,1567412858.53125
201.31,1567412858.546875
218.0,1567412858.5625
230.73,1567412858.578125
239.6,1567412858.59375
244.96,1567412858.609375
247.28,1567412858.625
247.03,1567412858.640625
244.53,1567412858.65625
239.85,1567412858.671875
232.84,1567412858.6875
223.22,1567412858.703125
210.65,1567412858.71875
194.91,1567412858.734375
176.06,1567412858.75
154.63,1567412858.765625
131.56,1567412858.78125
108.11,1567412858.796875
85.51,1567412858.8125
64.58,1567412858.828125
45.61,1567412858.84375
28.36,1567412858.859375
12.38,1567412858.875
-2.56,1567412858.890625
-16.27,1567412858.90625
-28.25,1567412858.921875
-37.72,1567412858.9375
-43.72,1567412858.953125
-45.26,1567412858.96875
-41.45,1567412858.984375
-31.95,1567412859.0
-17.22,1567412859.015625
1.27,1567412859.03125
21.21,1567412859.046875
40.12,1567412859.0625
56.02,1567412859.078125
68.01,1567412859.09375
76.37,1567412859.109375
82.13,1567412859.125
86.55,1567412859.140625
90.63,1567412859.15625
94.84,1567412859.171875
99.16,1567412859.1875
103.28,1567412859.203125
106.77,1567412859.21875
109.2,1567412859.234375
110.26,1567412859.25
109.92,1567412859.265625
108.42,1567412859.28125
106.31,1567412859.296875
104.27,1567412859.3125
102.9,1567412859.328125
102.69,1567412859.34375
103.82,1567412859.359375
106.17,1567412859.375
109.39,1567412859.390625
113.09,1567412859.40625
116.93,1567412859.421875
120.71,1567412859.4375
124.27,1567412859.453125
127.33,1567412859.46875
129.4,1567412859.484375
129.72,1567412859.5
127.65,1567412859.515625
122.98,1567412859.53125
116.21,1567412859.546875
108.43,1567412859.5625
100.93,1567412859.578125
94.58,1567412859.59375
89.33,1567412859.609375
84.14,1567412859.625
77.22,1567412859.640625
66.7,1567412859.65625
51.32,1567412859.671875
30.93,1567412859.6875
6.81,1567412859.703125
-18.49,1567412859.71875
-41.57,1567412859.734375
-58.94,1567412859.75
-67.96,1567412859.765625
-67.61,1567412859.78125
-58.92,1567412859.796875
-44.74,1567412859.8125
-28.96,1567412859.828125
-15.35,1567412859.84375
-6.47,1567412859.859375
-3.12,1567412859.875
-4.4,1567412859.890625
-8.32,1567412859.90625
-12.77,1567412859.921875
-16.19,1567412859.9375
-17.96,1567412859.953125
-18.23,1567412859.96875
-17.6,1567412859.984375
-16.62,1567412860.0
-15.58,1567412860.015625
-14.49,1567412860.03125
-13.16,1567412860.046875
-11.41,1567412860.0625
-9.14,1567412860.078125
-6.42,1567412860.09375
-3.49,1567412860.109375
-0.82,1567412860.125
0.77,1567412860.140625
0.11,1567412860.15625
-4.03,1567412860.171875
-12.51,1567412860.1875
-25.35,1567412860.203125
-41.42,1567412860.21875
-58.61,1567412860.234375
-74.4,1567412860.25
-86.57,1567412860.265625
-93.91,1567412860.28125
-96.4,1567412860.296875
-94.97,1567412860.3125
-91.06,1567412860.328125
-86.06,1567412860.34375
-81.07,1567412860.359375
-76.87,1567412860.375
-74.05,1567412860.390625
-73.07,1567412860.40625
-74.23,1567412860.421875
-77.51,1567412860.4375
-82.42,1567412860.453125
-87.95,1567412860.46875
-92.64,1567412860.484375
-94.89,1567412860.5
-93.29,1567412860.515625
-87.04,1567412860.53125
-76.18,1567412860.546875
-61.62,1567412860.5625
-44.91,1567412860.578125
-27.76,1567412860.59375
-11.55,1567412860.609375
2.94,1567412860.625
15.6,1567412860.640625
26.7,1567412860.65625
36.49,1567412860.671875
44.97,1567412860.6875
51.79,1567412860.703125
56.55,1567412860.71875
59.01,1567412860.734375
59.35,1567412860.75
58.2,1567412860.765625
56.43,1567412860.78125
54.88,1567412860.796875
54.11,1567412860.8125
54.27,1567412860.828125
55.14,1567412860.84375
56.27,1567412860.859375
57.16,1567412860.875
57.37,1567412860.890625
56.61,1567412860.90625
54.75,1567412860.921875
51.84,1567412860.9375
47.99,1567412860.953125
43.27,1567412860.96875
37.57,1567412860.984375
30.58,1567412861.0
21.87,1567412861.015625
11.11,1567412861.03125
-1.52,1567412861.046875
-15.28,1567412861.0625
-28.8,1567412861.078125
-40.55,1567412861.09375
-49.3,1567412861.109375
-54.52,1567412861.125
-56.56,1567412861.140625
-56.47,1567412861.15625
-55.64,1567412861.171875
-55.42,1567412861.1875
-56.79,1567412861.203125
-60.2,1567412861.21875
-65.47,1567412861.234375
-71.78,1567412861.25
-77.66,1567412861.265625
-81.28,1567412861.28125
-80.73,1567412861.296875
-74.71,1567412861.3125
-62.91,1567412861.328125
-46.3,1567412861.34375
-26.89,1567412861.359375
-7.15,1567412861.375
10.71,1567412861.390625
25.34,1567412861.40625
36.44,1567412861.421875
44.58,1567412861.4375
50.66,1567412861.453125
55.51,1567412861.46875
59.49,1567412861.484375
62.57,1567412861.5
64.51,1567412861.515625
65.15,1567412861.53125
64.66,1567412861.546875
63.54,1567412861.5625
62.43,1567412861.578125
61.87,1567412861.59375
62.0,1567412861.609375
62.58,1567412861.625
63.03,1567412861.640625
62.77,1567412861.65625
61.55,1567412861.671875
59.48,1567412861.6875
56.98,1567412861.703125
54.41,1567412861.71875
51.82,1567412861.734375
48.86,1567412861.75
44.93,1567412861.765625
39.49,1567412861.78125
32.25,1567412861.796875
23.33,1567412861.8125
13.06,1567412861.828125
1.97,1567412861.84375
-9.39,1567412861.859375
-20.43,1567412861.875
-30.68,1567412861.890625
-39.82,1567412861.90625
-47.92,1567412861.921875
-55.54,1567412861.9375
-63.64,1567412861.953125
-73.2,1567412861.96875
-84.77,1567412861.984375
-98.1,1567412862.0
-111.93,1567412862.015625
-124.3,1567412862.03125
-133.05,1567412862.046875
-136.46,1567412862.0625
-133.83,1567412862.078125
-125.65,1567412862.09375
-113.44,1567412862.109375
-99.28,1567412862.125
-85.15,1567412862.140625
-72.46,1567412862.15625
-61.89,1567412862.171875
-53.44,1567412862.1875
-46.79,1567412862.203125
-41.6,1567412862.21875
-37.71,1567412862.234375
-35.12,1567412862.25
-33.77,1567412862.265625
-33.37,1567412862.28125
-33.26,1567412862.296875
-32.59,1567412862.3125
-30.53,1567412862.328125
-26.75,1567412862.34375
-21.55,1567412862.359375
-15.83,1567412862.375
-10.8,1567412862.390625
-7.4,1567412862.40625
-5.95,1567412862.421875
-6.06,1567412862.4375
-6.93,1567412862.453125
-7.8,1567412862.46875
-8.38,1567412862.484375
-8.99,1567412862.5
-10.3,1567412862.515625
-13.0,1567412862.53125
-17.33,1567412862.546875
-22.99,1567412862.5625
-29.23,1567412862.578125
-35.09,1567412862.59375
-39.87,1567412862.609375
-43.32,1567412862.625
-45.83,1567412862.640625
-48.27,1567412862.65625
-51.68,1567412862.671875
-57.0,1567412862.6875
-64.68,1567412862.703125
-74.54,1567412862.71875
-85.74,1567412862.734375
-96.81,1567412862.75
-105.91,1567412862.765625
-111.24,1567412862.78125
-111.45,1567412862.796875
-106.11,1567412862.8125
-95.96,1567412862.828125
-82.74,1567412862.84375
-68.77,1567412862.859375
-56.13,1567412862.875
-46.08,1567412862.890625
-38.61,1567412862.90625
-32.7,1567412862.921875
-26.86,1567412862.9375
-19.84,1567412862.953125
-11.2,1567412862.96875
-1.36,1567412862.984375
8.69,1567412863.0
17.92,1567412863.015625
25.66,1567412863.03125
31.78,1567412863.046875
36.56,1567412863.0625
40.36,1567412863.078125
43.37,1567412863.09375
45.45,1567412863.109375
46.29,1567412863.125
45.6,1567412863.140625
43.36,1567412863.15625
39.92,1567412863.171875
35.86,1567412863.1875
31.72,1567412863.203125
27.81,1567412863.21875
24.03,1567412863.234375
20.07,1567412863.25
15.57,1567412863.265625
10.43,1567412863.28125
4.91,1567412863.296875
-0.44,1567412863.3125
-5.11,1567412863.328125
-8.87,1567412863.34375
-11.88,1567412863.359375
-14.72,1567412863.375
-18.12,1567412863.390625
-22.74,1567412863.40625
-28.97,1567412863.421875
-36.8,1567412863.4375
-45.69,1567412863.453125
-54.49,1567412863.46875
-61.64,1567412863.484375
-65.37,1567412863.5
-64.28,1567412863.515625
-57.86,1567412863.53125
-46.69,1567412863.546875
-32.35,1567412863.5625
-16.94,1567412863.578125
-2.4,1567412863.59375
9.9,1567412863.609375
19.34,1567412863.625
25.95,1567412863.640625
30.02,1567412863.65625
31.88,1567412863.671875
31.81,1567412863.6875
30.05,1567412863.703125
26.89,1567412863.71875
22.76,1567412863.734375
18.26,1567412863.75
14.09,1567412863.765625
10.94,1567412863.78125
9.26,1567412863.796875
9.18,1567412863.8125
10.39,1567412863.828125
12.21,1567412863.84375
13.88,1567412863.859375
14.83,1567412863.875
14.94,1567412863.890625
14.56,1567412863.90625
14.46,1567412863.921875
15.45,1567412863.9375
18.07,1567412863.953125
22.37,1567412863.96875
27.92,1567412863.984375
34.0,1567412864.0
40.02,1567412864.015625
45.66,1567412864.03125
50.96,1567412864.046875
56.02,1567412864.0625
60.63,1567412864.078125
64.05,1567412864.09375
65.12,1567412864.109375
62.62,1567412864.125
55.83,1567412864.140625
44.85,1567412864.15625
30.76,1567412864.171875
15.39,1567412864.1875
1.03,1567412864.203125
-9.95,1567412864.21875
-15.57,1567412864.234375
-14.59,1567412864.25
-6.86,1567412864.265625
6.48,1567412864.28125
23.27,1567412864.296875
40.84,1567412864.3125
56.73,1567412864.328125
69.37,1567412864.34375
78.24,1567412864.359375
83.74,1567412864.375
86.66,1567412864.390625
87.66,1567412864.40625
87.09,1567412864.421875
85.07,1567412864.4375
81.75,1567412864.453125
77.6,1567412864.46875
73.37,1567412864.484375
69.89,1567412864.5
67.68,1567412864.515625
66.72,1567412864.53125
66.42,1567412864.546875
65.85,1567412864.5625
64.25,1567412864.578125
61.33,1567412864.59375
57.42,1567412864.609375
53.29,1567412864.625
49.66,1567412864.640625
46.84,1567412864.65625
44.57,1567412864.671875
42.09,1567412864.6875
38.56,1567412864.703125
33.56,1567412864.71875
27.26,1567412864.734375
20.37,1567412864.75
13.82,1567412864.765625
8.28,1567412864.78125
3.92,1567412864.796875
0.42,1567412864.8125
-2.88,1567412864.828125
-6.62,1567412864.84375
-11.31,1567412864.859375
-17.22,1567412864.875
-24.33,1567412864.890625
-32.29,1567412864.90625
-40.22,1567412864.921875
-46.78,1567412864.9375
-50.34,1567412864.953125
-49.49,1567412864.96875
-43.56,1567412864.984375
-33.0,1567412865.0
-19.33,1567412865.015625
-4.63,1567412865.03125
9.07,1567412865.046875
20.37,1567412865.0625
28.75,1567412865.078125
34.41,1567412865.09375
37.88,1567412865.109375
39.67,1567412865.125
40.06,1567412865.140625
39.25,1567412865.15625
37.54,1567412865.171875
35.46,1567412865.1875
33.75,1567412865.203125
33.11,1567412865.21875
33.87,1567412865.234375
35.77,1567412865.25
38.06,1567412865.265625
39.83,1567412865.28125
40.41,1567412865.296875
39.71,1567412865.3125
38.16,1567412865.328125
36.41,1567412865.34375
34.93,1567412865.359375
33.7,1567412865.375
32.12,1567412865.390625
29.29,1567412865.40625
24.48,1567412865.421875
17.49,1567412865.4375
8.92,1567412865.453125
-0.08,1567412865.46875
-8.2,1567412865.484375
-14.55,1567412865.5
-18.99,1567412865.515625
-22.15,1567412865.53125
-25.18,1567412865.546875
-29.2,1567412865.5625
-34.97,1567412865.578125
-42.62,1567412865.59375
-51.61,1567412865.609375
-60.73,1567412865.625
-68.39,1567412865.640625
-72.77,1567412865.65625
-72.35,1567412865.671875
-66.41,1567412865.6875
-55.35,1567412865.703125
-40.8,1567412865.71875
-25.07,1567412865.734375
-10.54,1567412865.75
1.16,1567412865.765625
9.45,1567412865.78125
14.72,1567412865.796875
17.89,1567412865.8125
19.79,1567412865.828125
20.92,1567412865.84375
21.35,1567412865.859375
20.94,1567412865.875
19.71,1567412865.890625
17.91,1567412865.90625
16.07,1567412865.921875
14.7,1567412865.9375
14.13,1567412865.953125
14.23,1567412865.96875
14.53,1567412865.984375
14.38,1567412866.0
13.33,1567412866.015625
11.26,1567412866.03125
8.45,1567412866.046875
5.34,1567412866.0625
2.24,1567412866.078125
-0.84,1567412866.09375
-4.22,1567412866.109375
-8.31,1567412866.125
-13.46,1567412866.140625
-19.73,1567412866.15625
-26.78,1567412866.171875
-33.98,1567412866.1875
-40.59,1567412866.203125
-46.03,1567412866.21875
-50.08,1567412866.234375
-53.1,1567412866.25
-55.93,1567412866.265625
-59.64,1567412866.28125
-65.14,1567412866.296875
-72.88,1567412866.3125
-82.64,1567412866.328125
-93.46,1567412866.34375
-103.84,1567412866.359375
-111.95,1567412866.375
-116.07,1567412866.390625
-114.95,1567412866.40625
-108.32,1567412866.421875
-97.02,1567412866.4375
-82.96,1567412866.453125
-68.56,1567412866.46875
-56.07,1567412866.484375
-46.86,1567412866.5
-41.16,1567412866.515625
-38.3,1567412866.53125
-37.29,1567412866.546875
-37.41,1567412866.5625
-38.62,1567412866.578125
-41.31,1567412866.59375
-45.95,1567412866.609375
-52.62,1567412866.625
-60.82,1567412866.640625
-69.65,1567412866.65625
-78.23,1567412866.671875
-86.13,1567412866.6875
-93.59,1567412866.703125
-101.38,1567412866.71875
-110.41,1567412866.734375
-121.31,1567412866.75
-134.15,1567412866.765625
-148.47,1567412866.78125
-163.45,1567412866.796875
-178.31,1567412866.8125
-192.46,1567412866.828125
-205.58,1567412866.84375
-217.47,1567412866.859375
-227.94,1567412866.875
-236.71,1567412866.890625
-243.35,1567412866.90625
-247.3,1567412866.921875
-247.78,1567412866.9375
-243.82,1567412866.953125
-234.38,1567412866.96875
-218.56,1567412866.984375
-196.03,1567412867.0
-167.27,1567412867.015625
-133.55,1567412867.03125
-96.62,1567412867.046875
-58.23,1567412867.0625
-19.58,1567412867.078125
18.86,1567412867.09375
57.22,1567412867.109375
95.76,1567412867.125
134.39,1567412867.140625
172.31,1567412867.15625
207.99,1567412867.171875
239.46,1567412867.1875
264.91,1567412867.203125
283.08,1567412867.21875
293.77,1567412867.234375
297.75,1567412867.25
296.56,1567412867.265625
291.98,1567412867.28125
285.47,1567412867.296875
277.9,1567412867.3125
269.48,1567412867.328125
260.1,1567412867.34375
249.64,1567412867.359375
238.33,1567412867.375
226.67,1567412867.390625
215.22,1567412867.40625
204.3,1567412867.421875
193.81,1567412867.4375
183.4,1567412867.453125
172.76,1567412867.46875
161.96,1567412867.484375
151.44,1567412867.5
141.84,1567412867.515625
133.59,1567412867.53125
126.62,1567412867.546875
120.29,1567412867.5625
113.78,1567412867.578125
106.51,1567412867.59375
98.57,1567412867.609375
90.68,1567412867.625
83.95,1567412867.640625
79.36,1567412867.65625
77.39,1567412867.671875
77.84,1567412867.6875
79.95,1567412867.703125
82.74,1567412867.71875
85.25,1567412867.734375
86.78,1567412867.75
86.97,1567412867.765625
85.71,1567412867.78125
83.06,1567412867.796875
79.23,1567412867.8125
74.58,1567412867.828125
69.74,1567412867.84375
65.66,1567412867.859375
63.51,1567412867.875
64.34,1567412867.890625
68.76,1567412867.90625
76.55,1567412867.921875
86.66,1567412867.9375
97.48,1567412867.953125
107.3,1567412867.96875
114.75,1567412867.984375
119.07,1567412868.0
119.96,1567412868.015625
117.32,1567412868.03125
111.05,1567412868.046875
101.06,1567412868.0625
87.49,1567412868.078125
70.95,1567412868.09375
52.67,1567412868.109375
34.21,1567412868.125
17.08,1567412868.140625
2.37,1567412868.15625
-9.59,1567412868.171875
-19.13,1567412868.1875
-27.04,1567412868.203125
-34.29,1567412868.21875
-41.69,1567412868.234375
-49.78,1567412868.25
-58.67,1567412868.265625
-68.18,1567412868.28125
-77.75,1567412868.296875
-86.64,1567412868.3125
-94.06,1567412868.328125
-99.34,1567412868.34375
-102.16,1567412868.359375
-102.53,1567412868.375
-100.89,1567412868.390625
-97.79,1567412868.40625
-93.77,1567412868.421875
-89.17,1567412868.4375
-84.17,1567412868.453125
-78.87,1567412868.46875
-73.51,1567412868.484375
-68.56,1567412868.5
-64.69,1567412868.515625
-62.63,1567412868.53125
-62.88,1567412868.546875
-65.48,1567412868.5625
-69.77,1567412868.578125
-74.43,1567412868.59375
-77.62,1567412868.609375
-77.49,1567412868.625
-72.77,1567412868.640625
-63.2,1567412868.65625
-49.76,1567412868.671875
-34.32,1567412868.6875
-19.02,1567412868.703125
-5.63,1567412868.71875
4.89,1567412868.734375
12.46,1567412868.75
17.46,1567412868.765625
20.38,1567412868.78125
21.5,1567412868.796875
20.85,1567412868.8125
18.35,1567412868.828125
13.99,1567412868.84375
7.95,1567412868.859375
0.66,1567412868.875
-7.25,1567412868.890625
-15.04,1567412868.90625
-21.93,1567412868.921875
-27.23,1567412868.9375
-30.59,1567412868.953125
-31.96,1567412868.96875
-31.74,1567412868.984375
-30.53,1567412869.0
-28.99,1567412869.015625
-27.66,1567412869.03125
-26.84,1567412869.046875
-26.67,1567412869.0625
-27.24,1567412869.078125
-28.65,1567412869.09375
-31.0,1567412869.109375
-34.34,1567412869.125
-38.56,1567412869.140625
-43.32,1567412869.15625
-48.22,1567412869.171875
-52.87,1567412869.1875
-57.08,1567412869.203125
-60.94,1567412869.21875
-64.8,1567412869.234375
-69.13,1567412869.25
-74.42,1567412869.265625
-80.99,1567412869.28125
-88.85,1567412869.296875
-97.56,1567412869.3125
-106.12,1567412869.328125
-113.06,1567412869.34375
-116.66,1567412869.359375
-115.43,1567412869.375
-108.65,1567412869.390625
-96.67,1567412869.40625
-80.89,1567412869.421875
-63.34,1567412869.4375
-46.09,1567412869.453125
-30.65,1567412869.46875
-17.71,1567412869.484375
-7.25,1567412869.5
1.25,1567412869.515625
8.37,1567412869.53125
14.64,1567412869.546875
20.45,1567412869.5625
26.1,1567412869.578125
31.9,1567412869.59375
38.12,1567412869.609375
44.97,1567412869.625
52.59,1567412869.640625
60.95,1567412869.65625
69.86,1567412869.671875
78.93,1567412869.6875
87.63,1567412869.703125
95.39,1567412869.71875
101.71,1567412869.734375
106.31,1567412869.75
109.29,1567412869.765625
110.9,1567412869.78125
111.51,1567412869.796875
111.24,1567412869.8125
109.83,1567412869.828125
106.72,1567412869.84375
101.23,1567412869.859375
92.98,1567412869.875
82.05,1567412869.890625
69.12,1567412869.90625
55.21,1567412869.921875
41.39,1567412869.9375
28.3,1567412869.953125
15.97,1567412869.96875
3.68,1567412869.984375
-9.86,1567412870.0
-26.15,1567412870.015625
-46.45,1567412870.03125
-71.35,1567412870.046875
-100.37,1567412870.0625
-131.81,1567412870.078125
-162.8,1567412870.09375
-189.75,1567412870.109375
-209.03,1567412870.125
-217.83,1567412870.140625
-215.0,1567412870.15625
-201.39,1567412870.171875
-179.66,1567412870.1875
-153.55,1567412870.203125
-126.82,1567412870.21875
-102.36,1567412870.234375
-81.63,1567412870.25
-64.82,1567412870.265625
-51.23,1567412870.28125
-39.89,1567412870.296875
-29.96,1567412870.3125
-20.95,1567412870.328125
-12.67,1567412870.34375
-5.08,1567412870.359375
1.82,1567412870.375
8.06,1567412870.390625
13.71,1567412870.40625
18.91,1567412870.421875
23.75,1567412870.4375
28.35,1567412870.453125
32.77,1567412870.46875
37.07,1567412870.484375
41.33,1567412870.5
45.65,1567412870.515625
50.2,1567412870.53125
55.16,1567412870.546875
60.68,1567412870.5625
66.83,1567412870.578125
73.6,1567412870.59375
80.79,1567412870.609375
87.96,1567412870.625
94.47,1567412870.640625
99.45,1567412870.65625
101.97,1567412870.671875
101.24,1567412870.6875
96.87,1567412870.703125
88.91,1567412870.71875
77.96,1567412870.734375
64.98,1567412870.75
51.04,1567412870.765625
37.05,1567412870.78125
23.54,1567412870.796875
10.58,1567412870.8125
-2.05,1567412870.828125
-14.5,1567412870.84375
-26.46,1567412870.859375
-36.95,1567412870.875
-44.51,1567412870.890625
-47.64,1567412870.90625
-45.56,1567412870.921875
-38.55,1567412870.9375
-28.0,1567412870.953125
-15.95,1567412870.96875
-4.37,1567412870.984375
5.33,1567412871.0
12.63,1567412871.015625
17.71,1567412871.03125
21.11,1567412871.046875
23.38,1567412871.0625
24.9,1567412871.078125
25.86,1567412871.09375
26.35,1567412871.109375
26.41,1567412871.125
26.15,1567412871.140625
25.75,1567412871.15625
25.37,1567412871.171875
25.12,1567412871.1875
24.97,1567412871.203125
24.68,1567412871.21875
23.88,1567412871.234375
22.33,1567412871.25
20.02,1567412871.265625
17.27,1567412871.28125
14.68,1567412871.296875
12.78,1567412871.3125
11.79,1567412871.328125
11.5,1567412871.34375
11.36,1567412871.359375
10.68,1567412871.375
9.03,1567412871.390625
6.38,1567412871.40625
3.11,1567412871.421875
-0.16,1567412871.4375
-2.88,1567412871.453125
-4.83,1567412871.46875
-6.27,1567412871.484375
-7.82,1567412871.5
-10.28,1567412871.515625
-14.42,1567412871.53125
-20.69,1567412871.546875
-29.11,1567412871.5625
-39.25,1567412871.578125
-50.14,1567412871.59375
-60.47,1567412871.609375
-68.62,1567412871.625
-73.07,1567412871.640625
-72.68,1567412871.65625
-67.12,1567412871.671875
-57.03,1567412871.6875
-44.0,1567412871.703125
-30.13,1567412871.71875
-17.52,1567412871.734375
-7.71,1567412871.75
-1.39,1567412871.765625
1.64,1567412871.78125
2.26,1567412871.796875
1.53,1567412871.8125
0.4,1567412871.828125
-0.58,1567412871.84375
-1.26,1567412871.859375
-1.74,1567412871.875
-2.21,1567412871.890625
-2.74,1567412871.90625
-3.32,1567412871.921875
-3.93,1567412871.9375
-4.73,1567412871.953125
-6.16,1567412871.96875
-8.75,1567412871.984375
-12.91,1567412872.0
-18.66,1567412872.015625
-25.54,1567412872.03125
-32.85,1567412872.046875
-39.99,1567412872.0625
-46.8,1567412872.078125
-53.72,1567412872.09375
-61.46,1567412872.109375
-70.64,1567412872.125
-81.39,1567412872.140625
-93.23,1567412872.15625
-105.32,1567412872.171875
-116.85,1567412872.1875
-127.39,1567412872.203125
-137.0,1567412872.21875
-146.16,1567412872.234375
-155.59,1567412872.25
-166.12,1567412872.265625
-178.61,1567412872.28125
-193.8,1567412872.296875
-212.0,1567412872.3125
-232.68,1567412872.328125
-254.22,1567412872.34375
-273.99,1567412872.359375
-288.86,1567412872.375
-295.98,1567412872.390625
-293.4,1567412872.40625
-280.37,1567412872.421875
-257.32,1567412872.4375
-225.63,1567412872.453125
-187.32,1567412872.46875
-144.64,1567412872.484375
-99.82,1567412872.5
-54.82,1567412872.515625
-11.36,1567412872.53125
29.1,1567412872.546875
65.27,1567412872.5625
96.15,1567412872.578125
121.29,1567412872.59375
140.96,1567412872.609375
156.17,1567412872.625
168.31,1567412872.640625
178.59,1567412872.65625
187.46,1567412872.671875
194.62,1567412872.6875
199.23,1567412872.703125
200.53,1567412872.71875
198.08,1567412872.734375
191.85,1567412872.75
182.19,1567412872.765625
169.78,1567412872.78125
155.86,1567412872.796875
142.13,1567412872.8125
130.42,1567412872.828125
121.91,1567412872.84375
116.56,1567412872.859375
113.08,1567412872.875
109.51,1567412872.890625
104.3,1567412872.90625
96.93,1567412872.921875
87.97,1567412872.9375
78.39,1567412872.953125
68.8,1567412872.96875
58.9,1567412872.984375
47.78,1567412873.0
34.65,1567412873.015625
19.49,1567412873.03125
3.49,1567412873.046875
-11.25,1567412873.0625
-22.35,1567412873.078125
-27.87,1567412873.09375
-26.85,1567412873.109375
-19.68,1567412873.125
-7.87,1567412873.140625
6.34,1567412873.15625
20.63,1567412873.171875
33.17,1567412873.1875
43.01,1567412873.203125
50.03,1567412873.21875
54.62,1567412873.234375
57.25,1567412873.25
58.14,1567412873.265625
57.28,1567412873.28125
54.67,1567412873.296875
50.65,1567412873.3125
46.01,1567412873.328125
41.85,1567412873.34375
39.22,1567412873.359375
38.67,1567412873.375
39.97,1567412873.390625
42.3,1567412873.40625
44.55,1567412873.421875
45.85,1567412873.4375
45.85,1567412873.453125
44.76,1567412873.46875
43.15,1567412873.484375
41.58,1567412873.5
40.34,1567412873.515625
39.37,1567412873.53125
38.32,1567412873.546875
36.76,1567412873.5625
34.38,1567412873.578125
31.14,1567412873.59375
27.29,1567412873.609375
23.23,1567412873.625
19.34,1567412873.640625
15.72,1567412873.65625
11.97,1567412873.671875
7.4,1567412873.6875
1.23,1567412873.703125
-7.01,1567412873.71875
-17.25,1567412873.734375
-28.93,1567412873.75
-41.13,1567412873.765625
-52.8,1567412873.78125
-62.88,1567412873.796875
-70.32,1567412873.8125
-74.11,1567412873.828125
-73.49,1567412873.84375
-68.23,1567412873.859375
-58.89,1567412873.875
-46.85,1567412873.890625
-33.94,1567412873.90625
-21.92,1567412873.921875
-11.89,1567412873.9375
-4.11,1567412873.953125
1.83,1567412873.96875
6.6,1567412873.984375
10.7,1567412874.0
14.3,1567412874.015625
17.24,1567412874.03125
19.3,1567412874.046875
20.43,1567412874.0625
20.86,1567412874.078125
21.06,1567412874.09375
21.59,1567412874.109375
22.82,1567412874.125
24.78,1567412874.140625
27.12,1567412874.15625
29.27,1567412874.171875
30.7,1567412874.1875
31.13,1567412874.203125
30.6,1567412874.21875
29.36,1567412874.234375
27.67,1567412874.25
25.63,1567412874.265625
23.13,1567412874.28125
19.96,1567412874.296875
16.01,1567412874.3125
11.36,1567412874.328125
6.34,1567412874.34375
1.37,1567412874.359375
-3.2,1567412874.375
-7.19,1567412874.390625
-10.68,1567412874.40625
-13.95,1567412874.421875
-17.45,1567412874.4375
-21.64,1567412874.453125
-26.86,1567412874.46875
-33.27,1567412874.484375
-40.74,1567412874.5
-48.82,1567412874.515625
-56.67,1567412874.53125
-63.11,1567412874.546875
-66.81,1567412874.5625
-66.58,1567412874.578125
-61.73,1567412874.59375
-52.4,1567412874.609375
-39.6,1567412874.625
-25.02,1567412874.640625
-10.56,1567412874.65625
2.19,1567412874.671875
12.38,1567412874.6875
19.92,1567412874.703125
25.35,1567412874.71875
29.4,1567412874.734375
32.61,1567412874.75
35.14,1567412874.765625
36.86,1567412874.78125
37.57,1567412874.796875
37.29,1567412874.8125
36.34,1567412874.828125
35.31,1567412874.84375
34.76,1567412874.859375
34.98,1567412874.875
35.83,1567412874.890625
36.87,1567412874.90625
37.55,1567412874.921875
37.5,1567412874.9375
36.68,1567412874.953125
35.3,1567412874.96875
33.67,1567412874.984375
31.89,1567412875.0
29.82,1567412875.015625
27.1,1567412875.03125
23.3,1567412875.046875
18.2,1567412875.0625
11.88,1567412875.078125
4.75,1567412875.09375
-2.52,1567412875.109375
-9.23,1567412875.125
-14.85,1567412875.140625
-19.18,1567412875.15625
-22.44,1567412875.171875
-25.2,1567412875.1875
-28.25,1567412875.203125
-32.4,1567412875.21875
-38.16,1567412875.234375
-45.62,1567412875.25
-54.18,1567412875.265625
-62.68,1567412875.28125
-69.44,1567412875.296875
-72.76,1567412875.3125
-71.3,1567412875.328125
-64.58,1567412875.34375
-53.18,1567412875.359375
-38.65,1567412875.375
-23.08,1567412875.390625
-8.48,1567412875.40625
3.75,1567412875.421875
13.13,1567412875.4375
19.91,1567412875.453125
24.75,1567412875.46875
28.25,1567412875.484375
30.67,1567412875.5
31.97,1567412875.515625
32.05,1567412875.53125
31.06,1567412875.546875
29.51,1567412875.5625
28.14,1567412875.578125
27.63,1567412875.59375
28.22,1567412875.609375
29.61,1567412875.625
31.08,1567412875.640625
31.81,1567412875.65625
31.33,1567412875.671875
29.68,1567412875.6875
27.33,1567412875.703125
24.85,1567412875.71875
22.49,1567412875.734375
20.05,1567412875.75
16.91,1567412875.765625
12.41,1567412875.78125
6.28,1567412875.796875
-1.14,1567412875.8125
-8.94,1567412875.828125
-15.95,1567412875.84375
-21.18,1567412875.859375
-24.15,1567412875.875
-25.05,1567412875.890625
-24.56,1567412875.90625
-23.56,1567412875.921875
-22.94,1567412875.9375
-23.38,1567412875.953125
-25.32,1567412875.96875
-28.81,1567412875.984375
-33.37,1567412876.0
-37.84,1567412876.015625
-40.48,1567412876.03125
-39.51,1567412876.046875
-33.88,1567412876.0625
-23.96,1567412876.078125
-11.57,1567412876.09375
0.69,1567412876.109375
10.58,1567412876.125
17.19,1567412876.140625
21.28,1567412876.15625
24.66,1567412876.171875
29.27,1567412876.1875
36.25,1567412876.203125
45.68,1567412876.21875
56.87,1567412876.234375
68.96,1567412876.25
81.37,1567412876.265625
93.84,1567412876.28125
106.29,1567412876.296875
118.54,1567412876.3125
130.23,1567412876.328125
140.9,1567412876.34375
150.09,1567412876.359375
157.32,1567412876.375
162.14,1567412876.390625
164.11,1567412876.40625
162.99,1567412876.421875
158.87,1567412876.4375
152.21,1567412876.453125
143.7,1567412876.46875
134.01,1567412876.484375
123.53,1567412876.5
112.33,1567412876.515625
100.33,1567412876.53125
87.51,1567412876.546875
74.08,1567412876.5625
60.44,1567412876.578125
46.99,1567412876.59375
33.95,1567412876.609375
21.35,1567412876.625
9.21,1567412876.640625
-2.39,1567412876.65625
-13.28,1567412876.671875
-23.42,1567412876.6875
-33.0,1567412876.703125
-42.42,1567412876.71875
-51.9,1567412876.734375
-61.05,1567412876.75
-68.65,1567412876.765625
-72.95,1567412876.78125
-72.38,1567412876.796875
-66.3,1567412876.8125
-55.47,1567412876.828125
-41.78,1567412876.84375
-27.62,1567412876.859375
-14.98,1567412876.875
-4.94,1567412876.890625
2.38,1567412876.90625
7.5,1567412876.921875
11.09,1567412876.9375
13.66,1567412876.953125
15.45,1567412876.96875
16.51,1567412876.984375
16.87,1567412877.0
16.71,1567412877.015625
16.33,1567412877.03125
16.13,1567412877.046875
16.4,1567412877.0625
17.26,1567412877.078125
18.51,1567412877.09375
19.65,1567412877.109375
20.11,1567412877.125
19.43,1567412877.140625
17.46,1567412877.15625
14.44,1567412877.171875
10.9,1567412877.1875
7.34,1567412877.203125
4.03,1567412877.21875
0.86,1567412877.234375
-2.59,1567412877.25
-6.81,1567412877.265625
-12.09,1567412877.28125
-18.32,1567412877.296875
-25.02,1567412877.3125
-31.56,1567412877.328125
-37.42,1567412877.34375
-42.38,1567412877.359375
-46.58,1567412877.375
-50.47,1567412877.390625
-54.58,1567412877.40625
-59.36,1567412877.421875
-65.11,1567412877.4375
-71.96,1567412877.453125
-79.77,1567412877.46875
-88.0,1567412877.484375
-95.59,1567412877.5
-100.96,1567412877.515625
-102.34,1567412877.53125
-98.33,1567412877.546875
-88.54,1567412877.5625
-73.86,1567412877.578125
-56.34,1567412877.59375
-38.52,1567412877.609375
-22.66,1567412877.625
-10.08,1567412877.640625
-0.99,1567412877.65625
5.21,1567412877.671875
9.39,1567412877.6875
12.2,1567412877.703125
13.94,1567412877.71875
14.61,1567412877.734375
14.25,1567412877.75
13.13,1567412877.765625
11.79,1567412877.78125
10.9,1567412877.796875
11.01,1567412877.8125
12.31,1567412877.828125
14.57,1567412877.84375
17.18,1567412877.859375
19.39,1567412877.875
20.52,1567412877.890625
20.16,1567412877.90625
18.3,1567412877.921875
15.22,1567412877.9375
11.35,1567412877.953125
7.06,1567412877.96875
2.54,1567412877.984375
-2.25,1567412878.0
-7.44,1567412878.015625
-13.14,1567412878.03125
-19.24,1567412878.046875
-25.43,1567412878.0625
-31.29,1567412878.078125
-36.42,1567412878.09375
-40.61,1567412878.109375
-43.9,1567412878.125
-46.51,1567412878.140625
-48.83,1567412878.15625
-51.32,1567412878.171875
-54.46,1567412878.1875
-58.65,1567412878.203125
-64.05,1567412878.21875
-70.37,1567412878.234375
-76.7,1567412878.25
-81.52,1567412878.265625
-83.0,1567412878.28125
-79.57,1567412878.296875
-70.52,1567412878.3125
-56.4,1567412878.328125
-38.98,1567412878.34375
-20.77,1567412878.359375
-4.23,1567412878.375
9.02,1567412878.390625
18.43,1567412878.40625
24.5,1567412878.421875
28.17,1567412878.4375
30.3,1567412878.453125
31.33,1567412878.46875
31.3,1567412878.484375
30.14,1567412878.5
28.0,1567412878.515625
25.34,1567412878.53125
22.8,1567412878.546875
20.93,1567412878.5625
19.96,1567412878.578125
19.73,1567412878.59375
19.81,1567412878.609375
19.64,1567412878.625
18.76,1567412878.640625
16.85,1567412878.65625
13.84,1567412878.671875
9.83,1567412878.6875
5.1,1567412878.703125
-0.02,1567412878.71875
-5.26,1567412878.734375
-10.55,1567412878.75
-16.04,1567412878.765625
-22.0,1567412878.78125
-28.6,1567412878.796875
-35.76,1567412878.8125
-43.09,1567412878.828125
-49.98,1567412878.84375
-55.92,1567412878.859375
-60.64,1567412878.875
-64.31,1567412878.890625
-67.46,1567412878.90625
-70.8,1567412878.921875
-75.0,1567412878.9375
-80.55,1567412878.953125
-87.6,1567412878.96875
-95.9,1567412878.984375
-104.68,1567412879.0
-112.6,1567412879.015625
-117.86,1567412879.03125
-118.56,1567412879.046875
-113.34,1567412879.0625
-102.0,1567412879.078125
-85.8,1567412879.09375
-67.24,1567412879.109375
-49.29,1567412879.125
-34.4,1567412879.140625
-23.72,1567412879.15625
-17.03,1567412879.171875
-13.15,1567412879.1875
-10.77,1567412879.203125
-8.99,1567412879.21875
-7.63,1567412879.234375
-6.91,1567412879.25
-7.0,1567412879.265625
-7.69,1567412879.28125
-8.4,1567412879.296875
-8.44,1567412879.3125
-7.44,1567412879.328125
-5.54,1567412879.34375
-3.35,1567412879.359375
-1.72,1567412879.375
-1.32,1567412879.390625
-2.35,1567412879.40625
-4.52,1567412879.421875
-7.12,1567412879.4375
-9.34,1567412879.453125
-10.51,1567412879.46875
-10.34,1567412879.484375
-9.0,1567412879.5
-7.22,1567412879.515625
-6.25,1567412879.53125
-7.65,1567412879.546875
-12.92,1567412879.5625
-22.83,1567412879.578125
-36.91,1567412879.59375
-53.27,1567412879.609375
-69.04,1567412879.625
-81.27,1567412879.640625
-87.91,1567412879.65625
-88.4,1567412879.671875
-83.65,1567412879.6875
-75.47,1567412879.703125
-65.78,1567412879.71875
-56.01,1567412879.734375
-46.93,1567412879.75
-38.66,1567412879.765625
-30.89,1567412879.78125
-23.1,1567412879.796875
-14.57,1567412879.8125
-4.64,1567412879.828125
7.15,1567412879.84375
20.79,1567412879.859375
35.79,1567412879.875
51.29,1567412879.890625
66.35,1567412879.90625
80.18,1567412879.921875
92.23,1567412879.9375
102.03,1567412879.953125
109.1,1567412879.96875
112.9,1567412879.984375
113.01,1567412880.0
109.42,1567412880.015625
102.75,1567412880.03125
94.13,1567412880.046875
84.91,1567412880.0625
76.2,1567412880.078125
68.55,1567412880.09375
61.89,1567412880.109375
55.74,1567412880.125
49.56,1567412880.140625
42.94,1567412880.15625
35.82,1567412880.171875
28.37,1567412880.1875
20.89,1567412880.203125
13.62,1567412880.21875
6.7,1567412880.234375
0.1,1567412880.25
-6.44,1567412880.265625
-13.26,1567412880.28125
-20.7,1567412880.296875
-28.87,1567412880.3125
-37.52,1567412880.328125
-46.12,1567412880.34375
-54.0,1567412880.359375
-60.71,1567412880.375
-66.18,1567412880.390625
-70.85,1567412880.40625
-75.43,1567412880.421875
-80.64,1567412880.4375
-86.95,1567412880.453125
-94.41,1567412880.46875
-102.58,1567412880.484375
-110.56,1567412880.5
-117.02,1567412880.515625
-120.32,1567412880.53125
-118.81,1567412880.546875
-111.24,1567412880.5625
-97.33,1567412880.578125
-78.03,1567412880.59375
-55.47,1567412880.609375
-32.35,1567412880.625
-11.04,1567412880.640625
7.21,1567412880.65625
22.54,1567412880.671875
35.99,1567412880.6875
48.7,1567412880.703125
61.13,1567412880.71875
72.69,1567412880.734375
82.15,1567412880.75
88.38,1567412880.765625
90.93,1567412880.78125
90.31,1567412880.796875
87.59,1567412880.8125
83.91,1567412880.828125
79.94,1567412880.84375
75.8,1567412880.859375
71.3,1567412880.875
66.27,1567412880.890625
60.83,1567412880.90625
55.43,1567412880.921875
50.73,1567412880.9375
47.27,1567412880.953125
45.33,1567412880.96875
44.72,1567412880.984375
44.79,1567412881.0
44.65,1567412881.015625
43.38,1567412881.03125
40.44,1567412881.046875
35.82,1567412881.0625
30.01,1567412881.078125
23.86,1567412881.09375
18.13,1567412881.109375
13.26,1567412881.125
9.25,1567412881.140625
5.8,1567412881.15625
2.44,1567412881.171875
-1.33,1567412881.1875
-5.93,1567412881.203125
-11.65,1567412881.21875
-18.54,1567412881.234375
-26.24,1567412881.25
-33.75,1567412881.265625
-39.57,1567412881.28125
-41.99,1567412881.296875
-39.69,1567412881.3125
-32.27,1567412881.328125
-20.51,1567412881.34375
-6.19,1567412881.359375
8.52,1567412881.375
21.69,1567412881.390625
32.21,1567412881.40625
39.88,1567412881.421875
45.16,1567412881.4375
48.75,1567412881.453125
51.22,1567412881.46875
52.83,1567412881.484375
53.55,1567412881.5
53.33,1567412881.515625
52.2,1567412881.53125
50.45,1567412881.546875
48.47,1567412881.5625
46.71,1567412881.578125
45.43,1567412881.59375
44.65,1567412881.609375
44.16,1567412881.625
43.59,1567412881.640625
42.63,1567412881.65625
41.09,1567412881.671875
39.01,1567412881.6875
36.57,1567412881.703125
33.93,1567412881.71875
31.11,1567412881.734375
27.93,1567412881.75
24.08,1567412881.765625
19.28,1567412881.78125
13.51,1567412881.796875
7.09,1567412881.8125
0.59,1567412881.828125
-5.33,1567412881.84375
-10.22,1567412881.859375
-13.98,1567412881.875
-16.93,1567412881.890625
-19.67,1567412881.90625
-22.83,1567412881.921875
-26.88,1567412881.9375
-32.01,1567412881.953125
-38.13,1567412881.96875
-44.9,1567412881.984375
-51.71,1567412882.0
-57.63,1567412882.015625
-61.47,1567412882.03125
-61.93,1567412882.046875
-58.02,1567412882.0625
-49.47,1567412882.078125
-36.99,1567412882.09375
-22.2,1567412882.109375
-7.14,1567412882.125
6.38,1567412882.140625
17.28,1567412882.15625
25.46,1567412882.171875
31.54,1567412882.1875
36.36,1567412882.203125
40.56,1567412882.21875
44.34,1567412882.234375
47.59,1567412882.25
50.11,1567412882.265625
51.88,1567412882.28125
53.16,1567412882.296875
54.35,1567412882.3125
55.79,1567412882.328125
57.62,1567412882.34375
59.72,1567412882.359375
61.81,1567412882.375
63.61,1567412882.390625
64.9,1567412882.40625
65.56,1567412882.421875
65.55,1567412882.4375
64.88,1567412882.453125
63.55,1567412882.46875
61.63,1567412882.484375
59.11,1567412882.5
55.96,1567412882.515625
52.08,1567412882.53125
47.4,1567412882.546875
41.95,1567412882.5625
35.97,1567412882.578125
29.85,1567412882.59375
24.0,1567412882.609375
18.67,1567412882.625
13.85,1567412882.640625
9.27,1567412882.65625
4.51,1567412882.671875
-0.91,1567412882.6875
-7.47,1567412882.703125
-15.5,1567412882.71875
-25.07,1567412882.734375
-35.7,1567412882.75
-46.21,1567412882.765625
-54.75,1567412882.78125
-59.23,1567412882.796875
-58.0,1567412882.8125
-50.54,1567412882.828125
-37.68,1567412882.84375
-21.47,1567412882.859375
-4.42,1567412882.875
11.3,1567412882.890625
24.46,1567412882.90625
34.81,1567412882.921875
42.77,1567412882.9375
48.95,1567412882.953125
53.67,1567412882.96875
56.93,1567412882.984375
58.51,1567412883.0
58.3,1567412883.015625
56.51,1567412883.03125
53.64,1567412883.046875
50.39,1567412883.0625
47.35,1567412883.078125
44.82,1567412883.09375
42.67,1567412883.109375
40.39,1567412883.125
37.28,1567412883.140625
32.72,1567412883.15625
26.39,1567412883.171875
18.43,1567412883.1875
9.43,1567412883.203125
0.28,1567412883.21875
-8.1,1567412883.234375
-15.11,1567412883.25
-20.67,1567412883.265625
-25.3,1567412883.28125
-29.86,1567412883.296875
-35.18,1567412883.3125
-41.63,1567412883.328125
-48.92,1567412883.34375
-56.27,1567412883.359375
-62.78,1567412883.375
-67.89,1567412883.390625
-71.59,1567412883.40625
-74.49,1567412883.421875
-77.33,1567412883.4375
-80.78,1567412883.453125
-85.05,1567412883.46875
-90.02,1567412883.484375
-95.25,1567412883.5
-100.07,1567412883.515625
-103.53,1567412883.53125
-104.34,1567412883.546875
-101.18,1567412883.5625
-93.1,1567412883.578125
-80.11,1567412883.59375
-63.45,1567412883.609375
-45.51,1567412883.625
-29.17,1567412883.640625
-16.94,1567412883.65625
-10.32,1567412883.671875
-9.46,1567412883.6875
-13.45,1567412883.703125
-20.71,1567412883.71875
-29.52,1567412883.734375
-38.25,1567412883.75
-45.41,1567412883.765625
-49.66,1567412883.78125
-49.88,1567412883.796875
-45.4,1567412883.8125
-36.21,1567412883.828125
-23.16,1567412883.84375
-7.78,1567412883.859375
8.01,1567412883.875
22.34,1567412883.890625
33.9,1567412883.90625
42.05,1567412883.921875
46.93,1567412883.9375
49.14,1567412883.953125
49.45,1567412883.96875
48.54,1567412883.984375
46.8,1567412884.0
44.34,1567412884.015625
41.07,1567412884.03125
36.79,1567412884.046875
31.3,1567412884.0625
24.53,1567412884.078125
16.57,1567412884.09375
7.62,1567412884.109375
-2.0,1567412884.125
-11.95,1567412884.140625
-21.86,1567412884.15625
-31.38,1567412884.171875
-40.25,1567412884.1875
-48.28,1567412884.203125
-55.5,1567412884.21875
-62.07,1567412884.234375
-68.11,1567412884.25
-73.33,1567412884.265625
-76.89,1567412884.28125
-77.3,1567412884.296875
-72.93,1567412884.3125
-62.67,1567412884.328125
-46.57,1567412884.34375
-26.03,1567412884.359375
-3.51,1567412884.375
18.4,1567412884.390625
37.9,1567412884.40625
54.47,1567412884.421875
68.63,1567412884.4375
81.3,1567412884.453125
92.93,1567412884.46875
103.21,1567412884.484375
111.19,1567412884.5
115.97,1567412884.515625
117.37,1567412884.53125
116.1,1567412884.546875
113.44,1567412884.5625
110.69,1567412884.578125
108.56,1567412884.59375
107.01,1567412884.609375
105.49,1567412884.625
103.38,1567412884.640625
100.39,1567412884.65625
96.65,1567412884.671875
92.59,1567412884.6875
88.68,1567412884.703125
85.14,1567412884.71875
81.98,1567412884.734375
78.98,1567412884.75
75.89,1567412884.765625
72.55,1567412884.78125
68.98,1567412884.796875
65.38,1567412884.8125
62.04,1567412884.828125
59.18,1567412884.84375
56.99,1567412884.859375
55.43,1567412884.875
54.39,1567412884.890625
53.63,1567412884.90625
52.88,1567412884.921875
51.84,1567412884.9375
50.17,1567412884.953125
47.53,1567412884.96875
43.67,1567412884.984375
38.47,1567412885.0
32.1,1567412885.015625
25.08,1567412885.03125
18.31,1567412885.046875
12.85,1567412885.0625
9.68,1567412885.078125
9.29,1567412885.09375
11.49,1567412885.109375
15.45,1567412885.125
19.86,1567412885.140625
23.53,1567412885.15625
25.69,1567412885.171875
26.16,1567412885.1875
25.29,1567412885.203125
23.59,1567412885.21875
21.48,1567412885.234375
19.14,1567412885.25
16.58,1567412885.265625
13.83,1567412885.28125
11.04,1567412885.296875
8.47,1567412885.3125
6.33,1567412885.328125
4.59,1567412885.34375
2.93,1567412885.359375
0.87,1567412885.375
-2.01,1567412885.390625
-5.86,1567412885.40625
-10.49,1567412885.421875
-15.44,1567412885.4375
-20.2,1567412885.453125
-24.46,1567412885.46875
-28.26,1567412885.484375
-31.91,1567412885.5
-35.83,1567412885.515625
-40.28,1567412885.53125
-45.19,1567412885.546875
-50.21,1567412885.5625
-54.8,1567412885.578125
-58.56,1567412885.59375
-61.38,1567412885.609375
-63.4,1567412885.625
-64.99,1567412885.640625
-66.46,1567412885.65625
-68.02,1567412885.671875
-69.73,1567412885.6875
-71.64,1567412885.703125
-73.97,1567412885.71875
-77.08,1567412885.734375
-81.35,1567412885.75
-86.91,1567412885.765625
-93.53,1567412885.78125
-100.65,1567412885.796875
-107.67,1567412885.8125
-114.16,1567412885.828125
-120.06,1567412885.84375
-125.58,1567412885.859375
-130.89,1567412885.875
-135.88,1567412885.890625
-140.05,1567412885.90625
-142.61,1567412885.921875
-142.71,1567412885.9375
-139.87,1567412885.953125
-134.11,1567412885.96875
-126.09,1567412885.984375
-116.93,1567412886.0
-107.95,1567412886.015625
-100.29,1567412886.03125
-94.64,1567412886.046875
-91.01,1567412886.0625
-88.8,1567412886.078125
-87.02,1567412886.09375
-84.62,1567412886.109375
-80.89,1567412886.125
-75.67,1567412886.140625
-69.36,1567412886.15625
-62.72,1567412886.171875
-56.53,1567412886.1875
-51.25,1567412886.203125
-46.89,1567412886.21875
-43.01,1567412886.234375
-39.0,1567412886.25
-34.38,1567412886.265625
-29.07,1567412886.28125
-23.44,1567412886.296875
-18.2,1567412886.3125
-14.02,1567412886.328125
-11.3,1567412886.34375
-9.94,1567412886.359375
-9.49,1567412886.375
-9.41,1567412886.390625
-9.32,1567412886.40625
-9.21,1567412886.421875
-9.34,1567412886.4375
-10.23,1567412886.453125
-12.42,1567412886.46875
-16.36,1567412886.484375
-22.32,1567412886.5
-30.15,1567412886.515625
-39.13,1567412886.53125
-47.8,1567412886.546875
-54.2,1567412886.5625
-56.35,1567412886.578125
-52.91,1567412886.59375
-43.72,1567412886.609375
-30.01,1567412886.625
-14.07,1567412886.640625
1.57,1567412886.65625
14.94,1567412886.671875
25.15,1567412886.6875
32.49,1567412886.703125
37.98,1567412886.71875
42.66,1567412886.734375
47.1,1567412886.75
51.14,1567412886.765625
54.2,1567412886.78125
55.64,1567412886.796875
55.22,1567412886.8125
53.3,1567412886.828125
50.57,1567412886.84375
47.8,1567412886.859375
45.46,1567412886.875
43.65,1567412886.890625
42.33,1567412886.90625
41.42,1567412886.921875
41.13,1567412886.9375
41.74,1567412886.953125
43.4,1567412886.96875
45.93,1567412886.984375
48.68,1567412887.0
50.73,1567412887.015625
51.17,1567412887.03125
49.37,1567412887.046875
45.12,1567412887.0625
38.61,1567412887.078125
30.29,1567412887.09375
20.77,1567412887.109375
10.73,1567412887.125
0.83,1567412887.140625
-8.42,1567412887.15625
-16.71,1567412887.171875
-24.12,1567412887.1875
-31.1,1567412887.203125
-38.33,1567412887.21875
-46.46,1567412887.234375
-55.85,1567412887.25
-66.22,1567412887.265625
-76.62,1567412887.28125
-85.45,1567412887.296875
-90.86,1567412887.3125
-91.29,1567412887.328125
-85.99,1567412887.34375
-75.38,1567412887.359375
-60.95,1567412887.375
-44.85,1567412887.390625
-29.19,1567412887.40625
-15.46,1567412887.421875
-4.31,1567412887.4375
4.41,1567412887.453125
11.17,1567412887.46875
16.47,1567412887.484375
20.53,1567412887.5
23.35,1567412887.515625
24.91,1567412887.53125
25.36,1567412887.546875
25.13,1567412887.5625
24.86,1567412887.578125
25.18,1567412887.59375
26.43,1567412887.609375
28.58,1567412887.625
31.16,1567412887.640625
33.47,1567412887.65625
34.89,1567412887.671875
35.09,1567412887.6875
34.16,1567412887.703125
32.5,1567412887.71875
30.55,1567412887.734375
28.51,1567412887.75
26.27,1567412887.765625
23.45,1567412887.78125
19.66,1567412887.796875
14.72,1567412887.8125
8.86,1567412887.828125
2.57,1567412887.84375
-3.54,1567412887.859375
-9.0,1567412887.875
-13.66,1567412887.890625
-17.65,1567412887.90625
-21.4,1567412887.921875
-25.41,1567412887.9375
-30.21,1567412887.953125
-36.29,1567412887.96875
-43.94,1567412887.984375
-53.07,1567412888.0
-63.03,1567412888.015625
-72.52,1567412888.03125
-79.74,1567412888.046875
-82.79,1567412888.0625
-80.24,1567412888.078125
-71.66,1567412888.09375
-57.81,1567412888.109375
-40.51,1567412888.125
-22.06,1567412888.140625
-4.6,1567412888.15625
10.41,1567412888.171875
22.47,1567412888.1875
31.84,1567412888.203125
39.16,1567412888.21875
45.01,1567412888.234375
49.67,1567412888.25
53.12,1567412888.265625
55.21,1567412888.28125
55.97,1567412888.296875
55.72,1567412888.3125
55.09,1567412888.328125
54.77,1567412888.34375
55.24,1567412888.359375
56.55,1567412888.375
58.36,1567412888.390625
60.02,1567412888.40625
60.85,1567412888.421875
60.43,1567412888.4375
58.73,1567412888.453125
56.07,1567412888.46875
52.91,1567412888.484375
49.59,1567412888.5
46.15,1567412888.515625
42.34,1567412888.53125
37.76,1567412888.546875
32.14,1567412888.5625
25.52,1567412888.578125
18.32,1567412888.59375
11.15,1567412888.609375
4.62,1567412888.625
-0.94,1567412888.640625
-5.56,1567412888.65625
-9.57,1567412888.671875
-13.54,1567412888.6875
-18.13,1567412888.703125
-23.95,1567412888.71875
-31.39,1567412888.734375
-40.45,1567412888.75
-50.51,1567412888.765625
-60.31,1567412888.78125
-68.05,1567412888.796875
-71.81,1567412888.8125
-70.05,1567412888.828125
-62.27,1567412888.84375
-49.18,1567412888.859375
-32.65,1567412888.875
-15.11,1567412888.890625
1.17,1567412888.90625
14.7,1567412888.921875
25.01,1567412888.9375
32.56,1567412888.953125
38.21,1567412888.96875
42.73,1567412888.984375
46.49,1567412889.0
49.43,1567412889.015625
51.36,1567412889.03125
52.18,1567412889.046875
52.14,1567412889.0625
51.75,1567412889.078125
51.55,1567412889.09375
51.9,1567412889.109375
52.75,1567412889.125
53.77,1567412889.140625
54.48,1567412889.15625
54.51,1567412889.171875
53.73,1567412889.1875
52.24,1567412889.203125
50.28,1567412889.21875
48.05,1567412889.234375
45.63,1567412889.25
42.93,1567412889.265625
39.79,1567412889.28125
35.96,1567412889.296875
31.3,1567412889.3125
25.82,1567412889.328125
19.72,1567412889.34375
13.38,1567412889.359375
7.23,1567412889.375
1.63,1567412889.390625
-3.24,1567412889.40625
-7.49,1567412889.421875
-11.47,1567412889.4375
-15.69,1567412889.453125
-20.67,1567412889.46875
-26.86,1567412889.484375
-34.48,1567412889.5
-43.4,1567412889.515625
-52.96,1567412889.53125
-61.92,1567412889.546875
-68.56,1567412889.5625
-71.03,1567412889.578125
-68.0,1567412889.59375
-59.1,1567412889.609375
-45.22,1567412889.625
-28.3,1567412889.640625
-10.79,1567412889.65625
5.13,1567412889.671875
18.06,1567412889.6875
27.64,1567412889.703125
34.33,1567412889.71875
39.0,1567412889.734375
42.42,1567412889.75
45.1,1567412889.765625
47.11,1567412889.78125
48.38,1567412889.796875
48.82,1567412889.8125
48.64,1567412889.828125
48.25,1567412889.84375
48.15,1567412889.859375
48.72,1567412889.875
49.98,1567412889.890625
51.56,1567412889.90625
52.92,1567412889.921875
53.52,1567412889.9375
53.11,1567412889.953125
51.74,1567412889.96875
49.68,1567412889.984375
47.17,1567412890.0
44.34,1567412890.015625
41.08,1567412890.03125
37.21,1567412890.046875
32.56,1567412890.0625
27.13,1567412890.078125
21.06,1567412890.09375
14.68,1567412890.109375
8.34,1567412890.125
2.37,1567412890.140625
-3.04,1567412890.15625
-7.79,1567412890.171875
-11.98,1567412890.1875
-15.88,1567412890.203125
-19.94,1567412890.21875
-24.67,1567412890.234375
-30.62,1567412890.25
-38.06,1567412890.265625
-46.89,1567412890.28125
-56.29,1567412890.296875
-64.83,1567412890.3125
-70.65,1567412890.328125
-71.94,1567412890.34375
-67.56,1567412890.359375
-57.5,1567412890.375
-43.01,1567412890.390625
-26.24,1567412890.40625
-9.63,1567412890.421875
4.85,1567412890.4375
16.1,1567412890.453125
24.04,1567412890.46875
29.3,1567412890.484375
32.76,1567412890.5
35.17,1567412890.515625
36.88,1567412890.53125
37.97,1567412890.546875
38.4,1567412890.5625
38.21,1567412890.578125
37.71,1567412890.59375
37.3,1567412890.609375
37.43,1567412890.625
38.3,1567412890.640625
39.75,1567412890.65625
41.31,1567412890.671875
42.41,1567412890.6875
42.63,1567412890.703125
41.82,1567412890.71875
40.15,1567412890.734375
37.93,1567412890.75
35.39,1567412890.765625
32.54,1567412890.78125
29.2,1567412890.796875
25.1,1567412890.8125
20.06,1567412890.828125
14.18,1567412890.84375
7.82,1567412890.859375
1.49,1567412890.875
-4.27,1567412890.890625
-9.11,1567412890.90625
-13.01,1567412890.921875
-16.24,1567412890.9375
-19.32,1567412890.953125
-22.83,1567412890.96875
-27.3,1567412890.984375
-33.05,1567412891.0
-40.19,1567412891.015625
-48.47,1567412891.03125
-57.23,1567412891.046875
-65.32,1567412891.0625
-71.15,1567412891.078125
-73.08,1567412891.09375
-69.87,1567412891.109375
-61.21,1567412891.125
-47.98,1567412891.140625
-32.06,1567412891.15625
-15.76,1567412891.171875
-1.13,1567412891.1875
10.61,1567412891.203125
19.27,1567412891.21875
25.35,1567412891.234375
29.67,1567412891.25
32.86,1567412891.265625
35.16,1567412891.28125
36.54,1567412891.296875
36.98,1567412891.3125
36.62,1567412891.328125
35.95,1567412891.34375
35.59,1567412891.359375
36.05,1567412891.375
37.45,1567412891.390625
39.43,1567412891.40625
41.32,1567412891.421875
42.4,1567412891.4375
42.27,1567412891.453125
40.93,1567412891.46875
38.83,1567412891.484375
36.47,1567412891.5
34.15,1567412891.515625
31.72,1567412891.53125
28.66,1567412891.546875
24.4,1567412891.5625
18.63,1567412891.578125
11.59,1567412891.59375
4.05,1567412891.609375
-3.01,1567412891.625
-8.81,1567412891.640625
-13.11,1567412891.65625
-16.24,1567412891.671875
-18.95,1567412891.6875
-22.06,1567412891.703125
-26.22,1567412891.71875
-31.73,1567412891.734375
-38.66,1567412891.75
-46.7,1567412891.765625
-55.2,1567412891.78125
-63.0,1567412891.796875
-68.47,1567412891.8125
-69.88,1567412891.828125
-65.96,1567412891.84375
-56.52,1567412891.859375
-42.71,1567412891.875
-26.73,1567412891.890625
-11.1,1567412891.90625
2.22,1567412891.921875
12.32,1567412891.9375
19.44,1567412891.953125
24.48,1567412891.96875
28.34,1567412891.984375
31.5,1567412892.0
33.94,1567412892.015625
35.4,1567412892.03125
35.73,1567412892.046875
35.17,1567412892.0625
34.28,1567412892.078125
33.71,1567412892.09375
33.87,1567412892.109375
34.75,1567412892.125
35.94,1567412892.140625
36.87,1567412892.15625
37.06,1567412892.171875
36.34,1567412892.1875
34.86,1567412892.203125
32.95,1567412892.21875
30.87,1567412892.234375
28.66,1567412892.25
26.07,1567412892.265625
22.65,1567412892.28125
17.97,1567412892.296875
11.91,1567412892.3125
4.72,1567412892.328125
-2.93,1567412892.34375
-10.19,1567412892.359375
-16.3,1567412892.375
-20.93,1567412892.390625
-24.25,1567412892.40625
-26.91,1567412892.421875
-29.76,1567412892.4375
-33.6,1567412892.453125
-38.97,1567412892.46875
-46.02,1567412892.484375
-54.5,1567412892.5
-63.65,1567412892.515625
-72.23,1567412892.53125
-78.59,1567412892.546875
-80.95,1567412892.5625
-78.02,1567412892.578125
-69.42,1567412892.59375
-56.04,1567412892.609375
-39.86,1567412892.625
-23.32,1567412892.640625
-8.58,1567412892.65625
3.13,1567412892.671875
11.7,1567412892.6875
17.84,1567412892.703125
22.53,1567412892.71875
26.48,1567412892.734375
29.86,1567412892.75
32.5,1567412892.765625
34.12,1567412892.78125
34.73,1567412892.796875
34.69,1567412892.8125
34.55,1567412892.828125
34.86,1567412892.84375
35.84,1567412892.859375
37.33,1567412892.875
38.91,1567412892.890625
40.03,1567412892.90625
40.31,1567412892.921875
39.61,1567412892.9375
38.08,1567412892.953125
36.02,1567412892.96875
33.7,1567412892.984375
31.24,1567412893.0
28.52,1567412893.015625
25.18,1567412893.03125
20.9,1567412893.046875
15.53,1567412893.0625
9.3,1567412893.078125
2.76,1567412893.09375
-3.4,1567412893.109375
-8.65,1567412893.125
-12.83,1567412893.140625
-16.22,1567412893.15625
-19.4,1567412893.171875
-23.04,1567412893.1875
-27.6,1567412893.203125
-33.34,1567412893.21875
-40.24,1567412893.234375
-48.06,1567412893.25
-56.29,1567412893.265625
-64.03,1567412893.28125
-69.99,1567412893.296875
-72.65,1567412893.3125
-70.71,1567412893.328125
-63.61,1567412893.34375
-51.87,1567412893.359375
-37.1,1567412893.375
-21.57,1567412893.390625
-7.44,1567412893.40625
3.9,1567412893.421875
12.16,1567412893.4375
17.98,1567412893.453125
22.39,1567412893.46875
26.2,1567412893.484375
29.64,1567412893.5
32.48,1567412893.515625
34.28,1567412893.53125
34.89,1567412893.546875
34.57,1567412893.5625
33.99,1567412893.578125
33.82,1567412893.59375
34.44,1567412893.609375
35.73,1567412893.625
37.2,1567412893.640625
38.19,1567412893.65625
38.25,1567412893.671875
37.26,1567412893.6875
35.43,1567412893.703125
33.16,1567412893.71875
30.77,1567412893.734375
28.36,1567412893.75
25.77,1567412893.765625
22.68,1567412893.78125
18.78,1567412893.796875
13.96,1567412893.8125
8.37,1567412893.828125
2.43,1567412893.84375
-3.32,1567412893.859375
-8.45,1567412893.875
-12.76,1567412893.890625
-16.33,1567412893.90625
-19.51,1567412893.921875
-22.76,1567412893.9375
-26.54,1567412893.953125
-31.26,1567412893.96875
-37.19,1567412893.984375
-44.39,1567412894.0
-52.47,1567412894.015625
-60.52,1567412894.03125
-66.97,1567412894.046875
-70.01,1567412894.0625
-68.1,1567412894.078125
-60.61,1567412894.09375
-48.24,1567412894.109375
-32.91,1567412894.125
-17.11,1567412894.140625
-3.07,1567412894.15625
7.89,1567412894.171875
15.7,1567412894.1875
21.11,1567412894.203125
25.21,1567412894.21875
28.73,1567412894.234375
31.88,1567412894.25
34.4,1567412894.265625
36.0,1567412894.28125
36.64,1567412894.296875
36.7,1567412894.3125
36.82,1567412894.328125
37.51,1567412894.34375
38.96,1567412894.359375
40.88,1567412894.375
42.69,1567412894.390625
43.87,1567412894.40625
44.15,1567412894.421875
43.66,1567412894.4375
42.72,1567412894.453125
41.64,1567412894.46875
40.46,1567412894.484375
38.94,1567412894.5
36.69,1567412894.515625
33.39,1567412894.53125
28.95,1567412894.546875
23.6,1567412894.5625
17.83,1567412894.578125
12.18,1567412894.59375
7.13,1567412894.609375
2.95,1567412894.625
-0.3,1567412894.640625
-2.82,1567412894.65625
-5.02,1567412894.671875
-7.42,1567412894.6875
-10.53,1567412894.703125
-14.76,1567412894.71875
-20.25,1567412894.734375
-26.87,1567412894.75
-34.03,1567412894.765625
-40.76,1567412894.78125
-45.73,1567412894.796875
-47.46,1567412894.8125
-44.78,1567412894.828125
-37.25,1567412894.84375
-25.48,1567412894.859375
-11.11,1567412894.875
3.69,1567412894.890625
16.87,1567412894.90625
27.17,1567412894.921875
34.4,1567412894.9375
39.24,1567412894.953125
42.69,1567412894.96875
45.53,1567412894.984375
47.97,1567412895.0
49.78,1567412895.015625
50.66,1567412895.03125
50.63,1567412895.046875
50.14,1567412895.0625
49.97,1567412895.078125
50.92,1567412895.09375
53.39,1567412895.109375
57.32,1567412895.125
62.13,1567412895.140625
66.83,1567412895.15625
70.2,1567412895.171875
70.91,1567412895.1875
67.79,1567412895.203125
59.99,1567412895.21875
47.18,1567412895.234375
29.68,1567412895.25
8.46,1567412895.265625
-14.86,1567412895.28125
-38.31,1567412895.296875
-59.74,1567412895.3125
-77.23,1567412895.328125
-89.47,1567412895.34375
-96.1,1567412895.359375
-97.79,1567412895.375
-96.08,1567412895.390625
-92.92,1567412895.40625
-90.07,1567412895.421875
-88.77,1567412895.4375
-89.54,1567412895.453125
-92.31,1567412895.46875
-96.64,1567412895.484375
-101.79,1567412895.5
-106.71,1567412895.515625
-109.99,1567412895.53125
-110.03,1567412895.546875
-105.53,1567412895.5625
-95.94,1567412895.578125
-81.94,1567412895.59375
-65.26,1567412895.609375
-48.23,1567412895.625
-32.95,1567412895.640625
-20.68,1567412895.65625
-11.55,1567412895.671875
-4.78,1567412895.6875
0.8,1567412895.703125
6.13,1567412895.71875
11.58,1567412895.734375
16.92,1567412895.75
21.6,1567412895.765625
25.13,1567412895.78125
27.31,1567412895.796875
28.4,1567412895.8125
28.93,1567412895.828125
29.47,1567412895.84375
30.4,1567412895.859375
31.8,1567412895.875
33.42,1567412895.890625
34.87,1567412895.90625
35.78,1567412895.921875
35.89,1567412895.9375
35.13,1567412895.953125
33.63,1567412895.96875
31.59,1567412895.984375
29.27,1567412896.0
26.82,1567412896.015625
24.22,1567412896.03125
21.26,1567412896.046875
17.59,1567412896.0625
12.93,1567412896.078125
7.31,1567412896.09375
1.1,1567412896.109375
-5.03,1567412896.125
-10.44,1567412896.140625
-14.77,1567412896.15625
-18.13,1567412896.171875
-21.04,1567412896.1875
-24.17,1567412896.203125
-28.18,1567412896.21875
-33.45,1567412896.234375
-40.13,1567412896.25
-47.94,1567412896.265625
-56.13,1567412896.28125
-63.39,1567412896.296875
-67.93,1567412896.3125
-68.05,1567412896.328125
-62.7,1567412896.34375
-52.05,1567412896.359375
-37.66,1567412896.375
-21.91,1567412896.390625
-7.25,1567412896.40625
4.61,1567412896.421875
13.16,1567412896.4375
18.94,1567412896.453125
22.95,1567412896.46875
26.09,1567412896.484375
28.78,1567412896.5
30.94,1567412896.515625
32.29,1567412896.53125
32.7,1567412896.546875
32.27,1567412896.5625
31.37,1567412896.578125
30.4,1567412896.59375
29.65,1567412896.609375
29.15,1567412896.625
28.74,1567412896.640625
28.23,1567412896.65625
27.46,1567412896.671875
26.39,1567412896.6875
25.03,1567412896.703125
23.33,1567412896.71875
21.2,1567412896.734375
18.55,1567412896.75
15.33,1567412896.765625
11.65,1567412896.78125
7.7,1567412896.796875
3.65,1567412896.8125
