bvp,time
53.71,1636977485.03125
62.05,1636977485.046875
68.74,1636977485.0625
73.79,1636977485.078125
77.35,1636977485.09375
79.54,1636977485.109375
80.53,1636977485.125
80.34,1636977485.140625
78.97,1636977485.15625
76.37,1636977485.171875
72.56,1636977485.1875
67.78,1636977485.203125
62.44,1636977485.21875
57.07,1636977485.234375
52.2,1636977485.25
48.13,1636977485.265625
44.93,1636977485.28125
42.49,1636977485.296875
40.56,1636977485.3125
39.0,1636977485.328125
37.72,1636977485.34375
36.69,1636977485.359375
35.88,1636977485.375
35.2,1636977485.390625
34.58,1636977485.40625
34.11,1636977485.421875
33.98,1636977485.4375
34.46,1636977485.453125
35.7,1636977485.46875
37.56,1636977485.484375
39.63,1636977485.5
41.34,1636977485.515625
42.19,1636977485.53125
41.97,1636977485.546875
40.8,1636977485.5625
39.04,1636977485.578125
37.05,1636977485.59375
35.0,1636977485.609375
32.83,1636977485.625
30.27,1636977485.640625
27.1,1636977485.65625
23.19,1636977485.671875
18.62,1636977485.6875
13.54,1636977485.703125
8.17,1636977485.71875
2.84,1636977485.734375
-1.98,1636977485.75
-5.65,1636977485.765625
-7.36,1636977485.78125
-6.47,1636977485.796875
-2.67,1636977485.8125
3.67,1636977485.828125
11.65,1636977485.84375
20.01,1636977485.859375
27.55,1636977485.875
33.43,1636977485.890625
37.27,1636977485.90625
39.1,1636977485.921875
39.19,1636977485.9375
37.94,1636977485.953125
35.79,1636977485.96875
33.23,1636977485.984375
30.79,1636977486.0
28.9,1636977486.015625
27.77,1636977486.03125
27.43,1636977486.046875
27.73,1636977486.0625
28.63,1636977486.078125
30.33,1636977486.09375
33.29,1636977486.109375
38.09,1636977486.125
45.07,1636977486.140625
54.09,1636977486.15625
64.41,1636977486.171875
74.81,1636977486.1875
83.98,1636977486.203125
90.85,1636977486.21875
94.91,1636977486.234375
96.25,1636977486.25
95.44,1636977486.265625
93.24,1636977486.28125
90.24,1636977486.296875
86.54,1636977486.3125
81.44,1636977486.328125
73.48,1636977486.34375
60.72,1636977486.359375
41.3,1636977486.375
14.2,1636977486.390625
-20.25,1636977486.40625
-60.21,1636977486.421875
-102.86,1636977486.4375
-145.16,1636977486.453125
-184.74,1636977486.46875
-220.29,1636977486.484375
-251.42,1636977486.5
-278.26,1636977486.515625
-300.87,1636977486.53125
-319.06,1636977486.546875
-332.46,1636977486.5625
-340.8,1636977486.578125
-343.88,1636977486.59375
-341.62,1636977486.609375
-333.7,1636977486.625
-319.56,1636977486.640625
-298.71,1636977486.65625
-271.14,1636977486.671875
-237.87,1636977486.6875
-200.95,1636977486.703125
-163.1,1636977486.71875
-126.95,1636977486.734375
-94.43,1636977486.75
-66.39,1636977486.765625
-42.73,1636977486.78125
-22.92,1636977486.796875
-6.42,1636977486.8125
7.08,1636977486.828125
17.76,1636977486.84375
25.94,1636977486.859375
32.25,1636977486.875
37.59,1636977486.890625
42.79,1636977486.90625
48.33,1636977486.921875
54.17,1636977486.9375
59.88,1636977486.953125
64.94,1636977486.96875
68.99,1636977486.984375
71.94,1636977487.0
73.9,1636977487.015625
75.01,1636977487.03125
75.37,1636977487.046875
74.92,1636977487.0625
73.57,1636977487.078125
71.16,1636977487.09375
67.57,1636977487.109375
62.77,1636977487.125
56.9,1636977487.140625
50.35,1636977487.15625
43.66,1636977487.171875
37.36,1636977487.1875
31.73,1636977487.203125
26.67,1636977487.21875
21.69,1636977487.234375
16.19,1636977487.25
9.77,1636977487.265625
2.46,1636977487.28125
-5.26,1636977487.296875
-12.73,1636977487.3125
-19.43,1636977487.328125
-25.31,1636977487.34375
-30.71,1636977487.359375
-36.3,1636977487.375
-42.71,1636977487.390625
-50.41,1636977487.40625
-59.58,1636977487.421875
-70.07,1636977487.4375
-81.34,1636977487.453125
-92.36,1636977487.46875
-101.6,1636977487.484375
-107.23,1636977487.5
-107.53,1636977487.515625
-101.42,1636977487.53125
-88.86,1636977487.546875
-71.03,1636977487.5625
-49.87,1636977487.578125
-27.61,1636977487.59375
-6.09,1636977487.609375
13.51,1636977487.625
30.7,1636977487.640625
45.41,1636977487.65625
57.65,1636977487.671875
67.42,1636977487.6875
74.66,1636977487.703125
79.43,1636977487.71875
82.02,1636977487.734375
83.0,1636977487.75
83.13,1636977487.765625
83.11,1636977487.78125
83.46,1636977487.796875
84.32,1636977487.8125
85.55,1636977487.828125
86.85,1636977487.84375
87.91,1636977487.859375
88.56,1636977487.875
88.79,1636977487.890625
88.67,1636977487.90625
88.17,1636977487.921875
87.17,1636977487.9375
85.43,1636977487.953125
82.71,1636977487.96875
78.88,1636977487.984375
74.01,1636977488.0
68.32,1636977488.015625
62.08,1636977488.03125
55.56,1636977488.046875
48.97,1636977488.0625
42.48,1636977488.078125
36.29,1636977488.09375
30.53,1636977488.109375
25.27,1636977488.125
20.35,1636977488.140625
15.46,1636977488.15625
10.19,1636977488.171875
4.24,1636977488.1875
-2.5,1636977488.203125
-9.85,1636977488.21875
-17.49,1636977488.234375
-25.05,1636977488.25
-32.33,1636977488.265625
-39.31,1636977488.28125
-46.19,1636977488.296875
-53.3,1636977488.3125
-61.07,1636977488.328125
-69.84,1636977488.34375
-79.7,1636977488.359375
-90.19,1636977488.375
-100.17,1636977488.390625
-107.91,1636977488.40625
-111.47,1636977488.421875
-109.32,1636977488.4375
-100.83,1636977488.453125
-86.57,1636977488.46875
-68.1,1636977488.484375
-47.54,1636977488.5
-26.92,1636977488.515625
-7.72,1636977488.53125
9.26,1636977488.546875
23.78,1636977488.5625
35.91,1636977488.578125
45.73,1636977488.59375
53.26,1636977488.609375
58.53,1636977488.625
61.66,1636977488.640625
62.96,1636977488.65625
62.93,1636977488.671875
62.17,1636977488.6875
61.23,1636977488.703125
60.5,1636977488.71875
60.16,1636977488.734375
60.2,1636977488.75
60.54,1636977488.765625
61.06,1636977488.78125
61.63,1636977488.796875
62.14,1636977488.8125
62.41,1636977488.828125
62.28,1636977488.84375
61.52,1636977488.859375
59.9,1636977488.875
57.23,1636977488.890625
53.37,1636977488.90625
48.3,1636977488.921875
42.19,1636977488.9375
35.4,1636977488.953125
28.4,1636977488.96875
21.7,1636977488.984375
15.67,1636977489.0
10.41,1636977489.015625
5.73,1636977489.03125
1.17,1636977489.046875
-3.75,1636977489.0625
-9.35,1636977489.078125
-15.54,1636977489.09375
-21.94,1636977489.109375
-27.97,1636977489.125
-33.17,1636977489.140625
-37.44,1636977489.15625
-41.11,1636977489.171875
-44.84,1636977489.1875
-49.38,1636977489.203125
-55.36,1636977489.21875
-63.11,1636977489.234375
-72.6,1636977489.25
-83.22,1636977489.265625
-93.79,1636977489.28125
-102.52,1636977489.296875
-107.4,1636977489.3125
-106.66,1636977489.328125
-99.42,1636977489.34375
-86.02,1636977489.359375
-67.98,1636977489.375
-47.54,1636977489.390625
-26.94,1636977489.40625
-7.87,1636977489.421875
8.83,1636977489.4375
22.99,1636977489.453125
34.8,1636977489.46875
44.44,1636977489.484375
51.98,1636977489.5
57.4,1636977489.515625
60.8,1636977489.53125
62.47,1636977489.546875
62.95,1636977489.5625
62.81,1636977489.578125
62.62,1636977489.59375
62.73,1636977489.609375
63.23,1636977489.625
64.02,1636977489.640625
64.83,1636977489.65625
65.36,1636977489.671875
65.42,1636977489.6875
64.95,1636977489.703125
64.03,1636977489.71875
62.75,1636977489.734375
61.1,1636977489.75
58.94,1636977489.765625
55.98,1636977489.78125
51.88,1636977489.796875
46.49,1636977489.8125
39.93,1636977489.828125
32.66,1636977489.84375
25.27,1636977489.859375
18.37,1636977489.875
12.28,1636977489.890625
6.99,1636977489.90625
2.26,1636977489.921875
-2.35,1636977489.9375
-7.23,1636977489.953125
-12.6,1636977489.96875
-18.48,1636977489.984375
-24.63,1636977490.0
-30.76,1636977490.015625
-36.55,1636977490.03125
-41.86,1636977490.046875
-46.7,1636977490.0625
-51.32,1636977490.078125
-56.07,1636977490.09375
-61.39,1636977490.109375
-67.66,1636977490.125
-75.04,1636977490.140625
-83.38,1636977490.15625
-92.02,1636977490.171875
-99.71,1636977490.1875
-104.79,1636977490.203125
-105.54,1636977490.21875
-100.71,1636977490.234375
-89.94,1636977490.25
-73.97,1636977490.265625
-54.46,1636977490.28125
-33.46,1636977490.296875
-12.93,1636977490.3125
5.73,1636977490.328125
21.77,1636977490.34375
34.92,1636977490.359375
45.19,1636977490.375
52.68,1636977490.390625
57.54,1636977490.40625
60.03,1636977490.421875
60.54,1636977490.4375
59.66,1636977490.453125
58.01,1636977490.46875
56.14,1636977490.484375
54.41,1636977490.5
52.98,1636977490.515625
51.83,1636977490.53125
50.96,1636977490.546875
50.34,1636977490.5625
50.0,1636977490.578125
49.91,1636977490.59375
49.94,1636977490.609375
49.76,1636977490.625
48.91,1636977490.640625
46.98,1636977490.65625
43.66,1636977490.671875
38.95,1636977490.6875
33.15,1636977490.703125
26.81,1636977490.71875
20.53,1636977490.734375
14.76,1636977490.75
9.62,1636977490.765625
4.93,1636977490.78125
0.33,1636977490.796875
-4.55,1636977490.8125
-9.88,1636977490.828125
-15.55,1636977490.84375
-21.28,1636977490.859375
-26.71,1636977490.875
-31.61,1636977490.890625
-35.93,1636977490.90625
-39.91,1636977490.921875
-43.95,1636977490.9375
-48.57,1636977490.953125
-54.27,1636977490.96875
-61.3,1636977490.984375
-69.49,1636977491.0
-78.08,1636977491.015625
-85.69,1636977491.03125
-90.57,1636977491.046875
-91.05,1636977491.0625
-86.05,1636977491.078125
-75.42,1636977491.09375
-60.11,1636977491.109375
-41.92,1636977491.125
-22.93,1636977491.140625
-5.03,1636977491.15625
10.52,1636977491.171875
23.2,1636977491.1875
33.0,1636977491.203125
40.14,1636977491.21875
44.87,1636977491.234375
47.39,1636977491.25
47.96,1636977491.265625
47.04,1636977491.28125
45.25,1636977491.296875
43.33,1636977491.3125
41.89,1636977491.328125
41.29,1636977491.34375
41.58,1636977491.359375
42.55,1636977491.375
43.88,1636977491.390625
45.19,1636977491.40625
46.1,1636977491.421875
46.28,1636977491.4375
45.4,1636977491.453125
43.24,1636977491.46875
39.73,1636977491.484375
35.0,1636977491.5
29.4,1636977491.515625
23.42,1636977491.53125
17.53,1636977491.546875
12.07,1636977491.5625
7.04,1636977491.578125
2.14,1636977491.59375
-3.05,1636977491.609375
-8.98,1636977491.625
-15.82,1636977491.640625
-23.47,1636977491.65625
-31.54,1636977491.671875
-39.57,1636977491.6875
-47.15,1636977491.703125
-54.1,1636977491.71875
-60.5,1636977491.734375
-66.68,1636977491.75
-73.24,1636977491.765625
-80.75,1636977491.78125
-89.6,1636977491.796875
-99.57,1636977491.8125
-109.63,1636977491.828125
-117.99,1636977491.84375
-122.53,1636977491.859375
-121.42,1636977491.875
-113.78,1636977491.890625
-99.94,1636977491.90625
-81.39,1636977491.921875
-60.34,1636977491.9375
-39.02,1636977491.953125
-19.25,1636977491.96875
-2.05,1636977491.984375
12.23,1636977492.0
23.77,1636977492.015625
32.94,1636977492.03125
40.12,1636977492.046875
45.56,1636977492.0625
49.44,1636977492.078125
51.94,1636977492.09375
53.32,1636977492.109375
53.91,1636977492.125
54.08,1636977492.140625
54.09,1636977492.15625
54.1,1636977492.171875
54.13,1636977492.1875
54.17,1636977492.203125
54.17,1636977492.21875
54.08,1636977492.234375
53.76,1636977492.25
52.95,1636977492.265625
51.33,1636977492.28125
48.62,1636977492.296875
44.7,1636977492.3125
39.65,1636977492.328125
33.78,1636977492.34375
27.47,1636977492.359375
21.03,1636977492.375
14.58,1636977492.390625
8.1,1636977492.40625
1.46,1636977492.421875
-5.36,1636977492.4375
-12.26,1636977492.453125
-19.0,1636977492.46875
-25.33,1636977492.484375
-31.14,1636977492.5
-36.58,1636977492.515625
-42.0,1636977492.53125
-47.89,1636977492.546875
-54.74,1636977492.5625
-62.83,1636977492.578125
-72.09,1636977492.59375
-81.99,1636977492.609375
-91.48,1636977492.625
-99.03,1636977492.640625
-102.9,1636977492.65625
-101.58,1636977492.671875
-94.23,1636977492.6875
-81.02,1636977492.703125
-63.21,1636977492.71875
-42.81,1636977492.734375
-22.0,1636977492.75
-2.61,1636977492.765625
14.31,1636977492.78125
28.4,1636977492.796875
39.8,1636977492.8125
48.79,1636977492.828125
55.54,1636977492.84375
60.1,1636977492.859375
62.57,1636977492.875
63.17,1636977492.890625
62.32,1636977492.90625
60.5,1636977492.921875
58.21,1636977492.9375
55.84,1636977492.953125
53.63,1636977492.96875
51.73,1636977492.984375
50.21,1636977493.0
49.04,1636977493.015625
48.07,1636977493.03125
47.05,1636977493.046875
45.68,1636977493.0625
43.68,1636977493.078125
40.91,1636977493.09375
37.37,1636977493.109375
33.08,1636977493.125
28.11,1636977493.140625
22.47,1636977493.15625
16.2,1636977493.171875
9.41,1636977493.1875
2.4,1636977493.203125
-4.39,1636977493.21875
-10.57,1636977493.234375
-15.89,1636977493.25
-20.46,1636977493.265625
-24.63,1636977493.28125
-28.97,1636977493.296875
-34.02,1636977493.3125
-40.17,1636977493.328125
-47.57,1636977493.34375
-56.22,1636977493.359375
-65.82,1636977493.375
-75.69,1636977493.390625
-84.66,1636977493.40625
-91.1,1636977493.421875
-93.21,1636977493.4375
-89.54,1636977493.453125
-79.6,1636977493.46875
-64.1,1636977493.484375
-44.84,1636977493.5
-24.11,1636977493.515625
-4.1,1636977493.53125
13.7,1636977493.546875
28.66,1636977493.5625
40.79,1636977493.578125
50.37,1636977493.59375
57.66,1636977493.609375
62.73,1636977493.625
65.63,1636977493.640625
66.53,1636977493.65625
65.88,1636977493.671875
64.39,1636977493.6875
62.84,1636977493.703125
61.85,1636977493.71875
61.64,1636977493.734375
61.99,1636977493.75
62.39,1636977493.765625
62.31,1636977493.78125
61.47,1636977493.796875
59.85,1636977493.8125
57.65,1636977493.828125
55.11,1636977493.84375
52.27,1636977493.859375
48.96,1636977493.875
44.87,1636977493.890625
39.75,1636977493.90625
33.56,1636977493.921875
26.52,1636977493.9375
19.03,1636977493.953125
11.49,1636977493.96875
4.19,1636977493.984375
-2.73,1636977494.0
-9.34,1636977494.015625
-15.85,1636977494.03125
-22.56,1636977494.046875
-29.82,1636977494.0625
-37.94,1636977494.078125
-47.08,1636977494.09375
-57.17,1636977494.109375
-67.79,1636977494.125
-78.11,1636977494.140625
-86.89,1636977494.15625
-92.61,1636977494.171875
-93.84,1636977494.1875
-89.6,1636977494.203125
-79.77,1636977494.21875
-65.2,1636977494.234375
-47.56,1636977494.25
-28.86,1636977494.265625
-10.86,1636977494.28125
5.27,1636977494.296875
19.14,1636977494.3125
30.83,1636977494.328125
40.59,1636977494.34375
48.53,1636977494.359375
54.5,1636977494.375
58.29,1636977494.390625
59.84,1636977494.40625
59.38,1636977494.421875
57.45,1636977494.4375
54.82,1636977494.453125
52.15,1636977494.46875
49.93,1636977494.484375
48.34,1636977494.5
47.31,1636977494.515625
46.57,1636977494.53125
45.74,1636977494.546875
44.48,1636977494.5625
42.46,1636977494.578125
39.54,1636977494.59375
35.71,1636977494.609375
31.1,1636977494.625
25.88,1636977494.640625
20.21,1636977494.65625
14.17,1636977494.671875
7.77,1636977494.6875
1.03,1636977494.703125
-5.97,1636977494.71875
-13.06,1636977494.734375
-20.03,1636977494.75
-26.69,1636977494.765625
-32.92,1636977494.78125
-38.72,1636977494.796875
-44.18,1636977494.8125
-49.48,1636977494.828125
-54.9,1636977494.84375
-60.82,1636977494.859375
-67.62,1636977494.875
-75.6,1636977494.890625
-84.74,1636977494.90625
-94.44,1636977494.921875
-103.5,1636977494.9375
-110.18,1636977494.953125
-112.69,1636977494.96875
-109.69,1636977494.984375
-100.78,1636977495.0
-86.64,1636977495.015625
-68.85,1636977495.03125
-49.38,1636977495.046875
-29.97,1636977495.0625
-11.78,1636977495.078125
4.72,1636977495.09375
19.52,1636977495.109375
32.71,1636977495.125
44.24,1636977495.140625
53.86,1636977495.15625
61.18,1636977495.171875
65.96,1636977495.1875
68.24,1636977495.203125
68.44,1636977495.21875
67.22,1636977495.234375
65.33,1636977495.25
63.33,1636977495.265625
61.54,1636977495.28125
60.01,1636977495.296875
58.71,1636977495.3125
57.53,1636977495.328125
56.41,1636977495.34375
55.28,1636977495.359375
53.95,1636977495.375
52.13,1636977495.390625
49.43,1636977495.40625
45.55,1636977495.421875
40.45,1636977495.4375
34.4,1636977495.453125
27.94,1636977495.46875
21.67,1636977495.484375
15.97,1636977495.5
10.87,1636977495.515625
6.01,1636977495.53125
0.88,1636977495.546875
-4.92,1636977495.5625
-11.46,1636977495.578125
-18.46,1636977495.59375
-25.37,1636977495.609375
-31.73,1636977495.625
-37.41,1636977495.640625
-42.7,1636977495.65625
-48.19,1636977495.671875
-54.58,1636977495.6875
-62.35,1636977495.703125
-71.65,1636977495.71875
-82.1,1636977495.734375
-92.76,1636977495.75
-102.23,1636977495.765625
-108.79,1636977495.78125
-110.83,1636977495.796875
-107.29,1636977495.8125
-98.02,1636977495.828125
-83.85,1636977495.84375
-66.4,1636977495.859375
-47.48,1636977495.875
-28.64,1636977495.890625
-10.8,1636977495.90625
5.71,1636977495.921875
20.95,1636977495.9375
34.92,1636977495.953125
47.4,1636977495.96875
57.91,1636977495.984375
65.83,1636977496.0
70.89,1636977496.015625
73.23,1636977496.03125
73.58,1636977496.046875
72.97,1636977496.0625
72.27,1636977496.078125
71.99,1636977496.09375
72.01,1636977496.109375
71.84,1636977496.125
70.98,1636977496.140625
69.25,1636977496.15625
66.91,1636977496.171875
64.43,1636977496.1875
62.19,1636977496.203125
60.15,1636977496.21875
57.92,1636977496.234375
54.88,1636977496.25
50.64,1636977496.265625
45.24,1636977496.28125
39.14,1636977496.296875
33.02,1636977496.3125
27.45,1636977496.328125
22.64,1636977496.34375
18.36,1636977496.359375
14.13,1636977496.375
9.37,1636977496.390625
3.72,1636977496.40625
-2.89,1636977496.421875
-10.14,1636977496.4375
-17.49,1636977496.453125
-24.4,1636977496.46875
-30.5,1636977496.484375
-35.88,1636977496.5
-40.95,1636977496.515625
-46.43,1636977496.53125
-53.11,1636977496.546875
-61.47,1636977496.5625
-71.57,1636977496.578125
-82.83,1636977496.59375
-94.02,1636977496.609375
-103.43,1636977496.625
-109.14,1636977496.640625
-109.56,1636977496.65625
-103.86,1636977496.671875
-92.29,1636977496.6875
-76.15,1636977496.703125
-57.39,1636977496.71875
-37.95,1636977496.734375
-19.27,1636977496.75
-2.0,1636977496.765625
13.82,1636977496.78125
28.41,1636977496.796875
41.76,1636977496.8125
53.52,1636977496.828125
63.13,1636977496.84375
70.09,1636977496.859375
74.3,1636977496.875
76.11,1636977496.890625
76.23,1636977496.90625
75.4,1636977496.921875
74.22,1636977496.9375
72.92,1636977496.953125
71.52,1636977496.96875
69.94,1636977496.984375
68.09,1636977497.0
66.06,1636977497.015625
63.97,1636977497.03125
61.9,1636977497.046875
59.86,1636977497.0625
57.7,1636977497.078125
55.17,1636977497.09375
51.97,1636977497.109375
47.88,1636977497.125
42.8,1636977497.140625
36.9,1636977497.15625
30.53,1636977497.171875
24.18,1636977497.1875
18.29,1636977497.203125
13.08,1636977497.21875
8.51,1636977497.234375
4.23,1636977497.25
-0.15,1636977497.265625
-5.0,1636977497.28125
-10.47,1636977497.296875
-16.54,1636977497.3125
-23.03,1636977497.328125
-29.72,1636977497.34375
-36.41,1636977497.359375
-42.9,1636977497.375
-49.09,1636977497.390625
-55.05,1636977497.40625
-61.01,1636977497.421875
-67.39,1636977497.4375
-74.6,1636977497.453125
-82.94,1636977497.46875
-92.3,1636977497.484375
-102.04,1636977497.5
-111.03,1636977497.515625
-117.71,1636977497.53125
-120.47,1636977497.546875
-118.01,1636977497.5625
-109.82,1636977497.578125
-96.33,1636977497.59375
-78.94,1636977497.609375
-59.52,1636977497.625
-39.97,1636977497.640625
-21.57,1636977497.65625
-4.89,1636977497.671875
10.09,1636977497.6875
23.62,1636977497.703125
35.72,1636977497.71875
46.05,1636977497.734375
54.08,1636977497.75
59.41,1636977497.765625
62.07,1636977497.78125
62.57,1636977497.796875
61.75,1636977497.8125
60.45,1636977497.828125
59.24,1636977497.84375
58.31,1636977497.859375
57.54,1636977497.875
56.71,1636977497.890625
55.68,1636977497.90625
54.46,1636977497.921875
53.19,1636977497.9375
51.99,1636977497.953125
50.84,1636977497.96875
49.63,1636977497.984375
48.16,1636977498.0
46.26,1636977498.015625
43.85,1636977498.03125
40.95,1636977498.046875
37.64,1636977498.0625
34.01,1636977498.078125
30.13,1636977498.09375
26.09,1636977498.109375
21.97,1636977498.125
17.85,1636977498.140625
13.74,1636977498.15625
9.59,1636977498.171875
5.26,1636977498.1875
0.63,1636977498.203125
-4.36,1636977498.21875
-9.61,1636977498.234375
-15.0,1636977498.25
-20.35,1636977498.265625
-25.52,1636977498.28125
-30.51,1636977498.296875
-35.39,1636977498.3125
-40.34,1636977498.328125
-45.58,1636977498.34375
-51.4,1636977498.359375
-58.09,1636977498.375
-65.79,1636977498.390625
-74.27,1636977498.40625
-82.81,1636977498.421875
-90.08,1636977498.4375
-94.4,1636977498.453125
-94.24,1636977498.46875
-88.67,1636977498.484375
-77.79,1636977498.5
-62.67,1636977498.515625
-45.06,1636977498.53125
-26.85,1636977498.546875
-9.55,1636977498.5625
5.99,1636977498.578125
19.5,1636977498.59375
31.12,1636977498.609375
41.03,1636977498.625
49.29,1636977498.640625
55.83,1636977498.65625
60.54,1636977498.671875
63.43,1636977498.6875
64.74,1636977498.703125
64.86,1636977498.71875
64.32,1636977498.734375
63.49,1636977498.75
62.62,1636977498.765625
61.71,1636977498.78125
60.68,1636977498.796875
59.43,1636977498.8125
57.99,1636977498.828125
56.44,1636977498.84375
54.85,1636977498.859375
53.14,1636977498.875
51.11,1636977498.890625
48.51,1636977498.90625
45.16,1636977498.921875
41.11,1636977498.9375
36.58,1636977498.953125
31.87,1636977498.96875
27.23,1636977498.984375
22.71,1636977499.0
18.2,1636977499.015625
13.53,1636977499.03125
8.64,1636977499.046875
3.58,1636977499.0625
-1.49,1636977499.078125
-6.43,1636977499.09375
-11.16,1636977499.109375
-15.74,1636977499.125
-20.27,1636977499.140625
-24.85,1636977499.15625
-29.57,1636977499.171875
-34.4,1636977499.1875
-39.27,1636977499.203125
-44.05,1636977499.21875
-48.63,1636977499.234375
-52.96,1636977499.25
-57.17,1636977499.265625
-61.55,1636977499.28125
-66.55,1636977499.296875
-72.6,1636977499.3125
-79.9,1636977499.328125
-88.09,1636977499.34375
-96.23,1636977499.359375
-102.8,1636977499.375
-106.11,1636977499.390625
-104.8,1636977499.40625
-98.21,1636977499.421875
-86.68,1636977499.4375
-71.42,1636977499.453125
-54.13,1636977499.46875
-36.47,1636977499.484375
-19.68,1636977499.5
-4.38,1636977499.515625
9.28,1636977499.53125
21.39,1636977499.546875
31.96,1636977499.5625
40.79,1636977499.578125
47.62,1636977499.59375
52.27,1636977499.609375
54.85,1636977499.625
55.83,1636977499.640625
55.87,1636977499.65625
55.63,1636977499.671875
55.5,1636977499.6875
55.62,1636977499.703125
55.89,1636977499.71875
56.13,1636977499.734375
56.19,1636977499.75
55.98,1636977499.765625
55.45,1636977499.78125
54.53,1636977499.796875
53.17,1636977499.8125
51.28,1636977499.828125
48.8,1636977499.84375
45.66,1636977499.859375
41.88,1636977499.875
37.47,1636977499.890625
32.51,1636977499.90625
27.09,1636977499.921875
21.41,1636977499.9375
15.71,1636977499.953125
10.26,1636977499.96875
5.26,1636977499.984375
0.7,1636977500.0
-3.63,1636977500.015625
-8.08,1636977500.03125
-13.0,1636977500.046875
-18.52,1636977500.0625
-24.46,1636977500.078125
-30.45,1636977500.09375
-36.02,1636977500.109375
-40.88,1636977500.125
-45.08,1636977500.140625
-48.96,1636977500.15625
-53.06,1636977500.171875
-57.92,1636977500.1875
-63.91,1636977500.203125
-71.13,1636977500.21875
-79.3,1636977500.234375
-87.71,1636977500.25
-95.19,1636977500.265625
-100.34,1636977500.28125
-101.74,1636977500.296875
-98.4,1636977500.3125
-90.09,1636977500.328125
-77.4,1636977500.34375
-61.61,1636977500.359375
-44.28,1636977500.375
-26.85,1636977500.390625
-10.37,1636977500.40625
4.52,1636977500.421875
17.56,1636977500.4375
28.6,1636977500.453125
37.61,1636977500.46875
44.54,1636977500.484375
49.46,1636977500.5
52.57,1636977500.515625
54.18,1636977500.53125
54.8,1636977500.546875
54.93,1636977500.5625
55.04,1636977500.578125
55.41,1636977500.59375
56.09,1636977500.609375
56.89,1636977500.625
57.53,1636977500.640625
57.76,1636977500.65625
57.46,1636977500.671875
56.62,1636977500.6875
55.27,1636977500.703125
53.34,1636977500.71875
50.68,1636977500.734375
47.07,1636977500.75
42.42,1636977500.765625
36.87,1636977500.78125
30.76,1636977500.796875
24.56,1636977500.8125
18.64,1636977500.828125
13.16,1636977500.84375
8.02,1636977500.859375
2.95,1636977500.875
-2.35,1636977500.890625
-8.08,1636977500.90625
-14.22,1636977500.921875
-20.54,1636977500.9375
-26.68,1636977500.953125
-32.35,1636977500.96875
-37.47,1636977500.984375
-42.26,1636977501.0
-47.25,1636977501.015625
-53.09,1636977501.03125
-60.3,1636977501.046875
-69.07,1636977501.0625
-79.04,1636977501.078125
-89.2,1636977501.09375
-98.09,1636977501.109375
-103.96,1636977501.125
-105.26,1636977501.140625
-101.03,1636977501.15625
-91.22,1636977501.171875
-76.75,1636977501.1875
-59.3,1636977501.203125
-40.79,1636977501.21875
-22.91,1636977501.234375
-6.78,1636977501.25
7.16,1636977501.265625
19.01,1636977501.28125
29.08,1636977501.296875
37.65,1636977501.3125
44.84,1636977501.328125
50.59,1636977501.34375
54.77,1636977501.359375
57.36,1636977501.375
58.5,1636977501.390625
58.56,1636977501.40625
58.01,1636977501.421875
57.28,1636977501.4375
56.61,1636977501.453125
56.05,1636977501.46875
55.48,1636977501.484375
54.74,1636977501.5
53.74,1636977501.515625
52.42,1636977501.53125
50.74,1636977501.546875
48.61,1636977501.5625
45.88,1636977501.578125
42.35,1636977501.59375
37.89,1636977501.609375
32.48,1636977501.625
26.25,1636977501.640625
19.52,1636977501.65625
12.72,1636977501.671875
6.32,1636977501.6875
0.64,1636977501.703125
-4.3,1636977501.71875
-8.81,1636977501.734375
-13.48,1636977501.75
-18.8,1636977501.765625
-24.99,1636977501.78125
-31.76,1636977501.796875
-38.56,1636977501.8125
-44.81,1636977501.828125
-50.29,1636977501.84375
-55.25,1636977501.859375
-60.32,1636977501.875
-66.2,1636977501.890625
-73.41,1636977501.90625
-82.06,1636977501.921875
-91.78,1636977501.9375
-101.78,1636977501.953125
-110.83,1636977501.96875
-117.4,1636977501.984375
-119.91,1636977502.0
-117.08,1636977502.015625
-108.39,1636977502.03125
-94.32,1636977502.046875
-76.32,1636977502.0625
-56.37,1636977502.078125
-36.41,1636977502.09375
-17.75,1636977502.109375
-0.93,1636977502.125
14.15,1636977502.140625
27.81,1636977502.15625
40.16,1636977502.171875
51.03,1636977502.1875
60.01,1636977502.203125
66.8,1636977502.21875
71.37,1636977502.234375
74.08,1636977502.25
75.46,1636977502.265625
76.07,1636977502.28125
76.26,1636977502.296875
76.2,1636977502.3125
75.88,1636977502.328125
75.26,1636977502.34375
74.33,1636977502.359375
73.13,1636977502.375
71.69,1636977502.390625
69.97,1636977502.40625
67.89,1636977502.421875
65.25,1636977502.4375
61.87,1636977502.453125
57.57,1636977502.46875
52.32,1636977502.484375
46.26,1636977502.5
39.72,1636977502.515625
33.15,1636977502.53125
26.98,1636977502.546875
21.37,1636977502.5625
16.18,1636977502.578125
10.97,1636977502.59375
5.28,1636977502.609375
-1.22,1636977502.625
-8.47,1636977502.640625
-16.1,1636977502.65625
-23.56,1636977502.671875
-30.38,1636977502.6875
-36.44,1636977502.703125
-41.97,1636977502.71875
-47.5,1636977502.734375
-53.69,1636977502.75
-61.11,1636977502.765625
-70.1,1636977502.78125
-80.54,1636977502.796875
-91.73,1636977502.8125
-102.35,1636977502.828125
-110.58,1636977502.84375
-114.53,1636977502.859375
-112.76,1636977502.875
-104.78,1636977502.890625
-91.25,1636977502.90625
-73.77,1636977502.921875
-54.42,1636977502.9375
-35.06,1636977502.953125
-16.92,1636977502.96875
-0.5,1636977502.984375
14.23,1636977503.0
27.47,1636977503.015625
39.28,1636977503.03125
49.45,1636977503.046875
57.69,1636977503.0625
63.75,1636977503.078125
67.68,1636977503.09375
69.8,1636977503.109375
70.57,1636977503.125
70.51,1636977503.140625
69.96,1636977503.15625
69.12,1636977503.171875
68.08,1636977503.1875
66.91,1636977503.203125
65.74,1636977503.21875
64.69,1636977503.234375
63.8,1636977503.25
62.89,1636977503.265625
61.59,1636977503.28125
59.39,1636977503.296875
55.84,1636977503.3125
50.78,1636977503.328125
44.35,1636977503.34375
37.02,1636977503.359375
29.4,1636977503.375
22.13,1636977503.390625
15.55,1636977503.40625
9.76,1636977503.421875
4.53,1636977503.4375
-0.51,1636977503.453125
-5.74,1636977503.46875
-11.4,1636977503.484375
-17.49,1636977503.5
-23.81,1636977503.515625
-30.09,1636977503.53125
-36.1,1636977503.546875
-41.78,1636977503.5625
-47.28,1636977503.578125
-52.97,1636977503.59375
-59.33,1636977503.609375
-66.86,1636977503.625
-75.81,1636977503.640625
-85.97,1636977503.65625
-96.42,1636977503.671875
-105.64,1636977503.6875
-111.65,1636977503.703125
-112.61,1636977503.71875
-107.32,1636977503.734375
-95.79,1636977503.75
-79.18,1636977503.765625
-59.61,1636977503.78125
-39.36,1636977503.796875
-20.27,1636977503.8125
-3.3,1636977503.828125
11.45,1636977503.84375
24.32,1636977503.859375
35.59,1636977503.875
45.22,1636977503.890625
52.86,1636977503.90625
58.11,1636977503.921875
61.0,1636977503.9375
62.0,1636977503.953125
61.96,1636977503.96875
61.75,1636977503.984375
61.88,1636977504.0
62.4,1636977504.015625
63.02,1636977504.03125
63.4,1636977504.046875
63.36,1636977504.0625
62.93,1636977504.078125
62.28,1636977504.09375
61.54,1636977504.109375
60.71,1636977504.125
59.62,1636977504.140625
57.96,1636977504.15625
55.45,1636977504.171875
51.86,1636977504.1875
47.08,1636977504.203125
41.26,1636977504.21875
34.71,1636977504.234375
27.89,1636977504.25
21.3,1636977504.265625
15.25,1636977504.28125
9.79,1636977504.296875
4.65,1636977504.3125
-0.65,1636977504.328125
-6.49,1636977504.34375
-13.03,1636977504.359375
-20.13,1636977504.375
-27.38,1636977504.390625
-34.37,1636977504.40625
-40.86,1636977504.421875
-46.88,1636977504.4375
-52.71,1636977504.453125
-58.75,1636977504.46875
-65.38,1636977504.484375
-72.88,1636977504.5
-81.4,1636977504.515625
-90.83,1636977504.53125
-100.64,1636977504.546875
-109.77,1636977504.5625
-116.64,1636977504.578125
-119.45,1636977504.59375
-116.78,1636977504.609375
-108.09,1636977504.625
-94.02,1636977504.640625
-76.21,1636977504.65625
-56.76,1636977504.671875
-37.52,1636977504.6875
-19.65,1636977504.703125
-3.55,1636977504.71875
10.96,1636977504.734375
24.15,1636977504.75
36.04,1636977504.765625
46.39,1636977504.78125
54.8,1636977504.796875
61.02,1636977504.8125
65.12,1636977504.828125
67.5,1636977504.84375
68.75,1636977504.859375
69.44,1636977504.875
69.88,1636977504.890625
70.09,1636977504.90625
69.96,1636977504.921875
69.39,1636977504.9375
68.42,1636977504.953125
67.25,1636977504.96875
66.03,1636977504.984375
64.76,1636977505.0
63.16,1636977505.015625
60.76,1636977505.03125
57.12,1636977505.046875
52.04,1636977505.0625
45.67,1636977505.078125
38.49,1636977505.09375
31.12,1636977505.109375
24.09,1636977505.125
17.7,1636977505.140625
11.94,1636977505.15625
6.52,1636977505.171875
1.03,1636977505.1875
-4.9,1636977505.203125
-11.43,1636977505.21875
-18.42,1636977505.234375
-25.52,1636977505.25
-32.25,1636977505.265625
-38.28,1636977505.28125
-43.64,1636977505.296875
-48.72,1636977505.3125
-54.24,1636977505.328125
-60.95,1636977505.34375
-69.36,1636977505.359375
-79.45,1636977505.375
-90.5,1636977505.390625
-101.17,1636977505.40625
-109.64,1636977505.421875
-114.08,1636977505.4375
-113.02,1636977505.453125
-105.81,1636977505.46875
-92.9,1636977505.484375
-75.69,1636977505.5
-56.17,1636977505.515625
-36.34,1636977505.53125
-17.66,1636977505.546875
-0.83,1636977505.5625
14.15,1636977505.578125
27.56,1636977505.59375
39.66,1636977505.609375
50.33,1636977505.625
59.17,1636977505.640625
65.7,1636977505.65625
69.68,1636977505.671875
71.32,1636977505.6875
71.17,1636977505.703125
70.01,1636977505.71875
68.5,1636977505.734375
66.95,1636977505.75
65.41,1636977505.765625
63.67,1636977505.78125
61.54,1636977505.796875
58.96,1636977505.8125
56.07,1636977505.828125
53.09,1636977505.84375
50.19,1636977505.859375
47.26,1636977505.875
44.01,1636977505.890625
39.96,1636977505.90625
34.71,1636977505.921875
28.11,1636977505.9375
20.31,1636977505.953125
11.79,1636977505.96875
3.16,1636977505.984375
-5.02,1636977506.0
-12.42,1636977506.015625
-19.02,1636977506.03125
-25.02,1636977506.046875
-30.83,1636977506.0625
-36.89,1636977506.078125
-43.62,1636977506.09375
-51.42,1636977506.109375
-60.48,1636977506.125
-70.7,1636977506.140625
-81.47,1636977506.15625
-91.6,1636977506.171875
-99.38,1636977506.1875
-102.91,1636977506.203125
-100.71,1636977506.21875
-92.22,1636977506.234375
-78.11,1636977506.25
-60.1,1636977506.265625
-40.44,1636977506.28125
-21.21,1636977506.296875
-3.73,1636977506.3125
11.52,1636977506.328125
24.71,1636977506.34375
36.17,1636977506.359375
46.01,1636977506.375
54.02,1636977506.390625
59.88,1636977506.40625
63.43,1636977506.421875
64.88,1636977506.4375
64.83,1636977506.453125
64.0,1636977506.46875
62.98,1636977506.484375
62.07,1636977506.5
61.23,1636977506.515625
60.19,1636977506.53125
58.7,1636977506.546875
56.6,1636977506.5625
53.97,1636977506.578125
51.04,1636977506.59375
48.07,1636977506.609375
45.18,1636977506.625
42.22,1636977506.640625
38.82,1636977506.65625
34.49,1636977506.671875
28.84,1636977506.6875
21.8,1636977506.703125
13.68,1636977506.71875
5.06,1636977506.734375
-3.41,1636977506.75
-11.23,1636977506.765625
-18.19,1636977506.78125
-24.29,1636977506.796875
-29.76,1636977506.8125
-34.93,1636977506.828125
-40.18,1636977506.84375
-45.99,1636977506.859375
-52.87,1636977506.875
-61.18,1636977506.890625
-70.88,1636977506.90625
-81.32,1636977506.921875
-91.13,1636977506.9375
-98.49,1636977506.953125
-101.54,1636977506.96875
-98.97,1636977506.984375
-90.49,1636977507.0
-76.93,1636977507.015625
-59.96,1636977507.03125
-41.6,1636977507.046875
-23.52,1636977507.0625
-6.74,1636977507.078125
8.42,1636977507.09375
22.0,1636977507.109375
34.09,1636977507.125
44.51,1636977507.140625
52.92,1636977507.15625
58.98,1636977507.171875
62.67,1636977507.1875
64.33,1636977507.203125
64.57,1636977507.21875
64.08,1636977507.234375
63.35,1636977507.25
62.58,1636977507.265625
61.75,1636977507.28125
60.75,1636977507.296875
59.51,1636977507.3125
58.04,1636977507.328125
56.4,1636977507.34375
54.61,1636977507.359375
52.55,1636977507.375
50.04,1636977507.390625
46.83,1636977507.40625
42.74,1636977507.421875
37.75,1636977507.4375
31.93,1636977507.453125
25.52,1636977507.46875
18.74,1636977507.484375
11.81,1636977507.5
4.84,1636977507.515625
-2.13,1636977507.53125
-9.06,1636977507.546875
-15.88,1636977507.5625
-22.48,1636977507.578125
-28.63,1636977507.59375
-34.2,1636977507.609375
-39.23,1636977507.625
-44.08,1636977507.640625
-49.36,1636977507.65625
-55.83,1636977507.671875
-64.01,1636977507.6875
-73.79,1636977507.703125
-84.27,1636977507.71875
-93.76,1636977507.734375
-100.22,1636977507.75
-101.83,1636977507.765625
-97.55,1636977507.78125
-87.41,1636977507.796875
-72.45,1636977507.8125
-54.37,1636977507.828125
-35.02,1636977507.84375
-15.96,1636977507.859375
1.76,1636977507.875
17.62,1636977507.890625
31.42,1636977507.90625
43.12,1636977507.921875
52.66,1636977507.9375
59.99,1636977507.953125
65.11,1636977507.96875
68.22,1636977507.984375
69.63,1636977508.0
69.81,1636977508.015625
69.16,1636977508.03125
67.97,1636977508.046875
66.4,1636977508.0625
64.55,1636977508.078125
62.49,1636977508.09375
60.4,1636977508.109375
58.43,1636977508.125
56.65,1636977508.140625
54.94,1636977508.15625
52.97,1636977508.171875
50.28,1636977508.1875
46.58,1636977508.203125
41.81,1636977508.21875
36.21,1636977508.234375
30.23,1636977508.25
24.28,1636977508.265625
18.5,1636977508.28125
12.74,1636977508.296875
6.6,1636977508.3125
-0.31,1636977508.328125
-8.14,1636977508.34375
-16.7,1636977508.359375
-25.46,1636977508.375
-33.82,1636977508.390625
-41.24,1636977508.40625
-47.54,1636977508.421875
-52.9,1636977508.4375
-57.89,1636977508.453125
-63.27,1636977508.46875
-69.82,1636977508.484375
-78.0,1636977508.5
-87.72,1636977508.515625
-98.1,1636977508.53125
-107.56,1636977508.546875
-114.11,1636977508.5625
-115.9,1636977508.578125
-111.78,1636977508.59375
-101.72,1636977508.609375
-86.8,1636977508.625
-68.79,1636977508.640625
-49.61,1636977508.65625
-30.74,1636977508.671875
-13.01,1636977508.6875
3.29,1636977508.703125
18.05,1636977508.71875
31.07,1636977508.734375
41.97,1636977508.75
50.32,1636977508.765625
55.92,1636977508.78125
58.94,1636977508.796875
59.96,1636977508.8125
59.78,1636977508.828125
59.12,1636977508.84375
58.53,1636977508.859375
58.24,1636977508.875
58.24,1636977508.890625
58.36,1636977508.90625
58.4,1636977508.921875
58.24,1636977508.9375
57.87,1636977508.953125
57.37,1636977508.96875
56.76,1636977508.984375
55.87,1636977509.0
54.35,1636977509.015625
51.69,1636977509.03125
47.56,1636977509.046875
41.88,1636977509.0625
35.09,1636977509.078125
27.9,1636977509.09375
21.05,1636977509.109375
15.05,1636977509.125
9.9,1636977509.140625
5.23,1636977509.15625
0.42,1636977509.171875
-5.09,1636977509.1875
-11.51,1636977509.203125
-18.71,1636977509.21875
-26.18,1636977509.234375
-33.33,1636977509.25
-39.69,1636977509.265625
-45.14,1636977509.28125
-49.92,1636977509.296875
-54.63,1636977509.3125
-60.0,1636977509.328125
-66.73,1636977509.34375
-75.13,1636977509.359375
-84.88,1636977509.375
-94.91,1636977509.390625
-103.45,1636977509.40625
-108.42,1636977509.421875
-108.02,1636977509.4375
-101.38,1636977509.453125
-88.82,1636977509.46875
-71.83,1636977509.484375
-52.49,1636977509.5
-32.83,1636977509.515625
-14.34,1636977509.53125
2.25,1636977509.546875
16.8,1636977509.5625
29.44,1636977509.578125
40.26,1636977509.59375
49.2,1636977509.609375
56.17,1636977509.625
61.12,1636977509.640625
64.22,1636977509.65625
65.84,1636977509.671875
66.48,1636977509.6875
66.62,1636977509.703125
66.56,1636977509.71875
66.46,1636977509.734375
66.23,1636977509.75
65.76,1636977509.765625
65.0,1636977509.78125
64.01,1636977509.796875
62.96,1636977509.8125
61.92,1636977509.828125
60.77,1636977509.84375
59.12,1636977509.859375
56.48,1636977509.875
52.43,1636977509.890625
46.92,1636977509.90625
40.28,1636977509.921875
33.14,1636977509.9375
26.21,1636977509.953125
19.97,1636977509.96875
14.55,1636977509.984375
9.73,1636977510.0
5.11,1636977510.015625
0.32,1636977510.03125
-4.84,1636977510.046875
-10.3,1636977510.0625
-15.84,1636977510.078125
-21.19,1636977510.09375
-26.23,1636977510.109375
-30.97,1636977510.125
-35.66,1636977510.140625
-40.69,1636977510.15625
-46.5,1636977510.171875
-53.49,1636977510.1875
-61.81,1636977510.203125
-71.18,1636977510.21875
-80.77,1636977510.234375
-89.2,1636977510.25
-94.74,1636977510.265625
-95.82,1636977510.28125
-91.45,1636977510.296875
-81.64,1636977510.3125
-67.38,1636977510.328125
-50.37,1636977510.34375
-32.44,1636977510.359375
-15.11,1636977510.375
0.75,1636977510.390625
14.83,1636977510.40625
27.13,1636977510.421875
37.61,1636977510.4375
46.14,1636977510.453125
52.46,1636977510.46875
56.45,1636977510.484375
58.25,1636977510.5
58.3,1636977510.515625
57.17,1636977510.53125
55.4,1636977510.546875
53.37,1636977510.5625
51.27,1636977510.578125
49.18,1636977510.59375
47.13,1636977510.609375
45.2,1636977510.625
43.46,1636977510.640625
41.89,1636977510.65625
40.36,1636977510.671875
38.59,1636977510.6875
36.22,1636977510.703125
32.97,1636977510.71875
28.74,1636977510.734375
23.63,1636977510.75
17.94,1636977510.765625
12.01,1636977510.78125
6.1,1636977510.796875
0.29,1636977510.8125
-5.56,1636977510.828125
-11.73,1636977510.84375
-18.46,1636977510.859375
-25.84,1636977510.875
-33.65,1636977510.890625
-41.44,1636977510.90625
-48.67,1636977510.921875
-54.93,1636977510.9375
-60.18,1636977510.953125
-64.8,1636977510.96875
-69.59,1636977510.984375
-75.47,1636977511.0
-83.11,1636977511.015625
-92.7,1636977511.03125
-103.6,1636977511.046875
-114.37,1636977511.0625
-122.96,1636977511.078125
-127.19,1636977511.09375
-125.39,1636977511.109375
-116.9,1636977511.125
-102.32,1636977511.140625
-83.37,1636977511.15625
-62.34,1636977511.171875
-41.42,1636977511.1875
-22.12,1636977511.203125
-5.1,1636977511.21875
9.72,1636977511.234375
22.71,1636977511.25
34.13,1636977511.265625
44.0,1636977511.28125
52.04,1636977511.296875
58.06,1636977511.3125
62.05,1636977511.328125
64.35,1636977511.34375
65.44,1636977511.359375
65.86,1636977511.375
65.87,1636977511.390625
65.61,1636977511.40625
65.02,1636977511.421875
64.13,1636977511.4375
63.11,1636977511.453125
62.24,1636977511.46875
61.78,1636977511.484375
61.71,1636977511.5
61.64,1636977511.515625
60.92,1636977511.53125
58.84,1636977511.546875
54.99,1636977511.5625
49.44,1636977511.578125
42.74,1636977511.59375
35.69,1636977511.609375
29.01,1636977511.625
23.03,1636977511.640625
17.64,1636977511.65625
12.33,1636977511.671875
6.59,1636977511.6875
0.09,1636977511.703125
-7.15,1636977511.71875
-14.83,1636977511.734375
-22.49,1636977511.75
-29.76,1636977511.765625
-36.47,1636977511.78125
-42.71,1636977511.796875
-48.79,1636977511.8125
-55.13,1636977511.828125
-62.21,1636977511.84375
-70.33,1636977511.859375
-79.55,1636977511.875
-89.41,1636977511.890625
-98.81,1636977511.90625
-106.08,1636977511.921875
-109.29,1636977511.9375
-106.81,1636977511.953125
-97.89,1636977511.96875
-83.02,1636977511.984375
-63.83,1636977512.0
-42.6,1636977512.015625
-21.57,1636977512.03125
-2.28,1636977512.046875
14.6,1636977512.0625
29.1,1636977512.078125
41.55,1636977512.09375
52.13,1636977512.109375
60.84,1636977512.125
67.54,1636977512.140625
72.22,1636977512.15625
75.13,1636977512.171875
76.66,1636977512.1875
77.21,1636977512.203125
77.04,1636977512.21875
76.24,1636977512.234375
74.88,1636977512.25
73.11,1636977512.265625
71.21,1636977512.28125
69.46,1636977512.296875
68.02,1636977512.3125
66.84,1636977512.328125
65.6,1636977512.34375
63.89,1636977512.359375
61.32,1636977512.375
57.6,1636977512.390625
52.65,1636977512.40625
46.53,1636977512.421875
39.5,1636977512.4375
31.98,1636977512.453125
24.46,1636977512.46875
17.36,1636977512.484375
10.85,1636977512.5
4.76,1636977512.515625
-1.3,1636977512.53125
-7.74,1636977512.546875
-14.71,1636977512.5625
-21.97,1636977512.578125
-29.02,1636977512.59375
-35.36,1636977512.609375
-40.82,1636977512.625
-45.75,1636977512.640625
-50.92,1636977512.65625
-57.27,1636977512.671875
-65.36,1636977512.6875
-75.09,1636977512.703125
-85.52,1636977512.71875
-95.06,1636977512.734375
-101.84,1636977512.75
-104.22,1636977512.765625
-101.25,1636977512.78125
-92.91,1636977512.796875
-80.08,1636977512.8125
-64.25,1636977512.828125
-47.13,1636977512.84375
-30.16,1636977512.859375
-14.34,1636977512.875
-0.18,1636977512.890625
12.13,1636977512.90625
22.48,1636977512.921875
30.71,1636977512.9375
36.67,1636977512.953125
40.4,1636977512.96875
42.21,1636977512.984375
42.7,1636977513.0
42.56,1636977513.015625
42.37,1636977513.03125
42.45,1636977513.046875
42.8,1636977513.0625
43.29,1636977513.078125
43.75,1636977513.09375
44.08,1636977513.109375
44.18,1636977513.125
43.94,1636977513.140625
43.25,1636977513.15625
41.95,1636977513.171875
39.96,1636977513.1875
37.23,1636977513.203125
33.79,1636977513.21875
29.65,1636977513.234375
24.9,1636977513.25
19.68,1636977513.265625
14.23,1636977513.28125
8.84,1636977513.296875
3.72,1636977513.3125
-1.16,1636977513.328125
-6.06,1636977513.34375
-11.41,1636977513.359375
-17.5,1636977513.375
-24.31,1636977513.390625
-31.45,1636977513.40625
-38.34,1636977513.421875
-44.46,1636977513.4375
-49.72,1636977513.453125
-54.46,1636977513.46875
-59.41,1636977513.484375
-65.34,1636977513.5
-72.73,1636977513.515625
-81.49,1636977513.53125
-90.77,1636977513.546875
-99.16,1636977513.5625
-104.79,1636977513.578125
-105.92,1636977513.59375
-101.3,1636977513.609375
-90.67,1636977513.625
-74.88,1636977513.640625
-55.67,1636977513.65625
-35.21,1636977513.671875
-15.42,1636977513.6875
2.48,1636977513.703125
18.13,1636977513.71875
31.76,1636977513.734375
43.73,1636977513.75
54.16,1636977513.765625
62.79,1636977513.78125
69.26,1636977513.796875
73.37,1636977513.8125
75.34,1636977513.828125
75.77,1636977513.84375
75.37,1636977513.859375
74.67,1636977513.875
73.82,1636977513.890625
72.68,1636977513.90625
71.03,1636977513.921875
68.84,1636977513.9375
66.4,1636977513.953125
64.13,1636977513.96875
62.38,1636977513.984375
61.17,1636977514.0
60.17,1636977514.015625
58.71,1636977514.03125
56.15,1636977514.046875
52.01,1636977514.0625
46.23,1636977514.078125
39.19,1636977514.09375
31.62,1636977514.109375
24.33,1636977514.125
17.98,1636977514.140625
12.77,1636977514.15625
8.39,1636977514.171875
4.17,1636977514.1875
-0.58,1636977514.203125
-6.24,1636977514.21875
-12.66,1636977514.234375
-19.33,1636977514.25
-25.59,1636977514.265625
-31.04,1636977514.28125
-35.76,1636977514.296875
-40.23,1636977514.3125
-45.1,1636977514.328125
-50.99,1636977514.34375
-58.21,1636977514.359375
-66.75,1636977514.375
-76.16,1636977514.390625
-85.5,1636977514.40625
-93.37,1636977514.421875
-98.16,1636977514.4375
-98.39,1636977514.453125
-93.21,1636977514.46875
-82.72,1636977514.484375
-67.97,1636977514.5
-50.68,1636977514.515625
-32.67,1636977514.53125
-15.32,1636977514.546875
0.57,1636977514.5625
14.74,1636977514.578125
27.23,1636977514.59375
38.01,1636977514.609375
46.92,1636977514.625
53.74,1636977514.640625
58.44,1636977514.65625
61.17,1636977514.671875
62.32,1636977514.6875
62.41,1636977514.703125
61.86,1636977514.71875
60.99,1636977514.734375
59.94,1636977514.75
58.74,1636977514.765625
57.37,1636977514.78125
55.79,1636977514.796875
54.0,1636977514.8125
52.05,1636977514.828125
50.06,1636977514.84375
48.15,1636977514.859375
46.32,1636977514.875
44.34,1636977514.890625
41.81,1636977514.90625
38.33,1636977514.921875
33.67,1636977514.9375
27.98,1636977514.953125
21.79,1636977514.96875
15.73,1636977514.984375
10.24,1636977515.0
5.35,1636977515.015625
0.69,1636977515.03125
-4.28,1636977515.046875
-9.95,1636977515.0625
-16.4,1636977515.078125
-23.36,1636977515.09375
-30.34,1636977515.109375
-36.83,1636977515.125
-42.55,1636977515.140625
-47.49,1636977515.15625
-51.95,1636977515.171875
-56.5,1636977515.1875
-61.75,1636977515.203125
-68.22,1636977515.21875
-75.99,1636977515.234375
-84.64,1636977515.25
-93.1,1636977515.265625
-99.88,1636977515.28125
-103.36,1636977515.296875
-102.2,1636977515.3125
-95.74,1636977515.328125
-84.26,1636977515.34375
-68.83,1636977515.359375
-51.08,1636977515.375
-32.78,1636977515.390625
-15.39,1636977515.40625
0.15,1636977515.421875
13.43,1636977515.4375
24.44,1636977515.453125
33.33,1636977515.46875
40.28,1636977515.484375
45.39,1636977515.5
48.75,1636977515.515625
50.54,1636977515.53125
51.07,1636977515.546875
50.81,1636977515.5625
50.21,1636977515.578125
49.63,1636977515.59375
49.25,1636977515.609375
49.02,1636977515.625
48.79,1636977515.640625
48.36,1636977515.65625
47.63,1636977515.671875
46.61,1636977515.6875
45.36,1636977515.703125
43.94,1636977515.71875
42.24,1636977515.734375
40.11,1636977515.75
37.33,1636977515.765625
33.8,1636977515.78125
29.58,1636977515.796875
24.92,1636977515.8125
20.2,1636977515.828125
15.75,1636977515.84375
11.72,1636977515.859375
7.97,1636977515.875
4.14,1636977515.890625
-0.25,1636977515.90625
-5.53,1636977515.921875
-11.77,1636977515.9375
-18.61,1636977515.953125
-25.49,1636977515.96875
-31.75,1636977515.984375
-36.96,1636977516.0
-41.09,1636977516.015625
-44.49,1636977516.03125
-47.77,1636977516.046875
-51.62,1636977516.0625
-56.55,1636977516.078125
-62.84,1636977516.09375
-70.45,1636977516.109375
-78.91,1636977516.125
-87.29,1636977516.140625
-94.12,1636977516.15625
-97.7,1636977516.171875
-96.42,1636977516.1875
-89.35,1636977516.203125
-76.74,1636977516.21875
-59.97,1636977516.234375
-41.23,1636977516.25
-22.75,1636977516.265625
-6.1,1636977516.28125
8.1,1636977516.296875
20.08,1636977516.3125
30.46,1636977516.328125
39.66,1636977516.34375
47.69,1636977516.359375
54.18,1636977516.375
58.76,1636977516.390625
61.31,1636977516.40625
62.13,1636977516.421875
61.84,1636977516.4375
61.12,1636977516.453125
60.42,1636977516.46875
59.94,1636977516.484375
59.61,1636977516.5
59.23,1636977516.515625
58.62,1636977516.53125
57.71,1636977516.546875
56.58,1636977516.5625
55.31,1636977516.578125
53.92,1636977516.59375
52.24,1636977516.609375
49.96,1636977516.625
46.75,1636977516.640625
42.44,1636977516.65625
37.11,1636977516.671875
31.04,1636977516.6875
24.71,1636977516.703125
18.52,1636977516.71875
12.79,1636977516.734375
7.56,1636977516.75
2.71,1636977516.765625
-2.0,1636977516.78125
-6.84,1636977516.796875
-12.0,1636977516.8125
-17.53,1636977516.828125
-23.32,1636977516.84375
-29.13,1636977516.859375
-34.68,1636977516.875
-39.79,1636977516.890625
-44.51,1636977516.90625
-49.16,1636977516.921875
-54.22,1636977516.9375
-60.14,1636977516.953125
-67.25,1636977516.96875
-75.47,1636977516.984375
-84.29,1636977517.0
-92.68,1636977517.015625
-99.25,1636977517.03125
-102.5,1636977517.046875
-101.17,1636977517.0625
-94.66,1636977517.078125
-83.21,1636977517.09375
-67.92,1636977517.109375
-50.43,1636977517.125
-32.47,1636977517.140625
-15.45,1636977517.15625
-0.2,1636977517.171875
12.99,1636977517.1875
24.2,1636977517.203125
33.5,1636977517.21875
40.88,1636977517.234375
46.25,1636977517.25
49.59,1636977517.265625
51.18,1636977517.28125
51.57,1636977517.296875
51.47,1636977517.3125
51.44,1636977517.328125
51.71,1636977517.34375
52.07,1636977517.359375
52.16,1636977517.375
51.74,1636977517.390625
50.82,1636977517.40625
49.67,1636977517.421875
48.6,1636977517.4375
47.73,1636977517.453125
46.85,1636977517.46875
45.57,1636977517.484375
43.44,1636977517.5
40.26,1636977517.515625
36.1,1636977517.53125
31.26,1636977517.546875
26.09,1636977517.5625
20.92,1636977517.578125
15.94,1636977517.59375
11.2,1636977517.609375
6.71,1636977517.625
2.39,1636977517.640625
-1.87,1636977517.65625
-6.23,1636977517.671875
-10.83,1636977517.6875
-15.68,1636977517.703125
-20.66,1636977517.71875
-25.54,1636977517.734375
-30.14,1636977517.75
-34.41,1636977517.765625
-38.61,1636977517.78125
-43.13,1636977517.796875
-48.48,1636977517.8125
-55.0,1636977517.828125
-62.65,1636977517.84375
-70.93,1636977517.859375
-78.78,1636977517.875
-84.82,1636977517.890625
-87.57,1636977517.90625
-85.85,1636977517.921875
-79.13,1636977517.9375
-67.79,1636977517.953125
-53.02,1636977517.96875
-36.51,1636977517.984375
-19.96,1636977518.0
-4.62,1636977518.015625
8.88,1636977518.03125
20.49,1636977518.046875
30.37,1636977518.0625
38.64,1636977518.078125
45.26,1636977518.09375
50.08,1636977518.109375
53.04,1636977518.125
54.32,1636977518.140625
54.26,1636977518.15625
53.31,1636977518.171875
51.81,1636977518.1875
50.03,1636977518.203125
48.16,1636977518.21875
46.41,1636977518.234375
45.05,1636977518.25
44.24,1636977518.265625
43.99,1636977518.28125
44.07,1636977518.296875
44.04,1636977518.3125
43.44,1636977518.328125
41.86,1636977518.34375
39.06,1636977518.359375
34.96,1636977518.375
29.71,1636977518.390625
23.68,1636977518.40625
17.39,1636977518.421875
11.39,1636977518.4375
6.09,1636977518.453125
1.58,1636977518.46875
-2.46,1636977518.484375
-6.61,1636977518.5
-11.46,1636977518.515625
-17.29,1636977518.53125
-23.89,1636977518.546875
-30.74,1636977518.5625
-37.18,1636977518.578125
-42.75,1636977518.59375
-47.37,1636977518.609375
-51.37,1636977518.625
-55.31,1636977518.640625
-59.86,1636977518.65625
-65.61,1636977518.671875
-72.87,1636977518.6875
-81.55,1636977518.703125
-90.96,1636977518.71875
-99.81,1636977518.734375
-106.38,1636977518.75
-108.92,1636977518.765625
-106.13,1636977518.78125
-97.65,1636977518.796875
-84.18,1636977518.8125
-67.23,1636977518.828125
-48.65,1636977518.84375
-30.1,1636977518.859375
-12.73,1636977518.875
2.83,1636977518.890625
16.33,1636977518.90625
27.67,1636977518.921875
36.82,1636977518.9375
43.85,1636977518.953125
48.98,1636977518.96875
52.55,1636977518.984375
55.01,1636977519.0
56.7,1636977519.015625
57.82,1636977519.03125
58.42,1636977519.046875
58.46,1636977519.0625
57.9,1636977519.078125
56.79,1636977519.09375
55.25,1636977519.109375
53.49,1636977519.125
51.72,1636977519.140625
50.16,1636977519.15625
48.85,1636977519.171875
47.65,1636977519.1875
46.2,1636977519.203125
44.05,1636977519.21875
40.9,1636977519.234375
36.72,1636977519.25
31.82,1636977519.265625
26.72,1636977519.28125
21.91,1636977519.296875
17.6,1636977519.3125
13.63,1636977519.328125
9.63,1636977519.34375
5.23,1636977519.359375
0.28,1636977519.375
-5.11,1636977519.390625
-10.69,1636977519.40625
-16.28,1636977519.421875
-21.78,1636977519.4375
-27.26,1636977519.453125
-32.82,1636977519.46875
-38.57,1636977519.484375
-44.65,1636977519.5
-51.32,1636977519.515625
-58.86,1636977519.53125
-67.33,1636977519.546875
-76.34,1636977519.5625
-84.82,1636977519.578125
-91.14,1636977519.59375
-93.58,1636977519.609375
-90.85,1636977519.625
-82.59,1636977519.640625
-69.54,1636977519.65625
-53.29,1636977519.671875
-35.79,1636977519.6875
-18.82,1636977519.703125
-3.55,1636977519.71875
9.51,1636977519.734375
20.39,1636977519.75
29.3,1636977519.765625
36.34,1636977519.78125
41.48,1636977519.796875
44.55,1636977519.8125
45.55,1636977519.828125
44.87,1636977519.84375
43.22,1636977519.859375
41.45,1636977519.875
40.23,1636977519.890625
39.74,1636977519.90625
39.73,1636977519.921875
39.77,1636977519.9375
39.56,1636977519.953125
39.09,1636977519.96875
38.63,1636977519.984375
38.36,1636977520.0
38.27,1636977520.015625
37.96,1636977520.03125
36.9,1636977520.046875
34.66,1636977520.0625
31.09,1636977520.078125
26.45,1636977520.09375
21.25,1636977520.109375
15.99,1636977520.125
11.02,1636977520.140625
6.39,1636977520.15625
1.96,1636977520.171875
-2.57,1636977520.1875
-7.42,1636977520.203125
-12.73,1636977520.21875
-18.46,1636977520.234375
-24.46,1636977520.25
-30.46,1636977520.265625
-36.27,1636977520.28125
-41.73,1636977520.296875
-46.9,1636977520.3125
-52.04,1636977520.328125
-57.63,1636977520.34375
-64.26,1636977520.359375
-72.37,1636977520.375
-81.95,1636977520.390625
-92.29,1636977520.40625
-101.89,1636977520.421875
-108.84,1636977520.4375
-111.21,1636977520.453125
-107.75,1636977520.46875
-98.19,1636977520.484375
-83.35,1636977520.5
-64.87,1636977520.515625
-44.7,1636977520.53125
-24.61,1636977520.546875
-5.84,1636977520.5625
10.96,1636977520.578125
25.62,1636977520.59375
38.18,1636977520.609375
48.63,1636977520.625
56.86,1636977520.640625
62.73,1636977520.65625
66.28,1636977520.671875
67.86,1636977520.6875
68.1,1636977520.703125
67.8,1636977520.71875
67.59,1636977520.734375
67.78,1636977520.75
68.23,1636977520.765625
68.61,1636977520.78125
68.62,1636977520.796875
68.11,1636977520.8125
67.19,1636977520.828125
66.02,1636977520.84375
64.65,1636977520.859375
62.96,1636977520.875
60.65,1636977520.890625
57.45,1636977520.90625
53.2,1636977520.921875
48.03,1636977520.9375
42.27,1636977520.953125
36.34,1636977520.96875
30.51,1636977520.984375
24.84,1636977521.0
19.14,1636977521.015625
13.06,1636977521.03125
6.34,1636977521.046875
-1.07,1636977521.0625
-8.97,1636977521.078125
-16.92,1636977521.09375
-24.47,1636977521.109375
-31.28,1636977521.125
-37.35,1636977521.140625
-43.01,1636977521.15625
-48.82,1636977521.171875
-55.42,1636977521.1875
-63.32,1636977521.203125
-72.59,1636977521.21875
-82.64,1636977521.234375
-92.19,1636977521.25
-99.39,1636977521.265625
-102.3,1636977521.28125
-99.46,1636977521.296875
-90.45,1636977521.3125
-76.08,1636977521.328125
-58.13,1636977521.34375
-38.86,1636977521.359375
-20.2,1636977521.375
-3.4,1636977521.390625
11.19,1636977521.40625
23.85,1636977521.421875
34.99,1636977521.4375
44.83,1636977521.453125
53.2,1636977521.46875
59.76,1636977521.484375
64.26,1636977521.5
66.71,1636977521.515625
67.52,1636977521.53125
67.21,1636977521.546875
66.25,1636977521.5625
64.88,1636977521.578125
63.14,1636977521.59375
61.06,1636977521.609375
58.81,1636977521.625
56.72,1636977521.640625
55.1,1636977521.65625
54.04,1636977521.671875
53.2,1636977521.6875
52.0,1636977521.703125
49.77,1636977521.71875
46.09,1636977521.734375
40.98,1636977521.75
34.75,1636977521.765625
27.92,1636977521.78125
20.9,1636977521.796875
13.96,1636977521.8125
7.18,1636977521.828125
0.54,1636977521.84375
-6.03,1636977521.859375
-12.6,1636977521.875
-19.25,1636977521.890625
-25.92,1636977521.90625
-32.46,1636977521.921875
-38.56,1636977521.9375
-43.97,1636977521.953125
-48.63,1636977521.96875
-52.81,1636977521.984375
-57.14,1636977522.0
-62.46,1636977522.015625
-69.52,1636977522.03125
-78.56,1636977522.046875
-89.07,1636977522.0625
-99.69,1636977522.078125
-108.42,1636977522.09375
-113.15,1636977522.109375
-112.2,1636977522.125
-104.9,1636977522.140625
-91.75,1636977522.15625
-74.32,1636977522.171875
-54.68,1636977522.1875
-34.88,1636977522.203125
-16.36,1636977522.21875
0.16,1636977522.234375
14.59,1636977522.25
27.07,1636977522.265625
37.72,1636977522.28125
46.48,1636977522.296875
53.16,1636977522.3125
57.68,1636977522.328125
60.14,1636977522.34375
60.95,1636977522.359375
60.75,1636977522.375
60.15,1636977522.390625
59.62,1636977522.40625
59.35,1636977522.421875
59.3,1636977522.4375
59.34,1636977522.453125
59.31,1636977522.46875
59.09,1636977522.484375
58.53,1636977522.5
57.47,1636977522.515625
55.63,1636977522.53125
52.77,1636977522.546875
48.77,1636977522.5625
43.72,1636977522.578125
37.93,1636977522.59375
31.85,1636977522.609375
25.88,1636977522.625
20.23,1636977522.640625
14.83,1636977522.65625
9.39,1636977522.671875
3.59,1636977522.6875
-2.75,1636977522.703125
-9.55,1636977522.71875
-16.49,1636977522.734375
-23.13,1636977522.75
-29.12,1636977522.765625
-34.36,1636977522.78125
-39.16,1636977522.796875
-44.15,1636977522.8125
-50.1,1636977522.828125
-57.62,1636977522.84375
-66.82,1636977522.859375
-77.08,1636977522.875
-87.03,1636977522.890625
-94.76,1636977522.90625
-98.34,1636977522.921875
-96.39,1636977522.9375
-88.5,1636977522.953125
-75.41,1636977522.96875
-58.69,1636977522.984375
-40.28,1636977523.0
-21.84,1636977523.015625
-4.41,1636977523.03125
11.61,1636977523.046875
26.13,1636977523.0625
39.05,1636977523.078125
50.11,1636977523.09375
58.92,1636977523.109375
65.22,1636977523.125
69.14,1636977523.140625
71.19,1636977523.15625
72.08,1636977523.171875
72.41,1636977523.1875
72.46,1636977523.203125
72.21,1636977523.21875
71.48,1636977523.234375
70.22,1636977523.25
68.59,1636977523.265625
66.89,1636977523.28125
65.41,1636977523.296875
64.16,1636977523.3125
62.87,1636977523.328125
61.05,1636977523.34375
58.2,1636977523.359375
54.0,1636977523.375
48.41,1636977523.390625
41.69,1636977523.40625
34.37,1636977523.421875
27.01,1636977523.4375
19.99,1636977523.453125
13.48,1636977523.46875
7.29,1636977523.484375
1.11,1636977523.5
-5.33,1636977523.515625
-12.14,1636977523.53125
-19.19,1636977523.546875
-26.16,1636977523.5625
-32.71,1636977523.578125
-38.64,1636977523.59375
-43.96,1636977523.609375
-48.93,1636977523.625
-54.02,1636977523.640625
-59.8,1636977523.65625
-66.81,1636977523.671875
-75.3,1636977523.6875
-85.03,1636977523.703125
-95.08,1636977523.71875
-103.94,1636977523.734375
-109.77,1636977523.75
-110.93,1636977523.765625
-106.51,1636977523.78125
-96.63,1636977523.796875
-82.39,1636977523.8125
-65.52,1636977523.828125
-47.79,1636977523.84375
-30.56,1636977523.859375
-14.54,1636977523.875
0.18,1636977523.890625
13.77,1636977523.90625
26.3,1636977523.921875
37.52,1636977523.9375
46.95,1636977523.953125
54.13,1636977523.96875
58.86,1636977523.984375
61.35,1636977524.0
62.18,1636977524.015625
61.97,1636977524.03125
61.2,1636977524.046875
60.18,1636977524.0625
59.01,1636977524.078125
57.77,1636977524.09375
56.51,1636977524.109375
55.31,1636977524.125
54.16,1636977524.140625
52.93,1636977524.15625
51.42,1636977524.171875
49.46,1636977524.1875
46.92,1636977524.203125
43.74,1636977524.21875
39.9,1636977524.234375
35.39,1636977524.25
30.25,1636977524.265625
24.69,1636977524.28125
19.08,1636977524.296875
13.83,1636977524.3125
9.19,1636977524.328125
5.15,1636977524.34375
1.32,1636977524.359375
-2.83,1636977524.375
-7.73,1636977524.390625
-13.5,1636977524.40625
-19.87,1636977524.421875
-26.34,1636977524.4375
-32.32,1636977524.453125
-37.51,1636977524.46875
-41.93,1636977524.484375
-45.99,1636977524.5
-50.29,1636977524.515625
-55.5,1636977524.53125
-62.15,1636977524.546875
-70.52,1636977524.5625
-80.47,1636977524.578125
-91.35,1636977524.59375
-101.96,1636977524.609375
-110.64,1636977524.625
-115.58,1636977524.640625
-115.2,1636977524.65625
-108.7,1636977524.671875
-96.34,1636977524.6875
-79.37,1636977524.703125
-59.74,1636977524.71875
-39.49,1636977524.734375
-20.23,1636977524.75
-2.81,1636977524.765625
12.55,1636977524.78125
26.09,1636977524.796875
38.01,1636977524.8125
48.34,1636977524.828125
56.89,1636977524.84375
63.44,1636977524.859375
67.97,1636977524.875
70.74,1636977524.890625
72.22,1636977524.90625
72.93,1636977524.921875
73.17,1636977524.9375
73.01,1636977524.953125
72.34,1636977524.96875
71.08,1636977524.984375
69.4,1636977525.0
67.66,1636977525.015625
66.24,1636977525.03125
65.28,1636977525.046875
64.5,1636977525.0625
63.23,1636977525.078125
60.75,1636977525.09375
56.57,1636977525.109375
50.72,1636977525.125
43.79,1636977525.140625
36.61,1636977525.15625
30.03,1636977525.171875
24.53,1636977525.1875
20.1,1636977525.203125
16.32,1636977525.21875
12.59,1636977525.234375
8.36,1636977525.25
3.39,1636977525.265625
-2.24,1636977525.28125
-8.17,1636977525.296875
-14.0,1636977525.3125
-19.44,1636977525.328125
-24.51,1636977525.34375
-29.42,1636977525.359375
-34.52,1636977525.375
-40.17,1636977525.390625
-46.68,1636977525.40625
-54.18,1636977525.421875
-62.59,1636977525.4375
-71.38,1636977525.453125
-79.53,1636977525.46875
-85.54,1636977525.484375
-87.72,1636977525.5
-84.73,1636977525.515625
-76.07,1636977525.53125
-62.41,1636977525.546875
-45.36,1636977525.5625
-26.96,1636977525.578125
-9.04,1636977525.59375
7.34,1636977525.609375
21.87,1636977525.625
34.65,1636977525.640625
45.76,1636977525.65625
55.03,1636977525.671875
62.06,1636977525.6875
66.53,1636977525.703125
68.47,1636977525.71875
68.44,1636977525.734375
67.26,1636977525.75
65.78,1636977525.765625
64.58,1636977525.78125
63.81,1636977525.796875
63.3,1636977525.8125
62.74,1636977525.828125
61.9,1636977525.84375
60.61,1636977525.859375
58.89,1636977525.875
56.78,1636977525.890625
54.34,1636977525.90625
51.53,1636977525.921875
48.28,1636977525.9375
44.48,1636977525.953125
40.01,1636977525.96875
34.89,1636977525.984375
29.28,1636977526.0
23.4,1636977526.015625
17.58,1636977526.03125
12.06,1636977526.046875
6.92,1636977526.0625
2.12,1636977526.078125
-2.55,1636977526.09375
-7.35,1636977526.109375
-12.56,1636977526.125
-18.36,1636977526.140625
-24.86,1636977526.15625
-31.95,1636977526.171875
-39.35,1636977526.1875
-46.68,1636977526.203125
-53.53,1636977526.21875
-59.66,1636977526.234375
-65.11,1636977526.25
-70.26,1636977526.265625
-75.7,1636977526.28125
-82.09,1636977526.296875
-89.85,1636977526.3125
-98.94,1636977526.328125
-108.69,1636977526.34375
-117.85,1636977526.359375
-124.78,1636977526.375
-127.79,1636977526.390625
-125.67,1636977526.40625
-117.96,1636977526.421875
-105.14,1636977526.4375
-88.51,1636977526.453125
-69.83,1636977526.46875
-50.83,1636977526.484375
-32.8,1636977526.5
-16.39,1636977526.515625
-1.7,1636977526.53125
11.53,1636977526.546875
23.54,1636977526.5625
34.36,1636977526.578125
43.72,1636977526.59375
51.27,1636977526.609375
56.75,1636977526.625
60.21,1636977526.640625
62.04,1636977526.65625
62.79,1636977526.671875
63.02,1636977526.6875
63.08,1636977526.703125
63.08,1636977526.71875
62.96,1636977526.734375
62.62,1636977526.75
62.0,1636977526.765625
61.09,1636977526.78125
59.91,1636977526.796875
58.43,1636977526.8125
56.6,1636977526.828125
54.3,1636977526.84375
51.41,1636977526.859375
47.83,1636977526.875
43.51,1636977526.890625
38.51,1636977526.90625
33.0,1636977526.921875
27.27,1636977526.9375
21.63,1636977526.953125
16.31,1636977526.96875
11.43,1636977526.984375
6.88,1636977527.0
2.42,1636977527.015625
-2.22,1636977527.03125
-7.28,1636977527.046875
-12.77,1636977527.0625
-18.53,1636977527.078125
-24.31,1636977527.09375
-29.86,1636977527.109375
-35.06,1636977527.125
-40.01,1636977527.140625
-44.99,1636977527.15625
-50.4,1636977527.171875
-56.66,1636977527.1875
-64.12,1636977527.203125
-72.96,1636977527.21875
-82.92,1636977527.234375
-93.2,1636977527.25
-102.39,1636977527.265625
-108.69,1636977527.28125
-110.34,1636977527.296875
-106.19,1636977527.3125
-96.1,1636977527.328125
-81.08,1636977527.34375
-62.94,1636977527.359375
-43.76,1636977527.375
-25.26,1636977527.390625
-8.47,1636977527.40625
6.33,1636977527.421875
19.32,1636977527.4375
30.81,1636977527.453125
40.98,1636977527.46875
49.78,1636977527.484375
56.95,1636977527.5
62.24,1636977527.515625
65.56,1636977527.53125
67.15,1636977527.546875
67.46,1636977527.5625
67.05,1636977527.578125
66.39,1636977527.59375
65.68,1636977527.609375
64.91,1636977527.625
63.99,1636977527.640625
62.95,1636977527.65625
61.92,1636977527.671875
61.07,1636977527.6875
60.43,1636977527.703125
59.71,1636977527.71875
58.4,1636977527.734375
55.92,1636977527.75
51.91,1636977527.765625
46.45,1636977527.78125
40.05,1636977527.796875
33.44,1636977527.8125
27.28,1636977527.828125
21.96,1636977527.84375
17.46,1636977527.859375
13.45,1636977527.875
9.43,1636977527.890625
5.0,1636977527.90625
-0.02,1636977527.921875
-5.56,1636977527.9375
-11.38,1636977527.953125
-17.19,1636977527.96875
-22.78,1636977527.984375
-28.09,1636977528.0
-33.21,1636977528.015625
-38.37,1636977528.03125
-43.94,1636977528.046875
-50.33,1636977528.0625
-57.94,1636977528.078125
-66.87,1636977528.09375
-76.75,1636977528.109375
-86.5,1636977528.125
-94.52,1636977528.140625
-98.97,1636977528.15625
-98.38,1636977528.171875
-92.11,1636977528.1875
-80.61,1636977528.203125
-65.32,1636977528.21875
-48.2,1636977528.234375
-31.12,1636977528.25
-15.47,1636977528.265625
-1.87,1636977528.28125
9.67,1636977528.296875
19.48,1636977528.3125
27.83,1636977528.328125
34.82,1636977528.34375
40.32,1636977528.359375
44.19,1636977528.375
46.43,1636977528.390625
47.34,1636977528.40625
47.43,1636977528.421875
47.29,1636977528.4375
47.35,1636977528.453125
47.77,1636977528.46875
48.45,1636977528.484375
49.13,1636977528.5
49.55,1636977528.515625
49.55,1636977528.53125
49.05,1636977528.546875
48.06,1636977528.5625
46.61,1636977528.578125
44.67,1636977528.59375
42.15,1636977528.609375
38.92,1636977528.625
34.88,1636977528.640625
30.07,1636977528.65625
24.72,1636977528.671875
19.21,1636977528.6875
14.01,1636977528.703125
9.41,1636977528.71875
5.49,1636977528.734375
2.05,1636977528.75
-1.32,1636977528.765625
-4.99,1636977528.78125
-9.16,1636977528.796875
-13.85,1636977528.8125
-18.91,1636977528.828125
-24.13,1636977528.84375
-29.34,1636977528.859375
-34.38,1636977528.875
-39.22,1636977528.890625
-43.88,1636977528.90625
-48.55,1636977528.921875
-53.6,1636977528.9375
-59.49,1636977528.953125
-66.67,1636977528.96875
-75.24,1636977528.984375
-84.79,1636977529.0
-94.21,1636977529.015625
-101.86,1636977529.03125
-105.91,1636977529.046875
-104.86,1636977529.0625
-98.01,1636977529.078125
-85.74,1636977529.09375
-69.36,1636977529.109375
-50.79,1636977529.125
-31.96,1636977529.140625
-14.28,1636977529.15625
1.48,1636977529.171875
15.27,1636977529.1875
27.35,1636977529.203125
38.0,1636977529.21875
47.29,1636977529.234375
54.99,1636977529.25
60.83,1636977529.265625
64.6,1636977529.28125
66.44,1636977529.296875
66.76,1636977529.3125
66.14,1636977529.328125
65.14,1636977529.34375
64.1,1636977529.359375
63.2,1636977529.375
62.44,1636977529.390625
61.84,1636977529.40625
61.39,1636977529.421875
61.13,1636977529.4375
60.95,1636977529.453125
60.66,1636977529.46875
59.9,1636977529.484375
58.29,1636977529.5
55.57,1636977529.515625
51.69,1636977529.53125
46.84,1636977529.546875
41.37,1636977529.5625
35.67,1636977529.578125
30.02,1636977529.59375
24.55,1636977529.609375
19.27,1636977529.625
14.1,1636977529.640625
8.94,1636977529.65625
3.65,1636977529.671875
-1.84,1636977529.6875
-7.59,1636977529.703125
-13.59,1636977529.71875
-19.67,1636977529.734375
-25.64,1636977529.75
-31.29,1636977529.765625
-36.61,1636977529.78125
-41.71,1636977529.796875
-46.86,1636977529.8125
-52.39,1636977529.828125
-58.57,1636977529.84375
-65.62,1636977529.859375
-73.55,1636977529.875
-82.11,1636977529.890625
-90.57,1636977529.90625
-97.69,1636977529.921875
-101.82,1636977529.9375
-101.35,1636977529.953125
-95.29,1636977529.96875
-83.72,1636977529.984375
-67.84,1636977530.0
-49.62,1636977530.015625
-31.06,1636977530.03125
-13.68,1636977530.046875
1.8,1636977530.0625
15.34,1636977530.078125
27.14,1636977530.09375
37.34,1636977530.109375
45.86,1636977530.125
52.5,1636977530.140625
57.13,1636977530.15625
59.83,1636977530.171875
60.94,1636977530.1875
60.87,1636977530.203125
60.08,1636977530.21875
58.88,1636977530.234375
57.51,1636977530.25
56.1,1636977530.265625
54.67,1636977530.28125
53.2,1636977530.296875
51.64,1636977530.3125
49.99,1636977530.328125
48.26,1636977530.34375
46.49,1636977530.359375
44.61,1636977530.375
42.39,1636977530.390625
39.48,1636977530.40625
35.57,1636977530.421875
30.57,1636977530.4375
24.71,1636977530.453125
18.52,1636977530.46875
12.59,1636977530.484375
7.3,1636977530.5
2.71,1636977530.515625
-1.54,1636977530.53125
-5.92,1636977530.546875
-10.93,1636977530.5625
-16.74,1636977530.578125
-23.32,1636977530.59375
-30.35,1636977530.609375
-37.42,1636977530.625
-44.18,1636977530.640625
-50.33,1636977530.65625
-55.82,1636977530.671875
-60.8,1636977530.6875
-65.63,1636977530.703125
-70.87,1636977530.71875
-77.09,1636977530.734375
-84.64,1636977530.75
-93.37,1636977530.765625
-102.41,1636977530.78125
-110.25,1636977530.796875
-114.98,1636977530.8125
-114.87,1636977530.828125
-108.97,1636977530.84375
-97.41,1636977530.859375
-81.45,1636977530.875
-63.03,1636977530.890625
-44.16,1636977530.90625
-26.34,1636977530.921875
-10.31,1636977530.9375
3.85,1636977530.953125
16.38,1636977530.96875
27.4,1636977530.984375
36.84,1636977531.0
44.4,1636977531.015625
49.91,1636977531.03125
53.46,1636977531.046875
55.51,1636977531.0625
56.77,1636977531.078125
57.86,1636977531.09375
59.13,1636977531.109375
60.61,1636977531.125
62.05,1636977531.140625
63.18,1636977531.15625
63.85,1636977531.171875
64.06,1636977531.1875
63.95,1636977531.203125
63.57,1636977531.21875
62.89,1636977531.234375
61.75,1636977531.25
59.91,1636977531.265625
57.16,1636977531.28125
53.4,1636977531.296875
48.64,1636977531.3125
43.08,1636977531.328125
36.97,1636977531.34375
30.69,1636977531.359375
24.57,1636977531.375
18.86,1636977531.390625
13.65,1636977531.40625
8.88,1636977531.421875
4.31,1636977531.4375
-0.34,1636977531.453125
-5.27,1636977531.46875
-10.55,1636977531.484375
-16.07,1636977531.5
-21.62,1636977531.515625
-27.05,1636977531.53125
-32.3,1636977531.546875
-37.5,1636977531.5625
-42.95,1636977531.578125
-49.01,1636977531.59375
-56.04,1636977531.609375
-64.27,1636977531.625
-73.7,1636977531.640625
-83.84,1636977531.65625
-93.72,1636977531.671875
-101.76,1636977531.6875
-106.2,1636977531.703125
-105.5,1636977531.71875
-98.95,1636977531.734375
-86.9,1636977531.75
-70.73,1636977531.765625
-52.31,1636977531.78125
-33.52,1636977531.796875
-15.67,1636977531.8125
0.54,1636977531.828125
14.96,1636977531.84375
27.65,1636977531.859375
38.67,1636977531.875
47.98,1636977531.890625
55.45,1636977531.90625
61.03,1636977531.921875
64.75,1636977531.9375
66.83,1636977531.953125
67.65,1636977531.96875
67.64,1636977531.984375
67.22,1636977532.0
66.71,1636977532.015625
66.25,1636977532.03125
65.81,1636977532.046875
65.29,1636977532.0625
64.62,1636977532.078125
63.78,1636977532.09375
62.84,1636977532.109375
61.79,1636977532.125
60.47,1636977532.140625
58.59,1636977532.15625
55.82,1636977532.171875
51.96,1636977532.1875
47.06,1636977532.203125
41.42,1636977532.21875
35.49,1636977532.234375
29.68,1636977532.25
24.24,1636977532.265625
19.26,1636977532.28125
14.63,1636977532.296875
10.16,1636977532.3125
5.61,1636977532.328125
0.75,1636977532.34375
-4.59,1636977532.359375
-10.43,1636977532.375
-16.63,1636977532.390625
-22.86,1636977532.40625
-28.79,1636977532.421875
-34.22,1636977532.4375
-39.28,1636977532.453125
-44.41,1636977532.46875
-50.24,1636977532.484375
-57.34,1636977532.5
-65.91,1636977532.515625
-75.61,1636977532.53125
-85.51,1636977532.546875
-94.25,1636977532.5625
-100.23,1636977532.578125
-102.08,1636977532.59375
-98.92,1636977532.609375
-90.62,1636977532.625
-77.91,1636977532.640625
-62.22,1636977532.65625
-45.28,1636977532.671875
-28.76,1636977532.6875
-13.86,1636977532.703125
-1.12,1636977532.71875
9.48,1636977532.734375
18.22,1636977532.75
25.44,1636977532.765625
31.21,1636977532.78125
35.52,1636977532.796875
38.34,1636977532.8125
39.84,1636977532.828125
40.41,1636977532.84375
40.51,1636977532.859375
40.54,1636977532.875
40.63,1636977532.890625
40.74,1636977532.90625
40.76,1636977532.921875
40.72,1636977532.9375
40.77,1636977532.953125
41.11,1636977532.96875
41.79,1636977532.984375
42.52,1636977533.0
42.8,1636977533.015625
42.01,1636977533.03125
39.73,1636977533.046875
35.86,1636977533.0625
30.67,1636977533.078125
24.7,1636977533.09375
18.58,1636977533.109375
12.83,1636977533.125
7.67,1636977533.140625
3.03,1636977533.15625
-1.42,1636977533.171875
-6.13,1636977533.1875
-11.44,1636977533.203125
-17.39,1636977533.21875
-23.72,1636977533.234375
-29.93,1636977533.25
-35.5,1636977533.265625
-40.15,1636977533.28125
-44.0,1636977533.296875
-47.53,1636977533.3125
-51.49,1636977533.328125
-56.66,1636977533.34375
-63.55,1636977533.359375
-72.2,1636977533.375
-81.99,1636977533.390625
-91.57,1636977533.40625
-99.1,1636977533.421875
-102.63,1636977533.4375
-100.68,1636977533.453125
-92.74,1636977533.46875
-79.48,1636977533.484375
-62.57,1636977533.5
-44.13,1636977533.515625
-26.04,1636977533.53125
-9.49,1636977533.546875
5.11,1636977533.5625
17.91,1636977533.578125
29.17,1636977533.59375
38.96,1636977533.609375
47.12,1636977533.625
53.42,1636977533.640625
57.8,1636977533.65625
60.49,1636977533.671875
61.95,1636977533.6875
62.68,1636977533.703125
63.09,1636977533.71875
63.38,1636977533.734375
63.58,1636977533.75
63.66,1636977533.765625
63.62,1636977533.78125
63.53,1636977533.796875
63.42,1636977533.8125
63.31,1636977533.828125
63.06,1636977533.84375
62.39,1636977533.859375
60.98,1636977533.875
58.52,1636977533.890625
54.84,1636977533.90625
49.95,1636977533.921875
44.09,1636977533.9375
37.66,1636977533.953125
31.14,1636977533.96875
24.99,1636977533.984375
19.46,1636977534.0
14.55,1636977534.015625
10.0,1636977534.03125
5.38,1636977534.046875
0.26,1636977534.0625
-5.6,1636977534.078125
-12.11,1636977534.09375
-18.9,1636977534.109375
-25.45,1636977534.125
-31.34,1636977534.140625
-36.43,1636977534.15625
-41.01,1636977534.171875
-45.67,1636977534.1875
-51.11,1636977534.203125
-57.89,1636977534.21875
-66.26,1636977534.234375
-75.96,1636977534.25
-86.23,1636977534.265625
-95.78,1636977534.28125
-102.94,1636977534.296875
-106.03,1636977534.3125
-103.74,1636977534.328125
-95.58,1636977534.34375
-82.15,1636977534.359375
-65.03,1636977534.375
-46.28,1636977534.390625
-27.87,1636977534.40625
-11.13,1636977534.421875
3.44,1636977534.4375
16.02,1636977534.453125
27.06,1636977534.46875
36.87,1636977534.484375
45.47,1636977534.5
52.59,1636977534.515625
57.86,1636977534.53125
61.05,1636977534.546875
62.27,1636977534.5625
61.92,1636977534.578125
60.65,1636977534.59375
59.1,1636977534.609375
57.74,1636977534.625
56.74,1636977534.640625
55.97,1636977534.65625
55.18,1636977534.671875
54.17,1636977534.6875
52.91,1636977534.703125
51.46,1636977534.71875
49.88,1636977534.734375
48.04,1636977534.75
45.64,1636977534.765625
42.31,1636977534.78125
37.77,1636977534.796875
32.02,1636977534.8125
25.38,1636977534.828125
18.35,1636977534.84375
11.48,1636977534.859375
5.19,1636977534.875
-0.35,1636977534.890625
-5.2,1636977534.90625
-9.67,1636977534.921875
-14.11,1636977534.9375
-18.89,1636977534.953125
-24.21,1636977534.96875
-30.02,1636977534.984375
-36.07,1636977535.0
-42.03,1636977535.015625
-47.6,1636977535.03125
-52.71,1636977535.046875
-57.56,1636977535.0625
-62.53,1636977535.078125
-68.1,1636977535.09375
-74.67,1636977535.109375
-82.35,1636977535.125
-90.84,1636977535.140625
-99.3,1636977535.15625
-106.44,1636977535.171875
-110.72,1636977535.1875
-110.74,1636977535.203125
-105.57,1636977535.21875
-95.14,1636977535.234375
-80.27,1636977535.25
-62.42,1636977535.265625
-43.37,1636977535.28125
-24.69,1636977535.296875
-7.49,1636977535.3125
7.67,1636977535.328125
20.68,1636977535.34375
31.59,1636977535.359375
40.47,1636977535.375
47.34,1636977535.390625
52.25,1636977535.40625
55.39,1636977535.421875
57.11,1636977535.4375
57.88,1636977535.453125
58.14,1636977535.46875
58.22,1636977535.484375
58.24,1636977535.5
58.18,1636977535.515625
57.98,1636977535.53125
57.62,1636977535.546875
57.13,1636977535.5625
56.55,1636977535.578125
55.81,1636977535.59375
54.7,1636977535.609375
52.91,1636977535.625
50.15,1636977535.640625
46.28,1636977535.65625
41.38,1636977535.671875
35.76,1636977535.6875
29.86,1636977535.703125
24.11,1636977535.71875
18.76,1636977535.734375
13.85,1636977535.75
9.18,1636977535.765625
4.45,1636977535.78125
-0.6,1636977535.796875
-6.07,1636977535.8125
-11.82,1636977535.828125
-17.54,1636977535.84375
-22.96,1636977535.859375
-27.99,1636977535.875
-32.81,1636977535.890625
-37.89,1636977535.90625
-43.75,1636977535.921875
-50.82,1636977535.9375
-59.22,1636977535.953125
-68.6,1636977535.96875
-78.08,1636977535.984375
-86.35,1636977536.0
-91.78,1636977536.015625
-92.85,1636977536.03125
-88.54,1636977536.046875
-78.71,1636977536.0625
-64.24,1636977536.078125
-46.81,1636977536.09375
-28.4,1636977536.109375
-10.72,1636977536.125
5.2,1636977536.140625
19.06,1636977536.15625
31.04,1636977536.171875
41.38,1636977536.1875
50.16,1636977536.203125
57.23,1636977536.21875
62.33,1636977536.234375
65.38,1636977536.25
66.62,1636977536.265625
66.59,1636977536.28125
65.92,1636977536.296875
65.2,1636977536.3125
64.69,1636977536.328125
64.4,1636977536.34375
64.13,1636977536.359375
63.66,1636977536.375
62.93,1636977536.390625
61.96,1636977536.40625
60.82,1636977536.421875
59.49,1636977536.4375
57.71,1636977536.453125
55.15,1636977536.46875
51.48,1636977536.484375
46.61,1636977536.5
40.74,1636977536.515625
34.34,1636977536.53125
28.01,1636977536.546875
22.22,1636977536.5625
17.14,1636977536.578125
12.6,1636977536.59375
8.19,1636977536.609375
3.4,1636977536.625
-2.11,1636977536.640625
-8.39,1636977536.65625
-15.07,1636977536.671875
-21.61,1636977536.6875
-27.47,1636977536.703125
-32.47,1636977536.71875
-36.83,1636977536.734375
-41.15,1636977536.75
-46.22,1636977536.765625
-52.7,1636977536.78125
-60.93,1636977536.796875
-70.81,1636977536.8125
-81.73,1636977536.828125
-92.55,1636977536.84375
-101.71,1636977536.859375
-107.48,1636977536.875
-108.38,1636977536.890625
-103.63,1636977536.90625
-93.44,1636977536.921875
-78.99,1636977536.9375
-62.09,1636977536.953125
-44.64,1636977536.96875
-28.11,1636977536.984375
-13.31,1636977537.0
-0.4,1636977537.015625
10.87,1636977537.03125
20.84,1636977537.046875
29.72,1636977537.0625
37.48,1636977537.078125
43.88,1636977537.09375
48.66,1636977537.109375
51.65,1636977537.125
52.91,1636977537.140625
52.78,1636977537.15625
51.82,1636977537.171875
50.59,1636977537.1875
49.53,1636977537.203125
48.83,1636977537.21875
48.41,1636977537.234375
48.03,1636977537.25
47.47,1636977537.265625
46.55,1636977537.28125
45.25,1636977537.296875
43.56,1636977537.3125
41.47,1636977537.328125
38.84,1636977537.34375
35.51,1636977537.359375
31.32,1636977537.375
26.31,1636977537.390625
20.77,1636977537.40625
15.16,1636977537.421875
10.01,1636977537.4375
5.6,1636977537.453125
1.97,1636977537.46875
-1.24,1636977537.484375
-4.48,1636977537.5
-8.24,1636977537.515625
-12.75,1636977537.53125
-18.02,1636977537.546875
-23.79,1636977537.5625
-29.69,1636977537.578125
-35.34,1636977537.59375
-40.51,1636977537.609375
-45.18,1636977537.625
-49.58,1636977537.640625
-54.13,1636977537.65625
-59.38,1636977537.671875
-65.79,1636977537.6875
-73.62,1636977537.703125
-82.68,1636977537.71875
-92.31,1636977537.734375
-101.27,1636977537.75
-107.98,1636977537.765625
-110.78,1636977537.78125
-108.36,1636977537.796875
-100.13,1636977537.8125
-86.5,1636977537.828125
-68.82,1636977537.84375
-49.01,1636977537.859375
-29.09,1636977537.875
-10.58,1636977537.890625
5.71,1636977537.90625
19.7,1636977537.921875
31.69,1636977537.9375
42.01,1636977537.953125
50.79,1636977537.96875
57.9,1636977537.984375
63.2,1636977538.0
66.67,1636977538.015625
68.55,1636977538.03125
69.23,1636977538.046875
69.11,1636977538.0625
68.42,1636977538.078125
67.23,1636977538.09375
65.6,1636977538.109375
63.7,1636977538.125
61.87,1636977538.140625
60.51,1636977538.15625
59.78,1636977538.171875
59.5,1636977538.1875
59.1,1636977538.203125
57.87,1636977538.21875
55.23,1636977538.234375
51.0,1636977538.25
45.46,1636977538.265625
39.21,1636977538.28125
32.9,1636977538.296875
27.05,1636977538.3125
21.86,1636977538.328125
17.22,1636977538.34375
12.83,1636977538.359375
8.34,1636977538.375
3.51,1636977538.390625
-1.7,1636977538.40625
-7.11,1636977538.421875
-12.41,1636977538.4375
-17.29,1636977538.453125
-21.56,1636977538.46875
-25.31,1636977538.484375
-28.9,1636977538.5
-32.9,1636977538.515625
-37.9,1636977538.53125
-44.32,1636977538.546875
-52.19,1636977538.5625
-60.85,1636977538.578125
-69.05,1636977538.59375
-75.05,1636977538.609375
-77.08,1636977538.625
-73.97,1636977538.640625
-65.48,1636977538.65625
-52.5,1636977538.671875
-36.73,1636977538.6875
-20.1,1636977538.703125
-4.19,1636977538.71875
10.11,1636977538.734375
22.58,1636977538.75
33.33,1636977538.765625
42.45,1636977538.78125
49.83,1636977538.796875
55.25,1636977538.8125
58.61,1636977538.828125
60.08,1636977538.84375
60.1,1636977538.859375
59.24,1636977538.875
57.93,1636977538.890625
56.41,1636977538.90625
54.76,1636977538.921875
53.04,1636977538.9375
51.4,1636977538.953125
50.0,1636977538.96875
48.93,1636977538.984375
48.07,1636977539.0
47.1,1636977539.015625
45.6,1636977539.03125
43.18,1636977539.046875
39.64,1636977539.0625
34.94,1636977539.078125
29.23,1636977539.09375
22.75,1636977539.109375
15.84,1636977539.125
8.87,1636977539.140625
2.13,1636977539.15625
-4.28,1636977539.171875
-10.4,1636977539.1875
-16.56,1636977539.203125
-23.04,1636977539.21875
-30.01,1636977539.234375
-37.42,1636977539.25
-44.96,1636977539.265625
-52.19,1636977539.28125
-58.77,1636977539.296875
-64.55,1636977539.3125
-69.77,1636977539.328125
-75.0,1636977539.34375
-80.98,1636977539.359375
-88.38,1636977539.375
-97.38,1636977539.390625
-107.43,1636977539.40625
-117.09,1636977539.421875
-124.39,1636977539.4375
-127.28,1636977539.453125
-124.32,1636977539.46875
-115.19,1636977539.484375
-100.78,1636977539.5
-82.86,1636977539.515625
-63.55,1636977539.53125
-44.62,1636977539.546875
-27.11,1636977539.5625
-11.34,1636977539.578125
2.81,1636977539.59375
15.51,1636977539.609375
26.73,1636977539.625
36.24,1636977539.640625
43.82,1636977539.65625
49.41,1636977539.671875
53.29,1636977539.6875
55.9,1636977539.703125
57.69,1636977539.71875
59.0,1636977539.734375
59.99,1636977539.75
60.7,1636977539.765625
61.18,1636977539.78125
61.52,1636977539.796875
61.78,1636977539.8125
61.95,1636977539.828125
61.92,1636977539.84375
61.46,1636977539.859375
60.38,1636977539.875
58.52,1636977539.890625
55.76,1636977539.90625
52.05,1636977539.921875
47.38,1636977539.9375
41.88,1636977539.953125
35.88,1636977539.96875
29.83,1636977539.984375
24.16,1636977540.0
19.16,1636977540.015625
14.74,1636977540.03125
10.47,1636977540.046875
5.76,1636977540.0625
0.17,1636977540.078125
-6.35,1636977540.09375
-13.43,1636977540.109375
-20.46,1636977540.125
-26.87,1636977540.140625
-32.43,1636977540.15625
-37.32,1636977540.171875
-42.01,1636977540.1875
-47.18,1636977540.203125
-53.41,1636977540.21875
-61.12,1636977540.234375
-70.34,1636977540.25
-80.68,1636977540.265625
-91.13,1636977540.28125
-100.15,1636977540.296875
-105.89,1636977540.3125
-106.65,1636977540.328125
-101.41,1636977540.34375
-90.27,1636977540.359375
-74.4,1636977540.375
-55.73,1636977540.390625
-36.29,1636977540.40625
-17.65,1636977540.421875
-0.65,1636977540.4375
14.52,1636977540.453125
28.02,1636977540.46875
40.02,1636977540.484375
50.51,1636977540.5
59.29,1636977540.515625
66.13,1636977540.53125
70.98,1636977540.546875
74.0,1636977540.5625
75.59,1636977540.578125
76.19,1636977540.59375
76.19,1636977540.609375
75.81,1636977540.625
75.15,1636977540.640625
74.17,1636977540.65625
72.85,1636977540.671875
71.28,1636977540.6875
69.58,1636977540.703125
67.9,1636977540.71875
66.2,1636977540.734375
64.24,1636977540.75
61.59,1636977540.765625
57.8,1636977540.78125
52.67,1636977540.796875
46.4,1636977540.8125
39.58,1636977540.828125
32.94,1636977540.84375
27.05,1636977540.859375
22.08,1636977540.875
17.8,1636977540.890625
13.65,1636977540.90625
9.08,1636977540.921875
3.73,1636977540.9375
-2.45,1636977540.953125
-9.23,1636977540.96875
-16.24,1636977540.984375
-23.12,1636977541.0
-29.58,1636977541.015625
-35.48,1636977541.03125
-40.94,1636977541.046875
-46.35,1636977541.0625
-52.31,1636977541.078125
-59.44,1636977541.09375
-68.19,1636977541.109375
-78.48,1636977541.125
-89.54,1636977541.140625
-100.0,1636977541.15625
-108.04,1636977541.171875
-111.89,1636977541.1875
-110.3,1636977541.203125
-102.92,1636977541.21875
-90.35,1636977541.234375
-74.04,1636977541.25
-55.82,1636977541.265625
-37.5,1636977541.28125
-20.38,1636977541.296875
-5.18,1636977541.3125
7.95,1636977541.328125
19.18,1636977541.34375
28.72,1636977541.359375
36.63,1636977541.375
42.82,1636977541.390625
47.16,1636977541.40625
49.7,1636977541.421875
50.77,1636977541.4375
50.95,1636977541.453125
50.87,1636977541.46875
50.99,1636977541.484375
51.42,1636977541.5
51.94,1636977541.515625
52.18,1636977541.53125
51.93,1636977541.546875
51.21,1636977541.5625
50.24,1636977541.578125
49.24,1636977541.59375
48.21,1636977541.609375
46.86,1636977541.625
44.73,1636977541.640625
41.44,1636977541.65625
36.86,1636977541.671875
31.24,1636977541.6875
25.09,1636977541.703125
19.05,1636977541.71875
13.7,1636977541.734375
9.37,1636977541.75
6.02,1636977541.765625
3.26,1636977541.78125
0.43,1636977541.796875
-3.14,1636977541.8125
-7.81,1636977541.828125
-13.54,1636977541.84375
-19.9,1636977541.859375
-26.27,1636977541.875
-32.18,1636977541.890625
-37.5,1636977541.90625
-42.44,1636977541.921875
-47.49,1636977541.9375
-53.13,1636977541.953125
-59.75,1636977541.96875
-67.54,1636977541.984375
-76.41,1636977542.0
-85.93,1636977542.015625
-95.15,1636977542.03125
-102.65,1636977542.046875
-106.74,1636977542.0625
-105.91,1636977542.078125
-99.29,1636977542.09375
-87.08,1636977542.109375
-70.47,1636977542.125
-51.31,1636977542.140625
-31.58,1636977542.15625
-12.78,1636977542.171875
4.28,1636977542.1875
19.44,1636977542.203125
32.88,1636977542.21875
44.77,1636977542.234375
55.02,1636977542.25
63.34,1636977542.265625
69.39,1636977542.28125
73.08,1636977542.296875
74.68,1636977542.3125
74.81,1636977542.328125
74.22,1636977542.34375
73.53,1636977542.359375
73.0,1636977542.375
72.57,1636977542.390625
72.0,1636977542.40625
71.05,1636977542.421875
69.72,1636977542.4375
68.2,1636977542.453125
66.75,1636977542.46875
65.42,1636977542.484375
63.98,1636977542.5
61.98,1636977542.515625
58.91,1636977542.53125
54.5,1636977542.546875
48.92,1636977542.5625
42.66,1636977542.578125
36.36,1636977542.59375
30.58,1636977542.609375
25.46,1636977542.625
20.8,1636977542.640625
16.15,1636977542.65625
11.04,1636977542.671875
5.18,1636977542.6875
-1.46,1636977542.703125
-8.67,1636977542.71875
-16.08,1636977542.734375
-23.27,1636977542.75
-29.92,1636977542.765625
-35.9,1636977542.78125
-41.3,1636977542.796875
-46.46,1636977542.8125
-51.87,1636977542.828125
-58.03,1636977542.84375
-65.28,1636977542.859375
-73.7,1636977542.875
-82.93,1636977542.890625
-92.13,1636977542.90625
-100.08,1636977542.921875
-105.28,1636977542.9375
-106.32,1636977542.953125
-102.22,1636977542.96875
-92.82,1636977542.984375
-78.9,1636977543.0
-61.98,1636977543.015625
-43.89,1636977543.03125
-26.22,1636977543.046875
-9.95,1636977543.0625
4.59,1636977543.078125
17.42,1636977543.09375
28.6,1636977543.109375
38.01,1636977543.125
45.37,1636977543.140625
50.48,1636977543.15625
53.42,1636977543.171875
54.61,1636977543.1875
54.67,1636977543.203125
54.21,1636977543.21875
53.57,1636977543.234375
52.88,1636977543.25
52.05,1636977543.265625
51.0,1636977543.28125
49.72,1636977543.296875
48.28,1636977543.3125
46.76,1636977543.328125
45.22,1636977543.34375
43.65,1636977543.359375
41.89,1636977543.375
39.72,1636977543.390625
36.88,1636977543.40625
33.12,1636977543.421875
28.38,1636977543.4375
22.87,1636977543.453125
16.99,1636977543.46875
11.29,1636977543.484375
6.2,1636977543.5
1.85,1636977543.515625
-2.0,1636977543.53125
-5.87,1636977543.546875
-10.27,1636977543.5625
-15.48,1636977543.578125
-21.41,1636977543.59375
-27.64,1636977543.609375
-33.65,1636977543.625
-39.06,1636977543.640625
-43.86,1636977543.65625
-48.33,1636977543.671875
-52.97,1636977543.6875
-58.28,1636977543.703125
-64.67,1636977543.71875
-72.31,1636977543.734375
-81.09,1636977543.75
-90.48,1636977543.765625
-99.5,1636977543.78125
-106.69,1636977543.796875
-110.4,1636977543.8125
-109.15,1636977543.828125
-102.16,1636977543.84375
-89.63,1636977543.859375
-72.72,1636977543.875
-53.26,1636977543.890625
-33.17,1636977543.90625
-13.99,1636977543.921875
3.37,1636977543.9375
18.55,1636977543.953125
31.56,1636977543.96875
42.48,1636977543.984375
51.32,1636977544.0
58.08,1636977544.015625
62.82,1636977544.03125
65.78,1636977544.046875
67.37,1636977544.0625
68.07,1636977544.078125
68.32,1636977544.09375
68.44,1636977544.109375
68.55,1636977544.125
68.67,1636977544.140625
68.74,1636977544.15625
68.72,1636977544.171875
68.55,1636977544.1875
68.18,1636977544.203125
67.51,1636977544.21875
66.33,1636977544.234375
64.32,1636977544.25
61.16,1636977544.265625
56.63,1636977544.28125
50.76,1636977544.296875
43.84,1636977544.3125
36.47,1636977544.328125
29.27,1636977544.34375
22.72,1636977544.359375
16.95,1636977544.375
11.71,1636977544.390625
6.55,1636977544.40625
0.97,1636977544.421875
-5.26,1636977544.4375
-12.01,1636977544.453125
-18.87,1636977544.46875
-25.35,1636977544.484375
-31.13,1636977544.5
-36.21,1636977544.515625
-41.0,1636977544.53125
-46.19,1636977544.546875
-52.49,1636977544.5625
-60.32,1636977544.578125
-69.56,1636977544.59375
-79.33,1636977544.609375
-88.11,1636977544.625
-94.01,1636977544.640625
-95.25,1636977544.65625
-90.75,1636977544.671875
-80.48,1636977544.6875
-65.55,1636977544.703125
-47.8,1636977544.71875
-29.32,1636977544.734375
-11.78,1636977544.75
3.85,1636977544.765625
17.35,1636977544.78125
28.94,1636977544.796875
38.91,1636977544.8125
47.39,1636977544.828125
54.25,1636977544.84375
59.25,1636977544.859375
62.27,1636977544.875
63.46,1636977544.890625
63.25,1636977544.90625
62.23,1636977544.921875
60.98,1636977544.9375
59.89,1636977544.953125
59.09,1636977544.96875
58.44,1636977544.984375
57.69,1636977545.0
56.58,1636977545.015625
55.07,1636977545.03125
53.26,1636977545.046875
51.37,1636977545.0625
49.47,1636977545.078125
47.37,1636977545.09375
44.62,1636977545.109375
40.72,1636977545.125
35.35,1636977545.140625
28.64,1636977545.15625
21.13,1636977545.171875
13.6,1636977545.1875
6.65,1636977545.203125
0.58,1636977545.21875
-4.81,1636977545.234375
-10.02,1636977545.25
-15.58,1636977545.265625
-21.78,1636977545.28125
-28.57,1636977545.296875
-35.62,1636977545.3125
-42.44,1636977545.328125
-48.7,1636977545.34375
-54.27,1636977545.359375
-59.27,1636977545.375
-64.04,1636977545.390625
-69.04,1636977545.40625
-74.75,1636977545.421875
-81.61,1636977545.4375
-89.88,1636977545.453125
-99.39,1636977545.46875
-109.45,1636977545.484375
-118.7,1636977545.5
-125.39,1636977545.515625
-127.79,1636977545.53125
-124.73,1636977545.546875
-115.96,1636977545.5625
-102.28,1636977545.578125
-85.21,1636977545.59375
-66.5,1636977545.609375
-47.69,1636977545.625
-29.84,1636977545.640625
-13.43,1636977545.65625
1.4,1636977545.671875
14.72,1636977545.6875
26.55,1636977545.703125
36.82,1636977545.71875
45.38,1636977545.734375
52.08,1636977545.75
56.93,1636977545.765625
60.11,1636977545.78125
61.99,1636977545.796875
63.02,1636977545.8125
63.55,1636977545.828125
63.76,1636977545.84375
63.63,1636977545.859375
63.12,1636977545.875
62.22,1636977545.890625
61.1,1636977545.90625
59.94,1636977545.921875
58.88,1636977545.9375
57.79,1636977545.953125
56.31,1636977545.96875
53.99,1636977545.984375
50.52,1636977546.0
45.81,1636977546.015625
40.16,1636977546.03125
34.05,1636977546.046875
28.04,1636977546.0625
22.56,1636977546.078125
17.76,1636977546.09375
13.55,1636977546.109375
9.56,1636977546.125
5.37,1636977546.140625
0.65,1636977546.15625
-4.73,1636977546.171875
-10.62,1636977546.1875
-16.67,1636977546.203125
-22.54,1636977546.21875
-28.06,1636977546.234375
-33.36,1636977546.25
-38.77,1636977546.265625
-44.79,1636977546.28125
-51.81,1636977546.296875
-60.01,1636977546.3125
-69.22,1636977546.328125
-78.94,1636977546.34375
-88.24,1636977546.359375
-95.85,1636977546.375
-100.31,1636977546.390625
-100.21,1636977546.40625
-94.69,1636977546.421875
-83.69,1636977546.4375
-68.17,1636977546.453125
-49.84,1636977546.46875
-30.63,1636977546.484375
-12.15,1636977546.5
4.62,1636977546.515625
19.43,1636977546.53125
32.38,1636977546.546875
43.64,1636977546.5625
53.18,1636977546.578125
60.78,1636977546.59375
66.31,1636977546.609375
69.8,1636977546.625
71.61,1636977546.640625
72.26,1636977546.65625
72.29,1636977546.671875
72.08,1636977546.6875
71.76,1636977546.703125
71.35,1636977546.71875
70.81,1636977546.734375
70.15,1636977546.75
69.43,1636977546.765625
68.75,1636977546.78125
68.16,1636977546.796875
67.58,1636977546.8125
66.72,1636977546.828125
65.21,1636977546.84375
62.6,1636977546.859375
58.66,1636977546.875
53.43,1636977546.890625
47.29,1636977546.90625
40.87,1636977546.921875
34.76,1636977546.9375
29.27,1636977546.953125
24.29,1636977546.96875
19.43,1636977546.984375
14.13,1636977547.0
8.06,1636977547.015625
1.25,1636977547.03125
-5.97,1636977547.046875
-13.14,1636977547.0625
-19.86,1636977547.078125
-26.03,1636977547.09375
-31.84,1636977547.109375
-37.72,1636977547.125
-44.16,1636977547.140625
-51.58,1636977547.15625
-60.22,1636977547.171875
-69.94,1636977547.1875
-80.13,1636977547.203125
-89.7,1636977547.21875
-97.2,1636977547.234375
-101.09,1636977547.25
-100.19,1636977547.265625
-94.06,1636977547.28125
-83.13,1636977547.296875
-68.58,1636977547.3125
-52.03,1636977547.328125
-35.07,1636977547.34375
-18.87,1636977547.359375
-4.07,1636977547.375
9.16,1636977547.390625
20.88,1636977547.40625
31.12,1636977547.421875
39.8,1636977547.4375
46.71,1636977547.453125
51.68,1636977547.46875
54.75,1636977547.484375
56.18,1636977547.5
56.42,1636977547.515625
56.01,1636977547.53125
55.42,1636977547.546875
54.88,1636977547.5625
54.39,1636977547.578125
53.78,1636977547.59375
52.78,1636977547.609375
51.25,1636977547.625
49.2,1636977547.640625
46.78,1636977547.65625
44.15,1636977547.671875
41.4,1636977547.6875
38.42,1636977547.703125
35.02,1636977547.71875
31.04,1636977547.734375
26.5,1636977547.75
21.53,1636977547.765625
16.39,1636977547.78125
11.29,1636977547.796875
6.33,1636977547.8125
1.5,1636977547.828125
-3.24,1636977547.84375
-7.92,1636977547.859375
-12.58,1636977547.875
-17.33,1636977547.890625
-22.35,1636977547.90625
-27.83,1636977547.921875
-33.79,1636977547.9375
-40.11,1636977547.953125
-46.45,1636977547.96875
-52.48,1636977547.984375
-58.03,1636977548.0
-63.11,1636977548.015625
-68.0,1636977548.03125
-73.11,1636977548.046875
-78.9,1636977548.0625
-85.78,1636977548.078125
-93.94,1636977548.09375
-103.15,1636977548.109375
-112.64,1636977548.125
-120.97,1636977548.140625
-126.33,1636977548.15625
-126.98,1636977548.171875
-121.83,1636977548.1875
-110.87,1636977548.203125
-95.2,1636977548.21875
-76.67,1636977548.234375
-57.22,1636977548.25
-38.35,1636977548.265625
-20.84,1636977548.28125
-4.83,1636977548.296875
9.85,1636977548.3125
23.24,1636977548.328125
35.23,1636977548.34375
45.47,1636977548.359375
53.62,1636977548.375
59.59,1636977548.390625
63.54,1636977548.40625
65.92,1636977548.421875
67.23,1636977548.4375
67.96,1636977548.453125
68.43,1636977548.46875
68.82,1636977548.484375
69.2,1636977548.5
69.55,1636977548.515625
69.85,1636977548.53125
70.05,1636977548.546875
70.07,1636977548.5625
69.75,1636977548.578125
68.91,1636977548.59375
67.34,1636977548.609375
64.86,1636977548.625
61.37,1636977548.640625
56.93,1636977548.65625
51.71,1636977548.671875
45.99,1636977548.6875
40.05,1636977548.703125
34.16,1636977548.71875
28.53,1636977548.734375
23.24,1636977548.75
18.24,1636977548.765625
13.36,1636977548.78125
8.36,1636977548.796875
3.02,1636977548.8125
-2.78,1636977548.828125
-8.98,1636977548.84375
-15.36,1636977548.859375
-21.62,1636977548.875
-27.47,1636977548.890625
-32.79,1636977548.90625
-37.63,1636977548.921875
-42.25,1636977548.9375
-47.09,1636977548.953125
-52.63,1636977548.96875
-59.3,1636977548.984375
-67.28,1636977549.0
-76.33,1636977549.015625
-85.65,1636977549.03125
-93.84,1636977549.046875
-99.12,1636977549.0625
-99.83,1636977549.078125
-94.87,1636977549.09375
-84.15,1636977549.109375
-68.65,1636977549.125
-50.18,1636977549.140625
-30.77,1636977549.15625
-12.17,1636977549.171875
4.6,1636977549.1875
19.2,1636977549.203125
31.78,1636977549.21875
42.54,1636977549.234375
51.58,1636977549.25
58.77,1636977549.265625
64.0,1636977549.28125
67.33,1636977549.296875
69.09,1636977549.3125
69.79,1636977549.328125
69.93,1636977549.34375
69.81,1636977549.359375
69.47,1636977549.375
68.79,1636977549.390625
67.63,1636977549.40625
65.94,1636977549.421875
63.85,1636977549.4375
61.58,1636977549.453125
59.32,1636977549.46875
57.11,1636977549.484375
54.81,1636977549.5
52.07,1636977549.515625
48.48,1636977549.53125
43.74,1636977549.546875
37.77,1636977549.5625
30.81,1636977549.578125
23.35,1636977549.59375
15.93,1636977549.609375
8.97,1636977549.625
2.56,1636977549.640625
-3.51,1636977549.65625
-9.65,1636977549.671875
-16.18,1636977549.6875
-23.22,1636977549.703125
-30.57,1636977549.71875
-37.89,1636977549.734375
-44.84,1636977549.75
-51.28,1636977549.765625
-57.39,1636977549.78125
-63.56,1636977549.796875
-70.23,1636977549.8125
-77.78,1636977549.828125
-86.38,1636977549.84375
-95.92,1636977549.859375
-105.96,1636977549.875
-115.6,1636977549.890625
-123.55,1636977549.90625
-128.28,1636977549.921875
-128.35,1636977549.9375
-122.91,1636977549.953125
-112.03,1636977549.96875
-96.72,1636977549.984375
-78.68,1636977550.0
-59.78,1636977550.015625
-41.49,1636977550.03125
-24.63,1636977550.046875
-9.41,1636977550.0625
4.32,1636977550.078125
16.69,1636977550.09375
27.62,1636977550.109375
36.84,1636977550.125
44.05,1636977550.140625
49.11,1636977550.15625
52.26,1636977550.171875
54.03,1636977550.1875
55.07,1636977550.203125
56.05,1636977550.21875
57.31,1636977550.234375
58.9,1636977550.25
60.54,1636977550.265625
61.89,1636977550.28125
62.69,1636977550.296875
62.88,1636977550.3125
62.57,1636977550.328125
61.87,1636977550.34375
60.79,1636977550.359375
59.09,1636977550.375
56.41,1636977550.390625
52.47,1636977550.40625
47.25,1636977550.421875
41.04,1636977550.4375
34.43,1636977550.453125
28.02,1636977550.46875
22.23,1636977550.484375
17.18,1636977550.5
12.66,1636977550.515625
8.3,1636977550.53125
3.74,1636977550.546875
-1.27,1636977550.5625
-6.81,1636977550.578125
-12.79,1636977550.59375
-18.98,1636977550.609375
-25.16,1636977550.625
-31.14,1636977550.640625
-36.96,1636977550.65625
-42.9,1636977550.671875
-49.42,1636977550.6875
-57.05,1636977550.703125
-66.08,1636977550.71875
-76.4,1636977550.734375
-87.3,1636977550.75
-97.52,1636977550.765625
-105.45,1636977550.78125
-109.51,1636977550.796875
-108.42,1636977550.8125
-101.64,1636977550.828125
-89.58,1636977550.84375
-73.39,1636977550.859375
-54.78,1636977550.875
-35.52,1636977550.890625
-17.0,1636977550.90625
-0.01,1636977550.921875
15.24,1636977550.9375
28.81,1636977550.953125
40.84,1636977550.96875
51.23,1636977550.984375
59.76,1636977551.0
66.22,1636977551.015625
70.59,1636977551.03125
73.18,1636977551.046875
74.52,1636977551.0625
75.17,1636977551.078125
75.55,1636977551.09375
75.82,1636977551.109375
75.96,1636977551.125
75.86,1636977551.140625
75.49,1636977551.15625
74.87,1636977551.171875
74.06,1636977551.1875
72.98,1636977551.203125
71.42,1636977551.21875
69.07,1636977551.234375
65.63,1636977551.25
60.95,1636977551.265625
55.16,1636977551.28125
48.59,1636977551.296875
41.77,1636977551.3125
35.16,1636977551.328125
29.07,1636977551.34375
23.54,1636977551.359375
18.33,1636977551.375
13.0,1636977551.390625
7.16,1636977551.40625
0.61,1636977551.421875
-6.51,1636977551.4375
-13.76,1636977551.453125
-20.64,1636977551.46875
-26.84,1636977551.484375
-32.44,1636977551.5
-37.9,1636977551.515625
-43.96,1636977551.53125
-51.27,1636977551.546875
-60.12,1636977551.5625
-70.23,1636977551.578125
-80.68,1636977551.59375
-90.06,1636977551.609375
-96.76,1636977551.625
-99.41,1636977551.640625
-97.15,1636977551.65625
-89.96,1636977551.671875
-78.54,1636977551.6875
-64.2,1636977551.703125
-48.41,1636977551.71875
-32.47,1636977551.734375
-17.28,1636977551.75
-3.3,1636977551.765625
9.29,1636977551.78125
20.35,1636977551.796875
29.65,1636977551.8125
36.94,1636977551.828125
41.99,1636977551.84375
44.88,1636977551.859375
45.99,1636977551.875
46.02,1636977551.890625
45.66,1636977551.90625
45.41,1636977551.921875
45.43,1636977551.9375
45.6,1636977551.953125
45.7,1636977551.96875
45.58,1636977551.984375
45.22,1636977552.0
44.72,1636977552.015625
44.07,1636977552.03125
43.15,1636977552.046875
41.69,1636977552.0625
39.39,1636977552.078125
36.03,1636977552.09375
31.63,1636977552.109375
26.38,1636977552.125
20.6,1636977552.140625
14.7,1636977552.15625
9.04,1636977552.171875
3.86,1636977552.1875
-0.74,1636977552.203125
-4.85,1636977552.21875
-8.74,1636977552.234375
-12.77,1636977552.25
-17.29,1636977552.265625
-22.42,1636977552.28125
-28.11,1636977552.296875
-34.09,1636977552.3125
-40.02,1636977552.328125
-45.72,1636977552.34375
-51.21,1636977552.359375
-56.8,1636977552.375
-62.96,1636977552.390625
-70.18,1636977552.40625
-78.77,1636977552.421875
-88.66,1636977552.4375
-99.21,1636977552.453125
-109.18,1636977552.46875
-116.83,1636977552.484375
-120.27,1636977552.5
-118.09,1636977552.515625
-109.77,1636977552.53125
-95.93,1636977552.546875
-78.16,1636977552.5625
-58.42,1636977552.578125
-38.45,1636977552.59375
-19.33,1636977552.609375
-1.43,1636977552.625
15.24,1636977552.640625
30.68,1636977552.65625
44.63,1636977552.671875
56.61,1636977552.6875
66.18,1636977552.703125
73.22,1636977552.71875
77.96,1636977552.734375
80.91,1636977552.75
82.62,1636977552.765625
83.48,1636977552.78125
83.7,1636977552.796875
83.34,1636977552.8125
82.49,1636977552.828125
81.28,1636977552.84375
79.87,1636977552.859375
78.45,1636977552.875
77.1,1636977552.890625
75.75,1636977552.90625
74.17,1636977552.921875
72.03,1636977552.9375
68.95,1636977552.953125
64.69,1636977552.96875
59.19,1636977552.984375
52.67,1636977553.0
45.63,1636977553.015625
38.66,1636977553.03125
32.3,1636977553.046875
26.77,1636977553.0625
21.95,1636977553.078125
17.4,1636977553.09375
12.6,1636977553.109375
7.18,1636977553.125
1.1,1636977553.140625
-5.39,1636977553.15625
-11.92,1636977553.171875
-18.1,1636977553.1875
-23.76,1636977553.203125
-28.92,1636977553.21875
-33.8,1636977553.234375
-38.77,1636977553.25
-44.31,1636977553.265625
-50.88,1636977553.28125
-58.88,1636977553.296875
-68.3,1636977553.3125
-78.54,1636977553.328125
-88.35,1636977553.34375
-95.99,1636977553.359375
-99.64,1636977553.375
-97.98,1636977553.390625
-90.62,1636977553.40625
-78.15,1636977553.421875
-61.99,1636977553.4375
-43.93,1636977553.453125
-25.62,1636977553.46875
-8.26,1636977553.484375
7.53,1636977553.5
21.57,1636977553.515625
33.89,1636977553.53125
44.43,1636977553.546875
53.05,1636977553.5625
59.56,1636977553.578125
63.87,1636977553.59375
66.17,1636977553.609375
66.94,1636977553.625
66.8,1636977553.640625
66.32,1636977553.65625
65.82,1636977553.671875
65.29,1636977553.6875
64.54,1636977553.703125
63.36,1636977553.71875
61.72,1636977553.734375
59.76,1636977553.75
57.72,1636977553.765625
55.78,1636977553.78125
53.91,1636977553.796875
51.89,1636977553.8125
49.37,1636977553.828125
46.05,1636977553.84375
41.78,1636977553.859375
36.61,1636977553.875
30.8,1636977553.890625
24.66,1636977553.90625
18.53,1636977553.921875
12.67,1636977553.9375
7.2,1636977553.953125
2.1,1636977553.96875
-2.82,1636977553.984375
-7.86,1636977554.0
-13.3,1636977554.015625
-19.29,1636977554.03125
-25.76,1636977554.046875
-32.41,1636977554.0625
-38.81,1636977554.078125
-44.6,1636977554.09375
-49.68,1636977554.109375
-54.26,1636977554.125
-58.85,1636977554.140625
-64.11,1636977554.15625
-70.62,1636977554.171875
-78.6,1636977554.1875
-87.69,1636977554.203125
-96.9,1636977554.21875
-104.73,1636977554.234375
-109.53,1636977554.25
-109.91,1636977554.265625
-105.14,1636977554.28125
-95.4,1636977554.296875
-81.67,1636977554.3125
-65.38,1636977554.328125
-48.06,1636977554.34375
-30.99,1636977554.359375
-14.97,1636977554.375
-0.42,1636977554.390625
12.47,1636977554.40625
23.55,1636977554.421875
32.6,1636977554.4375
39.45,1636977554.453125
44.01,1636977554.46875
46.48,1636977554.484375
47.35,1636977554.5
47.27,1636977554.515625
46.89,1636977554.53125
46.7,1636977554.546875
46.88,1636977554.5625
47.32,1636977554.578125
47.83,1636977554.59375
48.17,1636977554.609375
48.23,1636977554.625
48.01,1636977554.640625
47.56,1636977554.65625
46.85,1636977554.671875
45.77,1636977554.6875
44.1,1636977554.703125
41.59,1636977554.71875
38.12,1636977554.734375
33.72,1636977554.75
28.61,1636977554.765625
23.17,1636977554.78125
17.75,1636977554.796875
12.58,1636977554.8125
7.69,1636977554.828125
2.93,1636977554.84375
-1.91,1636977554.859375
-7.01,1636977554.875
-12.41,1636977554.890625
-18.0,1636977554.90625
-23.6,1636977554.921875
-29.01,1636977554.9375
-34.12,1636977554.953125
-38.93,1636977554.96875
-43.6,1636977554.984375
-48.39,1636977555.0
-53.69,1636977555.015625
-59.91,1636977555.03125
-67.39,1636977555.046875
-76.16,1636977555.0625
-85.73,1636977555.078125
-95.04,1636977555.09375
-102.54,1636977555.109375
-106.51,1636977555.125
-105.61,1636977555.140625
-99.28,1636977555.15625
-87.91,1636977555.171875
-72.73,1636977555.1875
-55.39,1636977555.203125
-37.42,1636977555.21875
-19.96,1636977555.234375
-3.52,1636977555.25
11.72,1636977555.265625
25.74,1636977555.28125
38.43,1636977555.296875
49.5,1636977555.3125
58.64,1636977555.328125
65.58,1636977555.34375
70.34,1636977555.359375
73.17,1636977555.375
74.54,1636977555.390625
74.98,1636977555.40625
74.9,1636977555.421875
74.58,1636977555.4375
74.11,1636977555.453125
73.56,1636977555.46875
72.95,1636977555.484375
72.29,1636977555.5
71.57,1636977555.515625
70.7,1636977555.53125
69.49,1636977555.546875
67.72,1636977555.5625
65.24,1636977555.578125
61.99,1636977555.59375
57.99,1636977555.609375
53.27,1636977555.625
47.91,1636977555.640625
41.95,1636977555.65625
35.54,1636977555.671875
28.94,1636977555.6875
22.5,1636977555.703125
16.53,1636977555.71875
11.1,1636977555.734375
6.01,1636977555.75
0.88,1636977555.765625
-4.71,1636977555.78125
-10.93,1636977555.796875
-17.7,1636977555.8125
-24.65,1636977555.828125
-31.36,1636977555.84375
-37.49,1636977555.859375
-42.98,1636977555.875
-48.02,1636977555.890625
-52.98,1636977555.90625
-58.36,1636977555.921875
-64.61,1636977555.9375
-71.99,1636977555.953125
-80.43,1636977555.96875
-89.38,1636977555.984375
-97.75,1636977556.0
-104.03,1636977556.015625
-106.65,1636977556.03125
-104.4,1636977556.046875
-96.83,1636977556.0625
-84.49,1636977556.078125
-68.73,1636977556.09375
-51.32,1636977556.109375
-33.95,1636977556.125
-17.83,1636977556.140625
-3.55,1636977556.15625
8.81,1636977556.171875
19.45,1636977556.1875
28.58,1636977556.203125
36.28,1636977556.21875
42.51,1636977556.234375
47.19,1636977556.25
50.33,1636977556.265625
52.07,1636977556.28125
52.67,1636977556.296875
52.5,1636977556.3125
51.87,1636977556.328125
51.05,1636977556.34375
50.14,1636977556.359375
49.21,1636977556.375
48.29,1636977556.390625
47.41,1636977556.40625
46.63,1636977556.421875
45.96,1636977556.4375
45.25,1636977556.453125
44.17,1636977556.46875
42.31,1636977556.484375
39.27,1636977556.5
34.92,1636977556.515625
29.46,1636977556.53125
23.4,1636977556.546875
17.37,1636977556.5625
11.84,1636977556.578125
6.93,1636977556.59375
2.42,1636977556.609375
-2.16,1636977556.625
-7.22,1636977556.640625
-12.94,1636977556.65625
-19.2,1636977556.671875
-25.61,1636977556.6875
-31.74,1636977556.703125
-37.23,1636977556.71875
-42.02,1636977556.734375
-46.29,1636977556.75
-50.47,1636977556.765625
-55.1,1636977556.78125
-60.76,1636977556.796875
-67.8,1636977556.8125
-76.16,1636977556.828125
-85.17,1636977556.84375
-93.5,1636977556.859375
-99.47,1636977556.875
-101.4,1636977556.890625
-98.16,1636977556.90625
-89.53,1636977556.921875
-76.3,1636977556.9375
-59.96,1636977556.953125
-42.24,1636977556.96875
-24.63,1636977556.984375
-8.03,1636977557.0
7.19,1636977557.015625
20.97,1636977557.03125
33.28,1636977557.046875
43.93,1636977557.0625
52.57,1636977557.078125
58.91,1636977557.09375
62.95,1636977557.109375
64.99,1636977557.125
65.65,1636977557.140625
65.63,1636977557.15625
65.44,1636977557.171875
65.32,1636977557.1875
65.2,1636977557.203125
64.88,1636977557.21875
64.21,1636977557.234375
63.19,1636977557.25
61.97,1636977557.265625
60.71,1636977557.28125
59.4,1636977557.296875
57.86,1636977557.3125
55.71,1636977557.328125
52.62,1636977557.34375
48.42,1636977557.359375
43.24,1636977557.375
37.48,1636977557.390625
31.6,1636977557.40625
26.01,1636977557.421875
20.93,1636977557.4375
16.36,1636977557.453125
12.09,1636977557.46875
7.79,1636977557.484375
3.14,1636977557.5
-2.08,1636977557.515625
-7.85,1636977557.53125
-13.91,1636977557.546875
-19.85,1636977557.5625
-25.31,1636977557.578125
-30.2,1636977557.59375
-34.77,1636977557.609375
-39.57,1636977557.625
-45.2,1636977557.640625
-52.17,1636977557.65625
-60.6,1636977557.671875
-70.14,1636977557.6875
-79.93,1636977557.703125
-88.66,1636977557.71875
-94.77,1636977557.734375
-96.8,1636977557.75
-93.79,1636977557.765625
-85.63,1636977557.78125
-73.12,1636977557.796875
-57.76,1636977557.8125
-41.31,1636977557.828125
-25.23,1636977557.84375
-10.39,1636977557.859375
2.96,1636977557.875
14.91,1636977557.890625
25.62,1636977557.90625
35.05,1636977557.921875
42.95,1636977557.9375
48.98,1636977557.953125
52.89,1636977557.96875
54.7,1636977557.984375
54.74,1636977558.0
53.57,1636977558.015625
51.83,1636977558.03125
50.05,1636977558.046875
48.54,1636977558.0625
47.34,1636977558.078125
46.31,1636977558.09375
45.21,1636977558.109375
43.85,1636977558.125
42.18,1636977558.140625
40.24,1636977558.15625
38.09,1636977558.171875
35.7,1636977558.1875
32.92,1636977558.203125
29.5,1636977558.21875
25.24,1636977558.234375
20.1,1636977558.25
14.28,1636977558.265625
8.22,1636977558.28125
2.38,1636977558.296875
-2.91,1636977558.3125
-7.61,1636977558.328125
-11.97,1636977558.34375
-16.36,1636977558.359375
-21.11,1636977558.375
-26.34,1636977558.390625
-31.92,1636977558.40625
-37.49,1636977558.421875
-42.69,1636977558.4375
-47.29,1636977558.453125
-51.29,1636977558.46875
-54.96,1636977558.484375
-58.72,1636977558.5
-63.02,1636977558.515625
-68.27,1636977558.53125
-74.77,1636977558.546875
-82.6,1636977558.5625
-91.53,1636977558.578125
-100.81,1636977558.59375
-109.14,1636977558.609375
-114.84,1636977558.625
-116.24,1636977558.640625
-112.17,1636977558.65625
-102.42,1636977558.671875
-87.85,1636977558.6875
-70.05,1636977558.703125
-50.92,1636977558.71875
-32.07,1636977558.734375
-14.48,1636977558.75
1.47,1636977558.765625
15.83,1636977558.78125
28.72,1636977558.796875
40.13,1636977558.8125
49.86,1636977558.828125
57.63,1636977558.84375
63.33,1636977558.859375
67.04,1636977558.875
69.13,1636977558.890625
70.11,1636977558.90625
70.45,1636977558.921875
70.45,1636977558.9375
70.23,1636977558.953125
69.82,1636977558.96875
69.2,1636977558.984375
68.48,1636977559.0
67.78,1636977559.015625
67.18,1636977559.03125
66.58,1636977559.046875
65.64,1636977559.0625
63.93,1636977559.078125
61.06,1636977559.09375
56.91,1636977559.109375
51.66,1636977559.125
45.76,1636977559.140625
39.74,1636977559.15625
33.97,1636977559.171875
28.59,1636977559.1875
23.48,1636977559.203125
18.36,1636977559.21875
13.01,1636977559.234375
7.32,1636977559.25
1.36,1636977559.265625
-4.67,1636977559.28125
-10.55,1636977559.296875
-16.14,1636977559.3125
-21.44,1636977559.328125
-26.64,1636977559.34375
-32.07,1636977559.359375
-38.12,1636977559.375
-45.06,1636977559.390625
-52.91,1636977559.40625
-61.2,1636977559.421875
-68.97,1636977559.4375
-74.84,1636977559.453125
-77.34,1636977559.46875
-75.34,1636977559.484375
-68.44,1636977559.5
-57.07,1636977559.515625
-42.45,1636977559.53125
-26.17,1636977559.546875
-9.74,1636977559.5625
5.67,1636977559.578125
19.43,1636977559.59375
31.32,1636977559.609375
41.37,1636977559.625
49.59,1636977559.640625
55.96,1636977559.65625
60.44,1636977559.671875
63.07,1636977559.6875
64.05,1636977559.703125
63.76,1636977559.71875
62.65,1636977559.734375
61.14,1636977559.75
59.49,1636977559.765625
57.79,1636977559.78125
56.02,1636977559.796875
54.11,1636977559.8125
52.07,1636977559.828125
49.99,1636977559.84375
47.94,1636977559.859375
45.87,1636977559.875
43.55,1636977559.890625
40.63,1636977559.90625
36.72,1636977559.921875
31.64,1636977559.9375
25.48,1636977559.953125
18.64,1636977559.96875
11.66,1636977559.984375
5.04,1636977560.0
-0.92,1636977560.015625
-6.25,1636977560.03125
-11.26,1636977560.046875
-16.36,1636977560.0625
-21.88,1636977560.078125
-27.94,1636977560.09375
-34.39,1636977560.109375
-40.9,1636977560.125
-47.2,1636977560.140625
-53.21,1636977560.15625
-59.09,1636977560.171875
-65.25,1636977560.1875
-72.14,1636977560.203125
-80.08,1636977560.21875
-89.09,1636977560.234375
-98.92,1636977560.25
-108.96,1636977560.265625
-118.24,1636977560.28125
-125.53,1636977560.296875
-129.4,1636977560.3125
-128.63,1636977560.328125
-122.46,1636977560.34375
-111.0,1636977560.359375
-95.25,1636977560.375
-76.87,1636977560.390625
-57.66,1636977560.40625
-39.14,1636977560.421875
-22.16,1636977560.4375
-6.99,1636977560.453125
6.47,1636977560.46875
18.34,1636977560.484375
28.55,1636977560.5
36.94,1636977560.515625
43.31,1636977560.53125
47.71,1636977560.546875
50.46,1636977560.5625
52.13,1636977560.578125
53.31,1636977560.59375
54.41,1636977560.609375
55.58,1636977560.625
56.74,1636977560.640625
57.72,1636977560.65625
58.37,1636977560.671875
58.64,1636977560.6875
58.58,1636977560.703125
58.22,1636977560.71875
57.48,1636977560.734375
56.11,1636977560.75
53.83,1636977560.765625
50.4,1636977560.78125
45.79,1636977560.796875
40.24,1636977560.8125
34.19,1636977560.828125
28.12,1636977560.84375
22.44,1636977560.859375
17.29,1636977560.875
12.55,1636977560.890625
7.89,1636977560.90625
2.92,1636977560.921875
-2.68,1636977560.9375
-8.99,1636977560.953125
-15.78,1636977560.96875
-22.61,1636977560.984375
-28.96,1636977561.0
-34.49,1636977561.015625
-39.2,1636977561.03125
-43.46,1636977561.046875
-47.91,1636977561.0625
-53.29,1636977561.078125
-60.12,1636977561.09375
-68.54,1636977561.109375
-78.05,1636977561.125
-87.58,1636977561.140625
-95.62,1636977561.15625
-100.5,1636977561.171875
-100.81,1636977561.1875
-95.76,1636977561.203125
-85.41,1636977561.21875
-70.73,1636977561.234375
-53.3,1636977561.25
-34.84,1636977561.265625
-16.78,1636977561.28125
-0.0,1636977561.296875
15.26,1636977561.3125
29.11,1636977561.328125
41.71,1636977561.34375
53.04,1636977561.359375
62.79,1636977561.375
70.54,1636977561.390625
75.98,1636977561.40625
79.1,1636977561.421875
80.28,1636977561.4375
80.16,1636977561.453125
79.39,1636977561.46875
78.44,1636977561.484375
77.44,1636977561.5
76.33,1636977561.515625
74.95,1636977561.53125
73.26,1636977561.546875
71.36,1636977561.5625
69.39,1636977561.578125
67.39,1636977561.59375
65.18,1636977561.609375
62.37,1636977561.625
58.61,1636977561.640625
53.73,1636977561.65625
47.88,1636977561.671875
41.48,1636977561.6875
34.99,1636977561.703125
28.74,1636977561.71875
22.75,1636977561.734375
16.88,1636977561.75
10.84,1636977561.765625
4.52,1636977561.78125
-2.08,1636977561.796875
-8.76,1636977561.8125
-15.22,1636977561.828125
-21.25,1636977561.84375
-26.76,1636977561.859375
-31.82,1636977561.875
-36.69,1636977561.890625
-41.76,1636977561.90625
-47.51,1636977561.921875
-54.39,1636977561.9375
-62.67,1636977561.953125
-72.18,1636977561.96875
-82.18,1636977561.984375
-91.38,1636977562.0
-98.16,1636977562.015625
-101.02,1636977562.03125
-98.95,1636977562.046875
