bvp,time
93.48,1669463276.28125
97.35,1669463276.296875
100.94,1669463276.3125
102.71,1669463276.328125
100.93,1669463276.34375
94.4,1669463276.359375
82.95,1669463276.375
67.36,1669463276.390625
49.13,1669463276.40625
30.31,1669463276.421875
13.18,1669463276.4375
0.04,1669463276.453125
-7.41,1669463276.46875
-8.65,1669463276.484375
-4.75,1669463276.5
1.86,1669463276.515625
8.2,1669463276.53125
11.97,1669463276.546875
12.48,1669463276.5625
10.7,1669463276.578125
8.49,1669463276.59375
7.51,1669463276.609375
8.38,1669463276.625
10.52,1669463276.640625
12.76,1669463276.65625
13.77,1669463276.671875
12.53,1669463276.6875
8.27,1669463276.703125
0.55,1669463276.71875
-10.49,1669463276.734375
-23.9,1669463276.75
-37.9,1669463276.765625
-50.38,1669463276.78125
-59.68,1669463276.796875
-65.39,1669463276.8125
-68.63,1669463276.828125
-71.6,1669463276.84375
-76.62,1669463276.859375
-85.04,1669463276.875
-96.8,1669463276.890625
-110.61,1669463276.90625
-124.57,1669463276.921875
-136.84,1669463276.9375
-146.04,1669463276.953125
-151.4,1669463276.96875
-152.83,1669463276.984375
-150.74,1669463277.0
-145.71,1669463277.015625
-138.35,1669463277.03125
-129.44,1669463277.046875
-119.98,1669463277.0625
-111.16,1669463277.078125
-104.17,1669463277.09375
-99.81,1669463277.109375
-98.48,1669463277.125
-99.53,1669463277.140625
-101.02,1669463277.15625
-100.18,1669463277.171875
-94.83,1669463277.1875
-84.42,1669463277.203125
-70.28,1669463277.21875
-54.93,1669463277.234375
-40.98,1669463277.25
-30.78,1669463277.265625
-25.0,1669463277.28125
-21.85,1669463277.296875
-17.66,1669463277.3125
-8.75,1669463277.328125
6.97,1669463277.34375
29.54,1669463277.359375
57.3,1669463277.375
87.57,1669463277.390625
116.21,1669463277.40625
139.86,1669463277.421875
157.72,1669463277.4375
171.85,1669463277.453125
185.2,1669463277.46875
199.44,1669463277.484375
214.03,1669463277.5
226.25,1669463277.515625
231.78,1669463277.53125
224.33,1669463277.546875
198.72,1669463277.5625
153.59,1669463277.578125
92.61,1669463277.59375
22.66,1669463277.609375
-48.26,1669463277.625
-112.06,1669463277.640625
-161.56,1669463277.65625
-181.94,1669463277.671875
-163.76,1669463277.6875
-114.41,1669463277.703125
-56.84,1669463277.71875
-13.29,1669463277.734375
6.21,1669463277.75
3.88,1669463277.765625
-10.79,1669463277.78125
-26.64,1669463277.796875
-35.3,1669463277.8125
-37.18,1669463277.828125
-34.83,1669463277.84375
-30.49,1669463277.859375
-24.37,1669463277.875
-15.7,1669463277.890625
-4.19,1669463277.90625
9.4,1669463277.921875
23.5,1669463277.9375
36.1,1669463277.953125
44.21,1669463277.96875
46.27,1669463277.984375
42.98,1669463278.0
37.47,1669463278.015625
33.2,1669463278.03125
32.14,1669463278.046875
34.25,1669463278.0625
38.13,1669463278.078125
41.86,1669463278.09375
43.2,1669463278.109375
41.12,1669463278.125
36.39,1669463278.140625
31.42,1669463278.15625
28.73,1669463278.171875
29.57,1669463278.1875
33.55,1669463278.203125
39.1,1669463278.21875
44.19,1669463278.234375
46.71,1669463278.25
45.57,1669463278.265625
41.03,1669463278.28125
34.56,1669463278.296875
27.83,1669463278.3125
21.85,1669463278.328125
16.64,1669463278.34375
11.48,1669463278.359375
5.53,1669463278.375
-1.81,1669463278.390625
-10.33,1669463278.40625
-19.21,1669463278.421875
-27.25,1669463278.4375
-33.55,1669463278.453125
-37.91,1669463278.46875
-40.82,1669463278.484375
-43.14,1669463278.5
-45.7,1669463278.515625
-49.08,1669463278.53125
-53.52,1669463278.546875
-59.08,1669463278.5625
-65.86,1669463278.578125
-73.96,1669463278.59375
-83.33,1669463278.609375
-93.47,1669463278.625
-103.23,1669463278.640625
-110.8,1669463278.65625
-114.22,1669463278.671875
-111.97,1669463278.6875
-103.69,1669463278.703125
-90.39,1669463278.71875
-74.16,1669463278.734375
-57.42,1669463278.75
-42.08,1669463278.765625
-29.05,1669463278.78125
-18.23,1669463278.796875
-8.94,1669463278.8125
-0.52,1669463278.828125
7.29,1669463278.84375
14.36,1669463278.859375
20.39,1669463278.875
25.19,1669463278.890625
28.84,1669463278.90625
31.62,1669463278.921875
33.79,1669463278.9375
35.48,1669463278.953125
36.6,1669463278.96875
36.99,1669463278.984375
36.65,1669463279.0
35.83,1669463279.015625
35.04,1669463279.03125
34.81,1669463279.046875
35.46,1669463279.0625
36.93,1669463279.078125
38.75,1669463279.09375
40.23,1669463279.109375
40.71,1669463279.125
39.8,1669463279.140625
37.47,1669463279.15625
34.01,1669463279.171875
29.94,1669463279.1875
25.79,1669463279.203125
22.0,1669463279.21875
18.71,1669463279.234375
15.79,1669463279.25
12.84,1669463279.265625
9.41,1669463279.28125
5.21,1669463279.296875
0.29,1669463279.3125
-4.96,1669463279.328125
-9.99,1669463279.34375
-14.4,1669463279.359375
-18.06,1669463279.375
-21.21,1669463279.390625
-24.29,1669463279.40625
-27.81,1669463279.421875
-32.17,1669463279.4375
-37.61,1669463279.453125
-44.08,1669463279.46875
-51.13,1669463279.484375
-57.79,1669463279.5
-62.63,1669463279.515625
-64.07,1669463279.53125
-60.92,1669463279.546875
-52.88,1669463279.5625
-40.74,1669463279.578125
-26.24,1669463279.59375
-11.39,1669463279.609375
2.11,1669463279.625
13.35,1669463279.640625
22.17,1669463279.65625
28.97,1669463279.671875
34.21,1669463279.6875
38.19,1669463279.703125
40.97,1669463279.71875
42.47,1669463279.734375
42.72,1669463279.75
41.89,1669463279.765625
40.38,1669463279.78125
38.59,1669463279.796875
36.82,1669463279.8125
35.24,1669463279.828125
33.88,1669463279.84375
32.72,1669463279.859375
31.82,1669463279.875
31.24,1669463279.890625
31.06,1669463279.90625
31.24,1669463279.921875
31.56,1669463279.9375
31.73,1669463279.953125
31.39,1669463279.96875
30.33,1669463279.984375
28.42,1669463280.0
25.71,1669463280.015625
22.28,1669463280.03125
18.28,1669463280.046875
13.83,1669463280.0625
9.08,1669463280.078125
4.13,1669463280.09375
-0.96,1669463280.109375
-6.1,1669463280.125
-11.2,1669463280.140625
-16.08,1669463280.15625
-20.56,1669463280.171875
-24.55,1669463280.1875
-28.18,1669463280.203125
-31.87,1669463280.21875
-36.2,1669463280.234375
-41.72,1669463280.25
-48.53,1669463280.265625
-56.03,1669463280.28125
-62.91,1669463280.296875
-67.43,1669463280.3125
-67.93,1669463280.328125
-63.48,1669463280.34375
-54.19,1669463280.359375
-41.26,1669463280.375
-26.57,1669463280.390625
-12.02,1669463280.40625
1.04,1669463280.421875
12.04,1669463280.4375
21.07,1669463280.453125
28.55,1669463280.46875
34.85,1669463280.484375
40.04,1669463280.5
44.08,1669463280.515625
46.87,1669463280.53125
48.48,1669463280.546875
49.08,1669463280.5625
48.92,1669463280.578125
48.17,1669463280.59375
46.92,1669463280.609375
45.24,1669463280.625
43.26,1669463280.640625
41.26,1669463280.65625
39.56,1669463280.671875
38.42,1669463280.6875
37.92,1669463280.703125
37.92,1669463280.71875
38.07,1669463280.734375
37.93,1669463280.75
37.11,1669463280.765625
35.36,1669463280.78125
32.66,1669463280.796875
29.18,1669463280.8125
25.29,1669463280.828125
21.26,1669463280.84375
17.3,1669463280.859375
13.36,1669463280.875
9.27,1669463280.890625
4.84,1669463280.90625
-0.02,1669463280.921875
-5.21,1669463280.9375
-10.48,1669463280.953125
-15.53,1669463280.96875
-20.14,1669463280.984375
-24.31,1669463281.0
-28.2,1669463281.015625
-32.19,1669463281.03125
-36.69,1669463281.046875
-42.13,1669463281.0625
-48.66,1669463281.078125
-56.04,1669463281.09375
-63.44,1669463281.109375
-69.5,1669463281.125
-72.6,1669463281.140625
-71.36,1669463281.15625
-65.2,1669463281.171875
-54.54,1669463281.1875
-40.79,1669463281.203125
-25.86,1669463281.21875
-11.54,1669463281.234375
1.01,1669463281.25
11.45,1669463281.265625
20.08,1669463281.28125
27.46,1669463281.296875
34.02,1669463281.3125
39.87,1669463281.328125
44.83,1669463281.34375
48.67,1669463281.359375
51.23,1669463281.375
52.6,1669463281.390625
52.98,1669463281.40625
52.6,1669463281.421875
51.63,1669463281.4375
50.14,1669463281.453125
48.21,1669463281.46875
46.01,1669463281.484375
43.84,1669463281.5
42.1,1669463281.515625
41.05,1669463281.53125
40.77,1669463281.546875
41.03,1669463281.5625
41.36,1669463281.578125
41.15,1669463281.59375
39.87,1669463281.609375
37.24,1669463281.625
33.31,1669463281.640625
28.51,1669463281.65625
23.45,1669463281.671875
18.77,1669463281.6875
14.88,1669463281.703125
11.8,1669463281.71875
9.15,1669463281.734375
6.4,1669463281.75
3.02,1669463281.765625
-1.2,1669463281.78125
-6.12,1669463281.796875
-11.36,1669463281.8125
-16.45,1669463281.828125
-21.09,1669463281.84375
-25.2,1669463281.859375
-28.94,1669463281.875
-32.62,1669463281.890625
-36.63,1669463281.90625
-41.36,1669463281.921875
-47.05,1669463281.9375
-53.7,1669463281.953125
-60.84,1669463281.96875
-67.48,1669463281.984375
-72.22,1669463282.0
-73.56,1669463282.015625
-70.42,1669463282.03125
-62.59,1669463282.046875
-50.87,1669463282.0625
-36.89,1669463282.078125
-22.58,1669463282.09375
-9.49,1669463282.109375
1.54,1669463282.125
10.47,1669463282.140625
17.78,1669463282.15625
24.04,1669463282.171875
29.57,1669463282.1875
34.42,1669463282.203125
38.39,1669463282.21875
41.31,1669463282.234375
43.18,1669463282.25
44.07,1669463282.265625
44.13,1669463282.28125
43.45,1669463282.296875
42.13,1669463282.3125
40.29,1669463282.328125
38.18,1669463282.34375
36.11,1669463282.359375
34.42,1669463282.375
33.27,1669463282.390625
32.63,1669463282.40625
32.28,1669463282.421875
31.9,1669463282.4375
31.23,1669463282.453125
30.08,1669463282.46875
28.42,1669463282.484375
26.22,1669463282.5
23.54,1669463282.515625
20.47,1669463282.53125
17.16,1669463282.546875
13.79,1669463282.5625
10.52,1669463282.578125
7.36,1669463282.59375
4.18,1669463282.609375
0.69,1669463282.625
-3.31,1669463282.640625
-7.83,1669463282.65625
-12.58,1669463282.671875
-17.08,1669463282.6875
-20.86,1669463282.703125
-23.79,1669463282.71875
-26.15,1669463282.734375
-28.56,1669463282.75
-31.72,1669463282.765625
-36.05,1669463282.78125
-41.51,1669463282.796875
-47.46,1669463282.8125
-52.85,1669463282.828125
-56.41,1669463282.84375
-57.04,1669463282.859375
-54.09,1669463282.875
-47.55,1669463282.890625
-38.12,1669463282.90625
-27.04,1669463282.921875
-15.71,1669463282.9375
-5.33,1669463282.953125
3.39,1669463282.96875
10.37,1669463282.984375
15.88,1669463283.0
20.34,1669463283.015625
24.03,1669463283.03125
27.0,1669463283.046875
29.14,1669463283.0625
30.34,1669463283.078125
30.62,1669463283.09375
30.13,1669463283.109375
29.15,1669463283.125
27.9,1669463283.140625
26.56,1669463283.15625
25.21,1669463283.171875
23.89,1669463283.1875
22.69,1669463283.203125
21.75,1669463283.21875
21.21,1669463283.234375
21.1,1669463283.25
21.25,1669463283.265625
21.32,1669463283.28125
20.83,1669463283.296875
19.44,1669463283.3125
17.06,1669463283.328125
13.89,1669463283.34375
10.35,1669463283.359375
6.87,1669463283.375
3.73,1669463283.390625
0.94,1669463283.40625
-1.69,1669463283.421875
-4.46,1669463283.4375
-7.56,1669463283.453125
-11.04,1669463283.46875
-14.77,1669463283.484375
-18.51,1669463283.5
-21.97,1669463283.515625
-24.95,1669463283.53125
-27.43,1669463283.546875
-29.57,1669463283.5625
-31.77,1669463283.578125
-34.54,1669463283.59375
-38.34,1669463283.609375
-43.37,1669463283.625
-49.29,1669463283.640625
-55.22,1669463283.65625
-59.85,1669463283.671875
-61.75,1669463283.6875
-59.87,1669463283.703125
-53.88,1669463283.71875
-44.39,1669463283.734375
-32.71,1669463283.75
-20.48,1669463283.765625
-9.14,1669463283.78125
0.46,1669463283.796875
8.16,1669463283.8125
14.25,1669463283.828125
19.24,1669463283.84375
23.48,1669463283.859375
27.09,1669463283.875
29.97,1669463283.890625
32.05,1669463283.90625
33.33,1669463283.921875
33.91,1669463283.9375
33.94,1669463283.953125
33.54,1669463283.96875
32.73,1669463283.984375
31.52,1669463284.0
29.96,1669463284.015625
28.18,1669463284.03125
26.43,1669463284.046875
24.98,1669463284.0625
24.03,1669463284.078125
23.67,1669463284.09375
23.82,1669463284.109375
24.24,1669463284.125
24.56,1669463284.140625
24.37,1669463284.15625
23.39,1669463284.171875
21.51,1669463284.1875
18.86,1669463284.203125
15.78,1669463284.21875
12.61,1669463284.234375
9.61,1669463284.25
6.86,1669463284.265625
4.24,1669463284.28125
1.63,1669463284.296875
-1.12,1669463284.3125
-4.06,1669463284.328125
-7.17,1669463284.34375
-10.42,1669463284.359375
-13.77,1669463284.375
-17.21,1669463284.390625
-20.67,1669463284.40625
-24.13,1669463284.421875
-27.54,1669463284.4375
-30.97,1669463284.453125
-34.6,1669463284.46875
-38.69,1669463284.484375
-43.46,1669463284.5
-48.86,1669463284.515625
-54.5,1669463284.53125
-59.48,1669463284.546875
-62.65,1669463284.5625
-62.84,1669463284.578125
-59.34,1669463284.59375
-52.15,1669463284.609375
-42.09,1669463284.625
-30.49,1669463284.640625
-18.79,1669463284.65625
-8.09,1669463284.671875
1.1,1669463284.6875
8.81,1669463284.703125
15.32,1669463284.71875
20.92,1669463284.734375
25.7,1669463284.75
29.56,1669463284.765625
32.4,1669463284.78125
34.21,1669463284.796875
35.12,1669463284.8125
35.33,1669463284.828125
35.02,1669463284.84375
34.3,1669463284.859375
33.21,1669463284.875
31.83,1669463284.890625
30.38,1669463284.90625
29.13,1669463284.921875
28.33,1669463284.9375
28.12,1669463284.953125
28.35,1669463284.96875
28.69,1669463284.984375
28.72,1669463285.0
28.13,1669463285.015625
26.79,1669463285.03125
24.78,1669463285.046875
22.27,1669463285.0625
19.4,1669463285.078125
16.26,1669463285.09375
12.88,1669463285.109375
9.35,1669463285.125
5.86,1669463285.140625
2.61,1669463285.15625
-0.25,1669463285.171875
-2.73,1669463285.1875
-5.04,1669463285.203125
-7.45,1669463285.21875
-10.2,1669463285.234375
-13.35,1669463285.25
-16.75,1669463285.265625
-20.15,1669463285.28125
-23.28,1669463285.296875
-26.05,1669463285.3125
-28.5,1669463285.328125
-30.87,1669463285.34375
-33.5,1669463285.359375
-36.74,1669463285.375
-40.85,1669463285.390625
-45.73,1669463285.40625
-50.88,1669463285.421875
-55.35,1669463285.4375
-57.9,1669463285.453125
-57.37,1669463285.46875
-53.15,1669463285.484375
-45.4,1669463285.5
-35.06,1669463285.515625
-23.51,1669463285.53125
-12.19,1669463285.546875
-2.12,1669463285.5625
6.21,1669463285.578125
12.79,1669463285.59375
17.91,1669463285.609375
21.85,1669463285.625
24.84,1669463285.640625
27.0,1669463285.65625
28.34,1669463285.671875
28.9,1669463285.6875
28.77,1669463285.703125
28.09,1669463285.71875
26.99,1669463285.734375
25.64,1669463285.75
24.17,1669463285.765625
22.68,1669463285.78125
21.35,1669463285.796875
20.34,1669463285.8125
19.81,1669463285.828125
19.85,1669463285.84375
20.41,1669463285.859375
21.24,1669463285.875
21.96,1669463285.890625
22.19,1669463285.90625
21.62,1669463285.921875
20.12,1669463285.9375
17.78,1669463285.953125
14.85,1669463285.96875
11.65,1669463285.984375
8.47,1669463286.0
5.48,1669463286.015625
2.64,1669463286.03125
-0.21,1669463286.046875
-3.34,1669463286.0625
-6.89,1669463286.078125
-10.87,1669463286.09375
-15.04,1669463286.109375
-19.08,1669463286.125
-22.69,1669463286.140625
-25.75,1669463286.15625
-28.35,1669463286.171875
-30.72,1669463286.1875
-33.2,1669463286.203125
-36.11,1669463286.21875
-39.64,1669463286.234375
-43.79,1669463286.25
-48.15,1669463286.265625
-51.93,1669463286.28125
-53.97,1669463286.296875
-53.11,1669463286.3125
-48.6,1669463286.328125
-40.48,1669463286.34375
-29.66,1669463286.359375
-17.67,1669463286.375
-6.16,1669463286.390625
3.67,1669463286.40625
11.32,1669463286.421875
16.95,1669463286.4375
21.08,1669463286.453125
24.21,1669463286.46875
26.57,1669463286.484375
28.09,1669463286.5
28.65,1669463286.515625
28.26,1669463286.53125
27.17,1669463286.546875
25.85,1669463286.5625
24.74,1669463286.578125
24.06,1669463286.59375
23.74,1669463286.609375
23.48,1669463286.625
22.93,1669463286.640625
21.97,1669463286.65625
20.76,1669463286.671875
19.69,1669463286.6875
19.11,1669463286.703125
19.17,1669463286.71875
19.66,1669463286.734375
20.08,1669463286.75
19.91,1669463286.765625
18.76,1669463286.78125
16.57,1669463286.796875
13.6,1669463286.8125
10.24,1669463286.828125
6.89,1669463286.84375
3.85,1669463286.859375
1.16,1669463286.875
-1.28,1669463286.890625
-3.71,1669463286.90625
-6.4,1669463286.921875
-9.6,1669463286.9375
-13.39,1669463286.953125
-17.64,1669463286.96875
-22.01,1669463286.984375
-26.05,1669463287.0
-29.41,1669463287.015625
-32.07,1669463287.03125
-34.34,1669463287.046875
-36.78,1669463287.0625
-39.92,1669463287.078125
-44.08,1669463287.09375
-49.15,1669463287.109375
-54.55,1669463287.125
-59.35,1669463287.140625
-62.42,1669463287.15625
-62.69,1669463287.171875
-59.35,1669463287.1875
-52.17,1669463287.203125
-41.65,1669463287.21875
-28.98,1669463287.234375
-15.79,1669463287.25
-3.65,1669463287.265625
6.37,1669463287.28125
13.95,1669463287.296875
19.49,1669463287.3125
23.73,1669463287.328125
27.29,1669463287.34375
30.48,1669463287.359375
33.2,1669463287.375
35.16,1669463287.390625
36.18,1669463287.40625
36.29,1669463287.421875
35.65,1669463287.4375
34.53,1669463287.453125
33.14,1669463287.46875
31.58,1669463287.484375
29.91,1669463287.5
28.18,1669463287.515625
26.49,1669463287.53125
24.96,1669463287.546875
23.68,1669463287.5625
22.71,1669463287.578125
22.05,1669463287.59375
21.63,1669463287.609375
21.28,1669463287.625
20.74,1669463287.640625
19.69,1669463287.65625
17.88,1669463287.671875
15.25,1669463287.6875
12.04,1669463287.703125
8.68,1669463287.71875
5.64,1669463287.734375
3.15,1669463287.75
1.13,1669463287.765625
-0.79,1669463287.78125
-3.06,1669463287.796875
-5.96,1669463287.8125
-9.52,1669463287.828125
-13.48,1669463287.84375
-17.45,1669463287.859375
-21.08,1669463287.875
-24.21,1669463287.890625
-26.91,1669463287.90625
-29.37,1669463287.921875
-31.82,1669463287.9375
-34.46,1669463287.953125
-37.48,1669463287.96875
-41.07,1669463287.984375
-45.4,1669463288.0
-50.46,1669463288.015625
-55.79,1669463288.03125
-60.38,1669463288.046875
-62.77,1669463288.0625
-61.52,1669463288.078125
-55.79,1669463288.09375
-45.79,1669463288.109375
-32.84,1669463288.125
-18.91,1669463288.140625
-5.89,1669463288.15625
4.99,1669463288.171875
13.41,1669463288.1875
19.75,1669463288.203125
24.68,1669463288.21875
28.72,1669463288.234375
32.1,1669463288.25
34.79,1669463288.265625
36.7,1669463288.28125
37.82,1669463288.296875
38.24,1669463288.3125
38.04,1669463288.328125
37.27,1669463288.34375
35.93,1669463288.359375
33.99,1669463288.375
31.44,1669463288.390625
28.44,1669463288.40625
25.28,1669463288.421875
22.41,1669463288.4375
20.3,1669463288.453125
19.28,1669463288.46875
19.37,1669463288.484375
20.22,1669463288.5
21.13,1669463288.515625
21.39,1669463288.53125
20.52,1669463288.546875
18.43,1669463288.5625
15.48,1669463288.578125
12.27,1669463288.59375
9.37,1669463288.609375
7.05,1669463288.625
5.2,1669463288.640625
3.44,1669463288.65625
1.27,1669463288.671875
-1.64,1669463288.6875
-5.34,1669463288.703125
-9.61,1669463288.71875
-14.04,1669463288.734375
-18.25,1669463288.75
-22.0,1669463288.765625
-25.24,1669463288.78125
-28.15,1669463288.796875
-31.01,1669463288.8125
-34.12,1669463288.828125
-37.8,1669463288.84375
-42.19,1669463288.859375
-47.22,1669463288.875
-52.39,1669463288.890625
-56.76,1669463288.90625
-59.06,1669463288.921875
-58.07,1669463288.9375
-53.04,1669463288.953125
-44.08,1669463288.96875
-32.17,1669463288.984375
-18.93,1669463289.0
-6.03,1669463289.015625
5.28,1669463289.03125
14.41,1669463289.046875
21.34,1669463289.0625
26.39,1669463289.078125
29.89,1669463289.09375
32.06,1669463289.109375
33.0,1669463289.125
32.83,1669463289.140625
31.77,1669463289.15625
30.14,1669463289.171875
28.32,1669463289.1875
26.62,1669463289.203125
25.24,1669463289.21875
24.18,1669463289.234375
23.3,1669463289.25
22.43,1669463289.265625
21.45,1669463289.28125
20.39,1669463289.296875
19.41,1669463289.3125
18.71,1669463289.328125
18.36,1669463289.34375
18.17,1669463289.359375
17.75,1669463289.375
16.67,1669463289.390625
14.73,1669463289.40625
12.03,1669463289.421875
8.97,1669463289.4375
5.99,1669463289.453125
3.35,1669463289.46875
0.98,1669463289.484375
-1.52,1669463289.5
-4.58,1669463289.515625
-8.44,1669463289.53125
-12.97,1669463289.546875
-17.69,1669463289.5625
-22.02,1669463289.578125
-25.51,1669463289.59375
-28.11,1669463289.609375
-30.14,1669463289.625
-32.2,1669463289.640625
-34.95,1669463289.65625
-38.86,1669463289.671875
-44.07,1669463289.6875
-50.23,1669463289.703125
-56.45,1669463289.71875
-61.42,1669463289.734375
-63.65,1669463289.75
-61.98,1669463289.765625
-55.94,1669463289.78125
-45.99,1669463289.796875
-33.44,1669463289.8125
-20.0,1669463289.828125
-7.21,1669463289.84375
3.9,1669463289.859375
12.97,1669463289.875
20.09,1669463289.890625
25.53,1669463289.90625
29.56,1669463289.921875
32.37,1669463289.9375
34.17,1669463289.953125
35.24,1669463289.96875
35.85,1669463289.984375
36.17,1669463290.0
36.19,1669463290.015625
35.78,1669463290.03125
34.81,1669463290.046875
33.25,1669463290.0625
31.22,1669463290.078125
28.97,1669463290.09375
26.76,1669463290.109375
24.85,1669463290.125
23.44,1669463290.140625
22.59,1669463290.15625
22.23,1669463290.171875
22.04,1669463290.1875
21.61,1669463290.203125
20.48,1669463290.21875
18.39,1669463290.234375
15.35,1669463290.25
11.66,1669463290.265625
7.75,1669463290.28125
4.01,1669463290.296875
0.63,1669463290.3125
-2.5,1669463290.328125
-5.6,1669463290.34375
-8.96,1669463290.359375
-12.67,1669463290.375
-16.69,1669463290.390625
-20.78,1669463290.40625
-24.65,1669463290.421875
-28.11,1669463290.4375
-31.12,1669463290.453125
-33.87,1669463290.46875
-36.72,1669463290.484375
-40.14,1669463290.5
-44.52,1669463290.515625
-49.99,1669463290.53125
-56.23,1669463290.546875
-62.35,1669463290.5625
-66.98,1669463290.578125
-68.64,1669463290.59375
-66.2,1669463290.609375
-59.35,1669463290.625
-48.8,1669463290.640625
-35.99,1669463290.65625
-22.58,1669463290.671875
-9.89,1669463290.6875
1.41,1669463290.703125
11.24,1669463290.71875
19.77,1669463290.734375
27.08,1669463290.75
33.08,1669463290.765625
37.54,1669463290.78125
40.42,1669463290.796875
41.91,1669463290.8125
42.4,1669463290.828125
42.37,1669463290.84375
42.11,1669463290.859375
41.69,1669463290.875
41.04,1669463290.890625
40.0,1669463290.90625
38.51,1669463290.921875
36.66,1669463290.9375
34.7,1669463290.953125
32.93,1669463290.96875
31.58,1669463290.984375
30.71,1669463291.0
30.17,1669463291.015625
29.61,1669463291.03125
28.62,1669463291.046875
26.92,1669463291.0625
24.41,1669463291.078125
21.27,1669463291.09375
17.8,1669463291.109375
14.33,1669463291.125
11.06,1669463291.140625
7.96,1669463291.15625
4.8,1669463291.171875
1.3,1669463291.1875
-2.74,1669463291.203125
-7.33,1669463291.21875
-12.24,1669463291.234375
-17.13,1669463291.25
-21.64,1669463291.265625
-25.6,1669463291.28125
-29.06,1669463291.296875
-32.24,1669463291.3125
-35.53,1669463291.328125
-39.36,1669463291.34375
-44.04,1669463291.359375
-49.64,1669463291.375
-55.72,1669463291.390625
-61.26,1669463291.40625
-64.85,1669463291.421875
-64.99,1669463291.4375
-60.68,1669463291.453125
-51.86,1669463291.46875
-39.49,1669463291.484375
-25.3,1669463291.5
-11.17,1669463291.515625
1.43,1669463291.53125
11.74,1669463291.546875
19.75,1669463291.5625
25.87,1669463291.578125
30.59,1669463291.59375
34.28,1669463291.609375
37.06,1669463291.625
38.93,1669463291.640625
39.79,1669463291.65625
39.63,1669463291.671875
38.54,1669463291.6875
36.76,1669463291.703125
34.63,1669463291.71875
32.5,1669463291.734375
30.62,1669463291.75
29.06,1669463291.765625
27.8,1669463291.78125
26.74,1669463291.796875
25.78,1669463291.8125
24.95,1669463291.828125
24.28,1669463291.84375
23.71,1669463291.859375
23.09,1669463291.875
22.17,1669463291.890625
20.7,1669463291.90625
18.54,1669463291.921875
15.71,1669463291.9375
12.35,1669463291.953125
8.6,1669463291.96875
4.56,1669463291.984375
0.31,1669463292.0
-4.09,1669463292.015625
-8.5,1669463292.03125
-12.72,1669463292.046875
-16.57,1669463292.0625
-19.99,1669463292.078125
-23.09,1669463292.09375
-26.16,1669463292.109375
-29.59,1669463292.125
-33.75,1669463292.140625
-38.83,1669463292.15625
-44.59,1669463292.171875
-50.27,1669463292.1875
-54.64,1669463292.203125
-56.24,1669463292.21875
-53.89,1669463292.234375
-47.15,1669463292.25
-36.58,1669463292.265625
-23.64,1669463292.28125
-10.17,1669463292.296875
2.18,1669463292.3125
12.48,1669463292.328125
20.56,1669463292.34375
26.79,1669463292.359375
31.67,1669463292.375
35.5,1669463292.390625
38.28,1669463292.40625
39.86,1669463292.421875
40.15,1669463292.4375
39.3,1669463292.453125
37.65,1669463292.46875
35.56,1669463292.484375
33.36,1669463292.5
31.18,1669463292.515625
29.03,1669463292.53125
26.91,1669463292.546875
24.89,1669463292.5625
23.09,1669463292.578125
21.59,1669463292.59375
20.36,1669463292.609375
19.19,1669463292.625
17.82,1669463292.640625
16.03,1669463292.65625
13.84,1669463292.671875
11.42,1669463292.6875
8.99,1669463292.703125
6.66,1669463292.71875
4.34,1669463292.734375
1.85,1669463292.75
-1.08,1669463292.765625
-4.53,1669463292.78125
-8.41,1669463292.796875
-12.48,1669463292.8125
-16.44,1669463292.828125
-20.13,1669463292.84375
-23.49,1669463292.859375
-26.7,1669463292.875
-30.04,1669463292.890625
-33.89,1669463292.90625
-38.54,1669463292.921875
-44.1,1669463292.9375
-50.24,1669463292.953125
-56.12,1669463292.96875
-60.51,1669463292.984375
-62.05,1669463293.0
-59.7,1669463293.015625
-53.12,1669463293.03125
-42.9,1669463293.046875
-30.36,1669463293.0625
-17.11,1669463293.078125
-4.63,1669463293.09375
6.22,1669463293.109375
15.16,1669463293.125
22.39,1669463293.140625
28.25,1669463293.15625
32.97,1669463293.171875
36.58,1669463293.1875
39.02,1669463293.203125
40.26,1669463293.21875
40.4,1669463293.234375
39.71,1669463293.25
38.45,1669463293.265625
36.82,1669463293.28125
34.95,1669463293.296875
32.93,1669463293.3125
30.93,1669463293.328125
29.14,1669463293.34375
27.74,1669463293.359375
26.76,1669463293.375
26.03,1669463293.390625
25.25,1669463293.40625
24.1,1669463293.421875
22.43,1669463293.4375
20.32,1669463293.453125
18.01,1669463293.46875
15.73,1669463293.484375
13.52,1669463293.5
11.22,1669463293.515625
8.52,1669463293.53125
5.19,1669463293.546875
1.19,1669463293.5625
-3.32,1669463293.578125
-7.97,1669463293.59375
-12.44,1669463293.609375
-16.58,1669463293.625
-20.45,1669463293.640625
-24.25,1669463293.65625
-28.22,1669463293.671875
-32.53,1669463293.6875
-37.27,1669463293.703125
-42.42,1669463293.71875
-47.85,1669463293.734375
-53.16,1669463293.75
-57.63,1669463293.765625
-60.21,1669463293.78125
-59.73,1669463293.796875
-55.36,1669463293.8125
-46.96,1669463293.828125
-35.29,1669463293.84375
-21.85,1669463293.859375
-8.39,1669463293.875
3.65,1669463293.890625
13.47,1669463293.90625
21.01,1669463293.921875
26.7,1669463293.9375
31.1,1669463293.953125
34.64,1669463293.96875
37.51,1669463293.984375
39.74,1669463294.0
41.22,1669463294.015625
41.9,1669463294.03125
41.75,1669463294.046875
40.85,1669463294.0625
39.28,1669463294.078125
37.21,1669463294.09375
34.78,1669463294.109375
32.16,1669463294.125
29.53,1669463294.140625
27.11,1669463294.15625
25.04,1669463294.171875
23.4,1669463294.1875
22.12,1669463294.203125
20.99,1669463294.21875
19.78,1669463294.234375
18.32,1669463294.25
16.56,1669463294.265625
14.54,1669463294.28125
12.33,1669463294.296875
9.9,1669463294.3125
7.17,1669463294.328125
4.03,1669463294.34375
0.43,1669463294.359375
-3.54,1669463294.375
-7.7,1669463294.390625
-11.86,1669463294.40625
-15.86,1669463294.421875
-19.6,1669463294.4375
-23.11,1669463294.453125
-26.44,1669463294.46875
-29.82,1669463294.484375
-33.57,1669463294.5
-38.0,1669463294.515625
-43.19,1669463294.53125
-48.75,1669463294.546875
-53.7,1669463294.5625
-56.66,1669463294.578125
-56.27,1669463294.59375
-51.74,1669463294.609375
-43.17,1669463294.625
-31.6,1669463294.640625
-18.64,1669463294.65625
-5.94,1669463294.671875
5.25,1669463294.6875
14.38,1669463294.703125
21.48,1669463294.71875
26.88,1669463294.734375
30.91,1669463294.75
33.71,1669463294.765625
35.25,1669463294.78125
35.49,1669463294.796875
34.56,1669463294.8125
32.82,1669463294.828125
30.74,1669463294.84375
28.76,1669463294.859375
27.07,1669463294.875
25.61,1669463294.890625
24.17,1669463294.90625
22.5,1669463294.921875
20.54,1669463294.9375
18.42,1669463294.953125
16.43,1669463294.96875
14.84,1669463294.984375
13.76,1669463295.0
13.09,1669463295.015625
12.57,1669463295.03125
11.83,1669463295.046875
10.56,1669463295.0625
8.55,1669463295.078125
5.81,1669463295.09375
2.51,1669463295.109375
-1.08,1669463295.125
-4.73,1669463295.140625
-8.24,1669463295.15625
-11.56,1669463295.171875
-14.72,1669463295.1875
-17.76,1669463295.203125
-20.75,1669463295.21875
-23.79,1669463295.234375
-27.06,1669463295.25
-30.8,1669463295.265625
-35.17,1669463295.28125
-40.1,1669463295.296875
-45.05,1669463295.3125
-48.97,1669463295.328125
-50.53,1669463295.34375
-48.62,1669463295.359375
-42.76,1669463295.375
-33.41,1669463295.390625
-21.88,1669463295.40625
-9.87,1669463295.421875
1.09,1669463295.4375
10.07,1669463295.453125
16.93,1669463295.46875
22.08,1669463295.484375
26.07,1669463295.5
29.19,1669463295.515625
31.41,1669463295.53125
32.5,1669463295.546875
32.27,1669463295.5625
30.88,1669463295.578125
28.74,1669463295.59375
26.42,1669463295.609375
24.35,1669463295.625
22.68,1669463295.640625
21.34,1669463295.65625
20.14,1669463295.671875
18.93,1669463295.6875
17.67,1669463295.703125
16.39,1669463295.71875
15.09,1669463295.734375
13.77,1669463295.75
12.35,1669463295.765625
10.77,1669463295.78125
9.01,1669463295.796875
7.01,1669463295.8125
4.75,1669463295.828125
2.17,1669463295.84375
-0.71,1669463295.859375
-3.86,1669463295.875
-7.15,1669463295.890625
-10.47,1669463295.90625
-13.74,1669463295.921875
-16.91,1669463295.9375
-19.95,1669463295.953125
-22.81,1669463295.96875
-25.5,1669463295.984375
-28.17,1669463296.0
-31.15,1669463296.015625
-34.79,1669463296.03125
-39.23,1669463296.046875
-44.08,1669463296.0625
-48.38,1669463296.078125
-50.79,1669463296.09375
-50.09,1669463296.109375
-45.61,1669463296.125
-37.6,1669463296.140625
-27.08,1669463296.15625
-15.51,1669463296.171875
-4.28,1669463296.1875
5.7,1669463296.203125
14.04,1669463296.21875
20.78,1669463296.234375
26.09,1669463296.25
30.04,1669463296.265625
32.59,1669463296.28125
33.73,1669463296.296875
33.62,1669463296.3125
32.62,1669463296.328125
31.22,1669463296.34375
29.82,1669463296.359375
28.62,1669463296.375
27.51,1669463296.390625
26.23,1669463296.40625
24.59,1669463296.421875
22.56,1669463296.4375
20.32,1669463296.453125
18.18,1669463296.46875
16.35,1669463296.484375
14.96,1669463296.5
13.93,1669463296.515625
13.09,1669463296.53125
12.23,1669463296.546875
11.12,1669463296.5625
9.53,1669463296.578125
7.32,1669463296.59375
4.42,1669463296.609375
0.87,1669463296.625
-3.1,1669463296.640625
-7.24,1669463296.65625
-11.26,1669463296.671875
-14.99,1669463296.6875
-18.33,1669463296.703125
-21.35,1669463296.71875
-24.26,1669463296.734375
-27.36,1669463296.75
-31.0,1669463296.765625
-35.44,1669463296.78125
-40.6,1669463296.796875
-45.96,1669463296.8125
-50.45,1669463296.828125
-52.81,1669463296.84375
-51.89,1669463296.859375
-47.15,1669463296.875
-38.9,1669463296.890625
-28.2,1669463296.90625
-16.55,1669463296.921875
-5.34,1669463296.9375
4.48,1669463296.953125
12.56,1669463296.96875
19.01,1669463296.984375
24.13,1669463297.0
28.12,1669463297.015625
30.98,1669463297.03125
32.66,1669463297.046875
33.16,1669463297.0625
32.69,1669463297.078125
31.63,1669463297.09375
30.38,1669463297.109375
29.22,1669463297.125
28.18,1669463297.140625
27.08,1669463297.15625
25.66,1669463297.171875
23.77,1669463297.1875
21.45,1669463297.203125
18.98,1669463297.21875
16.73,1669463297.234375
14.98,1669463297.25
13.79,1669463297.265625
12.96,1669463297.28125
12.12,1669463297.296875
10.81,1669463297.3125
8.78,1669463297.328125
5.98,1669463297.34375
2.63,1669463297.359375
-0.92,1669463297.375
-4.31,1669463297.390625
-7.35,1669463297.40625
-10.03,1669463297.421875
-12.48,1669463297.4375
-14.88,1669463297.453125
-17.47,1669463297.46875
-20.42,1669463297.484375
-23.9,1669463297.5
-28.01,1669463297.515625
-32.62,1669463297.53125
-37.28,1669463297.546875
-41.19,1669463297.5625
-43.32,1669463297.578125
-42.72,1669463297.59375
-38.9,1669463297.609375
-32.06,1669463297.625
-23.05,1669463297.640625
-13.1,1669463297.65625
-3.44,1669463297.671875
5.13,1669463297.6875
12.26,1669463297.703125
18.0,1669463297.71875
22.49,1669463297.734375
25.77,1669463297.75
27.7,1669463297.765625
28.1,1669463297.78125
27.04,1669463297.796875
24.91,1669463297.8125
22.39,1669463297.828125
20.17,1669463297.84375
18.68,1669463297.859375
17.87,1669463297.875
17.35,1669463297.890625
16.61,1669463297.90625
15.35,1669463297.921875
13.6,1669463297.9375
11.7,1669463297.953125
10.04,1669463297.96875
8.82,1669463297.984375
7.92,1669463298.0
6.97,1669463298.015625
5.56,1669463298.03125
3.43,1669463298.046875
0.6,1669463298.0625
-2.7,1669463298.078125
-6.1,1669463298.09375
-9.33,1669463298.109375
-12.19,1669463298.125
-14.72,1669463298.140625
-17.09,1669463298.15625
-19.61,1669463298.171875
-22.6,1669463298.1875
-26.26,1669463298.203125
-30.63,1669463298.21875
-35.42,1669463298.234375
-39.99,1669463298.25
-43.44,1669463298.265625
-44.73,1669463298.28125
-43.01,1669463298.296875
-37.92,1669463298.3125
-29.76,1669463298.328125
-19.52,1669463298.34375
-8.61,1669463298.359375
1.54,1669463298.375
9.95,1669463298.390625
16.29,1669463298.40625
20.8,1669463298.421875
24.08,1669463298.4375
26.61,1669463298.453125
28.57,1669463298.46875
29.83,1669463298.484375
30.14,1669463298.5
29.38,1669463298.515625
27.73,1669463298.53125
25.61,1669463298.546875
23.44,1669463298.5625
21.53,1669463298.578125
19.88,1669463298.59375
18.34,1669463298.609375
16.71,1669463298.625
14.94,1669463298.640625
13.14,1669463298.65625
11.51,1669463298.671875
10.15,1669463298.6875
9.02,1669463298.703125
7.86,1669463298.71875
6.35,1669463298.734375
4.24,1669463298.75
1.45,1669463298.765625
-1.86,1669463298.78125
-5.41,1669463298.796875
-8.88,1669463298.8125
-12.04,1669463298.828125
-14.8,1669463298.84375
-17.28,1669463298.859375
-19.68,1669463298.875
-22.31,1669463298.890625
-25.44,1669463298.90625
-29.33,1669463298.921875
-33.99,1669463298.9375
-39.12,1669463298.953125
-43.95,1669463298.96875
-47.37,1669463298.984375
-48.19,1669463299.0
-45.55,1669463299.015625
-39.36,1669463299.03125
-30.29,1669463299.046875
-19.69,1669463299.0625
-8.96,1669463299.078125
0.78,1669463299.09375
9.03,1669463299.109375
15.8,1669463299.125
21.32,1669463299.140625
25.75,1669463299.15625
29.07,1669463299.171875
31.18,1669463299.1875
32.03,1669463299.203125
31.78,1669463299.21875
30.76,1669463299.234375
29.35,1669463299.25
27.77,1669463299.265625
26.03,1669463299.28125
23.98,1669463299.296875
21.5,1669463299.3125
18.64,1669463299.328125
15.71,1669463299.34375
13.16,1669463299.359375
11.34,1669463299.375
10.41,1669463299.390625
10.18,1669463299.40625
10.18,1669463299.421875
9.86,1669463299.4375
8.81,1669463299.453125
6.87,1669463299.46875
4.18,1669463299.484375
1.02,1669463299.5
-2.27,1669463299.515625
-5.42,1669463299.53125
-8.34,1669463299.546875
-11.07,1669463299.5625
-13.75,1669463299.578125
-16.61,1669463299.59375
-19.87,1669463299.609375
-23.71,1669463299.625
-28.23,1669463299.640625
-33.28,1669463299.65625
-38.36,1669463299.671875
-42.62,1669463299.6875
-44.95,1669463299.703125
-44.32,1669463299.71875
-40.22,1669463299.734375
-32.83,1669463299.75
-23.12,1669463299.765625
-12.47,1669463299.78125
-2.22,1669463299.796875
6.7,1669463299.8125
13.96,1669463299.828125
19.69,1669463299.84375
24.24,1669463299.859375
27.85,1669463299.875
30.6,1669463299.890625
32.43,1669463299.90625
33.23,1669463299.921875
32.96,1669463299.9375
31.72,1669463299.953125
29.76,1669463299.96875
27.41,1669463299.984375
25.04,1669463300.0
22.86,1669463300.015625
20.85,1669463300.03125
18.85,1669463300.046875
16.67,1669463300.0625
14.26,1669463300.078125
11.85,1669463300.09375
9.82,1669463300.109375
8.47,1669463300.125
7.77,1669463300.140625
7.28,1669463300.15625
6.35,1669463300.171875
4.47,1669463300.1875
1.53,1669463300.203125
-2.08,1669463300.21875
-5.7,1669463300.234375
-8.74,1669463300.25
-11.01,1669463300.265625
-12.76,1669463300.28125
-14.51,1669463300.296875
-16.8,1669463300.3125
-19.94,1669463300.328125
-23.92,1669463300.34375
-28.53,1669463300.359375
-33.36,1669463300.375
-37.92,1669463300.390625
-41.55,1669463300.40625
-43.48,1669463300.421875
-42.95,1669463300.4375
-39.46,1669463300.453125
-33.02,1669463300.46875
-24.21,1669463300.484375
-14.07,1669463300.5
-3.81,1669463300.515625
5.47,1669463300.53125
13.1,1669463300.546875
18.79,1669463300.5625
22.63,1669463300.578125
24.97,1669463300.59375
26.25,1669463300.609375
26.81,1669463300.625
26.93,1669463300.640625
26.69,1669463300.65625
26.05,1669463300.671875
24.94,1669463300.6875
23.32,1669463300.703125
21.26,1669463300.71875
18.9,1669463300.734375
16.42,1669463300.75
14.0,1669463300.765625
11.8,1669463300.78125
9.87,1669463300.796875
8.26,1669463300.8125
6.9,1669463300.828125
5.68,1669463300.84375
4.41,1669463300.859375
2.86,1669463300.875
0.92,1669463300.890625
-1.5,1669463300.90625
-4.28,1669463300.921875
-7.23,1669463300.9375
-10.13,1669463300.953125
-12.85,1669463300.96875
-15.37,1669463300.984375
-17.8,1669463301.0
-20.38,1669463301.015625
-23.34,1669463301.03125
-26.82,1669463301.046875
-30.64,1669463301.0625
-34.29,1669463301.078125
-36.95,1669463301.09375
-37.66,1669463301.109375
-35.71,1669463301.125
-30.87,1669463301.140625
-23.54,1669463301.15625
-14.67,1669463301.171875
-5.44,1669463301.1875
3.12,1669463301.203125
10.36,1669463301.21875
16.09,1669463301.234375
20.42,1669463301.25
23.49,1669463301.265625
25.43,1669463301.28125
26.23,1669463301.296875
25.94,1669463301.3125
24.7,1669463301.328125
22.83,1669463301.34375
20.69,1669463301.359375
18.54,1669463301.375
16.53,1669463301.390625
14.6,1669463301.40625
12.64,1669463301.421875
10.6,1669463301.4375
8.56,1669463301.453125
6.71,1669463301.46875
5.25,1669463301.484375
4.21,1669463301.5
3.41,1669463301.515625
2.48,1669463301.53125
1.02,1669463301.546875
-1.24,1669463301.5625
-4.19,1669463301.578125
-7.49,1669463301.59375
-10.67,1669463301.609375
-13.4,1669463301.625
-15.7,1669463301.640625
-17.88,1669463301.65625
-20.42,1669463301.671875
-23.72,1669463301.6875
-27.92,1669463301.703125
-32.78,1669463301.71875
-37.75,1669463301.734375
-42.04,1669463301.75
-44.74,1669463301.765625
-45.02,1669463301.78125
-42.29,1669463301.796875
-36.47,1669463301.8125
-28.01,1669463301.828125
-17.91,1669463301.84375
-7.38,1669463301.859375
2.47,1669463301.875
10.9,1669463301.890625
17.66,1669463301.90625
22.79,1669463301.921875
26.54,1669463301.9375
29.12,1669463301.953125
30.67,1669463301.96875
31.35,1669463301.984375
31.32,1669463302.0
30.8,1669463302.015625
29.98,1669463302.03125
28.92,1669463302.046875
27.53,1669463302.0625
25.7,1669463302.078125
23.35,1669463302.09375
20.55,1669463302.109375
17.55,1669463302.125
14.66,1669463302.140625
12.16,1669463302.15625
10.18,1669463302.171875
8.66,1669463302.1875
7.3,1669463302.203125
5.69,1669463302.21875
3.53,1669463302.234375
0.67,1669463302.25
-2.79,1669463302.265625
-6.56,1669463302.28125
-10.26,1669463302.296875
-13.65,1669463302.3125
-16.65,1669463302.328125
-19.4,1669463302.34375
-22.16,1669463302.359375
-25.26,1669463302.375
-28.9,1669463302.390625
-33.08,1669463302.40625
-37.52,1669463302.421875
-41.55,1669463302.4375
-44.26,1669463302.453125
-44.68,1669463302.46875
-42.11,1669463302.484375
-36.39,1669463302.5
-28.04,1669463302.515625
-18.07,1669463302.53125
-7.72,1669463302.546875
1.95,1669463302.5625
10.32,1669463302.578125
17.22,1669463302.59375
22.78,1669463302.609375
27.21,1669463302.625
30.62,1669463302.640625
32.95,1669463302.65625
34.12,1669463302.671875
34.1,1669463302.6875
33.09,1669463302.703125
31.47,1669463302.71875
29.63,1669463302.734375
27.85,1669463302.75
26.14,1669463302.765625
24.34,1669463302.78125
22.2,1669463302.796875
19.67,1669463302.8125
16.91,1669463302.828125
14.26,1669463302.84375
12.05,1669463302.859375
10.35,1669463302.875
8.99,1669463302.890625
7.57,1669463302.90625
5.73,1669463302.921875
3.3,1669463302.9375
0.35,1669463302.953125
-2.87,1669463302.96875
-6.02,1669463302.984375
-8.84,1669463303.0
-11.28,1669463303.015625
-13.52,1669463303.03125
-15.95,1669463303.046875
-19.03,1669463303.0625
-23.12,1669463303.078125
-28.26,1669463303.09375
-34.07,1669463303.109375
-39.75,1669463303.125
-44.28,1669463303.140625
-46.58,1669463303.15625
-45.91,1669463303.171875
-41.97,1669463303.1875
-35.04,1669463303.203125
-25.86,1669463303.21875
-15.49,1669463303.234375
-5.04,1669463303.25
4.51,1669463303.265625
12.52,1669463303.28125
18.7,1669463303.296875
23.15,1669463303.3125
26.19,1669463303.328125
28.22,1669463303.34375
29.54,1669463303.359375
30.32,1669463303.375
30.57,1669463303.390625
30.2,1669463303.40625
29.16,1669463303.421875
27.48,1669463303.4375
25.31,1669463303.453125
22.86,1669463303.46875
20.41,1669463303.484375
18.09,1669463303.5
15.96,1669463303.515625
13.98,1669463303.53125
12.11,1669463303.546875
10.34,1669463303.5625
8.66,1669463303.578125
7.09,1669463303.59375
5.53,1669463303.609375
3.83,1669463303.625
1.82,1669463303.640625
-0.57,1669463303.65625
-3.28,1669463303.671875
-6.19,1669463303.6875
-9.16,1669463303.703125
-12.16,1669463303.71875
-15.33,1669463303.734375
-18.92,1669463303.75
-23.2,1669463303.765625
-28.18,1669463303.78125
-33.51,1669463303.796875
-38.4,1669463303.8125
-41.72,1669463303.828125
-42.31,1669463303.84375
-39.39,1669463303.859375
-32.9,1669463303.875
-23.58,1669463303.890625
-12.8,1669463303.90625
-2.12,1669463303.921875
7.19,1669463303.9375
14.46,1669463303.953125
19.62,1669463303.96875
23.02,1669463303.984375
25.14,1669463304.0
26.39,1669463304.015625
26.99,1669463304.03125
27.06,1669463304.046875
26.65,1669463304.0625
25.82,1669463304.078125
24.58,1669463304.09375
22.97,1669463304.109375
21.0,1669463304.125
18.7,1669463304.140625
16.12,1669463304.15625
13.41,1669463304.171875
10.68,1669463304.1875
8.11,1669463304.203125
5.81,1669463304.21875
3.77,1669463304.234375
1.91,1669463304.25
0.03,1669463304.265625
-2.04,1669463304.28125
-4.38,1669463304.296875
-6.97,1669463304.3125
-9.67,1669463304.328125
-12.31,1669463304.34375
-14.84,1669463304.359375
-17.31,1669463304.375
-19.92,1669463304.390625
-22.98,1669463304.40625
-26.75,1669463304.421875
-31.24,1669463304.4375
-36.09,1669463304.453125
-40.5,1669463304.46875
-43.36,1669463304.484375
-43.56,1669463304.5
-40.42,1669463304.515625
-33.92,1669463304.53125
-24.86,1669463304.546875
-14.58,1669463304.5625
-4.46,1669463304.578125
4.46,1669463304.59375
11.73,1669463304.609375
17.42,1669463304.625
21.84,1669463304.640625
25.28,1669463304.65625
27.85,1669463304.671875
29.5,1669463304.6875
30.18,1669463304.703125
29.95,1669463304.71875
29.01,1669463304.734375
27.54,1669463304.75
25.73,1669463304.765625
23.63,1669463304.78125
21.25,1669463304.796875
18.59,1669463304.8125
15.77,1669463304.828125
12.94,1669463304.84375
10.29,1669463304.859375
7.92,1669463304.875
5.78,1669463304.890625
3.69,1669463304.90625
1.38,1669463304.921875
-1.33,1669463304.9375
-4.45,1669463304.953125
-7.81,1669463304.96875
-11.1,1669463304.984375
-14.03,1669463305.0
-16.5,1669463305.015625
-18.67,1669463305.03125
-20.95,1669463305.046875
-23.85,1669463305.0625
-27.74,1669463305.078125
-32.65,1669463305.09375
-38.06,1669463305.109375
-42.98,1669463305.125
-46.14,1669463305.140625
-46.37,1669463305.15625
-43.01,1669463305.171875
-36.11,1669463305.1875
-26.53,1669463305.203125
-15.56,1669463305.21875
-4.59,1669463305.234375
5.3,1669463305.25
13.53,1669463305.265625
19.99,1669463305.28125
24.85,1669463305.296875
28.37,1669463305.3125
30.77,1669463305.328125
32.27,1669463305.34375
32.99,1669463305.359375
33.07,1669463305.375
32.59,1669463305.390625
31.58,1669463305.40625
30.0,1669463305.421875
27.84,1669463305.4375
25.16,1669463305.453125
22.13,1669463305.46875
19.0,1669463305.484375
16.01,1669463305.5
13.35,1669463305.515625
11.07,1669463305.53125
9.09,1669463305.546875
7.22,1669463305.5625
5.27,1669463305.578125
3.06,1669463305.59375
0.53,1669463305.609375
-2.28,1669463305.625
-5.28,1669463305.640625
-8.4,1669463305.65625
-11.58,1669463305.671875
-14.9,1669463305.6875
-18.45,1669463305.703125
-22.38,1669463305.71875
-26.8,1669463305.734375
-31.72,1669463305.75
-36.92,1669463305.765625
-41.85,1669463305.78125
-45.66,1669463305.796875
-47.28,1669463305.8125
-45.82,1669463305.828125
-40.9,1669463305.84375
-32.84,1669463305.859375
-22.62,1669463305.875
-11.57,1669463305.890625
-0.94,1669463305.90625
8.44,1669463305.921875
16.24,1669463305.9375
22.5,1669463305.953125
27.36,1669463305.96875
30.96,1669463305.984375
33.4,1669463306.0
34.79,1669463306.015625
35.35,1669463306.03125
35.29,1669463306.046875
34.75,1669463306.0625
33.7,1669463306.078125
32.02,1669463306.09375
29.59,1669463306.109375
26.52,1669463306.125
23.1,1669463306.140625
19.78,1669463306.15625
16.93,1669463306.171875
14.69,1669463306.1875
12.98,1669463306.203125
11.48,1669463306.21875
9.84,1669463306.234375
7.76,1669463306.25
5.1,1669463306.265625
1.86,1669463306.28125
-1.82,1669463306.296875
-5.74,1669463306.3125
-9.7,1669463306.328125
-13.55,1669463306.34375
-17.28,1669463306.359375
-21.0,1669463306.375
-25.01,1669463306.390625
-29.56,1669463306.40625
-34.75,1669463306.421875
-40.27,1669463306.4375
-45.3,1669463306.453125
-48.66,1669463306.46875
-49.1,1669463306.484375
-45.83,1669463306.5
-38.81,1669463306.515625
-28.87,1669463306.53125
-17.34,1669463306.546875
-5.65,1669463306.5625
5.12,1669463306.578125
14.43,1669463306.59375
22.17,1669463306.609375
28.4,1669463306.625
33.19,1669463306.640625
36.5,1669463306.65625
38.3,1669463306.671875
38.68,1669463306.6875
37.91,1669463306.703125
36.37,1669463306.71875
34.45,1669463306.734375
32.41,1669463306.75
30.38,1669463306.765625
28.36,1669463306.78125
26.22,1669463306.796875
23.88,1669463306.8125
21.33,1669463306.828125
18.72,1669463306.84375
16.3,1669463306.859375
14.34,1669463306.875
12.92,1669463306.890625
11.84,1669463306.90625
10.66,1669463306.921875
8.86,1669463306.9375
6.06,1669463306.953125
2.26,1669463306.96875
-2.13,1669463306.984375
-6.54,1669463307.0
-10.47,1669463307.015625
-13.76,1669463307.03125
-16.66,1669463307.046875
-19.67,1669463307.0625
-23.32,1669463307.078125
-27.9,1669463307.09375
-33.27,1669463307.109375
-38.88,1669463307.125
-43.79,1669463307.140625
-46.94,1669463307.15625
-47.41,1669463307.171875
-44.61,1669463307.1875
-38.54,1669463307.203125
-29.7,1669463307.21875
-19.07,1669463307.234375
-7.84,1669463307.25
2.86,1669463307.265625
12.14,1669463307.28125
19.52,1669463307.296875
24.88,1669463307.3125
28.45,1669463307.328125
30.6,1669463307.34375
31.74,1669463307.359375
32.16,1669463307.375
31.98,1669463307.390625
31.22,1669463307.40625
29.79,1669463307.421875
27.72,1669463307.4375
25.1,1669463307.453125
22.19,1669463307.46875
19.28,1669463307.484375
16.63,1669463307.5
14.41,1669463307.515625
12.65,1669463307.53125
11.28,1669463307.546875
10.08,1669463307.5625
8.82,1669463307.578125
7.24,1669463307.59375
5.21,1669463307.609375
2.71,1669463307.625
-0.14,1669463307.640625
-3.15,1669463307.65625
-6.15,1669463307.671875
-9.06,1669463307.6875
-11.89,1669463307.703125
-14.77,1669463307.71875
-17.95,1669463307.734375
-21.65,1669463307.75
-26.05,1669463307.765625
-31.03,1669463307.78125
-36.12,1669463307.796875
-40.39,1669463307.8125
-42.65,1669463307.828125
-41.82,1669463307.84375
-37.33,1669463307.859375
-29.39,1669463307.875
-19.02,1669463307.890625
-7.75,1669463307.90625
2.89,1669463307.921875
11.8,1669463307.9375
18.58,1669463307.953125
23.42,1669463307.96875
26.85,1669463307.984375
29.37,1669463308.0
31.21,1669463308.015625
32.27,1669463308.03125
32.35,1669463308.046875
31.3,1669463308.0625
29.23,1669463308.078125
26.45,1669463308.09375
23.39,1669463308.109375
20.39,1669463308.125
17.62,1669463308.140625
15.13,1669463308.15625
12.87,1669463308.171875
10.83,1669463308.1875
9.02,1669463308.203125
7.4,1669463308.21875
5.8,1669463308.234375
3.99,1669463308.25
1.72,1669463308.265625
-1.09,1669463308.28125
-4.36,1669463308.296875
-7.86,1669463308.3125
-11.34,1669463308.328125
-14.64,1669463308.34375
-17.76,1669463308.359375
-20.85,1669463308.375
-24.19,1669463308.390625
-28.02,1669463308.40625
-32.43,1669463308.421875
-37.16,1669463308.4375
-41.58,1669463308.453125
-44.68,1669463308.46875
-45.32,1669463308.484375
-42.66,1669463308.5
-36.41,1669463308.515625
-27.09,1669463308.53125
-15.86,1669463308.546875
-4.23,1669463308.5625
6.45,1669463308.578125
15.28,1669463308.59375
21.99,1669463308.609375
26.81,1669463308.625
30.15,1669463308.640625
32.44,1669463308.65625
33.89,1669463308.671875
34.56,1669463308.6875
34.42,1669463308.703125
33.53,1669463308.71875
32.05,1669463308.734375
30.18,1669463308.75
28.12,1669463308.765625
25.95,1669463308.78125
23.65,1669463308.796875
21.17,1669463308.8125
18.54,1669463308.828125
15.89,1669463308.84375
13.41,1669463308.859375
11.2,1669463308.875
9.2,1669463308.890625
7.12,1669463308.90625
4.64,1669463308.921875
1.57,1669463308.9375
-2.07,1669463308.953125
-6.02,1669463308.96875
-9.93,1669463308.984375
-13.49,1669463309.0
-16.66,1669463309.015625
-19.65,1669463309.03125
-22.87,1669463309.046875
-26.76,1669463309.0625
-31.49,1669463309.078125
-36.79,1669463309.09375
-41.85,1669463309.109375
-45.53,1669463309.125
-46.67,1669463309.140625
-44.51,1669463309.15625
-38.96,1669463309.171875
-30.64,1669463309.1875
-20.69,1669463309.203125
-10.35,1669463309.21875
-0.61,1669463309.234375
7.98,1669463309.25
15.29,1669463309.265625
21.38,1669463309.28125
26.33,1669463309.296875
30.17,1669463309.3125
32.85,1669463309.328125
34.37,1669463309.34375
34.82,1669463309.359375
34.36,1669463309.375
33.23,1669463309.390625
31.58,1669463309.40625
29.55,1669463309.421875
27.2,1669463309.4375
24.64,1669463309.453125
22.02,1669463309.46875
19.59,1669463309.484375
17.57,1669463309.5
16.05,1669463309.515625
14.9,1669463309.53125
13.78,1669463309.546875
12.29,1669463309.5625
10.12,1669463309.578125
7.2,1669463309.59375
3.72,1669463309.609375
0.01,1669463309.625
-3.62,1669463309.640625
-7.04,1669463309.65625
-10.29,1669463309.671875
-13.51,1669463309.6875
-16.88,1669463309.703125
-20.5,1669463309.71875
-24.47,1669463309.734375
-28.87,1669463309.75
-33.75,1669463309.765625
-38.92,1669463309.78125
-43.85,1669463309.796875
-47.58,1669463309.8125
-48.92,1669463309.828125
-46.89,1669463309.84375
-41.13,1669463309.859375
-32.13,1669463309.875
-21.09,1669463309.890625
-9.55,1669463309.90625
1.16,1669463309.921875
10.22,1669463309.9375
17.4,1669463309.953125
22.86,1669463309.96875
26.86,1669463309.984375
29.6,1669463310.0
31.17,1669463310.015625
31.69,1669463310.03125
31.37,1669463310.046875
30.5,1669463310.0625
29.31,1669463310.078125
27.88,1669463310.09375
26.17,1669463310.109375
24.02,1669463310.125
21.42,1669463310.140625
18.45,1669463310.15625
15.43,1669463310.171875
12.66,1669463310.1875
10.43,1669463310.203125
8.84,1669463310.21875
7.82,1669463310.234375
7.09,1669463310.25
6.32,1669463310.265625
5.15,1669463310.28125
3.38,1669463310.296875
0.99,1669463310.3125
-1.78,1669463310.328125
-4.58,1669463310.34375
-7.08,1669463310.359375
-9.19,1669463310.375
-11.01,1669463310.390625
-12.98,1669463310.40625
-15.51,1669463310.421875
-18.96,1669463310.4375
-23.41,1669463310.453125
-28.57,1669463310.46875
-33.79,1669463310.484375
-38.15,1669463310.5
-40.6,1669463310.515625
-40.28,1669463310.53125
-36.77,1669463310.546875
-30.27,1669463310.5625
-21.55,1669463310.578125
-11.76,1669463310.59375
-2.02,1669463310.609375
6.78,1669463310.625
14.16,1669463310.640625
19.96,1669463310.65625
24.19,1669463310.671875
26.97,1669463310.6875
28.45,1669463310.703125
28.83,1669463310.71875
28.37,1669463310.734375
27.4,1669463310.75
26.19,1669463310.765625
24.88,1669463310.78125
23.47,1669463310.796875
21.78,1669463310.8125
19.67,1669463310.828125
17.1,1669463310.84375
14.21,1669463310.859375
11.35,1669463310.875
8.89,1669463310.890625
7.03,1669463310.90625
5.72,1669463310.921875
4.62,1669463310.9375
3.29,1669463310.953125
1.39,1669463310.96875
-1.14,1669463310.984375
-4.11,1669463311.0
-7.16,1669463311.015625
-10.04,1669463311.03125
-12.62,1669463311.046875
-14.99,1669463311.0625
-17.4,1669463311.078125
-20.07,1669463311.09375
-23.27,1669463311.109375
-27.11,1669463311.125
-31.53,1669463311.140625
-36.12,1669463311.15625
-40.07,1669463311.171875
-42.31,1669463311.1875
-41.77,1669463311.203125
-37.8,1669463311.21875
-30.46,1669463311.234375
-20.58,1669463311.25
-9.52,1669463311.265625
1.25,1669463311.28125
10.53,1669463311.296875
17.68,1669463311.3125
22.6,1669463311.328125
25.6,1669463311.34375
27.17,1669463311.359375
27.79,1669463311.375
27.78,1669463311.390625
27.3,1669463311.40625
26.4,1669463311.421875
25.09,1669463311.4375
23.41,1669463311.453125
21.47,1669463311.46875
19.35,1669463311.484375
17.12,1669463311.5
14.84,1669463311.515625
12.53,1669463311.53125
10.29,1669463311.546875
8.3,1669463311.5625
6.66,1669463311.578125
5.35,1669463311.59375
4.18,1669463311.609375
2.81,1669463311.625
0.98,1669463311.640625
-1.43,1669463311.65625
-4.28,1669463311.671875
-7.35,1669463311.6875
-10.46,1669463311.703125
-13.51,1669463311.71875
-16.53,1669463311.734375
-19.65,1669463311.75
-23.02,1669463311.765625
-26.84,1669463311.78125
-31.25,1669463311.796875
-36.27,1669463311.8125
-41.52,1669463311.828125
-46.13,1669463311.84375
-48.87,1669463311.859375
-48.55,1669463311.875
-44.51,1669463311.890625
-36.97,1669463311.90625
-26.98,1669463311.921875
-16.06,1669463311.9375
-5.57,1669463311.953125
3.62,1669463311.96875
11.33,1669463311.984375
17.76,1669463312.0
23.16,1669463312.015625
27.61,1669463312.03125
30.92,1669463312.046875
32.9,1669463312.0625
33.49,1669463312.078125
32.92,1669463312.09375
31.59,1669463312.109375
29.93,1669463312.125
28.22,1669463312.140625
26.48,1669463312.15625
24.55,1669463312.171875
22.25,1669463312.1875
19.55,1669463312.203125
16.61,1669463312.21875
13.73,1669463312.234375
11.22,1669463312.25
9.2,1669463312.265625
7.55,1669463312.28125
5.99,1669463312.296875
4.13,1669463312.3125
1.72,1669463312.328125
-1.3,1669463312.34375
-4.77,1669463312.359375
-8.4,1669463312.375
-11.87,1669463312.390625
-14.93,1669463312.40625
-17.55,1669463312.421875
-19.88,1669463312.4375
-22.25,1669463312.453125
-25.07,1669463312.46875
-28.72,1669463312.484375
-33.37,1669463312.5
-38.83,1669463312.515625
-44.5,1669463312.53125
-49.37,1669463312.546875
-52.24,1669463312.5625
-52.03,1669463312.578125
-48.14,1669463312.59375
-40.7,1669463312.609375
-30.57,1669463312.625
-19.09,1669463312.640625
-7.65,1669463312.65625
2.67,1669463312.671875
11.38,1669463312.6875
18.49,1669463312.703125
24.3,1669463312.71875
29.11,1669463312.734375
32.99,1669463312.75
35.82,1669463312.765625
37.41,1669463312.78125
37.67,1669463312.796875
36.7,1669463312.8125
34.86,1669463312.828125
32.59,1669463312.84375
30.28,1669463312.859375
28.22,1669463312.875
26.47,1669463312.890625
24.91,1669463312.90625
23.38,1669463312.921875
21.73,1669463312.9375
19.9,1669463312.953125
18.01,1669463312.96875
16.27,1669463312.984375
14.8,1669463313.0
13.62,1669463313.015625
12.45,1669463313.03125
10.9,1669463313.046875
8.6,1669463313.0625
5.35,1669463313.078125
1.33,1669463313.09375
-3.08,1669463313.109375
-7.38,1669463313.125
-11.24,1669463313.140625
-14.6,1669463313.15625
-17.68,1669463313.171875
-20.85,1669463313.1875
-24.46,1669463313.203125
-28.71,1669463313.21875
-33.69,1669463313.234375
-39.3,1669463313.25
-45.24,1669463313.265625
-50.93,1669463313.28125
-55.48,1669463313.296875
-57.84,1669463313.3125
-57.05,1669463313.328125
-52.6,1669463313.34375
-44.62,1669463313.359375
-33.94,1669463313.375
-21.76,1669463313.390625
-9.41,1669463313.40625
2.06,1669463313.421875
12.01,1669463313.4375
20.21,1669463313.453125
26.7,1669463313.46875
31.61,1669463313.484375
35.08,1669463313.5
37.24,1669463313.515625
38.19,1669463313.53125
38.1,1669463313.546875
37.19,1669463313.5625
35.71,1669463313.578125
33.88,1669463313.59375
31.83,1669463313.609375
29.59,1669463313.625
27.12,1669463313.640625
24.38,1669463313.65625
21.42,1669463313.671875
18.46,1669463313.6875
15.83,1669463313.703125
13.79,1669463313.71875
12.45,1669463313.734375
11.63,1669463313.75
10.86,1669463313.765625
9.59,1669463313.78125
7.39,1669463313.796875
4.11,1669463313.8125
0.01,1669463313.828125
-4.41,1669463313.84375
-8.53,1669463313.859375
-11.93,1669463313.875
-14.56,1669463313.890625
-16.69,1669463313.90625
-18.84,1669463313.921875
-21.61,1669463313.9375
-25.45,1669463313.953125
-30.5,1669463313.96875
-36.47,1669463313.984375
-42.55,1669463314.0
-47.59,1669463314.015625
-50.26,1669463314.03125
-49.52,1669463314.046875
-44.89,1669463314.0625
-36.7,1669463314.078125
-26.01,1669463314.09375
-14.26,1669463314.109375
-2.9,1669463314.125
7.08,1669463314.140625
15.23,1669463314.15625
21.6,1669463314.171875
26.44,1669463314.1875
30.0,1669463314.203125
32.37,1669463314.21875
33.55,1669463314.234375
33.61,1669463314.25
32.75,1669463314.265625
31.28,1669463314.28125
29.47,1669463314.296875
27.43,1669463314.3125
25.07,1669463314.328125
22.26,1669463314.34375
18.98,1669463314.359375
15.48,1669463314.375
12.2,1669463314.390625
9.57,1669463314.40625
7.79,1669463314.421875
6.73,1669463314.4375
5.99,1669463314.453125
5.13,1669463314.46875
3.81,1669463314.484375
1.89,1669463314.5
-0.62,1669463314.515625
-3.62,1669463314.53125
-6.97,1669463314.546875
-10.5,1669463314.5625
-14.01,1669463314.578125
-17.28,1669463314.59375
-20.27,1669463314.609375
-23.19,1669463314.625
-26.45,1669463314.640625
-30.55,1669463314.65625
-35.77,1669463314.671875
-41.89,1669463314.6875
-48.05,1669463314.703125
-52.89,1669463314.71875
-54.95,1669463314.734375
-53.13,1669463314.75
-47.15,1669463314.765625
-37.59,1669463314.78125
-25.73,1669463314.796875
-13.09,1669463314.8125
-1.04,1669463314.828125
9.54,1669463314.84375
18.29,1669463314.859375
25.2,1669463314.875
30.43,1669463314.890625
34.12,1669463314.90625
36.36,1669463314.921875
37.2,1669463314.9375
36.83,1669463314.953125
35.53,1669463314.96875
33.65,1669463314.984375
31.5,1669463315.0
29.29,1669463315.015625
27.04,1669463315.03125
24.64,1669463315.046875
21.97,1669463315.0625
18.97,1669463315.078125
15.73,1669463315.09375
12.54,1669463315.109375
9.78,1669463315.125
7.74,1669463315.140625
6.46,1669463315.15625
5.65,1669463315.171875
4.77,1669463315.1875
3.26,1669463315.203125
0.79,1669463315.21875
-2.59,1669463315.234375
-6.48,1669463315.25
-10.38,1669463315.265625
-13.89,1669463315.28125
-16.95,1669463315.296875
-19.78,1669463315.3125
-22.78,1669463315.328125
-26.31,1669463315.34375
-30.59,1669463315.359375
-35.65,1669463315.375
-41.34,1669463315.390625
-47.28,1669463315.40625
-52.76,1669463315.421875
-56.85,1669463315.4375
-58.44,1669463315.453125
-56.61,1669463315.46875
-50.93,1669463315.484375
-41.7,1669463315.5
-29.93,1669463315.515625
-16.99,1669463315.53125
-4.22,1669463315.546875
7.36,1669463315.5625
17.28,1669463315.578125
25.43,1669463315.59375
31.87,1669463315.609375
36.68,1669463315.625
39.86,1669463315.640625
41.45,1669463315.65625
41.63,1669463315.671875
40.74,1669463315.6875
39.17,1669463315.703125
37.31,1669463315.71875
35.42,1669463315.734375
33.52,1669463315.75
31.54,1669463315.765625
29.35,1669463315.78125
26.85,1669463315.796875
24.09,1669463315.8125
21.23,1669463315.828125
18.54,1669463315.84375
16.28,1669463315.859375
14.59,1669463315.875
13.4,1669463315.890625
12.38,1669463315.90625
11.05,1669463315.921875
8.91,1669463315.9375
5.73,1669463315.953125
1.54,1669463315.96875
-3.31,1669463315.984375
-8.34,1669463316.0
-13.15,1669463316.015625
-17.56,1669463316.03125
-21.65,1669463316.046875
-25.7,1669463316.0625
-30.03,1669463316.078125
-34.92,1669463316.09375
-40.52,1669463316.109375
-46.78,1669463316.125
-53.32,1669463316.140625
-59.37,1669463316.15625
-63.82,1669463316.171875
-65.4,1669463316.1875
-63.14,1669463316.203125
-56.65,1669463316.21875
-46.41,1669463316.234375
-33.63,1669463316.25
-19.81,1669463316.265625
-6.36,1669463316.28125
5.86,1669463316.296875
16.52,1669463316.3125
25.59,1669463316.328125
33.09,1669463316.34375
38.91,1669463316.359375
42.86,1669463316.375
44.87,1669463316.390625
45.14,1669463316.40625
44.19,1669463316.421875
42.59,1669463316.4375
40.81,1669463316.453125
39.03,1669463316.46875
37.13,1669463316.484375
34.92,1669463316.5
32.27,1669463316.515625
29.29,1669463316.53125
26.22,1669463316.546875
23.37,1669463316.5625
20.95,1669463316.578125
18.96,1669463316.59375
17.26,1669463316.609375
15.58,1669463316.625
13.68,1669463316.640625
11.28,1669463316.65625
8.31,1669463316.671875
4.74,1669463316.6875
0.77,1669463316.703125
-3.35,1669463316.71875
-7.32,1669463316.734375
-10.98,1669463316.75
-14.33,1669463316.765625
-17.6,1669463316.78125
-21.14,1669463316.796875
-25.35,1669463316.8125
-30.49,1669463316.828125
-36.56,1669463316.84375
-43.11,1669463316.859375
-49.28,1669463316.875
-53.86,1669463316.890625
-55.59,1669463316.90625
-53.53,1669463316.921875
-47.46,1669463316.9375
-37.92,1669463316.953125
-26.13,1669463316.96875
-13.56,1669463316.984375
-1.49,1669463317.0
9.28,1669463317.015625
18.39,1669463317.03125
25.79,1669463317.046875
31.51,1669463317.0625
35.53,1669463317.078125
37.81,1669463317.09375
38.41,1669463317.109375
37.59,1669463317.125
35.81,1669463317.140625
33.59,1669463317.15625
31.35,1669463317.171875
29.28,1669463317.1875
27.34,1669463317.203125
25.36,1669463317.21875
23.18,1669463317.234375
20.84,1669463317.25
18.47,1669463317.265625
16.35,1669463317.28125
14.59,1669463317.296875
13.22,1669463317.3125
12.01,1669463317.328125
10.61,1669463317.34375
8.69,1669463317.359375
6.09,1669463317.375
2.86,1669463317.390625
-0.8,1669463317.40625
-4.59,1669463317.421875
-8.28,1669463317.4375
-11.78,1669463317.453125
-15.16,1669463317.46875
-18.6,1669463317.484375
-22.39,1669463317.5
-26.86,1669463317.515625
-32.27,1669463317.53125
-38.64,1669463317.546875
-45.56,1669463317.5625
-52.1,1669463317.578125
-56.82,1669463317.59375
-58.25,1669463317.609375
-55.31,1669463317.625
-47.87,1669463317.640625
-36.79,1669463317.65625
-23.7,1669463317.671875
-10.42,1669463317.6875
1.68,1669463317.703125
11.94,1669463317.71875
20.36,1669463317.734375
27.26,1669463317.75
32.85,1669463317.765625
37.11,1669463317.78125
39.78,1669463317.796875
40.74,1669463317.8125
40.1,1669463317.828125
38.3,1669463317.84375
35.9,1669463317.859375
33.4,1669463317.875
31.04,1669463317.890625
28.79,1669463317.90625
26.47,1669463317.921875
23.97,1669463317.9375
21.29,1669463317.953125
18.63,1669463317.96875
16.21,1669463317.984375
14.21,1669463318.0
12.65,1669463318.015625
11.38,1669463318.03125
10.12,1669463318.046875
8.6,1669463318.0625
6.52,1669463318.078125
3.74,1669463318.09375
0.24,1669463318.109375
-3.83,1669463318.125
-8.12,1669463318.140625
-12.28,1669463318.15625
-16.04,1669463318.171875
-19.38,1669463318.1875
-22.52,1669463318.203125
-25.88,1669463318.21875
-29.91,1669463318.234375
-34.92,1669463318.25
-40.9,1669463318.265625
-47.4,1669463318.28125
-53.53,1669463318.296875
-58.03,1669463318.3125
-59.6,1669463318.328125
-57.22,1669463318.34375
-50.57,1669463318.359375
-40.15,1669463318.375
-27.25,1669463318.390625
-13.53,1669463318.40625
-0.5,1669463318.421875
10.78,1669463318.4375
19.98,1669463318.453125
27.23,1669463318.46875
32.93,1669463318.484375
37.46,1669463318.5
40.99,1669463318.515625
43.54,1669463318.53125
45.04,1669463318.546875
45.45,1669463318.5625
44.89,1669463318.578125
43.57,1669463318.59375
41.77,1669463318.609375
39.65,1669463318.625
37.27,1669463318.640625
34.57,1669463318.65625
31.53,1669463318.671875
28.28,1669463318.6875
25.16,1669463318.703125
22.56,1669463318.71875
20.76,1669463318.734375
19.7,1669463318.75
18.94,1669463318.765625
17.79,1669463318.78125
15.6,1669463318.796875
12.04,1669463318.8125
7.22,1669463318.828125
1.67,1669463318.84375
-3.95,1669463318.859375
-9.04,1669463318.875
-13.3,1669463318.890625
-16.76,1669463318.90625
-19.73,1669463318.921875
-22.66,1669463318.9375
-26.03,1669463318.953125
-30.27,1669463318.96875
-35.64,1669463318.984375
-42.09,1669463319.0
-49.12,1669463319.015625
-55.68,1669463319.03125
-60.33,1669463319.046875
-61.59,1669463319.0625
-58.46,1669463319.078125
-50.83,1669463319.09375
-39.57,1669463319.109375
-26.25,1669463319.125
-12.54,1669463319.140625
0.23,1669463319.15625
11.42,1669463319.171875
20.88,1669463319.1875
28.72,1669463319.203125
34.98,1669463319.21875
39.6,1669463319.234375
42.46,1669463319.25
43.63,1669463319.265625
43.42,1669463319.28125
42.29,1669463319.296875
40.64,1669463319.3125
38.73,1669463319.328125
36.61,1669463319.34375
34.2,1669463319.359375
31.47,1669463319.375
28.43,1669463319.390625
25.22,1669463319.40625
22.01,1669463319.421875
19.0,1669463319.4375
16.37,1669463319.453125
14.25,1669463319.46875
12.69,1669463319.484375
11.55,1669463319.5
10.5,1669463319.515625
9.12,1669463319.53125
6.99,1669463319.546875
3.95,1669463319.5625
0.06,1669463319.578125
-4.3,1669463319.59375
-8.68,1669463319.609375
-12.71,1669463319.625
-16.24,1669463319.640625
-19.41,1669463319.65625
-22.59,1669463319.671875
-26.22,1669463319.6875
-30.69,1669463319.703125
-36.17,1669463319.71875
-42.49,1669463319.734375
-48.95,1669463319.75
-54.39,1669463319.765625
-57.41,1669463319.78125
-56.77,1669463319.796875
-51.75,1669463319.8125
-42.62,1669463319.828125
-30.45,1669463319.84375
-16.83,1669463319.859375
-3.41,1669463319.875
8.63,1669463319.890625
18.67,1669463319.90625
26.58,1669463319.921875
32.41,1669463319.9375
36.21,1669463319.953125
37.98,1669463319.96875
37.85,1669463319.984375
36.22,1669463320.0
33.7,1669463320.015625
30.98,1669463320.03125
28.49,1669463320.046875
26.35,1669463320.0625
24.32,1669463320.078125
22.11,1669463320.09375
19.54,1669463320.109375
16.72,1669463320.125
13.94,1669463320.140625
11.53,1669463320.15625
9.7,1669463320.171875
8.4,1669463320.1875
7.38,1669463320.203125
6.29,1669463320.21875
4.77,1669463320.234375
2.61,1669463320.25
-0.22,1669463320.265625
-3.56,1669463320.28125
-7.11,1669463320.296875
-10.53,1669463320.3125
-13.63,1669463320.328125
-16.42,1669463320.34375
-19.16,1669463320.359375
-22.2,1669463320.375
-25.9,1669463320.390625
-30.51,1669463320.40625
-36.06,1669463320.421875
-42.3,1669463320.4375
-48.58,1669463320.453125
-53.91,1669463320.46875
-57.05,1669463320.484375
-56.82,1669463320.5
-52.52,1669463320.515625
-44.19,1669463320.53125
-32.73,1669463320.546875
-19.59,1669463320.5625
-6.33,1669463320.578125
5.77,1669463320.59375
16.05,1669463320.609375
24.34,1669463320.625
30.79,1669463320.640625
35.65,1669463320.65625
39.03,1669463320.671875
40.96,1669463320.6875
41.5,1669463320.703125
40.83,1669463320.71875
39.29,1669463320.734375
37.28,1669463320.75
35.13,1669463320.765625
32.98,1669463320.78125
30.74,1669463320.796875
28.21,1669463320.8125
25.23,1669463320.828125
21.86,1669463320.84375
18.38,1669463320.859375
15.24,1669463320.875
12.73,1669463320.890625
10.87,1669463320.90625
9.34,1669463320.921875
7.61,1669463320.9375
5.18,1669463320.953125
1.85,1669463320.96875
-2.25,1669463320.984375
-6.71,1669463321.0
-11.08,1669463321.015625
-15.04,1669463321.03125
-18.55,1669463321.046875
-21.76,1669463321.0625
-25.08,1669463321.078125
-28.96,1669463321.09375
-33.77,1669463321.109375
-39.66,1669463321.125
-46.38,1669463321.140625
-53.15,1669463321.15625
-58.74,1669463321.171875
-61.78,1669463321.1875
-61.05,1669463321.203125
-56.06,1669463321.21875
-47.15,1669463321.234375
-35.5,1669463321.25
-22.61,1669463321.265625
-9.93,1669463321.28125
1.63,1669463321.296875
11.68,1669463321.3125
20.25,1669463321.328125
27.46,1669463321.34375
33.32,1669463321.359375
37.73,1669463321.375
40.58,1669463321.390625
41.92,1669463321.40625
42.06,1669463321.421875
41.35,1669463321.4375
40.15,1669463321.453125
38.63,1669463321.46875
36.8,1669463321.484375
34.6,1669463321.5
31.96,1669463321.515625
28.97,1669463321.53125
25.81,1669463321.546875
22.71,1669463321.5625
19.91,1669463321.578125
17.49,1669463321.59375
15.47,1669463321.609375
13.68,1669463321.625
11.85,1669463321.640625
9.67,1669463321.65625
6.87,1669463321.671875
3.31,1669463321.6875
-0.9,1669463321.703125
-5.39,1669463321.71875
-9.69,1669463321.734375
-13.44,1669463321.75
-16.56,1669463321.765625
-19.34,1669463321.78125
-22.38,1669463321.796875
-26.3,1669463321.8125
-31.55,1669463321.828125
-38.2,1669463321.84375
-45.77,1669463321.859375
-53.27,1669463321.875
-59.34,1669463321.890625
-62.52,1669463321.90625
-61.62,1669463321.921875
-56.14,1669463321.9375
-46.4,1669463321.953125
-33.56,1669463321.96875
-19.27,1669463321.984375
-5.2,1669463322.0
7.39,1669463322.015625
17.87,1669463322.03125
26.21,1669463322.046875
32.71,1669463322.0625
37.72,1669463322.078125
41.45,1669463322.09375
44.03,1669463322.109375
45.43,1669463322.125
45.74,1669463322.140625
45.1,1669463322.15625
43.71,1669463322.171875
41.79,1669463322.1875
39.53,1669463322.203125
37.04,1669463322.21875
34.34,1669463322.234375
31.47,1669463322.25
28.48,1669463322.265625
25.53,1669463322.28125
22.75,1669463322.296875
20.26,1669463322.3125
18.05,1669463322.328125
15.97,1669463322.34375
13.8,1669463322.359375
11.32,1669463322.375
8.4,1669463322.390625
5.01,1669463322.40625
1.23,1669463322.421875
-2.82,1669463322.4375
-6.98,1669463322.453125
-11.09,1669463322.46875
-14.96,1669463322.484375
-18.47,1669463322.5
-21.61,1669463322.515625
-24.52,1669463322.53125
-27.48,1669463322.546875
-30.9,1669463322.5625
-35.14,1669463322.578125
-40.4,1669463322.59375
-46.49,1669463322.609375
-52.79,1669463322.625
-58.2,1669463322.640625
-61.33,1669463322.65625
-60.92,1669463322.671875
-56.21,1669463322.6875
-47.29,1669463322.703125
-35.18,1669463322.71875
-21.48,1669463322.734375
-7.93,1669463322.75
4.15,1669463322.765625
14.15,1669463322.78125
22.1,1669463322.796875
28.38,1669463322.8125
33.36,1669463322.828125
37.16,1669463322.84375
39.68,1669463322.859375
40.76,1669463322.875
40.45,1669463322.890625
39.07,1669463322.90625
37.04,1669463322.921875
34.79,1669463322.9375
32.5,1669463322.953125
30.11,1669463322.96875
27.46,1669463322.984375
24.46,1669463323.0
21.27,1669463323.015625
18.28,1669463323.03125
15.92,1669463323.046875
14.47,1669463323.0625
13.84,1669463323.078125
13.58,1669463323.09375
13.07,1669463323.109375
11.7,1669463323.125
9.17,1669463323.140625
5.54,1669463323.15625
1.22,1669463323.171875
-3.25,1669463323.1875
-7.39,1669463323.203125
-11.0,1669463323.21875
-14.14,1669463323.234375
-17.11,1669463323.25
-20.32,1669463323.265625
-24.1,1669463323.28125
-28.67,1669463323.296875
-34.02,1669463323.3125
-39.87,1669463323.328125
-45.57,1669463323.34375
-50.09,1669463323.359375
-52.2,1669463323.375
-50.81,1669463323.390625
-45.36,1669463323.40625
-36.1,1669463323.421875
-24.14,1669463323.4375
-11.03,1669463323.453125
1.63,1669463323.46875
12.69,1669463323.484375
21.65,1669463323.5
28.54,1669463323.515625
33.62,1669463323.53125
37.15,1669463323.546875
39.25,1669463323.5625
39.98,1669463323.578125
39.4,1669463323.59375
37.74,1669463323.609375
35.37,1669463323.625
32.67,1669463323.640625
29.96,1669463323.65625
27.39,1669463323.671875
24.94,1669463323.6875
22.54,1669463323.703125
20.07,1669463323.71875
17.49,1669463323.734375
14.89,1669463323.75
12.47,1669463323.765625
10.43,1669463323.78125
8.86,1669463323.796875
7.6,1669463323.8125
6.27,1669463323.828125
4.43,1669463323.84375
1.77,1669463323.859375
-1.68,1669463323.875
-5.58,1669463323.890625
-9.41,1669463323.90625
-12.7,1669463323.921875
-15.34,1669463323.9375
-17.64,1669463323.953125
-20.19,1669463323.96875
-23.62,1669463323.984375
-28.37,1669463324.0
-34.43,1669463324.015625
-41.36,1669463324.03125
-48.29,1669463324.046875
-54.04,1669463324.0625
-57.39,1669463324.078125
-57.27,1669463324.09375
-53.13,1669463324.109375
-45.06,1669463324.125
-33.88,1669463324.140625
-20.89,1669463324.15625
-7.6,1669463324.171875
4.73,1669463324.1875
15.25,1669463324.203125
23.69,1669463324.21875
30.16,1669463324.234375
34.97,1669463324.25
38.39,1669463324.265625
40.54,1669463324.28125
41.43,1669463324.296875
41.06,1669463324.3125
39.58,1669463324.328125
37.29,1669463324.34375
34.62,1669463324.359375
31.97,1669463324.375
29.56,1669463324.390625
27.38,1669463324.40625
25.27,1669463324.421875
23.05,1669463324.4375
20.67,1669463324.453125
18.24,1669463324.46875
15.95,1669463324.484375
13.96,1669463324.5
12.27,1669463324.515625
10.68,1669463324.53125
8.94,1669463324.546875
6.79,1669463324.5625
4.12,1669463324.578125
0.97,1669463324.59375
-2.53,1669463324.609375
-6.24,1669463324.625
-10.04,1669463324.640625
-13.87,1669463324.65625
-17.72,1669463324.671875
-21.6,1669463324.6875
-25.52,1669463324.703125
-29.5,1669463324.71875
-33.69,1669463324.734375
-38.27,1669463324.75
-43.43,1669463324.765625
-49.07,1669463324.78125
-54.62,1669463324.796875
-58.99,1669463324.8125
-60.83,1669463324.828125
-58.95,1669463324.84375
-52.81,1669463324.859375
-42.81,1669463324.875
-30.13,1669463324.890625
-16.36,1669463324.90625
-2.97,1669463324.921875
9.0,1669463324.9375
19.07,1669463324.953125
27.17,1669463324.96875
33.39,1669463324.984375
37.91,1669463325.0
40.84,1669463325.015625
42.38,1669463325.03125
42.76,1669463325.046875
42.22,1669463325.0625
40.96,1669463325.078125
39.16,1669463325.09375
36.95,1669463325.109375
34.47,1669463325.125
31.88,1669463325.140625
29.29,1669463325.15625
26.78,1669463325.171875
24.35,1669463325.1875
22.01,1669463325.203125
19.77,1669463325.21875
17.66,1669463325.234375
15.71,1669463325.25
13.93,1669463325.265625
12.26,1669463325.28125
10.55,1669463325.296875
8.7,1669463325.3125
6.59,1669463325.328125
4.16,1669463325.34375
1.38,1669463325.359375
-1.76,1669463325.375
-5.19,1669463325.390625
-8.85,1669463325.40625
-12.59,1669463325.421875
-16.27,1669463325.4375
-19.78,1669463325.453125
-23.13,1669463325.46875
-26.42,1669463325.484375
-29.9,1669463325.5
-33.87,1669463325.515625
-38.56,1669463325.53125
-43.98,1669463325.546875
-49.73,1669463325.5625
-54.95,1669463325.578125
-58.42,1669463325.59375
-58.87,1669463325.609375
-55.42,1669463325.625
-47.89,1669463325.640625
-36.95,1669463325.65625
-23.9,1669463325.671875
-10.3,1669463325.6875
2.48,1669463325.703125
13.59,1669463325.71875
22.67,1669463325.734375
29.71,1669463325.75
34.8,1669463325.765625
38.05,1669463325.78125
39.53,1669463325.796875
39.4,1669463325.8125
37.97,1669463325.828125
35.73,1669463325.84375
33.18,1669463325.859375
30.77,1669463325.875
28.69,1669463325.890625
26.9,1669463325.90625
25.19,1669463325.921875
23.33,1669463325.9375
21.17,1669463325.953125
18.7,1669463325.96875
16.06,1669463325.984375
13.45,1669463326.0
11.08,1669463326.015625
9.1,1669463326.03125
7.47,1669463326.046875
6.04,1669463326.0625
4.49,1669463326.078125
2.52,1669463326.09375
-0.09,1669463326.109375
-3.34,1669463326.125
-6.97,1669463326.140625
-10.64,1669463326.15625
-13.98,1669463326.171875
-16.81,1669463326.1875
-19.18,1669463326.203125
-21.35,1669463326.21875
-23.65,1669463326.234375
-26.47,1669463326.25
-30.06,1669463326.265625
-34.52,1669463326.28125
-39.6,1669463326.296875
-44.65,1669463326.3125
-48.64,1669463326.328125
-50.31,1669463326.34375
-48.58,1669463326.359375
-42.98,1669463326.375
-33.77,1669463326.390625
-22.03,1669463326.40625
-9.24,1669463326.421875
3.09,1669463326.4375
13.82,1669463326.453125
22.39,1669463326.46875
28.71,1669463326.484375
32.97,1669463326.5
35.43,1669463326.515625
36.35,1669463326.53125
35.89,1669463326.546875
34.29,1669463326.5625
31.87,1669463326.578125
29.06,1669463326.59375
26.25,1669463326.609375
23.74,1669463326.625
21.56,1669463326.640625
19.51,1669463326.65625
17.32,1669463326.671875
14.83,1669463326.6875
12.1,1669463326.703125
9.4,1669463326.71875
7.05,1669463326.734375
5.26,1669463326.75
3.99,1669463326.765625
2.96,1669463326.78125
1.75,1669463326.796875
0.0,1669463326.8125
-2.46,1669463326.828125
-5.55,1669463326.84375
-8.98,1669463326.859375
-12.44,1669463326.875
-15.69,1669463326.890625
-18.67,1669463326.90625
-21.46,1669463326.921875
-24.24,1669463326.9375
-27.25,1669463326.953125
-30.78,1669463326.96875
-35.08,1669463326.984375
-40.31,1669463327.0
-46.29,1669463327.015625
-52.37,1669463327.03125
-57.32,1669463327.046875
-59.69,1669463327.0625
-58.2,1669463327.078125
-52.31,1669463327.09375
-42.45,1669463327.109375
-29.9,1669463327.125
-16.31,1669463327.140625
-3.18,1669463327.15625
8.48,1669463327.171875
18.23,1669463327.1875
26.04,1669463327.203125
32.01,1669463327.21875
36.25,1669463327.234375
38.89,1669463327.25
40.05,1669463327.265625
39.95,1669463327.28125
38.83,1669463327.296875
36.96,1669463327.3125
34.64,1669463327.328125
32.08,1669463327.34375
29.42,1669463327.359375
26.74,1669463327.375
24.0,1669463327.390625
21.16,1669463327.40625
18.24,1669463327.421875
15.36,1669463327.4375
12.8,1669463327.453125
10.79,1669463327.46875
9.39,1669463327.484375
8.36,1669463327.5
7.24,1669463327.515625
5.52,1669463327.53125
2.91,1669463327.546875
-0.55,1669463327.5625
-4.54,1669463327.578125
-8.6,1669463327.59375
-12.44,1669463327.609375
-15.95,1669463327.625
-19.27,1669463327.640625
-22.63,1669463327.65625
-26.18,1669463327.671875
-30.01,1669463327.6875
-34.14,1669463327.703125
-38.65,1669463327.71875
-43.61,1669463327.734375
-48.92,1669463327.75
-54.09,1669463327.765625
-58.14,1669463327.78125
-59.77,1669463327.796875
-57.81,1669463327.8125
-51.7,1669463327.828125
-41.77,1669463327.84375
-29.25,1669463327.859375
-15.77,1669463327.875
-2.89,1669463327.890625
8.41,1669463327.90625
17.82,1669463327.921875
25.45,1669463327.9375
31.62,1669463327.953125
36.46,1669463327.96875
39.96,1669463327.984375
42.03,1669463328.0
42.64,1669463328.015625
41.95,1669463328.03125
40.26,1669463328.046875
37.93,1669463328.0625
35.27,1669463328.078125
32.55,1669463328.09375
29.95,1669463328.109375
27.54,1669463328.125
25.33,1669463328.140625
23.24,1669463328.15625
21.18,1669463328.171875
19.09,1669463328.1875
17.03,1669463328.203125
15.1,1669463328.21875
13.41,1669463328.234375
11.93,1669463328.25
10.43,1669463328.265625
8.52,1669463328.28125
5.84,1669463328.296875
2.24,1669463328.3125
-2.16,1669463328.328125
-6.95,1669463328.34375
-11.65,1669463328.359375
-15.96,1669463328.375
-19.85,1669463328.390625
-23.56,1669463328.40625
-27.43,1669463328.421875
-31.72,1669463328.4375
-36.61,1669463328.453125
-42.17,1669463328.46875
-48.33,1669463328.484375
-54.81,1669463328.5
-60.91,1669463328.515625
-65.51,1669463328.53125
-67.19,1669463328.546875
-64.75,1669463328.5625
-57.74,1669463328.578125
-46.73,1669463328.59375
-33.24,1669463328.609375
-19.14,1669463328.625
-6.0,1669463328.640625
5.37,1669463328.65625
14.92,1669463328.671875
23.01,1669463328.6875
29.94,1669463328.703125
35.72,1669463328.71875
40.06,1669463328.734375
42.74,1669463328.75
43.73,1669463328.765625
43.31,1669463328.78125
41.93,1669463328.796875
39.98,1669463328.8125
37.73,1669463328.828125
35.29,1669463328.84375
32.7,1669463328.859375
30.02,1669463328.875
27.39,1669463328.890625
24.97,1669463328.90625
22.9,1669463328.921875
21.25,1669463328.9375
19.98,1669463328.953125
18.93,1669463328.96875
17.8,1669463328.984375
16.29,1669463329.0
14.09,1669463329.015625
11.07,1669463329.03125
7.27,1669463329.046875
2.97,1669463329.0625
-1.5,1669463329.078125
-5.8,1669463329.09375
-9.75,1669463329.109375
-13.3,1669463329.125
-16.54,1669463329.140625
-19.67,1669463329.15625
-22.87,1669463329.171875
-26.45,1669463329.1875
-30.65,1669463329.203125
-35.7,1669463329.21875
-41.63,1669463329.234375
-48.06,1669463329.25
-54.1,1669463329.265625
-58.4,1669463329.28125
-59.56,1669463329.296875
-56.54,1669463329.3125
-49.12,1669463329.328125
-38.05,1669463329.34375
-24.85,1669463329.359375
-11.26,1669463329.375
1.31,1669463329.390625
12.1,1669463329.40625
20.99,1669463329.421875
28.15,1669463329.4375
33.8,1669463329.453125
37.9,1669463329.46875
40.32,1669463329.484375
41.0,1669463329.5
40.11,1669463329.515625
38.09,1669463329.53125
35.53,1669463329.546875
32.95,1669463329.5625
30.65,1669463329.578125
28.67,1669463329.59375
26.86,1669463329.609375
25.05,1669463329.625
23.13,1669463329.640625
21.11,1669463329.65625
19.14,1669463329.671875
17.38,1669463329.6875
15.97,1669463329.703125
14.84,1669463329.71875
13.74,1669463329.734375
12.28,1669463329.75
10.11,1669463329.765625
7.04,1669463329.78125
3.16,1669463329.796875
-1.21,1669463329.8125
-5.66,1669463329.828125
-9.84,1669463329.84375
-13.6,1669463329.859375
-17.0,1669463329.875
-20.29,1669463329.890625
-23.71,1669463329.90625
-27.49,1669463329.921875
-31.82,1669463329.9375
-36.83,1669463329.953125
-42.58,1669463329.96875
-48.9,1669463329.984375
-55.21,1669463330.0
-60.53,1669463330.015625
-63.55,1669463330.03125
-63.0,1669463330.046875
-58.13,1669463330.0625
-49.02,1669463330.078125
-36.62,1669463330.09375
-22.5,1669463330.109375
-8.33,1669463330.125
4.56,1669463330.140625
15.5,1669463330.15625
24.38,1669463330.171875
31.47,1669463330.1875
37.09,1669463330.203125
41.47,1669463330.21875
44.65,1669463330.234375
46.62,1669463330.25
47.41,1669463330.265625
47.13,1669463330.28125
45.96,1669463330.296875
44.16,1669463330.3125
41.94,1669463330.328125
39.48,1669463330.34375
36.9,1669463330.359375
34.34,1669463330.375
31.95,1669463330.390625
29.92,1669463330.40625
28.38,1669463330.421875
27.33,1669463330.4375
26.54,1669463330.453125
25.64,1669463330.46875
24.22,1669463330.484375
21.98,1669463330.5
18.91,1669463330.515625
15.31,1669463330.53125
11.63,1669463330.546875
8.23,1669463330.5625
5.22,1669463330.578125
2.37,1669463330.59375
-0.65,1669463330.609375
-4.17,1669463330.625
-8.23,1669463330.640625
-12.66,1669463330.65625
-17.11,1669463330.671875
-21.28,1669463330.6875
-25.06,1669463330.703125
-28.59,1669463330.71875
-32.25,1669463330.734375
-36.53,1669463330.75
-41.82,1669463330.765625
-48.19,1669463330.78125
-55.19,1669463330.796875
-61.74,1669463330.8125
-66.32,1669463330.828125
-67.32,1669463330.84375
-63.67,1669463330.859375
-55.22,1669463330.875
-42.89,1669463330.890625
-28.33,1669463330.90625
-13.4,1669463330.921875
0.46,1669463330.9375
12.45,1669463330.953125
22.38,1669463330.96875
30.42,1669463330.984375
36.73,1669463331.0
41.41,1669463331.015625
44.5,1669463331.03125
46.12,1669463331.046875
46.57,1669463331.0625
46.21,1669463331.078125
45.37,1669463331.09375
44.23,1669463331.109375
42.82,1669463331.125
41.07,1669463331.140625
39.02,1669463331.15625
36.8,1669463331.171875
34.65,1669463331.1875
32.86,1669463331.203125
31.57,1669463331.21875
30.79,1669463331.234375
30.34,1669463331.25
29.96,1669463331.265625
29.38,1669463331.28125
28.38,1669463331.296875
26.82,1669463331.3125
24.67,1669463331.328125
22.02,1669463331.34375
19.06,1669463331.359375
16.04,1669463331.375
13.16,1669463331.390625
10.51,1669463331.40625
7.94,1669463331.421875
5.2,1669463331.4375
1.98,1669463331.453125
-1.92,1669463331.46875
-6.45,1669463331.484375
-11.33,1669463331.5
-16.12,1669463331.515625
-20.42,1669463331.53125
-23.99,1669463331.546875
-26.83,1669463331.5625
-29.17,1669463331.578125
-31.37,1669463331.59375
-33.89,1669463331.609375
-37.18,1669463331.625
-41.59,1669463331.640625
-47.15,1669463331.65625
-53.42,1669463331.671875
-59.41,1669463331.6875
-63.66,1669463331.703125
-64.69,1669463331.71875
-61.41,1669463331.734375
-53.65,1669463331.75
-42.22,1669463331.765625
-28.69,1669463331.78125
-14.89,1669463331.796875
-2.31,1669463331.8125
8.22,1669463331.828125
16.6,1669463331.84375
23.14,1669463331.859375
28.25,1669463331.875
32.18,1669463331.890625
35.01,1669463331.90625
36.67,1669463331.921875
37.23,1669463331.9375
36.87,1669463331.953125
35.88,1669463331.96875
34.51,1669463331.984375
32.86,1669463332.0
30.87,1669463332.015625
28.52,1669463332.03125
25.9,1669463332.046875
23.36,1669463332.0625
21.32,1669463332.078125
20.15,1669463332.09375
19.93,1669463332.109375
20.39,1669463332.125
21.01,1669463332.140625
21.22,1669463332.15625
20.62,1669463332.171875
19.13,1669463332.1875
16.92,1669463332.203125
14.35,1669463332.21875
11.76,1669463332.234375
9.34,1669463332.25
7.08,1669463332.265625
4.78,1669463332.28125
2.15,1669463332.296875
-1.01,1669463332.3125
-4.73,1669463332.328125
-8.85,1669463332.34375
-13.05,1669463332.359375
-17.04,1669463332.375
-20.63,1669463332.390625
-23.78,1669463332.40625
-26.6,1669463332.421875
-29.3,1669463332.4375
-32.14,1669463332.453125
-35.42,1669463332.46875
-39.4,1669463332.484375
-44.12,1669463332.5
-49.24,1669463332.515625
-53.88,1669463332.53125
-56.78,1669463332.546875
-56.59,1669463332.5625
-52.44,1669463332.578125
-44.25,1669463332.59375
-32.95,1669463332.609375
-20.09,1669463332.625
-7.32,1669463332.640625
4.13,1669463332.65625
13.73,1669463332.671875
21.5,1669463332.6875
27.73,1669463332.703125
32.56,1669463332.71875
35.97,1669463332.734375
37.78,1669463332.75
37.97,1669463332.765625
36.84,1669463332.78125
34.91,1669463332.796875
32.75,1669463332.8125
30.76,1669463332.828125
29.03,1669463332.84375
27.39,1669463332.859375
25.64,1669463332.875
23.72,1669463332.890625
21.77,1669463332.90625
20.04,1669463332.921875
18.77,1669463332.9375
18.03,1669463332.953125
17.65,1669463332.96875
17.35,1669463332.984375
16.79,1669463333.0
15.72,1669463333.015625
14.07,1669463333.03125
11.91,1669463333.046875
9.47,1669463333.0625
6.96,1669463333.078125
4.55,1669463333.09375
2.26,1669463333.109375
-0.07,1669463333.125
-2.67,1669463333.140625
-5.71,1669463333.15625
-9.25,1669463333.171875
-13.12,1669463333.1875
-17.0,1669463333.203125
-20.6,1669463333.21875
-23.73,1669463333.234375
-26.37,1669463333.25
-28.68,1669463333.265625
-30.93,1669463333.28125
-33.43,1669463333.296875
-36.5,1669463333.3125
-40.42,1669463333.328125
-45.2,1669463333.34375
-50.54,1669463333.359375
-55.63,1669463333.375
-59.24,1669463333.390625
-60.02,1669463333.40625
-56.94,1669463333.421875
-49.69,1669463333.4375
-38.88,1669463333.453125
-25.87,1669463333.46875
-12.35,1669463333.484375
0.17,1669463333.5
10.72,1669463333.515625
18.99,1669463333.53125
25.23,1669463333.546875
29.86,1669463333.5625
33.31,1669463333.578125
35.83,1669463333.59375
37.48,1669463333.609375
38.28,1669463333.625
38.3,1669463333.640625
37.67,1669463333.65625
36.61,1669463333.671875
35.28,1669463333.6875
33.8,1669463333.703125
32.2,1669463333.71875
30.47,1669463333.734375
28.69,1669463333.75
27.01,1669463333.765625
25.68,1669463333.78125
24.89,1669463333.796875
24.67,1669463333.8125
24.8,1669463333.828125
24.87,1669463333.84375
24.4,1669463333.859375
22.99,1669463333.875
20.53,1669463333.890625
17.19,1669463333.90625
13.36,1669463333.921875
9.52,1669463333.9375
6.01,1669463333.953125
2.96,1669463333.96875
0.24,1669463333.984375
-2.41,1669463334.0
-5.31,1669463334.015625
-8.72,1669463334.03125
-12.71,1669463334.046875
-17.17,1669463334.0625
-21.79,1669463334.078125
-26.16,1669463334.09375
-29.92,1669463334.109375
-32.86,1669463334.125
-35.04,1669463334.140625
-36.74,1669463334.15625
-38.44,1669463334.171875
-40.68,1669463334.1875
-43.89,1669463334.203125
-48.23,1669463334.21875
-53.44,1669463334.234375
-58.76,1669463334.25
-62.96,1669463334.265625
-64.6,1669463334.28125
-62.48,1669463334.296875
-56.0,1669463334.3125
-45.53,1669463334.328125
-32.3,1669463334.34375
-18.05,1669463334.359375
-4.51,1669463334.375
7.1,1669463334.390625
16.27,1669463334.40625
23.13,1669463334.421875
28.1,1669463334.4375
31.67,1669463334.453125
34.13,1669463334.46875
35.62,1669463334.484375
36.18,1669463334.5
35.91,1669463334.515625
34.96,1669463334.53125
33.56,1669463334.546875
31.96,1669463334.5625
30.33,1669463334.578125
28.72,1669463334.59375
27.08,1669463334.609375
25.33,1669463334.625
23.52,1669463334.640625
21.82,1669463334.65625
20.55,1669463334.671875
19.93,1669463334.6875
20.05,1669463334.703125
20.62,1669463334.71875
21.18,1669463334.734375
21.13,1669463334.75
20.1,1669463334.765625
18.05,1669463334.78125
15.26,1669463334.796875
12.19,1669463334.8125
9.25,1669463334.828125
6.59,1669463334.84375
4.1,1669463334.859375
1.47,1669463334.875
-1.61,1669463334.890625
-5.26,1669463334.90625
-9.37,1669463334.921875
-13.68,1669463334.9375
-17.81,1669463334.953125
-21.49,1669463334.96875
-24.61,1669463334.984375
-27.27,1669463335.0
-29.71,1669463335.015625
-32.26,1669463335.03125
-35.28,1669463335.046875
-39.03,1669463335.0625
-43.61,1669463335.078125
-48.81,1669463335.09375
-53.96,1669463335.109375
-58.03,1669463335.125
-59.7,1669463335.140625
-57.84,1669463335.15625
-51.86,1669463335.171875
-42.03,1669463335.1875
-29.45,1669463335.203125
-15.72,1669463335.21875
-2.4,1669463335.234375
9.36,1669463335.25
19.04,1669463335.265625
26.64,1669463335.28125
32.36,1669463335.296875
36.37,1669463335.3125
38.7,1669463335.328125
39.4,1669463335.34375
38.57,1669463335.359375
36.52,1669463335.375
33.69,1669463335.390625
30.55,1669463335.40625
27.5,1669463335.421875
24.8,1669463335.4375
22.59,1669463335.453125
20.9,1669463335.46875
19.71,1669463335.484375
18.96,1669463335.5
18.54,1669463335.515625
18.33,1669463335.53125
18.18,1669463335.546875
17.94,1669463335.5625
17.41,1669463335.578125
16.36,1669463335.59375
14.66,1669463335.609375
12.34,1669463335.625
9.61,1669463335.640625
6.84,1669463335.65625
4.38,1669463335.671875
2.34,1669463335.6875
0.57,1669463335.703125
-1.33,1669463335.71875
-3.81,1669463335.734375
-7.14,1669463335.75
-11.29,1669463335.765625
-15.96,1669463335.78125
-20.65,1669463335.796875
-24.89,1669463335.8125
-28.44,1669463335.828125
-31.3,1669463335.84375
-33.78,1669463335.859375
-36.3,1669463335.875
-39.35,1669463335.890625
-43.31,1669463335.90625
-48.28,1669463335.921875
-53.99,1669463335.9375
-59.65,1669463335.953125
-64.06,1669463335.96875
-65.81,1669463335.984375
-63.69,1669463336.0
-57.12,1669463336.015625
-46.43,1669463336.03125
-32.83,1669463336.046875
-18.06,1669463336.0625
-3.81,1669463336.078125
8.71,1669463336.09375
18.94,1669463336.109375
26.87,1669463336.125
32.7,1669463336.140625
36.69,1669463336.15625
39.02,1669463336.171875
39.9,1669463336.1875
39.69,1669463336.203125
38.8,1669463336.21875
37.67,1669463336.234375
36.54,1669463336.25
35.43,1669463336.265625
34.18,1669463336.28125
32.62,1669463336.296875
30.69,1669463336.3125
28.51,1669463336.328125
26.35,1669463336.34375
24.48,1669463336.359375
23.14,1669463336.375
22.4,1669463336.390625
22.15,1669463336.40625
22.11,1669463336.421875
21.88,1669463336.4375
21.08,1669463336.453125
19.43,1669463336.46875
16.93,1669463336.484375
13.79,1669463336.5
10.39,1669463336.515625
7.16,1669463336.53125
4.3,1669463336.546875
1.81,1669463336.5625
-0.6,1669463336.578125
-3.36,1669463336.59375
-6.81,1669463336.609375
-11.06,1669463336.625
-15.97,1669463336.640625
-21.15,1669463336.65625
-26.17,1669463336.671875
-30.7,1669463336.6875
-34.62,1669463336.703125
-38.05,1669463336.71875
-41.32,1669463336.734375
-44.9,1669463336.75
-49.25,1669463336.765625
-54.65,1669463336.78125
-60.93,1669463336.796875
-67.29,1669463336.8125
-72.31,1669463336.828125
-74.27,1669463336.84375
-71.75,1669463336.859375
-64.23,1669463336.875
-52.34,1669463336.890625
-37.67,1669463336.90625
-22.21,1669463336.921875
-7.61,1669463336.9375
5.19,1669463336.953125
15.98,1669463336.96875
24.95,1669463336.984375
32.31,1669463337.0
38.11,1669463337.015625
42.28,1669463337.03125
44.85,1669463337.046875
46.01,1669463337.0625
46.08,1669463337.078125
45.37,1669463337.09375
44.07,1669463337.109375
42.3,1669463337.125
40.07,1669463337.140625
37.48,1669463337.15625
34.7,1669463337.171875
31.91,1669463337.1875
29.32,1669463337.203125
27.16,1669463337.21875
25.65,1669463337.234375
24.92,1669463337.25
24.94,1669463337.265625
25.36,1669463337.28125
25.67,1669463337.296875
25.29,1669463337.3125
23.83,1669463337.328125
21.29,1669463337.34375
18.02,1669463337.359375
14.53,1669463337.375
11.27,1669463337.390625
8.39,1669463337.40625
5.71,1669463337.421875
2.89,1669463337.4375
-0.44,1669463337.453125
-4.45,1669463337.46875
-9.02,1669463337.484375
-13.88,1669463337.5
-18.64,1669463337.515625
-23.0,1669463337.53125
-26.86,1669463337.546875
-30.32,1669463337.5625
-33.66,1669463337.578125
-37.25,1669463337.59375
-41.46,1669463337.609375
-46.6,1669463337.625
-52.78,1669463337.640625
-59.74,1669463337.65625
-66.74,1669463337.671875
-72.49,1669463337.6875
-75.46,1669463337.703125
-74.24,1669463337.71875
-68.11,1669463337.734375
-57.29,1669463337.75
-42.95,1669463337.765625
-26.86,1669463337.78125
-10.85,1669463337.796875
3.63,1669463337.8125
15.8,1669463337.828125
25.44,1669463337.84375
32.71,1669463337.859375
37.88,1669463337.875
41.16,1669463337.890625
42.73,1669463337.90625
42.8,1669463337.921875
41.68,1669463337.9375
39.8,1669463337.953125
37.6,1669463337.96875
35.39,1669463337.984375
33.31,1669463338.0
31.29,1669463338.015625
29.26,1669463338.03125
27.22,1669463338.046875
25.34,1669463338.0625
23.88,1669463338.078125
23.03,1669463338.09375
22.77,1669463338.109375
22.82,1669463338.125
22.71,1669463338.140625
22.03,1669463338.15625
20.52,1669463338.171875
18.19,1669463338.1875
15.31,1669463338.203125
12.19,1669463338.21875
9.09,1669463338.234375
6.08,1669463338.25
3.02,1669463338.265625
-0.33,1669463338.28125
-4.22,1669463338.296875
-8.68,1669463338.3125
-13.51,1669463338.328125
-18.34,1669463338.34375
-22.8,1669463338.359375
-26.78,1669463338.375
-30.44,1669463338.390625
-34.18,1669463338.40625
-38.43,1669463338.421875
-43.46,1669463338.4375
-49.24,1669463338.453125
-55.4,1669463338.46875
-61.24,1669463338.484375
-65.73,1669463338.5
-67.72,1669463338.515625
-66.09,1669463338.53125
-60.17,1669463338.546875
-50.01,1669463338.5625
-36.51,1669463338.578125
-21.21,1669463338.59375
-5.85,1669463338.609375
8.15,1669463338.625
19.96,1669463338.640625
29.38,1669463338.65625
36.61,1669463338.671875
41.92,1669463338.6875
45.53,1669463338.703125
47.62,1669463338.71875
48.36,1669463338.734375
48.0,1669463338.75
46.83,1669463338.765625
45.1,1669463338.78125
43.03,1669463338.796875
40.74,1669463338.8125
38.35,1669463338.828125
36.01,1669463338.84375
33.84,1669463338.859375
32.0,1669463338.875
30.53,1669463338.890625
29.41,1669463338.90625
28.49,1669463338.921875
27.57,1669463338.9375
26.4,1669463338.953125
24.78,1669463338.96875
22.62,1669463338.984375
19.96,1669463339.0
17.0,1669463339.015625
13.93,1669463339.03125
10.87,1669463339.046875
7.8,1669463339.0625
4.5,1669463339.078125
0.71,1669463339.09375
-3.74,1669463339.109375
-8.78,1669463339.125
-14.17,1669463339.140625
-19.52,1669463339.15625
-24.44,1669463339.171875
-28.75,1669463339.1875
-32.45,1669463339.203125
-35.87,1669463339.21875
-39.53,1669463339.234375
-44.04,1669463339.25
-49.85,1669463339.265625
-56.96,1669463339.28125
-64.71,1669463339.296875
-71.76,1669463339.3125
-76.27,1669463339.328125
-76.53,1669463339.34375
-71.46,1669463339.359375
-61.08,1669463339.375
-46.53,1669463339.390625
-29.68,1669463339.40625
-12.53,1669463339.421875
3.31,1669463339.4375
16.94,1669463339.453125
28.12,1669463339.46875
36.96,1669463339.484375
43.65,1669463339.5
48.31,1669463339.515625
51.03,1669463339.53125
51.99,1669463339.546875
51.58,1669463339.5625
50.33,1669463339.578125
48.78,1669463339.59375
47.26,1669463339.609375
45.83,1669463339.625
44.35,1669463339.640625
42.62,1669463339.65625
40.55,1669463339.671875
38.27,1669463339.6875
36.07,1669463339.703125
34.26,1669463339.71875
33.04,1669463339.734375
32.39,1669463339.75
32.04,1669463339.765625
31.6,1669463339.78125
30.64,1669463339.796875
28.86,1669463339.8125
26.18,1669463339.828125
22.76,1669463339.84375
18.94,1669463339.859375
15.08,1669463339.875
11.48,1669463339.890625
8.23,1669463339.90625
5.2,1669463339.921875
2.15,1669463339.9375
-1.22,1669463339.953125
-5.08,1669463339.96875
-9.44,1669463339.984375
-14.12,1669463340.0
-18.86,1669463340.015625
-23.35,1669463340.03125
-27.43,1669463340.046875
-31.09,1669463340.0625
-34.49,1669463340.078125
-37.94,1669463340.09375
-41.83,1669463340.109375
-46.54,1669463340.125
-52.29,1669463340.140625
-58.91,1669463340.15625
-65.73,1669463340.171875
-71.51,1669463340.1875
-74.62,1669463340.203125
-73.54,1669463340.21875
-67.38,1669463340.234375
-56.29,1669463340.25
-41.56,1669463340.265625
-25.17,1669463340.28125
-9.16,1669463340.296875
4.95,1669463340.3125
16.49,1669463340.328125
25.53,1669463340.34375
32.51,1669463340.359375
37.82,1669463340.375
41.69,1669463340.390625
44.14,1669463340.40625
45.25,1669463340.421875
45.24,1669463340.4375
44.45,1669463340.453125
43.28,1669463340.46875
41.96,1669463340.484375
40.53,1669463340.5
38.86,1669463340.515625
36.83,1669463340.53125
34.47,1669463340.546875
32.01,1669463340.5625
29.84,1669463340.578125
28.39,1669463340.59375
27.84,1669463340.609375
28.09,1669463340.625
28.72,1669463340.640625
29.17,1669463340.65625
28.94,1669463340.671875
27.75,1669463340.6875
25.6,1669463340.703125
22.7,1669463340.71875
19.34,1669463340.734375
15.81,1669463340.75
12.27,1669463340.765625
8.77,1669463340.78125
5.2,1669463340.796875
1.42,1669463340.8125
-2.75,1669463340.828125
-7.35,1669463340.84375
-12.26,1669463340.859375
-17.13,1669463340.875
-21.58,1669463340.890625
-25.27,1669463340.90625
-28.1,1669463340.921875
-30.28,1669463340.9375
-32.23,1669463340.953125
-34.44,1669463340.96875
-37.35,1669463340.984375
-41.19,1669463341.0
-45.9,1669463341.015625
-51.01,1669463341.03125
-55.57,1669463341.046875
-58.25,1669463341.0625
-57.64,1669463341.078125
-52.71,1669463341.09375
-43.28,1669463341.109375
-30.23,1669463341.125
-15.23,1669463341.140625
-0.25,1669463341.15625
13.1,1669463341.171875
23.93,1669463341.1875
32.17,1669463341.203125
38.16,1669463341.21875
42.33,1669463341.234375
44.88,1669463341.25
45.85,1669463341.265625
45.28,1669463341.28125
43.42,1669463341.296875
40.79,1669463341.3125
38.03,1669463341.328125
35.59,1669463341.34375
33.63,1669463341.359375
31.99,1669463341.375
30.34,1669463341.390625
28.52,1669463341.40625
26.58,1669463341.421875
24.83,1669463341.4375
23.6,1669463341.453125
23.06,1669463341.46875
23.07,1669463341.484375
23.24,1669463341.5
23.1,1669463341.515625
22.27,1669463341.53125
20.59,1669463341.546875
18.14,1669463341.5625
15.14,1669463341.578125
11.87,1669463341.59375
8.56,1669463341.609375
5.4,1669463341.625
2.44,1669463341.640625
-0.37,1669463341.65625
-3.25,1669463341.671875
-6.41,1669463341.6875
-9.99,1669463341.703125
-13.98,1669463341.71875
-18.15,1669463341.734375
-22.19,1669463341.75
-25.87,1669463341.765625
-29.13,1669463341.78125
-32.11,1669463341.796875
-35.1,1669463341.8125
-38.41,1669463341.828125
-42.32,1669463341.84375
-46.97,1669463341.859375
-52.37,1669463341.875
-58.18,1669463341.890625
-63.66,1669463341.90625
-67.61,1669463341.921875
-68.6,1669463341.9375
-65.45,1669463341.953125
-57.66,1669463341.96875
-45.77,1669463341.984375
-31.18,1669463342.0
-15.81,1669463342.015625
-1.46,1669463342.03125
10.66,1669463342.046875
20.07,1669463342.0625
26.92,1669463342.078125
31.65,1669463342.09375
34.73,1669463342.109375
36.52,1669463342.125
37.27,1669463342.140625
37.23,1669463342.15625
36.67,1669463342.171875
35.91,1669463342.1875
35.24,1669463342.203125
34.78,1669463342.21875
34.46,1669463342.234375
34.06,1669463342.25
33.32,1669463342.265625
32.13,1669463342.28125
30.54,1669463342.296875
28.85,1669463342.3125
27.39,1669463342.328125
26.37,1669463342.34375
25.81,1669463342.359375
25.48,1669463342.375
25.03,1669463342.390625
24.12,1669463342.40625
22.58,1669463342.421875
20.39,1669463342.4375
17.7,1669463342.453125
14.7,1669463342.46875
11.59,1669463342.484375
8.47,1669463342.5
5.38,1669463342.515625
2.32,1669463342.53125
-0.74,1669463342.546875
-3.78,1669463342.5625
-6.84,1669463342.578125
-9.97,1669463342.59375
-13.29,1669463342.609375
-16.92,1669463342.625
-20.9,1669463342.640625
-25.11,1669463342.65625
-29.33,1669463342.671875
-33.26,1669463342.6875
-36.69,1669463342.703125
-39.56,1669463342.71875
-42.04,1669463342.734375
-44.46,1669463342.75
-47.26,1669463342.765625
-50.81,1669463342.78125
-55.26,1669463342.796875
-60.29,1669463342.8125
-64.96,1669463342.828125
-67.88,1669463342.84375
-67.52,1669463342.859375
-62.82,1669463342.875
-53.61,1669463342.890625
-40.82,1669463342.90625
-26.14,1669463342.921875
-11.41,1669463342.9375
1.94,1669463342.953125
13.19,1669463342.96875
22.21,1669463342.984375
29.23,1669463343.0
34.45,1669463343.015625
38.0,1669463343.03125
39.98,1669463343.046875
40.62,1669463343.0625
40.27,1669463343.078125
39.36,1669463343.09375
38.24,1669463343.109375
37.04,1669463343.125
35.72,1669463343.140625
34.17,1669463343.15625
32.36,1669463343.171875
30.4,1669463343.1875
28.52,1669463343.203125
27.0,1669463343.21875
25.97,1669463343.234375
25.41,1669463343.25
25.14,1669463343.265625
24.92,1669463343.28125
24.5,1669463343.296875
23.77,1669463343.3125
22.7,1669463343.328125
21.36,1669463343.34375
19.77,1669463343.359375
17.91,1669463343.375
15.74,1669463343.390625
13.25,1669463343.40625
10.45,1669463343.421875
7.39,1669463343.4375
4.19,1669463343.453125
0.94,1669463343.46875
-2.31,1669463343.484375
-5.55,1669463343.5
-8.8,1669463343.515625
-12.12,1669463343.53125
-15.5,1669463343.546875
-18.85,1669463343.5625
-21.99,1669463343.578125
-24.73,1669463343.59375
-26.97,1669463343.609375
-28.77,1669463343.625
-30.43,1669463343.640625
-32.4,1669463343.65625
-35.14,1669463343.671875
-38.95,1669463343.6875
-43.79,1669463343.703125
-49.18,1669463343.71875
-54.17,1669463343.734375
-57.51,1669463343.75
-57.92,1669463343.765625
-54.48,1669463343.78125
-46.93,1669463343.796875
-35.83,1669463343.8125
-22.46,1669463343.828125
-8.44,1669463343.84375
4.65,1669463343.859375
15.65,1669463343.875
24.01,1669463343.890625
29.77,1669463343.90625
33.31,1669463343.921875
35.17,1669463343.9375
35.84,1669463343.953125
35.72,1669463343.96875
35.01,1669463343.984375
33.82,1669463344.0
32.16,1669463344.015625
29.99,1669463344.03125
27.36,1669463344.046875
24.48,1669463344.0625
21.61,1669463344.078125
19.14,1669463344.09375
17.33,1669463344.109375
16.3,1669463344.125
15.99,1669463344.140625
16.15,1669463344.15625
16.49,1669463344.171875
16.74,1669463344.1875
16.71,1669463344.203125
16.33,1669463344.21875
15.53,1669463344.234375
14.29,1669463344.25
12.59,1669463344.265625
10.41,1669463344.28125
7.83,1669463344.296875
5.01,1669463344.3125
2.18,1669463344.328125
-0.48,1669463344.34375
-2.89,1669463344.359375
-5.18,1669463344.375
-7.67,1669463344.390625
-10.69,1669463344.40625
-14.45,1669463344.421875
-18.88,1669463344.4375
-23.59,1669463344.453125
-28.06,1669463344.46875
-31.77,1669463344.484375
-34.51,1669463344.5
-36.39,1669463344.515625
-37.9,1669463344.53125
-39.67,1669463344.546875
-42.29,1669463344.5625
-46.11,1669463344.578125
-51.03,1669463344.59375
-56.42,1669463344.609375
-61.19,1669463344.625
-64.01,1669463344.640625
-63.65,1669463344.65625
-59.3,1669463344.671875
-50.92,1669463344.6875
-39.18,1669463344.703125
-25.39,1669463344.71875
-11.04,1669463344.734375
2.42,1669463344.75
13.95,1669463344.765625
22.96,1669463344.78125
29.35,1669463344.796875
33.4,1669463344.8125
35.66,1669463344.828125
36.73,1669463344.84375
37.13,1669463344.859375
37.17,1669463344.875
36.93,1669463344.890625
36.36,1669463344.90625
35.36,1669463344.921875
33.9,1669463344.9375
32.08,1669463344.953125
30.02,1669463344.96875
27.94,1669463344.984375
26.02,1669463345.0
24.49,1669463345.015625
23.51,1669463345.03125
23.13,1669463345.046875
23.28,1669463345.0625
23.68,1669463345.078125
23.98,1669463345.09375
23.85,1669463345.109375
23.1,1669463345.125
21.71,1669463345.140625
19.75,1669463345.15625
17.34,1669463345.171875
14.57,1669463345.1875
11.53,1669463345.203125
8.32,1669463345.21875
5.08,1669463345.234375
1.95,1669463345.25
-0.96,1669463345.265625
-3.63,1669463345.28125
-6.14,1669463345.296875
-8.65,1669463345.3125
-11.33,1669463345.328125
-14.32,1669463345.34375
-17.64,1669463345.359375
-21.18,1669463345.375
-24.78,1669463345.390625
-28.31,1669463345.40625
-31.7,1669463345.421875
-34.96,1669463345.4375
-38.14,1669463345.453125
-41.35,1669463345.46875
-44.72,1669463345.484375
-48.49,1669463345.5
-52.96,1669463345.515625
-58.32,1669463345.53125
-64.34,1669463345.546875
-70.14,1669463345.5625
-74.17,1669463345.578125
-74.65,1669463345.59375
-70.24,1669463345.609375
-60.63,1669463345.625
-46.76,1669463345.640625
-30.55,1669463345.65625
-14.2,1669463345.671875
0.55,1669463345.6875
12.81,1669463345.703125
22.44,1669463345.71875
29.78,1669463345.734375
35.26,1669463345.75
39.11,1669463345.765625
41.45,1669463345.78125
42.44,1669463345.796875
42.35,1669463345.8125
41.59,1669463345.828125
40.55,1669463345.84375
39.45,1669463345.859375
38.29,1669463345.875
36.95,1669463345.890625
35.26,1669463345.90625
33.22,1669463345.921875
31.04,1669463345.9375
29.06,1669463345.953125
27.61,1669463345.96875
26.9,1669463345.984375
26.86,1669463346.0
27.26,1669463346.015625
27.7,1669463346.03125
27.84,1669463346.046875
27.48,1669463346.0625
26.6,1669463346.078125
25.29,1669463346.09375
23.67,1669463346.109375
21.76,1669463346.125
19.46,1669463346.140625
16.58,1669463346.15625
13.01,1669463346.171875
8.79,1669463346.1875
4.23,1669463346.203125
-0.22,1669463346.21875
-4.09,1669463346.234375
-7.2,1669463346.25
-9.68,1669463346.265625
-12.0,1669463346.28125
-14.66,1669463346.296875
-18.02,1669463346.3125
-22.05,1669463346.328125
-26.39,1669463346.34375
-30.55,1669463346.359375
-34.1,1669463346.375
-36.99,1669463346.390625
-39.41,1669463346.40625
-41.89,1669463346.421875
-44.97,1669463346.4375
-49.07,1669463346.453125
-54.24,1669463346.46875
-60.09,1669463346.484375
-65.72,1669463346.5
-69.78,1669463346.515625
-70.82,1669463346.53125
-67.65,1669463346.546875
-59.77,1669463346.5625
-47.65,1669463346.578125
-32.61,1669463346.59375
-16.52,1669463346.609375
-1.2,1669463346.625
12.0,1669463346.640625
22.42,1669463346.65625
30.04,1669463346.671875
35.22,1669463346.6875
38.46,1669463346.703125
40.19,1669463346.71875
40.72,1669463346.734375
40.3,1669463346.75
39.15,1669463346.765625
37.5,1669463346.78125
35.57,1669463346.796875
33.56,1669463346.8125
31.57,1669463346.828125
29.67,1669463346.84375
27.89,1669463346.859375
26.23,1669463346.875
24.71,1669463346.890625
23.4,1669463346.90625
22.4,1669463346.921875
21.8,1669463346.9375
21.59,1669463346.953125
21.63,1669463346.96875
21.6,1669463346.984375
21.13,1669463347.0
19.86,1669463347.015625
17.62,1669463347.03125
14.51,1669463347.046875
10.92,1669463347.0625
7.3,1669463347.078125
4.07,1669463347.09375
1.38,1669463347.109375
-0.98,1669463347.125
-3.43,1669463347.140625
-6.44,1669463347.15625
-10.3,1669463347.171875
-14.95,1669463347.1875
-20.05,1669463347.203125
-25.11,1669463347.21875
-29.69,1669463347.234375
-33.56,1669463347.25
-36.79,1669463347.265625
-39.71,1669463347.28125
-42.83,1669463347.296875
-46.71,1669463347.3125
-51.81,1669463347.328125
-58.25,1669463347.34375
-65.57,1669463347.359375
-72.75,1669463347.375
-78.25,1669463347.390625
-80.45,1669463347.40625
-78.08,1669463347.421875
-70.63,1669463347.4375
-58.56,1669463347.453125
-43.12,1669463347.46875
-26.01,1669463347.484375
-8.93,1669463347.5
6.72,1669463347.515625
20.07,1669463347.53125
30.72,1669463347.546875
38.67,1669463347.5625
44.15,1669463347.578125
47.49,1669463347.59375
49.07,1669463347.609375
49.24,1669463347.625
48.34,1669463347.640625
46.67,1669463347.65625
44.55,1669463347.671875
42.23,1669463347.6875
39.93,1669463347.703125
37.79,1669463347.71875
35.84,1669463347.734375
34.11,1669463347.75
32.63,1669463347.765625
31.44,1669463347.78125
30.56,1669463347.796875
30.03,1669463347.8125
29.77,1669463347.828125
29.65,1669463347.84375
29.45,1669463347.859375
28.94,1669463347.875
27.88,1669463347.890625
26.07,1669463347.90625
23.44,1669463347.921875
20.07,1669463347.9375
16.21,1669463347.953125
12.15,1669463347.96875
8.16,1669463347.984375
4.32,1669463348.0
0.55,1669463348.015625
-3.4,1669463348.03125
-7.78,1669463348.046875
-12.69,1669463348.0625
-18.01,1669463348.078125
-23.47,1669463348.09375
-28.69,1669463348.109375
-33.43,1669463348.125
-37.61,1669463348.140625
-41.45,1669463348.15625
-45.33,1669463348.171875
-49.65,1669463348.1875
-54.76,1669463348.203125
-60.83,1669463348.21875
-67.85,1669463348.234375
-75.57,1669463348.25
-83.32,1669463348.265625
-90.06,1669463348.28125
-94.3,1669463348.296875
-94.48,1669463348.3125
-89.4,1669463348.328125
-78.75,1669463348.34375
-63.32,1669463348.359375
-44.9,1669463348.375
-25.71,1669463348.390625
-7.77,1669463348.40625
7.68,1669463348.421875
20.21,1669463348.4375
30.07,1669463348.453125
37.73,1669463348.46875
43.61,1669463348.484375
47.93,1669463348.5
50.82,1669463348.515625
52.43,1669463348.53125
52.98,1669463348.546875
52.75,1669463348.5625
52.01,1669463348.578125
50.94,1669463348.59375
49.67,1669463348.609375
48.27,1669463348.625
46.89,1669463348.640625
45.7,1669463348.65625
44.9,1669463348.671875
44.58,1669463348.6875
44.7,1669463348.703125
45.06,1669463348.71875
45.41,1669463348.734375
45.45,1669463348.75
45.01,1669463348.765625
43.95,1669463348.78125
42.21,1669463348.796875
39.77,1669463348.8125
36.64,1669463348.828125
32.94,1669463348.84375
28.83,1669463348.859375
24.5,1669463348.875
20.12,1669463348.890625
15.74,1669463348.90625
11.33,1669463348.921875
6.83,1669463348.9375
2.21,1669463348.953125
-2.51,1669463348.96875
-7.24,1669463348.984375
-11.92,1669463349.0
-16.53,1669463349.015625
-21.07,1669463349.03125
-25.58,1669463349.046875
-30.06,1669463349.0625
-34.5,1669463349.078125
-38.89,1669463349.09375
-43.27,1669463349.109375
-47.85,1669463349.125
-52.95,1669463349.140625
-58.95,1669463349.15625
-66.0,1669463349.171875
-73.77,1669463349.1875
-81.14,1669463349.203125
-86.35,1669463349.21875
-87.43,1669463349.234375
-82.88,1669463349.25
-72.26,1669463349.265625
-56.56,1669463349.28125
-37.79,1669463349.296875
-18.36,1669463349.3125
-0.29,1669463349.328125
15.24,1669463349.34375
27.86,1669463349.359375
37.74,1669463349.375
45.18,1669463349.390625
50.39,1669463349.40625
53.56,1669463349.421875
54.92,1669463349.4375
54.89,1669463349.453125
53.92,1669463349.46875
52.48,1669463349.484375
50.83,1669463349.5
49.07,1669463349.515625
47.16,1669463349.53125
45.12,1669463349.546875
43.04,1669463349.5625
41.11,1669463349.578125
39.59,1669463349.59375
38.66,1669463349.609375
38.41,1669463349.625
38.66,1669463349.640625
39.06,1669463349.65625
39.08,1669463349.671875
38.23,1669463349.6875
36.24,1669463349.703125
33.13,1669463349.71875
29.29,1669463349.734375
25.3,1669463349.75
21.67,1669463349.765625
18.66,1669463349.78125
16.13,1669463349.796875
13.62,1669463349.8125
10.61,1669463349.828125
6.72,1669463349.84375
1.95,1669463349.859375
-3.43,1669463349.875
-8.92,1669463349.890625
-14.09,1669463349.90625
-18.74,1669463349.921875
-22.87,1669463349.9375
-26.71,1669463349.953125
-30.55,1669463349.96875
-34.7,1669463349.984375
-39.49,1669463350.0
-45.22,1669463350.015625
-52.05,1669463350.03125
-59.68,1669463350.046875
-67.17,1669463350.0625
-72.95,1669463350.078125
-75.14,1669463350.09375
-72.19,1669463350.109375
-63.54,1669463350.125
-49.91,1669463350.140625
-33.11,1669463350.15625
-15.44,1669463350.171875
1.1,1669463350.1875
15.23,1669463350.203125
26.58,1669463350.21875
35.33,1669463350.234375
41.86,1669463350.25
46.51,1669463350.265625
49.49,1669463350.28125
50.97,1669463350.296875
51.22,1669463350.3125
50.55,1669463350.328125
49.32,1669463350.34375
47.79,1669463350.359375
46.18,1669463350.375
44.61,1669463350.390625
43.14,1669463350.40625
41.8,1669463350.421875
40.63,1669463350.4375
39.66,1669463350.453125
38.93,1669463350.46875
38.44,1669463350.484375
38.15,1669463350.5
37.93,1669463350.515625
37.58,1669463350.53125
36.88,1669463350.546875
35.67,1669463350.5625
33.88,1669463350.578125
31.53,1669463350.59375
28.72,1669463350.609375
25.52,1669463350.625
22.01,1669463350.640625
18.24,1669463350.65625
14.3,1669463350.671875
10.28,1669463350.6875
6.28,1669463350.703125
2.38,1669463350.71875
-1.37,1669463350.734375
-5.0,1669463350.75
-8.61,1669463350.765625
-12.33,1669463350.78125
-16.37,1669463350.796875
-20.79,1669463350.8125
-25.58,1669463350.828125
-30.48,1669463350.84375
-35.19,1669463350.859375
-39.47,1669463350.875
-43.33,1669463350.890625
-47.05,1669463350.90625
-51.16,1669463350.921875
-56.2,1669463350.9375
-62.33,1669463350.953125
-69.17,1669463350.96875
-75.62,1669463350.984375
-80.09,1669463351.0
-80.93,1669463351.015625
-76.89,1669463351.03125
-67.65,1669463351.046875
-53.97,1669463351.0625
-37.5,1669463351.078125
-20.29,1669463351.09375
-4.2,1669463351.109375
9.57,1669463351.125
20.6,1669463351.140625
29.09,1669463351.15625
35.5,1669463351.171875
40.31,1669463351.1875
43.85,1669463351.203125
46.33,1669463351.21875
47.91,1669463351.234375
48.81,1669463351.25
49.15,1669463351.265625
49.05,1669463351.28125
48.52,1669463351.296875
47.52,1669463351.3125
46.03,1669463351.328125
44.19,1669463351.34375
42.27,1669463351.359375
40.64,1669463351.375
39.63,1669463351.390625
39.41,1669463351.40625
39.87,1669463351.421875
40.62,1669463351.4375
41.13,1669463351.453125
40.89,1669463351.46875
39.63,1669463351.484375
37.39,1669463351.5
34.53,1669463351.515625
31.5,1669463351.53125
28.68,1669463351.546875
26.18,1669463351.5625
23.84,1669463351.578125
21.32,1669463351.59375
18.27,1669463351.609375
14.57,1669463351.625
10.33,1669463351.640625
5.85,1669463351.65625
1.5,1669463351.671875
-2.41,1669463351.6875
-5.81,1669463351.703125
-8.8,1669463351.71875
-11.65,1669463351.734375
-14.68,1669463351.75
-18.13,1669463351.765625
-22.08,1669463351.78125
-26.41,1669463351.796875
-30.82,1669463351.8125
-34.98,1669463351.828125
-38.61,1669463351.84375
-41.65,1669463351.859375
-44.29,1669463351.875
-47.02,1669463351.890625
-50.4,1669463351.90625
-54.87,1669463351.921875
-60.51,1669463351.9375
-66.75,1669463351.953125
-72.45,1669463351.96875
-76.02,1669463351.984375
-75.93,1669463352.0
-71.12,1669463352.015625
-61.51,1669463352.03125
-47.98,1669463352.046875
-32.22,1669463352.0625
-16.22,1669463352.078125
-1.67,1669463352.09375
10.39,1669463352.109375
19.63,1669463352.125
26.35,1669463352.140625
31.08,1669463352.15625
34.34,1669463352.171875
36.47,1669463352.1875
37.7,1669463352.203125
38.21,1669463352.21875
38.21,1669463352.234375
37.92,1669463352.25
37.5,1669463352.265625
36.99,1669463352.28125
36.28,1669463352.296875
35.28,1669463352.3125
33.98,1669463352.328125
32.55,1669463352.34375
31.25,1669463352.359375
30.39,1669463352.375
30.12,1669463352.390625
30.35,1669463352.40625
30.75,1669463352.421875
30.88,1669463352.4375
30.41,1669463352.453125
29.2,1669463352.46875
27.43,1669463352.484375
25.34,1669463352.5
23.15,1669463352.515625
20.87,1669463352.53125
18.32,1669463352.546875
15.29,1669463352.5625
11.7,1669463352.578125
7.78,1669463352.59375
3.96,1669463352.609375
0.65,1669463352.625
-1.95,1669463352.640625
-4.0,1669463352.65625
-5.95,1669463352.671875
-8.31,1669463352.6875
-11.41,1669463352.703125
-15.23,1669463352.71875
-19.43,1669463352.734375
-23.53,1669463352.75
-27.13,1669463352.765625
-30.05,1669463352.78125
-32.37,1669463352.796875
-34.4,1669463352.8125
-36.57,1669463352.828125
-39.34,1669463352.84375
-43.03,1669463352.859375
-47.7,1669463352.875
-52.94,1669463352.890625
-57.79,1669463352.90625
-60.84,1669463352.921875
-60.61,1669463352.9375
-56.07,1669463352.953125
-47.09,1669463352.96875
-34.59,1669463352.984375
-20.28,1669463353.0
-6.08,1669463353.015625
6.43,1669463353.03125
16.39,1669463353.046875
23.69,1669463353.0625
28.69,1669463353.078125
31.9,1669463353.09375
33.78,1669463353.109375
34.63,1669463353.125
34.66,1669463353.140625
34.02,1669463353.15625
32.87,1669463353.171875
31.32,1669463353.1875
29.5,1669463353.203125
27.54,1669463353.21875
25.61,1669463353.234375
23.89,1669463353.25
22.57,1669463353.265625
21.69,1669463353.28125
21.17,1669463353.296875
20.87,1669463353.3125
20.61,1669463353.328125
20.29,1669463353.34375
19.88,1669463353.359375
19.35,1669463353.375
18.65,1669463353.390625
17.6,1669463353.40625
16.07,1669463353.421875
13.95,1669463353.4375
11.29,1669463353.453125
8.29,1669463353.46875
5.25,1669463353.484375
2.41,1669463353.5
-0.12,1669463353.515625
-2.39,1669463353.53125
-4.55,1669463353.546875
-6.76,1669463353.5625
-9.12,1669463353.578125
-11.66,1669463353.59375
-14.36,1669463353.609375
-17.17,1669463353.625
-20.1,1669463353.640625
-23.13,1669463353.65625
-26.23,1669463353.671875
-29.36,1669463353.6875
-32.39,1669463353.703125
-35.25,1669463353.71875
