PPG GREEN,time
2250520.0,1669463276.283
2251985.0,1669463276.324
2253757.0,1669463276.364
2255068.0,1669463276.403
2256345.0,1669463276.443
2258082.0,1669463276.484
2259598.0,1669463276.524
2260919.0,1669463276.563
2262066.0,1669463276.604
2262424.0,1669463276.643
2263022.0,1669463276.683
2264311.0,1669463276.726
2265506.0,1669463276.764
2266865.0,1669463276.804
2268070.0,1669463276.845
2269778.0,1669463276.884
2271472.0,1669463276.925
2272324.0,1669463276.965
2273720.0,1669463277.004
2274975.0,1669463277.044
2276668.0,1669463277.085
2278071.0,1669463277.125
2279577.0,1669463277.164
2281122.0,1669463277.205
2282840.0,1669463277.244
2284015.0,1669463277.284
2285749.0,1669463277.327
2286884.0,1669463277.365
2288818.0,1669463277.405
2289949.0,1669463277.446
2291520.0,1669463277.485
2292439.0,1669463277.526
2293197.0,1669463277.566
2293796.0,1669463277.605
2295009.0,1669463277.645
2295921.0,1669463277.686
2296863.0,1669463277.726
2297758.0,1669463277.765
2298921.0,1669463277.806
2299849.0,1669463277.846
2300598.0,1669463277.886
2301912.0,1669463277.928
2302886.0,1669463277.966
2304202.0,1669463278.006
2305321.0,1669463278.047
2306680.0,1669463278.086
2307825.0,1669463278.127
2309204.0,1669463278.167
2310497.0,1669463278.206
2311454.0,1669463278.246
2312854.0,1669463278.287
2313775.0,1669463278.327
2313292.0,1669463278.367
2312125.0,1669463278.408
2311708.0,1669463278.447
2310575.0,1669463278.487
2309900.0,1669463278.529
2307922.0,1669463278.567
2302795.0,1669463278.607
2304870.0,1669463278.648
2309019.0,1669463278.687
2310785.0,1669463278.728
2321375.0,1669463278.768
2321112.0,1669463278.807
2319550.0,1669463278.888
2320218.0,1669463278.847
2320171.0,1669463278.928
2323978.0,1669463278.967
2329389.0,1669463279.009
2332389.0,1669463279.048
2334697.0,1669463279.088
2336963.0,1669463279.13
2338207.0,1669463279.168
2340740.0,1669463279.208
2341805.0,1669463279.249
2342671.0,1669463279.288
2344417.0,1669463279.329
2347150.0,1669463279.369
2349377.0,1669463279.408
2350822.0,1669463279.448
2351506.0,1669463279.489
2351770.0,1669463279.529
2352574.0,1669463279.569
2353203.0,1669463279.61
2353663.0,1669463279.649
2354758.0,1669463279.689
2357662.0,1669463279.731
2359209.0,1669463279.769
2361309.0,1669463279.809
2363679.0,1669463279.85
2365553.0,1669463279.889
2367484.0,1669463279.93
2368822.0,1669463279.97
2370095.0,1669463280.009
2371299.0,1669463280.049
2372401.0,1669463280.09
2372154.0,1669463280.13
2372506.0,1669463280.17
2373368.0,1669463280.211
2373387.0,1669463280.25
2373837.0,1669463280.288
2374424.0,1669463280.33
2375001.0,1669463280.369
2375892.0,1669463280.408
2377293.0,1669463280.449
2378508.0,1669463280.488
2379372.0,1669463280.529
2379555.0,1669463280.569
2380521.0,1669463280.608
2380925.0,1669463280.648
2381929.0,1669463280.69
2382520.0,1669463280.73
2383147.0,1669463280.769
2384064.0,1669463280.81
2385319.0,1669463280.849
2385765.0,1669463280.889
2385516.0,1669463280.931
2385310.0,1669463280.969
2385178.0,1669463281.009
2385366.0,1669463281.05
2385519.0,1669463281.09
2385855.0,1669463281.131
2386171.0,1669463281.171
2386568.0,1669463281.25
2387050.0,1669463281.291
2386319.0,1669463281.21
2386850.0,1669463281.331
2386706.0,1669463281.37
2386137.0,1669463281.411
2384319.0,1669463281.45
2380651.0,1669463281.49
2375290.0,1669463281.533
2368359.0,1669463281.571
2356683.0,1669463281.652
2354568.0,1669463281.691
2361611.0,1669463281.611
2354312.0,1669463281.732
2351657.0,1669463281.772
2349312.0,1669463281.811
2347768.0,1669463281.851
2349345.0,1669463281.893
2349132.0,1669463281.933
2347962.0,1669463281.972
2343000.0,1669463282.092
2344351.0,1669463282.052
2340750.0,1669463282.172
2341372.0,1669463282.134
2341254.0,1669463282.212
2337930.0,1669463282.253
2337409.0,1669463282.292
2346176.0,1669463282.013
2337166.0,1669463282.333
2336666.0,1669463282.413
2336386.0,1669463282.453
2337765.0,1669463282.494
2339394.0,1669463282.534
2337160.0,1669463282.374
2339951.0,1669463282.573
2338475.0,1669463282.614
2336917.0,1669463282.653
2332332.0,1669463282.813
2333715.0,1669463282.773
2334663.0,1669463282.735
2332150.0,1669463282.855
2335881.0,1669463282.693
2331309.0,1669463282.935
2329914.0,1669463283.054
2331896.0,1669463282.894
2329447.0,1669463283.095
2328892.0,1669463283.135
2330403.0,1669463282.975
2330197.0,1669463283.014
2328540.0,1669463283.174
2327923.0,1669463283.215
2327638.0,1669463283.254
2326990.0,1669463283.295
2326893.0,1669463283.338
2327305.0,1669463283.375
2327637.0,1669463283.415
2326646.0,1669463283.456
2324722.0,1669463283.495
2319527.0,1669463283.615
2322633.0,1669463283.536
2318738.0,1669463283.655
2321179.0,1669463283.576
2318215.0,1669463283.696
2317690.0,1669463283.736
2316599.0,1669463283.776
2315747.0,1669463283.817
2315581.0,1669463283.856
2315602.0,1669463283.896
2315361.0,1669463283.938
2315757.0,1669463283.976
2315245.0,1669463284.016
2315145.0,1669463284.057
2315373.0,1669463284.096
2315162.0,1669463284.137
2314559.0,1669463284.178
2310430.0,1669463284.217
2307472.0,1669463284.257
2304694.0,1669463284.298
2302204.0,1669463284.338
2301356.0,1669463284.377
2299843.0,1669463284.418
2297340.0,1669463284.457
2293334.0,1669463284.497
2289726.0,1669463284.539
2286186.0,1669463284.577
2281771.0,1669463284.618
2277602.0,1669463284.659
2275190.0,1669463284.698
2274931.0,1669463284.739
2275416.0,1669463284.779
2274065.0,1669463284.818
2272904.0,1669463284.858
2271732.0,1669463284.899
2272417.0,1669463284.939
2271427.0,1669463284.978
2269030.0,1669463285.02
2271694.0,1669463285.059
2273208.0,1669463285.099
2273595.0,1669463285.141
2272766.0,1669463285.179
2271185.0,1669463285.219
2271803.0,1669463285.26
2273548.0,1669463285.299
2275049.0,1669463285.34
2276272.0,1669463285.381
2277991.0,1669463285.42
2280139.0,1669463285.46
2282530.0,1669463285.501
2284530.0,1669463285.541
2285712.0,1669463285.58
2287690.0,1669463285.621
2288453.0,1669463285.66
2288686.0,1669463285.7
2289676.0,1669463285.742
2289448.0,1669463285.78
2288563.0,1669463285.821
2288315.0,1669463285.862
2288277.0,1669463285.901
2289602.0,1669463285.941
2292006.0,1669463285.982
2294089.0,1669463286.021
2295735.0,1669463286.061
2296288.0,1669463286.102
2297071.0,1669463286.142
2297541.0,1669463286.181
2298420.0,1669463286.223
2299270.0,1669463286.262
2300323.0,1669463286.302
2301688.0,1669463286.344
2303220.0,1669463286.382
2304124.0,1669463286.422
2305408.0,1669463286.463
2306835.0,1669463286.502
2307797.0,1669463286.543
2309362.0,1669463286.584
2310587.0,1669463286.623
2311733.0,1669463286.663
2312355.0,1669463286.704
2313572.0,1669463286.744
2314913.0,1669463286.783
2316233.0,1669463286.816
2317697.0,1669463286.856
2317826.0,1669463286.891
2317473.0,1669463286.933
2318096.0,1669463286.968
2317633.0,1669463287.008
2318585.0,1669463287.049
2318614.0,1669463287.088
2317164.0,1669463287.128
2316623.0,1669463287.169
2315355.0,1669463287.208
2315420.0,1669463287.248
2318096.0,1669463287.289
2321915.0,1669463287.329
2325337.0,1669463287.368
2325587.0,1669463287.409
2325650.0,1669463287.448
2326447.0,1669463287.488
2326897.0,1669463287.53
2327737.0,1669463287.568
2330175.0,1669463287.608
2330626.0,1669463287.651
2331580.0,1669463287.69
2332677.0,1669463287.73
2332437.0,1669463287.77
2331511.0,1669463287.809
2331448.0,1669463287.85
2336543.0,1669463287.891
2338731.0,1669463287.931
2340717.0,1669463287.97
2342271.0,1669463288.012
2343977.0,1669463288.051
2345743.0,1669463288.091
2346594.0,1669463288.133
2346977.0,1669463288.171
2347378.0,1669463288.212
2347923.0,1669463288.253
2348624.0,1669463288.292
2349008.0,1669463288.334
2349879.0,1669463288.373
2351178.0,1669463288.412
2352094.0,1669463288.452
2352952.0,1669463288.493
2353692.0,1669463288.533
2354350.0,1669463288.572
2355169.0,1669463288.613
2354170.0,1669463288.652
2353622.0,1669463288.692
2353389.0,1669463288.734
2352987.0,1669463288.773
2352737.0,1669463288.813
2352806.0,1669463288.854
2353049.0,1669463288.893
2353370.0,1669463288.934
2354238.0,1669463288.974
2354605.0,1669463289.01
2355715.0,1669463289.05
2355810.0,1669463289.091
2356969.0,1669463289.131
2357545.0,1669463289.171
2358030.0,1669463289.212
2358662.0,1669463289.251
2359322.0,1669463289.292
2359979.0,1669463289.333
2361023.0,1669463289.372
2361610.0,1669463289.404
2362315.0,1669463289.445
2362276.0,1669463289.484
2360971.0,1669463289.525
2360124.0,1669463289.565
2359738.0,1669463289.604
2359353.0,1669463289.644
2359595.0,1669463289.685
2359511.0,1669463289.725
2359316.0,1669463289.765
2359443.0,1669463289.806
2359627.0,1669463289.845
2359892.0,1669463289.885
2359579.0,1669463289.927
2359979.0,1669463289.965
2359924.0,1669463290.005
2360658.0,1669463290.046
2360450.0,1669463290.085
2360743.0,1669463290.12
2359667.0,1669463290.155
2354634.0,1669463290.192
2348414.0,1669463290.232
2346403.0,1669463290.273
2346811.0,1669463290.313
2348775.0,1669463290.353
2352082.0,1669463290.394
2354048.0,1669463290.433
2354838.0,1669463290.473
2355781.0,1669463290.515
2359307.0,1669463290.554
2363726.0,1669463290.592
2364456.0,1669463290.633
2363633.0,1669463290.672
2365320.0,1669463290.713
2371098.0,1669463290.754
2373779.0,1669463290.793
2373953.0,1669463290.833
2371608.0,1669463290.874
2365755.0,1669463290.914
2361322.0,1669463290.953
2358641.0,1669463290.994
2357165.0,1669463291.033
2353464.0,1669463291.073
2350494.0,1669463291.115
2347830.0,1669463291.153
2343487.0,1669463291.193
2340227.0,1669463291.235
2337962.0,1669463291.274
2335202.0,1669463291.314
2333017.0,1669463291.355
2330595.0,1669463291.394
2329159.0,1669463291.435
2327839.0,1669463291.472
2326678.0,1669463291.511
2325563.0,1669463291.552
2324494.0,1669463291.593
2323962.0,1669463291.632
2323566.0,1669463291.673
2323275.0,1669463291.715
2323698.0,1669463291.753
2324833.0,1669463291.793
2325005.0,1669463291.835
2325361.0,1669463291.874
2325917.0,1669463291.915
2326038.0,1669463291.954
2324847.0,1669463291.986
2322364.0,1669463292.026
2320368.0,1669463292.068
2318268.0,1669463292.107
2316658.0,1669463292.147
2315515.0,1669463292.188
2314796.0,1669463292.227
2313887.0,1669463292.266
2313780.0,1669463292.308
2312802.0,1669463292.346
2312347.0,1669463292.386
2312046.0,1669463292.427
2311764.0,1669463292.466
2311401.0,1669463292.507
2311219.0,1669463292.547
2311287.0,1669463292.586
2311320.0,1669463292.627
2311354.0,1669463292.668
2310292.0,1669463292.705
2305957.0,1669463292.741
2300583.0,1669463292.775
2296925.0,1669463292.811
2294662.0,1669463292.851
2292845.0,1669463292.893
2288827.0,1669463292.932
2285989.0,1669463292.972
2285109.0,1669463293.013
2283016.0,1669463293.093
2280157.0,1669463293.134
2285307.0,1669463293.053
2283346.0,1669463293.173
2283346.0,1669463293.21
2293571.0,1669463293.251
2292753.0,1669463293.371
2288046.0,1669463293.41
2298149.0,1669463293.33
2286289.0,1669463293.45
2286560.0,1669463293.492
2286905.0,1669463293.53
2296864.0,1669463293.29
2287351.0,1669463293.57
2287292.0,1669463293.611
2287158.0,1669463293.65
2286891.0,1669463293.691
2286092.0,1669463293.732
2285418.0,1669463293.77
2284828.0,1669463293.811
2283983.0,1669463293.852
2282901.0,1669463293.932
2283409.0,1669463293.891
2282125.0,1669463293.974
2282055.0,1669463294.013
2282283.0,1669463294.053
2282748.0,1669463294.095
2283267.0,1669463294.133
2283661.0,1669463294.173
2284240.0,1669463294.215
2284676.0,1669463294.254
2285046.0,1669463294.294
2284853.0,1669463294.372
2283686.0,1669463294.413
2282565.0,1669463294.45
2285467.0,1669463294.333
2280885.0,1669463294.529
2281642.0,1669463294.489
2279556.0,1669463294.57
2279822.0,1669463294.609
2279911.0,1669463294.691
2280053.0,1669463294.729
2280143.0,1669463294.769
2280700.0,1669463294.81
2279944.0,1669463294.649
2280925.0,1669463294.849
2281285.0,1669463294.89
2281699.0,1669463294.931
2282512.0,1669463294.97
2282621.0,1669463295.01
2284144.0,1669463295.091
2283571.0,1669463295.051
2284130.0,1669463295.131
2282045.0,1669463295.211
2282524.0,1669463295.172
2310425.0,1669463295.726
2308704.0,1669463295.687
2281995.0,1669463295.295
2286654.0,1669463295.373
2296619.0,1669463295.453
2299434.0,1669463295.494
2300955.0,1669463295.534
2303062.0,1669463295.574
2304772.0,1669463295.614
2307770.0,1669463295.647
2282435.0,1669463295.252
2291816.0,1669463295.414
2283725.0,1669463295.333
2316195.0,1669463295.806
2312013.0,1669463295.767
2319118.0,1669463295.846
2321273.0,1669463295.888
2320345.0,1669463295.927
2318975.0,1669463295.967
2317660.0,1669463296.008
2315966.0,1669463296.047
2313030.0,1669463296.088
2311918.0,1669463296.128
2311089.0,1669463296.167
2310841.0,1669463296.207
2310337.0,1669463296.248
2310018.0,1669463296.288
2310753.0,1669463296.327
2311097.0,1669463296.37
2309242.0,1669463296.411
2308508.0,1669463296.447
2308659.0,1669463296.485
2308633.0,1669463296.516
2307992.0,1669463296.558
2307905.0,1669463296.594
2308867.0,1669463296.633
2309244.0,1669463296.674
2310086.0,1669463296.715
2310774.0,1669463296.754
2311260.0,1669463296.794
2312037.0,1669463296.836
2312749.0,1669463296.875
2313683.0,1669463296.914
2314428.0,1669463296.955
2315369.0,1669463296.994
2315790.0,1669463297.034
2316558.0,1669463297.076
2317149.0,1669463297.115
2318127.0,1669463297.155
2318910.0,1669463297.196
2319723.0,1669463297.235
2320757.0,1669463297.276
2321609.0,1669463297.316
2322860.0,1669463297.355
2322560.0,1669463297.395
2321916.0,1669463297.436
2317531.0,1669463297.515
2320718.0,1669463297.476
2313161.0,1669463297.556
2315628.0,1669463297.596
2323086.0,1669463297.636
2327739.0,1669463297.679
2330973.0,1669463297.715
2331706.0,1669463297.755
2332635.0,1669463297.797
2335691.0,1669463297.876
2333877.0,1669463297.835
2336965.0,1669463297.918
2335885.0,1669463297.956
2334802.0,1669463297.997
2337041.0,1669463298.038
2339894.0,1669463298.076
2341439.0,1669463298.106
2340629.0,1669463298.148
2338703.0,1669463298.187
2336453.0,1669463298.227
2334035.0,1669463298.268
2331495.0,1669463298.307
2328994.0,1669463298.347
2326986.0,1669463298.388
2325486.0,1669463298.427
2324441.0,1669463298.468
2323367.0,1669463298.508
2322458.0,1669463298.547
2321443.0,1669463298.587
2321633.0,1669463298.629
2322023.0,1669463298.668
2322382.0,1669463298.708
2322550.0,1669463298.749
2322799.0,1669463298.788
2321947.0,1669463298.825
2320284.0,1669463298.867
2318618.0,1669463298.896
2317356.0,1669463298.937
2316320.0,1669463298.976
2315578.0,1669463299.015
2312702.0,1669463299.056
2310485.0,1669463299.096
2309514.0,1669463299.135
2309575.0,1669463299.176
2310405.0,1669463299.217
2310809.0,1669463299.258
2311961.0,1669463299.296
2311961.0,1669463299.334
2312158.0,1669463299.373
2312874.0,1669463299.413
2313403.0,1669463299.455
2313869.0,1669463299.494
2313751.0,1669463299.534
2312641.0,1669463299.575
2310600.0,1669463299.614
2308833.0,1669463299.655
2305247.0,1669463299.695
2297201.0,1669463299.734
2293216.0,1669463299.774
2294094.0,1669463299.815
2299853.0,1669463299.855
2307402.0,1669463299.894
2311527.0,1669463299.935
2311776.0,1669463299.974
2311835.0,1669463300.014
2311952.0,1669463300.057
2311379.0,1669463300.096
2311108.0,1669463300.135
2310205.0,1669463300.177
2308096.0,1669463300.216
2308128.0,1669463300.257
2312501.0,1669463300.297
2313474.0,1669463300.336
2310536.0,1669463300.377
2307031.0,1669463300.418
2303709.0,1669463300.458
2302514.0,1669463300.497
2302124.0,1669463300.538
2302998.0,1669463300.572
2302416.0,1669463300.613
2301384.0,1669463300.654
2300010.0,1669463300.693
2299342.0,1669463300.733
2299118.0,1669463300.774
2302408.0,1669463300.813
2307582.0,1669463300.854
2309480.0,1669463300.894
2311037.0,1669463300.933
2312186.0,1669463300.974
2312279.0,1669463301.015
2312243.0,1669463301.054
2312169.0,1669463301.094
2311992.0,1669463301.135
2312108.0,1669463301.174
2312077.0,1669463301.214
2312349.0,1669463301.257
2312833.0,1669463301.295
2312998.0,1669463301.336
2313537.0,1669463301.377
2313663.0,1669463301.417
2314306.0,1669463301.457
2314666.0,1669463301.497
2315341.0,1669463301.536
2315843.0,1669463301.577
2316341.0,1669463301.618
2316501.0,1669463301.66
2315641.0,1669463301.696
2314350.0,1669463301.737
2313100.0,1669463301.776
2312405.0,1669463301.807
2312095.0,1669463301.849
2312051.0,1669463301.887
2312454.0,1669463301.927
2312488.0,1669463301.968
2312929.0,1669463302.007
2313012.0,1669463302.048
2313379.0,1669463302.089
2313235.0,1669463302.128
2309426.0,1669463302.168
2300919.0,1669463302.209
2293013.0,1669463302.249
2286999.0,1669463302.288
2283129.0,1669463302.329
2277608.0,1669463302.368
2273737.0,1669463302.408
2271148.0,1669463302.45
2268890.0,1669463302.489
2267035.0,1669463302.53
2267131.0,1669463302.565
2266907.0,1669463302.599
2265236.0,1669463302.638
2265806.0,1669463302.679
2266357.0,1669463302.718
2266443.0,1669463302.758
2267008.0,1669463302.8
2266314.0,1669463302.84
2265280.0,1669463302.88
2264904.0,1669463302.921
2265029.0,1669463302.958
2264381.0,1669463302.998
2262238.0,1669463303.037
2258404.0,1669463303.076
2253042.0,1669463303.116
2250549.0,1669463303.157
2252616.0,1669463303.196
2257633.0,1669463303.237
2262364.0,1669463303.277
2264806.0,1669463303.316
2266611.0,1669463303.356
2267909.0,1669463303.397
2270352.0,1669463303.518
2268630.0,1669463303.437
2269479.0,1669463303.476
2271871.0,1669463303.557
2276071.0,1669463303.677
2275928.0,1669463303.717
2274631.0,1669463303.758
2274973.0,1669463303.638
2273862.0,1669463303.597
2273745.0,1669463303.797
2273517.0,1669463303.838
2272667.0,1669463303.878
2272551.0,1669463303.917
2272222.0,1669463303.957
2272555.0,1669463303.998
2272427.0,1669463304.038
2272432.0,1669463304.119
2272247.0,1669463304.078
2272896.0,1669463304.158
2273160.0,1669463304.238
2273568.0,1669463304.28
2273959.0,1669463304.318
2272799.0,1669463304.399
2274166.0,1669463304.358
2266234.0,1669463304.438
2256909.0,1669463304.479
2247137.0,1669463304.519
2242955.0,1669463304.558
2245805.0,1669463304.598
2252023.0,1669463304.64
2265265.0,1669463304.679
2271345.0,1669463304.719
2276385.0,1669463304.76
2279026.0,1669463304.799
2280233.0,1669463304.839
2281383.0,1669463304.881
2281598.0,1669463304.919
2279451.0,1669463304.959
2280295.0,1669463305.0
2285447.0,1669463305.039
2285315.0,1669463305.08
2282066.0,1669463305.121
2278692.0,1669463305.16
2273525.0,1669463305.2
2269648.0,1669463305.241
2268615.0,1669463305.28
2270601.0,1669463305.32
2271287.0,1669463305.361
2271030.0,1669463305.4
2271060.0,1669463305.44
2271755.0,1669463305.482
2272869.0,1669463305.52
2274533.0,1669463305.56
2275499.0,1669463305.601
2276737.0,1669463305.64
2277493.0,1669463305.681
2278220.0,1669463305.722
2277779.0,1669463305.761
2277098.0,1669463305.801
2276781.0,1669463305.842
2275875.0,1669463305.882
2275448.0,1669463305.921
2275141.0,1669463305.962
2275372.0,1669463306.001
2275730.0,1669463306.041
2275749.0,1669463306.083
2275817.0,1669463306.121
2276130.0,1669463306.161
2276488.0,1669463306.203
2277089.0,1669463306.242
2277297.0,1669463306.283
2277944.0,1669463306.323
2278652.0,1669463306.362
2278230.0,1669463306.402
2277560.0,1669463306.443
2276262.0,1669463306.483
2275371.0,1669463306.522
2274195.0,1669463306.563
2273765.0,1669463306.602
2273557.0,1669463306.643
2273143.0,1669463306.684
2272821.0,1669463306.723
2272672.0,1669463306.763
2272591.0,1669463306.804
2272301.0,1669463306.843
2272601.0,1669463306.884
2272448.0,1669463306.924
2265718.0,1669463307.003
2250835.0,1669463307.084
2257988.0,1669463307.044
2248072.0,1669463307.165
2248493.0,1669463307.124
2249294.0,1669463307.204
2248145.0,1669463307.244
2247655.0,1669463307.286
2270873.0,1669463306.963
2244721.0,1669463307.364
2246864.0,1669463307.324
2238198.0,1669463307.444
2242223.0,1669463307.405
2232232.0,1669463307.526
2235216.0,1669463307.485
2229977.0,1669463307.565
2228295.0,1669463307.605
2227082.0,1669463307.646
2226050.0,1669463307.686
2227845.0,1669463307.725
2237951.0,1669463307.766
2240773.0,1669463307.805
2241501.0,1669463307.845
2240168.0,1669463307.887
2235328.0,1669463307.925
2227883.0,1669463307.965
2223850.0,1669463308.007
2220920.0,1669463308.046
2220086.0,1669463308.086
2220017.0,1669463308.127
2220481.0,1669463308.166
2220579.0,1669463308.206
2220480.0,1669463308.247
2220879.0,1669463308.287
2223167.0,1669463308.326
2226215.0,1669463308.367
2227275.0,1669463308.406
2227662.0,1669463308.446
2227311.0,1669463308.488
2227577.0,1669463308.527
2226978.0,1669463308.567
2226816.0,1669463308.608
2226784.0,1669463308.647
2227090.0,1669463308.688
2227857.0,1669463308.728
2228003.0,1669463308.767
2228230.0,1669463308.807
2228281.0,1669463308.848
2229102.0,1669463308.888
2229271.0,1669463308.928
2229980.0,1669463308.969
2230284.0,1669463309.008
2230737.0,1669463309.049
2230555.0,1669463309.085
2229235.0,1669463309.122
2228265.0,1669463309.162
2227262.0,1669463309.202
2226737.0,1669463309.238
2225942.0,1669463309.28
2225957.0,1669463309.319
2226114.0,1669463309.359
2225937.0,1669463309.399
2226123.0,1669463309.44
2226146.0,1669463309.48
2226543.0,1669463309.519
2225885.0,1669463309.56
2226504.0,1669463309.599
2226476.0,1669463309.639
2226957.0,1669463309.681
2224225.0,1669463309.72
2216625.0,1669463309.76
2209344.0,1669463309.801
2208020.0,1669463309.84
2214501.0,1669463309.88
2223135.0,1669463309.922
2230786.0,1669463309.961
2237738.0,1669463310.002
2243698.0,1669463310.043
2247095.0,1669463310.083
2251746.0,1669463310.123
2252615.0,1669463310.164
2254531.0,1669463310.203
2256714.0,1669463310.243
2259155.0,1669463310.285
2260822.0,1669463310.324
2261876.0,1669463310.364
2261939.0,1669463310.403
2262486.0,1669463310.442
2262492.0,1669463310.483
2260290.0,1669463310.523
2256239.0,1669463310.558
2250085.0,1669463310.598
2244016.0,1669463310.639
2238815.0,1669463310.679
2236539.0,1669463310.718
2235386.0,1669463310.759
2238417.0,1669463310.798
2241439.0,1669463310.839
2243817.0,1669463310.88
2245988.0,1669463310.919
2247049.0,1669463310.959
2248367.0,1669463311.0
2249292.0,1669463311.039
2250093.0,1669463311.08
2249899.0,1669463311.12
2248598.0,1669463311.16
2247571.0,1669463311.2
2247005.0,1669463311.235
2246988.0,1669463311.273
2246499.0,1669463311.304
2246740.0,1669463311.343
2247279.0,1669463311.382
2247830.0,1669463311.422
2248015.0,1669463311.464
2248306.0,1669463311.503
2248292.0,1669463311.543
2248931.0,1669463311.584
2249752.0,1669463311.623
2250441.0,1669463311.664
2251277.0,1669463311.703
2251652.0,1669463311.742
2251255.0,1669463311.782
2250071.0,1669463311.824
2249167.0,1669463311.863
2249167.0,1669463311.9
2248882.0,1669463311.941
2248400.0,1669463311.98
2248035.0,1669463312.02
2248351.0,1669463312.062
2248468.0,1669463312.1
2248693.0,1669463312.141
2248681.0,1669463312.182
2248755.0,1669463312.221
2248941.0,1669463312.261
2249208.0,1669463312.302
2246561.0,1669463312.341
2241391.0,1669463312.381
2232291.0,1669463312.422
2228674.0,1669463312.462
2226525.0,1669463312.501
2229579.0,1669463312.542
2235443.0,1669463312.582
2238254.0,1669463312.622
2240457.0,1669463312.665
2240702.0,1669463312.702
2240708.0,1669463312.743
2240780.0,1669463312.784
2240910.0,1669463312.823
2241796.0,1669463312.864
2243312.0,1669463312.905
2244734.0,1669463312.944
2246710.0,1669463312.984
2244131.0,1669463313.025
2241802.0,1669463313.065
2241349.0,1669463313.096
2241055.0,1669463313.137
2239854.0,1669463313.176
2238937.0,1669463313.216
2239657.0,1669463313.258
2244084.0,1669463313.296
2251246.0,1669463313.336
2258173.0,1669463313.378
2265633.0,1669463313.417
2273013.0,1669463313.457
2279456.0,1669463313.498
2283920.0,1669463313.537
2287628.0,1669463313.577
2290397.0,1669463313.618
2292947.0,1669463313.658
2295677.0,1669463313.697
2297758.0,1669463313.738
2300004.0,1669463313.777
2301892.0,1669463313.813
2304298.0,1669463313.855
2305882.0,1669463313.886
2305777.0,1669463313.924
2305807.0,1669463313.966
2305495.0,1669463314.004
2305089.0,1669463314.045
2305664.0,1669463314.086
2306514.0,1669463314.125
2306985.0,1669463314.165
2307867.0,1669463314.207
2308216.0,1669463314.247
2309081.0,1669463314.284
2310161.0,1669463314.326
2310960.0,1669463314.365
2311715.0,1669463314.405
2313072.0,1669463314.447
2314378.0,1669463314.485
2315537.0,1669463314.525
2316556.0,1669463314.566
2317250.0,1669463314.605
2316749.0,1669463314.646
2315952.0,1669463314.686
2315210.0,1669463314.725
2314606.0,1669463314.765
2314316.0,1669463314.806
2314572.0,1669463314.846
2314399.0,1669463314.886
2314532.0,1669463314.927
2311418.0,1669463314.966
2305861.0,1669463315.006
2299922.0,1669463315.047
2296800.0,1669463315.085
2294919.0,1669463315.125
2294229.0,1669463315.167
2293862.0,1669463315.206
2293350.0,1669463315.247
2294415.0,1669463315.288
2294139.0,1669463315.326
2298829.0,1669463315.367
2303016.0,1669463315.406
2305330.0,1669463315.446
2302958.0,1669463315.485
2303654.0,1669463315.527
2300274.0,1669463315.557
2298166.0,1669463315.597
2294263.0,1669463315.639
2291415.0,1669463315.677
2293301.0,1669463315.717
2292794.0,1669463315.759
2289761.0,1669463315.798
2285370.0,1669463315.838
2281475.0,1669463315.879
2273781.0,1669463315.918
2268626.0,1669463315.958
2265946.0,1669463315.999
2266050.0,1669463316.039
2264879.0,1669463316.078
2260663.0,1669463316.12
2256518.0,1669463316.159
2255352.0,1669463316.198
2254866.0,1669463316.237
2254866.0,1669463316.276
2255196.0,1669463316.315
2254892.0,1669463316.354
2254726.0,1669463316.393
2254562.0,1669463316.432
2254549.0,1669463316.471
2253614.0,1669463316.51
2253222.0,1669463316.549
2253114.0,1669463316.588
2252650.0,1669463316.627
2252567.0,1669463316.666
2253128.0,1669463316.705
2252206.0,1669463316.783
2249603.0,1669463316.822
2246826.0,1669463316.861
2244068.0,1669463316.9
2252206.0,1669463316.744
2241757.0,1669463316.939
2239333.0,1669463316.978
2237588.0,1669463317.017
2236297.0,1669463317.056
2235392.0,1669463317.095
2234088.0,1669463317.134
2232913.0,1669463317.173
2231927.0,1669463317.212
2231098.0,1669463317.251
2230158.0,1669463317.29
2229236.0,1669463317.329
2227863.0,1669463317.368
2222653.0,1669463317.407
2218125.0,1669463317.446
2215128.0,1669463317.485
2213440.0,1669463317.524
2215257.0,1669463317.563
2216673.0,1669463317.602
2220816.0,1669463317.641
2221602.0,1669463317.68
2221678.0,1669463317.719
2221409.0,1669463317.758
2221394.0,1669463317.797
2220713.0,1669463317.836
2220110.0,1669463317.875
2220605.0,1669463317.914
2228061.0,1669463317.953
2228582.0,1669463317.992
2227420.0,1669463318.031
2223263.0,1669463318.07
2216815.0,1669463318.109
2212193.0,1669463318.149
2208057.0,1669463318.189
2204898.0,1669463318.229
2203333.0,1669463318.269
2204315.0,1669463318.309
2204259.0,1669463318.349
2203197.0,1669463318.389
2202255.0,1669463318.429
2200764.0,1669463318.509
2200406.0,1669463318.549
2199557.0,1669463318.589
2200158.0,1669463318.629
2200523.0,1669463318.669
2201481.0,1669463318.709
2202633.0,1669463318.749
2204142.0,1669463318.789
2204489.0,1669463318.829
2204387.0,1669463318.869
2201459.0,1669463318.469
2203172.0,1669463318.909
2200798.0,1669463318.949
2198855.0,1669463318.989
2195614.0,1669463319.069
2194371.0,1669463319.149
2195052.0,1669463319.109
2193817.0,1669463319.229
2197241.0,1669463319.029
2193972.0,1669463319.189
2193722.0,1669463319.269
2193839.0,1669463319.309
2193765.0,1669463319.349
2194361.0,1669463319.429
2194233.0,1669463319.389
2194836.0,1669463319.509
2195435.0,1669463319.589
2194283.0,1669463319.629
2194079.0,1669463319.469
2195276.0,1669463319.549
2190928.0,1669463319.669
2181725.0,1669463319.749
2187177.0,1669463319.709
2174893.0,1669463319.789
2168669.0,1669463319.829
2168685.0,1669463319.869
2171657.0,1669463319.909
2172709.0,1669463319.949
2171915.0,1669463319.989
2168783.0,1669463320.029
2168178.0,1669463320.069
2167457.0,1669463320.109
2166031.0,1669463320.149
2164233.0,1669463320.189
2163721.0,1669463320.229
2163296.0,1669463320.269
2162155.0,1669463320.309
2161386.0,1669463320.349
2159450.0,1669463320.389
2157013.0,1669463320.429
2153957.0,1669463320.469
2155881.0,1669463320.509
2156050.0,1669463320.549
2154825.0,1669463320.589
2153051.0,1669463320.629
2150185.0,1669463320.669
2148964.0,1669463320.709
2148975.0,1669463320.749
2150687.0,1669463320.789
2152911.0,1669463320.829
2155522.0,1669463320.869
2159846.0,1669463320.909
2162363.0,1669463320.949
2164501.0,1669463320.989
2166455.0,1669463321.029
2166626.0,1669463321.069
2166283.0,1669463321.109
2165069.0,1669463321.189
2165712.0,1669463321.149
2164960.0,1669463321.229
2164546.0,1669463321.269
2165023.0,1669463321.309
2165498.0,1669463321.349
2165889.0,1669463321.389
2166136.0,1669463321.429
2166560.0,1669463321.469
2167667.0,1669463321.509
2168117.0,1669463321.549
2169300.0,1669463321.589
2170029.0,1669463321.629
2170828.0,1669463321.669
2172122.0,1669463321.709
2172611.0,1669463321.749
2171780.0,1669463321.789
2170457.0,1669463321.829
2168972.0,1669463321.869
2168153.0,1669463321.909
2167381.0,1669463321.949
2167264.0,1669463321.989
2167750.0,1669463322.029
2167723.0,1669463322.069
2167976.0,1669463322.109
2167698.0,1669463322.149
2163563.0,1669463322.189
2156613.0,1669463322.229
2151165.0,1669463322.269
2147175.0,1669463322.309
2147951.0,1669463322.349
2149814.0,1669463322.389
2151040.0,1669463322.429
2148459.0,1669463322.469
2144733.0,1669463322.509
2140606.0,1669463322.549
2137849.0,1669463322.589
2137047.0,1669463322.629
2135343.0,1669463322.669
2134244.0,1669463322.709
2132053.0,1669463322.749
2130932.0,1669463322.789
2137029.0,1669463322.829
2137013.0,1669463322.869
2135658.0,1669463322.909
2136009.0,1669463322.949
2133702.0,1669463322.989
2134251.0,1669463323.029
2136420.0,1669463323.069
2139129.0,1669463323.109
2143226.0,1669463323.149
2146951.0,1669463323.189
2147680.0,1669463323.229
2146966.0,1669463323.269
2145454.0,1669463323.309
2144704.0,1669463323.349
2143865.0,1669463323.389
2143402.0,1669463323.429
2143975.0,1669463323.469
2144036.0,1669463323.509
2144766.0,1669463323.549
2144895.0,1669463323.589
2145348.0,1669463323.629
2145922.0,1669463323.669
2146706.0,1669463323.709
2147290.0,1669463323.749
2147870.0,1669463323.789
2148570.0,1669463323.829
2149487.0,1669463323.869
2150366.0,1669463323.909
2149754.0,1669463323.949
2148492.0,1669463323.989
2146945.0,1669463324.029
2145707.0,1669463324.069
2144993.0,1669463324.109
2144402.0,1669463324.149
2144620.0,1669463324.189
2144989.0,1669463324.229
2144979.0,1669463324.269
2145284.0,1669463324.309
2145477.0,1669463324.349
2145897.0,1669463324.389
2146017.0,1669463324.429
2145476.0,1669463324.469
2138731.0,1669463324.509
2134582.0,1669463324.549
2133429.0,1669463324.589
2133690.0,1669463324.629
2135940.0,1669463324.669
2135169.0,1669463324.709
2133802.0,1669463324.749
2132128.0,1669463324.789
2130097.0,1669463324.829
2126436.0,1669463324.869
2122722.0,1669463324.909
2121428.0,1669463324.949
2119215.0,1669463324.989
2116661.0,1669463325.029
2114688.0,1669463325.069
2118318.0,1669463325.109
2118415.0,1669463325.149
2117281.0,1669463325.189
2118611.0,1669463325.229
2117608.0,1669463325.269
2119583.0,1669463325.309
2125604.0,1669463325.349
2132461.0,1669463325.389
2134205.0,1669463325.429
2134597.0,1669463325.469
2135234.0,1669463325.509
2135550.0,1669463325.549
2135460.0,1669463325.589
2135560.0,1669463325.629
2136345.0,1669463325.669
2137585.0,1669463325.709
2138853.0,1669463325.749
2140612.0,1669463325.789
2142275.0,1669463325.829
2143711.0,1669463325.869
2145304.0,1669463325.909
2146838.0,1669463325.949
2148686.0,1669463325.989
2150662.0,1669463326.029
2152515.0,1669463326.069
2154299.0,1669463326.109
2155530.0,1669463326.149
2155542.0,1669463326.189
2154694.0,1669463326.229
2154442.0,1669463326.269
2153965.0,1669463326.309
2153584.0,1669463326.349
2153736.0,1669463326.389
2154257.0,1669463326.429
2154800.0,1669463326.469
2155198.0,1669463326.509
2155755.0,1669463326.549
2156628.0,1669463326.589
2157516.0,1669463326.629
2158414.0,1669463326.669
2159390.0,1669463326.709
2160680.0,1669463326.749
2161196.0,1669463326.789
2162295.0,1669463326.829
2163046.0,1669463326.869
2159461.0,1669463326.909
2147369.0,1669463326.949
2140471.0,1669463326.989
2138714.0,1669463327.029
2139252.0,1669463327.069
2144706.0,1669463327.109
2149797.0,1669463327.149
2154945.0,1669463327.189
2159255.0,1669463327.229
2159759.0,1669463327.269
2159561.0,1669463327.309
2160727.0,1669463327.349
2162660.0,1669463327.389
2165006.0,1669463327.429
2165050.0,1669463327.469
2171505.0,1669463327.509
2175292.0,1669463327.549
2175491.0,1669463327.589
2172562.0,1669463327.629
2168240.0,1669463327.669
2164302.0,1669463327.709
2162635.0,1669463327.749
2162026.0,1669463327.789
2161304.0,1669463327.829
2160737.0,1669463327.869
2160467.0,1669463327.909
2160429.0,1669463327.949
2161001.0,1669463327.989
2161633.0,1669463328.029
2161940.0,1669463328.069
2162344.0,1669463328.109
2162943.0,1669463328.149
2163632.0,1669463328.19
2165250.0,1669463328.269
2164203.0,1669463328.23
2165940.0,1669463328.31
2165109.0,1669463328.39
2166619.0,1669463328.349
2163271.0,1669463328.43
2161245.0,1669463328.469
2160069.0,1669463328.51
2158457.0,1669463328.59
2158171.0,1669463328.63
2158930.0,1669463328.551
2157969.0,1669463328.671
2158338.0,1669463328.71
2158346.0,1669463328.75
2158416.0,1669463328.792
2158711.0,1669463328.83
2159326.0,1669463328.912
2160054.0,1669463328.951
2160633.0,1669463328.992
2158733.0,1669463328.871
2161210.0,1669463329.032
2162145.0,1669463329.071
2161607.0,1669463329.111
2159670.0,1669463329.152
2137409.0,1669463329.312
2131020.0,1669463329.352
2154903.0,1669463329.192
2143824.0,1669463329.273
2149645.0,1669463329.232
2131477.0,1669463329.394
2134588.0,1669463329.432
2136469.0,1669463329.472
2139516.0,1669463329.513
2143179.0,1669463329.593
2145738.0,1669463329.634
2150306.0,1669463329.673
2158241.0,1669463329.713
2167056.0,1669463329.754
2140562.0,1669463329.552
2173175.0,1669463329.794
2182872.0,1669463329.833
2187857.0,1669463329.874
2197130.0,1669463329.995
2198231.0,1669463330.034
2191359.0,1669463329.913
2199903.0,1669463330.074
2204491.0,1669463330.115
2194476.0,1669463329.954
2210636.0,1669463330.154
2213811.0,1669463330.195
2215435.0,1669463330.235
2218553.0,1669463330.315
2218638.0,1669463330.356
2216810.0,1669463330.274
2219604.0,1669463330.396
2220908.0,1669463330.435
2220906.0,1669463330.476
2221104.0,1669463330.515
2221429.0,1669463330.555
2221430.0,1669463330.597
2219231.0,1669463330.635
2217342.0,1669463330.676
2215504.0,1669463330.717
2212185.0,1669463330.837
2214117.0,1669463330.756
2211772.0,1669463330.876
2213047.0,1669463330.796
2211871.0,1669463330.916
2211584.0,1669463330.957
2211484.0,1669463330.997
2211591.0,1669463331.036
2212035.0,1669463331.077
2214197.0,1669463331.199
2213380.0,1669463331.156
2215479.0,1669463331.236
2212609.0,1669463331.116
2217562.0,1669463331.318
2216687.0,1669463331.277
2219326.0,1669463331.397
2218793.0,1669463331.357
2216815.0,1669463331.477
2214115.0,1669463331.558
2218270.0,1669463331.438
2214863.0,1669463331.517
2212921.0,1669463331.637
2213304.0,1669463331.598
2213401.0,1669463331.717
2213104.0,1669463331.678
2209135.0,1669463331.799
2213079.0,1669463331.757
2204829.0,1669463331.838
2200205.0,1669463331.878
2196313.0,1669463331.919
2193905.0,1669463331.958
2190689.0,1669463331.999
2186888.0,1669463332.039
2184825.0,1669463332.078
2183555.0,1669463332.118
2183744.0,1669463332.159
2182938.0,1669463332.199
2182317.0,1669463332.239
2180915.0,1669463332.28
2176833.0,1669463332.319
2172559.0,1669463332.359
2169087.0,1669463332.4
2166529.0,1669463332.439
2166210.0,1669463332.479
2165833.0,1669463332.52
2165296.0,1669463332.559
2165403.0,1669463332.6
2166226.0,1669463332.64
2167668.0,1669463332.679
2170150.0,1669463332.719
2171536.0,1669463332.76
2170206.0,1669463332.8
2170458.0,1669463332.84
2167889.0,1669463332.881
2164275.0,1669463332.92
2162613.0,1669463332.96
2162946.0,1669463333.002
2166097.0,1669463333.04
2169288.0,1669463333.08
2172854.0,1669463333.121
2173852.0,1669463333.16
2173543.0,1669463333.201
2173328.0,1669463333.242
2173405.0,1669463333.281
2173960.0,1669463333.321
2174587.0,1669463333.362
2175695.0,1669463333.402
2176393.0,1669463333.441
2177682.0,1669463333.482
2178037.0,1669463333.521
2178764.0,1669463333.561
2179820.0,1669463333.603
2180697.0,1669463333.641
2182190.0,1669463333.681
2183389.0,1669463333.723
2184472.0,1669463333.762
2185719.0,1669463333.802
2187035.0,1669463333.843
2188310.0,1669463333.882
2189881.0,1669463333.922
2190242.0,1669463333.963
2189736.0,1669463334.003
2188167.0,1669463334.042
2187067.0,1669463334.083
2186242.0,1669463334.122
2185448.0,1669463334.163
2184848.0,1669463334.206
2185431.0,1669463334.283
2185160.0,1669463334.243
2185753.0,1669463334.324
2185903.0,1669463334.363
2186270.0,1669463334.404
2186228.0,1669463334.444
2184950.0,1669463334.483
2178744.0,1669463334.523
2173096.0,1669463334.564
2171332.0,1669463334.604
2172442.0,1669463334.644
2178058.0,1669463334.685
2192214.0,1669463334.724
2202400.0,1669463334.764
2215047.0,1669463334.806
2223166.0,1669463334.844
2227937.0,1669463334.884
2231258.0,1669463334.925
2233912.0,1669463334.964
2236531.0,1669463335.005
2238661.0,1669463335.046
2240164.0,1669463335.085
2239372.0,1669463335.125
2235015.0,1669463335.166
2228307.0,1669463335.206
2222808.0,1669463335.245
2215664.0,1669463335.286
2214050.0,1669463335.325
2215248.0,1669463335.365
2216440.0,1669463335.407
2222905.0,1669463335.446
2229336.0,1669463335.486
2237606.0,1669463335.527
2242539.0,1669463335.566
2247378.0,1669463335.607
2250530.0,1669463335.647
2251149.0,1669463335.686
2248867.0,1669463335.726
2250192.0,1669463335.767
2254067.0,1669463335.807
2254566.0,1669463335.847
2254770.0,1669463335.888
2253557.0,1669463335.927
2250315.0,1669463335.967
2245280.0,1669463336.009
2243507.0,1669463336.047
2242780.0,1669463336.087
2241948.0,1669463336.128
2240928.0,1669463336.167
2241160.0,1669463336.208
2241866.0,1669463336.249
2242144.0,1669463336.288
2242700.0,1669463336.328
2242722.0,1669463336.369
2243150.0,1669463336.409
2243711.0,1669463336.448
2244084.0,1669463336.489
2244750.0,1669463336.528
2243194.0,1669463336.568
2240754.0,1669463336.61
2238106.0,1669463336.649
2235478.0,1669463336.689
2233441.0,1669463336.73
2232156.0,1669463336.769
2230675.0,1669463336.81
2229926.0,1669463336.85
2229277.0,1669463336.889
2228768.0,1669463336.929
2228016.0,1669463336.971
2227193.0,1669463337.01
2226466.0,1669463337.05
2226202.0,1669463337.091
2226320.0,1669463337.13
2226324.0,1669463337.17
2226646.0,1669463337.213
2226890.0,1669463337.25
2227229.0,1669463337.29
2228024.0,1669463337.331
2228126.0,1669463337.371
2227304.0,1669463337.411
2223003.0,1669463337.452
2215037.0,1669463337.491
2203608.0,1669463337.531
2193607.0,1669463337.572
2185426.0,1669463337.612
2177901.0,1669463337.651
2174779.0,1669463337.692
2172697.0,1669463337.731
2171204.0,1669463337.772
2167201.0,1669463337.813
2163136.0,1669463337.852
2159291.0,1669463337.892
2156554.0,1669463337.933
2153945.0,1669463337.972
2151336.0,1669463338.013
2148544.0,1669463338.053
2149801.0,1669463338.092
2152446.0,1669463338.132
2150982.0,1669463338.174
2151182.0,1669463338.213
2151170.0,1669463338.253
2148341.0,1669463338.294
2144848.0,1669463338.333
2143996.0,1669463338.373
2144426.0,1669463338.415
2143874.0,1669463338.453
2142427.0,1669463338.493
2140531.0,1669463338.534
2139277.0,1669463338.573
2137912.0,1669463338.614
2136588.0,1669463338.655
2135206.0,1669463338.694
2134263.0,1669463338.734
2133156.0,1669463338.775
2132730.0,1669463338.815
2132374.0,1669463338.854
2132614.0,1669463338.895
2132855.0,1669463338.934
2133509.0,1669463338.974
2133980.0,1669463339.016
2134472.0,1669463339.055
2132945.0,1669463339.095
2128716.0,1669463339.136
2123941.0,1669463339.175
2119537.0,1669463339.217
2115809.0,1669463339.256
2112975.0,1669463339.295
2111146.0,1669463339.335
2109287.0,1669463339.376
2107776.0,1669463339.416
2105916.0,1669463339.456
2104643.0,1669463339.497
2102642.0,1669463339.536
2101639.0,1669463339.576
2100874.0,1669463339.618
2100434.0,1669463339.656
2100246.0,1669463339.696
2099900.0,1669463339.737
2099815.0,1669463339.776
2099534.0,1669463339.817
2099274.0,1669463339.858
2097883.0,1669463339.897
2090387.0,1669463339.937
2077697.0,1669463339.978
2063794.0,1669463340.018
2053587.0,1669463340.057
2048657.0,1669463340.098
2047454.0,1669463340.137
2049438.0,1669463340.172
2053391.0,1669463340.214
2057121.0,1669463340.253
2059871.0,1669463340.293
2061996.0,1669463340.334
2064355.0,1669463340.373
2067306.0,1669463340.414
2070106.0,1669463340.454
2072629.0,1669463340.493
2075447.0,1669463340.533
2078368.0,1669463340.574
2082236.0,1669463340.614
2084910.0,1669463340.654
2088114.0,1669463340.695
2090854.0,1669463340.734
2091610.0,1669463340.774
2089682.0,1669463340.816
2084576.0,1669463340.935
2085030.0,1669463340.974
2087398.0,1669463340.854
2086944.0,1669463341.015
2088704.0,1669463341.056
2085404.0,1669463340.894
2089767.0,1669463341.095
2090444.0,1669463341.135
2089999.0,1669463341.176
2088494.0,1669463341.216
2086471.0,1669463341.255
2086662.0,1669463341.296
2089053.0,1669463341.335
2091226.0,1669463341.375
2092772.0,1669463341.417
2094420.0,1669463341.456
2096308.0,1669463341.496
2098045.0,1669463341.537
2099823.0,1669463341.576
2102075.0,1669463341.617
2102096.0,1669463341.657
2099585.0,1669463341.696
2097456.0,1669463341.736
2095800.0,1669463341.777
2094820.0,1669463341.817
2095020.0,1669463341.857
2095146.0,1669463341.898
2096150.0,1669463341.937
2097005.0,1669463341.977
2097530.0,1669463342.019
2098296.0,1669463342.057
2099556.0,1669463342.097
2100707.0,1669463342.138
2102068.0,1669463342.177
2104000.0,1669463342.218
2105618.0,1669463342.258
2083686.0,1669463342.819
2107555.0,1669463342.297
2109574.0,1669463342.337
2111397.0,1669463342.379
2113534.0,1669463342.418
2115693.0,1669463342.458
2116773.0,1669463342.499
2115543.0,1669463342.538
2112299.0,1669463342.578
2103862.0,1669463342.62
2095288.0,1669463342.658
2089096.0,1669463342.698
2083988.0,1669463342.739
2082481.0,1669463342.778
2084437.0,1669463342.859
2084953.0,1669463342.938
2085221.0,1669463342.898
2085605.0,1669463343.019
2084705.0,1669463342.98
2085456.0,1669463343.059
2083226.0,1669463343.139
2086584.0,1669463343.1
2085388.0,1669463343.221
2080051.0,1669463343.299
2089293.0,1669463343.34
2090888.0,1669463343.379
2083569.0,1669463343.179
2083050.0,1669463343.259
2086859.0,1669463343.42
2081154.0,1669463343.46
2076341.0,1669463343.539
2078305.0,1669463343.499
2067730.0,1669463343.582
2074933.0,1669463343.661
2070031.0,1669463343.621
2071917.0,1669463343.702
2067723.0,1669463343.741
2066037.0,1669463343.782
2064826.0,1669463343.824
2063825.0,1669463343.862
2065214.0,1669463343.9
2069293.0,1669463343.942
2075597.0,1669463343.981
2080890.0,1669463344.022
2084293.0,1669463344.061
2087092.0,1669463344.102
2089294.0,1669463344.142
2091618.0,1669463344.183
2093983.0,1669463344.222
2095849.0,1669463344.262
2098257.0,1669463344.303
2098907.0,1669463344.342
2098701.0,1669463344.382
2097928.0,1669463344.424
2097482.0,1669463344.462
2097731.0,1669463344.502
2098354.0,1669463344.543
2099510.0,1669463344.582
2100391.0,1669463344.623
2102026.0,1669463344.664
2103180.0,1669463344.703
2104172.0,1669463344.743
2105342.0,1669463344.784
2106989.0,1669463344.823
2108495.0,1669463344.863
2110215.0,1669463344.902
2111741.0,1669463344.941
2113966.0,1669463344.981
2115834.0,1669463345.023
2117682.0,1669463345.062
2119338.0,1669463345.102
2121137.0,1669463345.144
2122798.0,1669463345.182
2123673.0,1669463345.224
2122352.0,1669463345.262
2117134.0,1669463345.301
2111491.0,1669463345.341
2106323.0,1669463345.382
2100552.0,1669463345.413
2095736.0,1669463345.453
2093301.0,1669463345.494
2091817.0,1669463345.533
2090987.0,1669463345.615
2090941.0,1669463345.573
2092369.0,1669463345.653
2094126.0,1669463345.693
2095598.0,1669463345.734
2098021.0,1669463345.773
2099442.0,1669463345.814
2100105.0,1669463345.855
2100778.0,1669463345.894
2102900.0,1669463345.934
2104718.0,1669463345.975
2106028.0,1669463346.015
2107604.0,1669463346.054
2110158.0,1669463346.089
2112666.0,1669463346.123
2114625.0,1669463346.16
2116499.0,1669463346.202
2118528.0,1669463346.241
2119802.0,1669463346.281
2125808.0,1669463346.362
2121981.0,1669463346.323
2128280.0,1669463346.403
2128470.0,1669463346.443
2127225.0,1669463346.482
2128974.0,1669463346.521
2130836.0,1669463346.562
2128423.0,1669463346.602
2124688.0,1669463346.642
2120461.0,1669463346.683
2118298.0,1669463346.722
2116141.0,1669463346.762
2115224.0,1669463346.804
2117196.0,1669463346.842
2125002.0,1669463346.882
2133062.0,1669463346.923
2137631.0,1669463346.962
2141355.0,1669463347.003
2143992.0,1669463347.043
2145983.0,1669463347.082
2145247.0,1669463347.122
2143763.0,1669463347.164
2142515.0,1669463347.203
2142136.0,1669463347.243
2142090.0,1669463347.284
2142604.0,1669463347.324
2144041.0,1669463347.363
2144911.0,1669463347.403
2144840.0,1669463347.441
2145747.0,1669463347.482
2145649.0,1669463347.523
2145976.0,1669463347.562
2146876.0,1669463347.603
2147680.0,1669463347.644
2148295.0,1669463347.683
2149029.0,1669463347.723
2150053.0,1669463347.764
2151218.0,1669463347.804
2152059.0,1669463347.843
2152988.0,1669463347.882
2154279.0,1669463347.921
2153916.0,1669463347.961
2151396.0,1669463348.003
2148275.0,1669463348.042
2145719.0,1669463348.082
2143663.0,1669463348.123
2141972.0,1669463348.162
2140855.0,1669463348.203
2140215.0,1669463348.243
2138071.0,1669463348.282
2134237.0,1669463348.322
2131663.0,1669463348.363
2131689.0,1669463348.403
2125832.0,1669463348.442
2128111.0,1669463348.484
2140028.0,1669463348.523
2150014.0,1669463348.563
2156271.0,1669463348.605
2164543.0,1669463348.643
2176851.0,1669463348.683
2182091.0,1669463348.725
2189535.0,1669463348.764
2196308.0,1669463348.803
2201516.0,1669463348.843
2202034.0,1669463348.882
2196996.0,1669463348.923
2193410.0,1669463348.964
2195208.0,1669463349.004
2197194.0,1669463349.044
2196803.0,1669463349.085
2193559.0,1669463349.124
2188639.0,1669463349.162
2185992.0,1669463349.205
2183176.0,1669463349.244
2181397.0,1669463349.284
2179948.0,1669463349.325
2178484.0,1669463349.364
2177737.0,1669463349.405
2177051.0,1669463349.445
2176187.0,1669463349.484
2174951.0,1669463349.524
2174144.0,1669463349.565
2172894.0,1669463349.605
2172253.0,1669463349.644
2171801.0,1669463349.685
2171064.0,1669463349.724
2170603.0,1669463349.764
2166681.0,1669463349.806
2160997.0,1669463349.845
2155874.0,1669463349.885
2151448.0,1669463349.924
2147214.0,1669463349.963
2144081.0,1669463350.004
2141716.0,1669463350.044
2139487.0,1669463350.084
2136741.0,1669463350.124
2134152.0,1669463350.165
2131701.0,1669463350.206
2129999.0,1669463350.245
2128137.0,1669463350.284
2126742.0,1669463350.323
2125579.0,1669463350.363
2124731.0,1669463350.405
2123916.0,1669463350.436
2123209.0,1669463350.476
2122542.0,1669463350.517
2122250.0,1669463350.556
2121641.0,1669463350.597
2119751.0,1669463350.638
2114804.0,1669463350.677
2108497.0,1669463350.717
2103308.0,1669463350.758
2098843.0,1669463350.798
2095189.0,1669463350.837
2092082.0,1669463350.879
2088710.0,1669463350.918
2080321.0,1669463350.958
2073119.0,1669463350.999
2070289.0,1669463351.038
2072203.0,1669463351.078
2072095.0,1669463351.119
2070124.0,1669463351.151
2064192.0,1669463351.187
2056206.0,1669463351.226
2048426.0,1669463351.264
2041849.0,1669463351.305
2036356.0,1669463351.346
2032830.0,1669463351.386
2030419.0,1669463351.426
2030538.0,1669463351.467
2030665.0,1669463351.506
2034414.0,1669463351.546
2035773.0,1669463351.586
2037247.0,1669463351.625
2039062.0,1669463351.66
2038596.0,1669463351.702
2031871.0,1669463351.741
2025310.0,1669463351.781
2020602.0,1669463351.822
2019053.0,1669463351.861
2019919.0,1669463351.901
2018311.0,1669463351.942
2018320.0,1669463351.982
2016181.0,1669463352.021
2014662.0,1669463352.063
2014308.0,1669463352.102
2015322.0,1669463352.145
2017293.0,1669463352.187
2022467.0,1669463352.225
2027684.0,1669463352.265
2032351.0,1669463352.306
2035334.0,1669463352.345
2037237.0,1669463352.386
2038937.0,1669463352.427
2043271.0,1669463352.506
2043611.0,1669463352.547
2042574.0,1669463352.587
2041525.0,1669463352.626
2040709.0,1669463352.667
2040137.0,1669463352.706
2040007.0,1669463352.746
2041120.0,1669463352.466
2040758.0,1669463352.788
2041359.0,1669463352.826
2042493.0,1669463352.866
2043292.0,1669463352.908
2044194.0,1669463352.947
2045512.0,1669463352.987
2047891.0,1669463353.067
2049645.0,1669463353.107
2051579.0,1669463353.148
2054083.0,1669463353.188
2046554.0,1669463353.028
2056434.0,1669463353.227
2058521.0,1669463353.268
2060795.0,1669463353.307
2063100.0,1669463353.347
2065481.0,1669463353.389
2067875.0,1669463353.428
2068827.0,1669463353.509
2067555.0,1669463353.548
2066847.0,1669463353.589
2066373.0,1669463353.63
2063880.0,1669463353.669
2069095.0,1669463353.468
2059532.0,1669463353.709
2057050.0,1669463353.751
2057699.0,1669463353.791
2055540.0,1669463353.87
2056044.0,1669463353.831
2054391.0,1669463353.909
2055186.0,1669463353.949
2056651.0,1669463353.992
2059728.0,1669463354.03
2062955.0,1669463354.07
2065703.0,1669463354.11
2067324.0,1669463354.14
2070473.0,1669463354.181
2072967.0,1669463354.222
2073776.0,1669463354.261
2075333.0,1669463354.301
2075464.0,1669463354.342
2084254.0,1669463354.382
2082970.0,1669463354.421
2079936.0,1669463354.462
2078544.0,1669463354.501
2073963.0,1669463354.541
2073818.0,1669463354.583
2075481.0,1669463354.621
2079357.0,1669463354.662
2083643.0,1669463354.703
2087535.0,1669463354.742
2092158.0,1669463354.783
2095829.0,1669463354.823
2099015.0,1669463354.863
2102718.0,1669463354.9
2105982.0,1669463354.934
2110839.0,1669463355.011
2108552.0,1669463354.974
2112870.0,1669463355.05
2115115.0,1669463355.089
2117553.0,1669463355.129
2120305.0,1669463355.171
2125875.0,1669463355.25
2123023.0,1669463355.211
2128393.0,1669463355.291
2130306.0,1669463355.33
2131330.0,1669463355.371
2132121.0,1669463355.411
2133527.0,1669463355.49
2133092.0,1669463355.45
2136340.0,1669463355.571
2134753.0,1669463355.532
2139946.0,1669463355.652
2138020.0,1669463355.611
2141690.0,1669463355.691
2143499.0,1669463355.731
2145444.0,1669463355.773
2147641.0,1669463355.811
2149456.0,1669463355.851
2151317.0,1669463355.892
2153459.0,1669463355.931
2155507.0,1669463355.972
2157079.0,1669463356.013
2158960.0,1669463356.049
2162440.0,1669463356.131
2161061.0,1669463356.089
2160418.0,1669463356.17
2163465.0,1669463356.21
2168875.0,1669463356.251
2171443.0,1669463356.291
2173802.0,1669463356.331
2178148.0,1669463356.373
2178434.0,1669463356.409
2180011.0,1669463356.45
2181370.0,1669463356.491
2180427.0,1669463356.53
2178456.0,1669463356.571
2178456.0,1669463356.603
2179045.0,1669463356.643
2181710.0,1669463356.683
2186346.0,1669463356.724
2191108.0,1669463356.764
2193227.0,1669463356.803
2199647.0,1669463356.844
2205483.0,1669463356.883
2208501.0,1669463356.923
2210432.0,1669463356.965
2213575.0,1669463357.004
2218381.0,1669463357.044
2224718.0,1669463357.085
2229718.0,1669463357.124
2231646.0,1669463357.165
2234864.0,1669463357.205
2237671.0,1669463357.244
2238942.0,1669463357.285
2239067.0,1669463357.323
2239529.0,1669463357.357
2240309.0,1669463357.393
2241713.0,1669463357.432
2243577.0,1669463357.471
2244930.0,1669463357.511
2246016.0,1669463357.553
2247044.0,1669463357.592
2248392.0,1669463357.632
2249418.0,1669463357.674
2250647.0,1669463357.712
2252286.0,1669463357.753
2253546.0,1669463357.793
2254968.0,1669463357.825
2256790.0,1669463357.866
2258341.0,1669463357.907
2259641.0,1669463357.946
2261509.0,1669463357.986
2262937.0,1669463358.027
2264641.0,1669463358.066
2265923.0,1669463358.106
2267274.0,1669463358.149
2267456.0,1669463358.186
2266599.0,1669463358.226
2265777.0,1669463358.268
2265331.0,1669463358.307
2264552.0,1669463358.348
2264461.0,1669463358.388
2264214.0,1669463358.427
2264560.0,1669463358.467
2264949.0,1669463358.508
2264097.0,1669463358.548
2261233.0,1669463358.587
2256066.0,1669463358.629
2251433.0,1669463358.668
2248351.0,1669463358.708
2246921.0,1669463358.75
2244033.0,1669463358.788
2244713.0,1669463358.828
2240844.0,1669463358.869
2236857.0,1669463358.908
2231919.0,1669463358.949
2230661.0,1669463358.99
2228047.0,1669463359.028
2225914.0,1669463359.06
2220025.0,1669463359.102
2219040.0,1669463359.141
2221333.0,1669463359.181
2216570.0,1669463359.222
2212895.0,1669463359.261
2208237.0,1669463359.301
2204151.0,1669463359.343
2205519.0,1669463359.381
2208792.0,1669463359.421
2210037.0,1669463359.462
2212167.0,1669463359.501
2215078.0,1669463359.542
2216134.0,1669463359.583
2216575.0,1669463359.622
2217063.0,1669463359.662
2216818.0,1669463359.703
2217844.0,1669463359.736
2217887.0,1669463359.774
2218910.0,1669463359.812
2219164.0,1669463359.851
2219134.0,1669463359.892
2219876.0,1669463359.934
2220288.0,1669463359.972
2219871.0,1669463360.012
2217837.0,1669463360.054
2214626.0,1669463360.093
2211543.0,1669463360.135
2209211.0,1669463360.172
2207486.0,1669463360.211
2205413.0,1669463360.252
2205413.0,1669463360.286
2204316.0,1669463360.326
2203266.0,1669463360.365
2201468.0,1669463360.407
2200194.0,1669463360.446
2198989.0,1669463360.486
2198070.0,1669463360.528
2197002.0,1669463360.566
2196585.0,1669463360.606
2195777.0,1669463360.647
2195223.0,1669463360.686
2195216.0,1669463360.727
2194978.0,1669463360.768
2194607.0,1669463360.807
2194512.0,1669463360.847
2194382.0,1669463360.888
2194288.0,1669463360.928
2193618.0,1669463360.968
2190442.0,1669463361.007
2185693.0,1669463361.046
2181972.0,1669463361.081
2178463.0,1669463361.124
2175047.0,1669463361.155
2172408.0,1669463361.193
2170515.0,1669463361.234
2168002.0,1669463361.273
2159470.0,1669463361.314
2150399.0,1669463361.355
2145145.0,1669463361.394
2139924.0,1669463361.434
2138588.0,1669463361.477
2140982.0,1669463361.514
2144780.0,1669463361.554
2147168.0,1669463361.595
2150229.0,1669463361.634
2152663.0,1669463361.674
2155869.0,1669463361.716
2158052.0,1669463361.754
2160167.0,1669463361.794
2162178.0,1669463361.835
2162857.0,1669463361.874
2164909.0,1669463361.915
2164682.0,1669463361.956
2164234.0,1669463361.995
2163938.0,1669463362.035
2164602.0,1669463362.076
2164333.0,1669463362.116
2163806.0,1669463362.155
2163136.0,1669463362.197
2162753.0,1669463362.236
2161564.0,1669463362.275
2160900.0,1669463362.315
2160207.0,1669463362.354
2160134.0,1669463362.394
2161107.0,1669463362.436
2162048.0,1669463362.474
2164504.0,1669463362.515
2166731.0,1669463362.556
2167656.0,1669463362.595
2168539.0,1669463362.635
2169332.0,1669463362.675
2170230.0,1669463362.714
2170569.0,1669463362.746
2171700.0,1669463362.787
2172561.0,1669463362.826
2172697.0,1669463362.866
2170687.0,1669463362.908
2168227.0,1669463362.947
2166115.0,1669463362.987
2164937.0,1669463363.028
2163679.0,1669463363.067
2162537.0,1669463363.108
2162235.0,1669463363.148
2162387.0,1669463363.187
2162238.0,1669463363.227
2161946.0,1669463363.268
2161842.0,1669463363.308
2161890.0,1669463363.348
2162340.0,1669463363.389
2162958.0,1669463363.428
2163924.0,1669463363.469
2164755.0,1669463363.507
2165309.0,1669463363.538
2166405.0,1669463363.576
2167266.0,1669463363.614
2168066.0,1669463363.653
2168928.0,1669463363.694
2169573.0,1669463363.735
2170550.0,1669463363.774
2171081.0,1669463363.815
2171081.0,1669463363.85
2170598.0,1669463363.89
2167776.0,1669463363.929
2162382.0,1669463363.971
2157345.0,1669463364.01
2153588.0,1669463364.085
2152476.0,1669463364.127
2157092.0,1669463364.165
2167199.0,1669463364.205
2180244.0,1669463364.246
2195108.0,1669463364.285
2206907.0,1669463364.326
2216020.0,1669463364.367
2223507.0,1669463364.406
2228549.0,1669463364.446
2233965.0,1669463364.487
2238113.0,1669463364.527
2240907.0,1669463364.566
2243268.0,1669463364.602
2245034.0,1669463364.635
2246795.0,1669463364.672
2247966.0,1669463364.712
2248569.0,1669463364.75
2250243.0,1669463364.79
2251677.0,1669463364.832
2253995.0,1669463364.871
2255220.0,1669463364.912
2256037.0,1669463364.953
2256579.0,1669463364.992
2257208.0,1669463365.03
2254151.0,1669463365.071
2254713.0,1669463365.11
2259902.0,1669463365.228
2256255.0,1669463365.268
2251412.0,1669463365.31
2260115.0,1669463365.189
2258532.0,1669463365.148
2247669.0,1669463365.348
2245455.0,1669463365.388
2244211.0,1669463365.429
2243999.0,1669463365.468
2243908.0,1669463365.509
2243257.0,1669463365.549
2242920.0,1669463365.588
2242814.0,1669463365.628
2242709.0,1669463365.669
2242306.0,1669463365.709
2242398.0,1669463365.748
2242414.0,1669463365.79
2242434.0,1669463365.829
2241323.0,1669463365.87
2239303.0,1669463365.912
2237312.0,1669463365.951
2235710.0,1669463365.991
2234479.0,1669463366.032
2232449.0,1669463366.071
2232045.0,1669463366.116
2231425.0,1669463366.153
2231312.0,1669463366.192
2231178.0,1669463366.232
2230765.0,1669463366.274
2230652.0,1669463366.311
2230854.0,1669463366.342
2230661.0,1669463366.383
2230910.0,1669463366.422
2231281.0,1669463366.462
2231869.0,1669463366.504
2232425.0,1669463366.542
2232818.0,1669463366.582
2233592.0,1669463366.623
2234219.0,1669463366.662
2234963.0,1669463366.703
2232383.0,1669463366.783
2234472.0,1669463366.744
2228672.0,1669463366.864
2230307.0,1669463366.823
2227551.0,1669463366.904
2226774.0,1669463366.943
2226404.0,1669463366.984
2226191.0,1669463367.023
2213932.0,1669463367.212
2225398.0,1669463367.095
2225850.0,1669463367.06
2218589.0,1669463367.17
2223279.0,1669463367.13
2216351.0,1669463367.292
2213830.0,1669463367.251
2222279.0,1669463367.332
2230748.0,1669463367.372
2240175.0,1669463367.412
2249746.0,1669463367.453
2259897.0,1669463367.49
2267838.0,1669463367.53
2274210.0,1669463367.571
2278951.0,1669463367.61
2281696.0,1669463367.65
2282481.0,1669463367.691
2278323.0,1669463367.73
2274659.0,1669463367.77
2276052.0,1669463367.811
2278394.0,1669463367.85
2278439.0,1669463367.891
2276079.0,1669463367.931
2270186.0,1669463367.97
2264580.0,1669463368.01
2259423.0,1669463368.051
2256984.0,1669463368.091
2256712.0,1669463368.13
2256140.0,1669463368.171
2255113.0,1669463368.211
2254431.0,1669463368.253
2254371.0,1669463368.292
2254163.0,1669463368.33
2253542.0,1669463368.37
2253085.0,1669463368.411
2252685.0,1669463368.45
2252258.0,1669463368.492
2251747.0,1669463368.533
2250878.0,1669463368.571
2247045.0,1669463368.611
2242418.0,1669463368.652
2238780.0,1669463368.692
2238780.0,1669463368.727
2235511.0,1669463368.768
2232671.0,1669463368.807
2230298.0,1669463368.847
2228582.0,1669463368.889
2226909.0,1669463368.927
2225137.0,1669463368.967
2223065.0,1669463369.008
2221133.0,1669463369.047
2219595.0,1669463369.089
2218613.0,1669463369.129
2216943.0,1669463369.168
2216397.0,1669463369.208
2215322.0,1669463369.249
2214268.0,1669463369.289
2214001.0,1669463369.328
2212963.0,1669463369.369
2212674.0,1669463369.409
2212349.0,1669463369.449
2212330.0,1669463369.49
2211203.0,1669463369.528
2207459.0,1669463369.568
2202633.0,1669463369.608
2198485.0,1669463369.647
2194892.0,1669463369.685
2191812.0,1669463369.721
2189020.0,1669463369.759
2187097.0,1669463369.794
2185055.0,1669463369.834
2183019.0,1669463369.874
2181135.0,1669463369.913
2179184.0,1669463369.955
2177394.0,1669463369.994
2176057.0,1669463370.028
2174911.0,1669463370.07
2173586.0,1669463370.108
2172559.0,1669463370.148
2171494.0,1669463370.19
2170805.0,1669463370.229
2170739.0,1669463370.269
2170315.0,1669463370.31
2169833.0,1669463370.349
2169916.0,1669463370.389
2170043.0,1669463370.43
2169839.0,1669463370.47
2166417.0,1669463370.509
2161626.0,1669463370.55
2157268.0,1669463370.589
2153344.0,1669463370.629
2149647.0,1669463370.671
2147198.0,1669463370.708
2144858.0,1669463370.747
2142665.0,1669463370.784
2140373.0,1669463370.815
2138398.0,1669463370.852
2136640.0,1669463370.894
2134796.0,1669463370.932
2133288.0,1669463370.972
2132509.0,1669463371.014
2132047.0,1669463371.054
2131415.0,1669463371.093
2131229.0,1669463371.134
2130797.0,1669463371.174
2130910.0,1669463371.214
2130675.0,1669463371.253
2130675.0,1669463371.284
2130749.0,1669463371.324
2130798.0,1669463371.365
2131091.0,1669463371.404
2132007.0,1669463371.444
2132008.0,1669463371.485
2130388.0,1669463371.524
2126790.0,1669463371.564
2122963.0,1669463371.605
2119892.0,1669463371.645
2117222.0,1669463371.684
2114793.0,1669463371.726
2113262.0,1669463371.765
2112278.0,1669463371.805
2111214.0,1669463371.846
2109936.0,1669463371.885
2108628.0,1669463371.925
2107932.0,1669463371.967
2107133.0,1669463372.001
2106889.0,1669463372.036
2106838.0,1669463372.075
2106794.0,1669463372.114
2106836.0,1669463372.154
2107419.0,1669463372.196
2107906.0,1669463372.236
2107944.0,1669463372.275
2108759.0,1669463372.317
2109458.0,1669463372.356
2109838.0,1669463372.387
2110891.0,1669463372.429
2111644.0,1669463372.467
2111974.0,1669463372.507
2110333.0,1669463372.549
2107977.0,1669463372.588
2105490.0,1669463372.628
2104032.0,1669463372.669
2102865.0,1669463372.708
2102446.0,1669463372.748
2102343.0,1669463372.789
2101992.0,1669463372.829
2101402.0,1669463372.868
2101389.0,1669463372.909
2101443.0,1669463372.948
2101239.0,1669463372.989
2101443.0,1669463373.03
2102360.0,1669463373.069
2102858.0,1669463373.108
2103687.0,1669463373.15
2104702.0,1669463373.184
2105712.0,1669463373.217
2106584.0,1669463373.257
2107589.0,1669463373.294
2108821.0,1669463373.334
2110097.0,1669463373.375
2111386.0,1669463373.415
2112554.0,1669463373.454
2113886.0,1669463373.495
2115006.0,1669463373.534
2114635.0,1669463373.574
2114635.0,1669463373.613
2113051.0,1669463373.651
2111535.0,1669463373.691
2110162.0,1669463373.733
2109292.0,1669463373.772
2108623.0,1669463373.812
2108363.0,1669463373.853
2108421.0,1669463373.892
2108319.0,1669463373.932
2108513.0,1669463373.973
2108627.0,1669463374.013
2108714.0,1669463374.052
2109001.0,1669463374.093
2109553.0,1669463374.133
2110480.0,1669463374.173
2111248.0,1669463374.215
2112398.0,1669463374.253
2113494.0,1669463374.293
2114721.0,1669463374.335
2115717.0,1669463374.374
2116796.0,1669463374.415
2118078.0,1669463374.455
2119272.0,1669463374.494
2120100.0,1669463374.535
2121508.0,1669463374.576
2122742.0,1669463374.616
2124396.0,1669463374.655
2124701.0,1669463374.697
2123707.0,1669463374.736
2121937.0,1669463374.776
2120585.0,1669463374.818
2119828.0,1669463374.854
2119328.0,1669463374.894
2119194.0,1669463374.936
2119623.0,1669463374.975
2119493.0,1669463375.015
2118691.0,1669463375.056
2116740.0,1669463375.095
2112988.0,1669463375.135
2112821.0,1669463375.176
2113428.0,1669463375.216
2114169.0,1669463375.255
2114699.0,1669463375.296
2114549.0,1669463375.335
2114788.0,1669463375.375
2115524.0,1669463375.417
2116032.0,1669463375.456
2115678.0,1669463375.496
2116041.0,1669463375.537
2116776.0,1669463375.576
2117448.0,1669463375.617
2120184.0,1669463375.658
2122834.0,1669463375.697
2122734.0,1669463375.735
2121356.0,1669463375.776
2115158.0,1669463375.816
2111655.0,1669463375.856
2115049.0,1669463375.897
2119581.0,1669463375.934
2121817.0,1669463375.981
2123009.0,1669463376.023
2122752.0,1669463376.062
2121757.0,1669463376.102
2119456.0,1669463376.143
2117793.0,1669463376.182
2117208.0,1669463376.223
2118485.0,1669463376.263
2118880.0,1669463376.302
2120781.0,1669463376.342
2123803.0,1669463376.383
2126762.0,1669463376.423
2129160.0,1669463376.463
2130815.0,1669463376.504
2133027.0,1669463376.543
2134728.0,1669463376.583
2135888.0,1669463376.625
2137265.0,1669463376.663
2138472.0,1669463376.703
2141206.0,1669463376.745
2143794.0,1669463376.784
2145639.0,1669463376.823
2145892.0,1669463376.861
2144361.0,1669463376.9
2142166.0,1669463376.936
2140489.0,1669463376.971
2138715.0,1669463377.008
2137598.0,1669463377.048
2136624.0,1669463377.089
2136168.0,1669463377.128
2135486.0,1669463377.168
2134043.0,1669463377.211
2132783.0,1669463377.249
2131527.0,1669463377.289
2130941.0,1669463377.327
2130753.0,1669463377.366
2130985.0,1669463377.407
2131184.0,1669463377.447
2131271.0,1669463377.486
2131467.0,1669463377.526
2131289.0,1669463377.567
2130283.0,1669463377.607
2129853.0,1669463377.646
2129633.0,1669463377.687
2129702.0,1669463377.726
2130090.0,1669463377.766
2130631.0,1669463377.808
2130740.0,1669463377.847
2129850.0,1669463377.887
2126916.0,1669463377.928
2121378.0,1669463377.967
2116559.0,1669463378.008
2112479.0,1669463378.049
2108456.0,1669463378.088
2104914.0,1669463378.128
2102111.0,1669463378.17
2100025.0,1669463378.21
2097979.0,1669463378.249
2095536.0,1669463378.291
2092678.0,1669463378.33
2090352.0,1669463378.37
2088456.0,1669463378.41
2087152.0,1669463378.449
2086055.0,1669463378.489
2085267.0,1669463378.529
2085534.0,1669463378.566
2086016.0,1669463378.607
2086619.0,1669463378.648
2087001.0,1669463378.687
2087315.0,1669463378.727
2086995.0,1669463378.768
2086891.0,1669463378.808
2086823.0,1669463378.847
2086752.0,1669463378.888
2086295.0,1669463378.927
2082068.0,1669463378.967
2076651.0,1669463379.009
2072231.0,1669463379.047
2068249.0,1669463379.087
2065848.0,1669463379.128
2064248.0,1669463379.167
2063002.0,1669463379.208
2062188.0,1669463379.25
2060111.0,1669463379.288
2058256.0,1669463379.329
2056153.0,1669463379.37
2054937.0,1669463379.41
2054030.0,1669463379.45
2053977.0,1669463379.491
2053819.0,1669463379.53
2057326.0,1669463379.57
2059027.0,1669463379.612
2059559.0,1669463379.651
2060853.0,1669463379.689
2062539.0,1669463379.731
2064940.0,1669463379.768
2066529.0,1669463379.808
2068363.0,1669463379.849
2069501.0,1669463379.888
2067688.0,1669463379.928
2061935.0,1669463379.969
2055687.0,1669463380.009
2051631.0,1669463380.048
2050748.0,1669463380.089
2050237.0,1669463380.128
2050900.0,1669463380.168
2051450.0,1669463380.21
2050525.0,1669463380.248
2050537.0,1669463380.288
2049876.0,1669463380.33
2050118.0,1669463380.369
2051734.0,1669463380.409
2050911.0,1669463380.45
2048571.0,1669463380.49
2047967.0,1669463380.53
2049544.0,1669463380.572
2049604.0,1669463380.611
2048514.0,1669463380.651
2048530.0,1669463380.693
2045452.0,1669463380.73
2042778.0,1669463380.77
2040081.0,1669463380.812
2031484.0,1669463380.851
2020316.0,1669463380.891
2007042.0,1669463380.932
1996212.0,1669463380.971
1988104.0,1669463381.011
1983206.0,1669463381.052
1980068.0,1669463381.091
1978801.0,1669463381.131
1976936.0,1669463381.172
1974986.0,1669463381.212
1972220.0,1669463381.251
1970232.0,1669463381.292
1969121.0,1669463381.331
1968547.0,1669463381.371
1968070.0,1669463381.413
1967921.0,1669463381.451
1968683.0,1669463381.491
1969360.0,1669463381.532
1970708.0,1669463381.571
1972171.0,1669463381.612
1973676.0,1669463381.653
1974979.0,1669463381.692
1974600.0,1669463381.73
1970573.0,1669463381.772
1966050.0,1669463381.811
1962118.0,1669463381.851
1959034.0,1669463381.893
1956394.0,1669463381.931
1954363.0,1669463381.972
1953432.0,1669463382.018
1952948.0,1669463382.05
1952708.0,1669463382.09
1951904.0,1669463382.132
1951133.0,1669463382.171
1951010.0,1669463382.211
1951104.0,1669463382.246
1951927.0,1669463382.285
1952717.0,1669463382.325
1953901.0,1669463382.366
1955922.0,1669463382.446
1954749.0,1669463382.406
1957320.0,1669463382.487
1960177.0,1669463382.566
1958765.0,1669463382.526
1960226.0,1669463382.608
1957108.0,1669463382.646
1954075.0,1669463382.686
1951291.0,1669463382.766
1952412.0,1669463382.727
1951809.0,1669463382.848
1952956.0,1669463382.887
1951179.0,1669463382.807
1953554.0,1669463382.928
1954397.0,1669463382.97
1954761.0,1669463383.009
1955735.0,1669463383.049
1957259.0,1669463383.091
1958877.0,1669463383.13
1960805.0,1669463383.17
1962888.0,1669463383.213
1964805.0,1669463383.251
1967039.0,1669463383.291
1969168.0,1669463383.333
1971280.0,1669463383.372
1973812.0,1669463383.413
1975965.0,1669463383.452
1978379.0,1669463383.489
1977777.0,1669463383.53
1976087.0,1669463383.571
1974316.0,1669463383.61
1973860.0,1669463383.65
1973484.0,1669463383.691
1973872.0,1669463383.73
1974436.0,1669463383.77
1975627.0,1669463383.812
1977155.0,1669463383.85
1978451.0,1669463383.89
1979453.0,1669463383.931
1981004.0,1669463383.97
1982417.0,1669463384.011
1984446.0,1669463384.051
1986528.0,1669463384.091
1988718.0,1669463384.13
1991045.0,1669463384.173
1993212.0,1669463384.212
1995562.0,1669463384.252
1998119.0,1669463384.293
2000665.0,1669463384.332
2003143.0,1669463384.373
2005639.0,1669463384.415
2008421.0,1669463384.453
2011105.0,1669463384.493
2013753.0,1669463384.535
2015372.0,1669463384.572
2014648.0,1669463384.613
2013874.0,1669463384.654
2014017.0,1669463384.683
2014367.0,1669463384.723
2015597.0,1669463384.764
2016574.0,1669463384.804
2018323.0,1669463384.843
2019616.0,1669463384.884
2021066.0,1669463384.923
2022503.0,1669463384.964
2024082.0,1669463385.005
2025707.0,1669463385.044
2027645.0,1669463385.084
2029822.0,1669463385.125
2031925.0,1669463385.164
2034081.0,1669463385.205
2036604.0,1669463385.245
2038814.0,1669463385.284
2040995.0,1669463385.324
2043235.0,1669463385.365
2045699.0,1669463385.4
2047662.0,1669463385.434
2049994.0,1669463385.472
2052520.0,1669463385.512
2054510.0,1669463385.552
2057017.0,1669463385.594
2059159.0,1669463385.632
2060658.0,1669463385.673
2060259.0,1669463385.714
2059924.0,1669463385.753
2060094.0,1669463385.794
2060787.0,1669463385.833
2061994.0,1669463385.872
2061994.0,1669463385.91
2063581.0,1669463385.951
2064943.0,1669463385.99
2066187.0,1669463386.03
2067512.0,1669463386.071
2068679.0,1669463386.11
2069947.0,1669463386.15
2071577.0,1669463386.192
2073219.0,1669463386.231
2074788.0,1669463386.271
2076407.0,1669463386.312
2078243.0,1669463386.351
2079728.0,1669463386.391
2081675.0,1669463386.432
2083496.0,1669463386.471
2085439.0,1669463386.511
2087412.0,1669463386.552
2088894.0,1669463386.592
2091334.0,1669463386.631
2092806.0,1669463386.672
2095086.0,1669463386.712
2096552.0,1669463386.752
2097376.0,1669463386.794
2096299.0,1669463386.832
2095801.0,1669463386.872
2095158.0,1669463386.914
2095696.0,1669463386.953
2096042.0,1669463386.994
2096661.0,1669463387.034
2097614.0,1669463387.073
2098512.0,1669463387.113
2099279.0,1669463387.154
2099736.0,1669463387.194
2100721.0,1669463387.233
2101492.0,1669463387.274
2102588.0,1669463387.313
2103902.0,1669463387.354
2104850.0,1669463387.395
2106192.0,1669463387.434
2107517.0,1669463387.474
2108533.0,1669463387.515
2110246.0,1669463387.554
2111565.0,1669463387.595
2112980.0,1669463387.635
2114447.0,1669463387.674
2115740.0,1669463387.715
2117371.0,1669463387.754
2118843.0,1669463387.794
2120360.0,1669463387.833
2121584.0,1669463387.875
2121094.0,1669463387.914
2119573.0,1669463387.948
2118318.0,1669463387.989
2117263.0,1669463388.028
2117056.0,1669463388.068
2116775.0,1669463388.109
2116959.0,1669463388.148
2117542.0,1669463388.189
2117892.0,1669463388.229
2117975.0,1669463388.268
2118161.0,1669463388.308
2118331.0,1669463388.349
2118747.0,1669463388.389
2119330.0,1669463388.429
2119847.0,1669463388.47
2120433.0,1669463388.509
2121205.0,1669463388.549
2122246.0,1669463388.59
2123281.0,1669463388.629
2124112.0,1669463388.669
2125251.0,1669463388.708
2126339.0,1669463388.747
2127527.0,1669463388.788
2128694.0,1669463388.829
2129918.0,1669463388.868
2131097.0,1669463388.908
2132357.0,1669463388.949
2132863.0,1669463388.989
2131514.0,1669463389.029
2129431.0,1669463389.07
2127611.0,1669463389.109
2126354.0,1669463389.147
2125597.0,1669463389.187
2125488.0,1669463389.225
2125737.0,1669463389.265
2125459.0,1669463389.306
2124999.0,1669463389.346
2124541.0,1669463389.386
2124196.0,1669463389.427
2123921.0,1669463389.466
2124152.0,1669463389.506
2124280.0,1669463389.547
2124163.0,1669463389.587
2124403.0,1669463389.626
2124946.0,1669463389.668
2125025.0,1669463389.707
2125691.0,1669463389.747
2126279.0,1669463389.788
2127089.0,1669463389.827
2127566.0,1669463389.867
2128004.0,1669463389.908
2128426.0,1669463389.948
2129367.0,1669463389.989
2129805.0,1669463390.029
2128000.0,1669463390.068
2124941.0,1669463390.108
2121793.0,1669463390.149
2119319.0,1669463390.189
2117655.0,1669463390.229
2116408.0,1669463390.27
2115495.0,1669463390.309
2114609.0,1669463390.35
2113524.0,1669463390.392
2112431.0,1669463390.431
2111341.0,1669463390.471
2110320.0,1669463390.512
2109792.0,1669463390.551
2108816.0,1669463390.632
2108290.0,1669463390.671
2109153.0,1669463390.592
2108171.0,1669463390.711
2108218.0,1669463390.753
2108300.0,1669463390.792
2108537.0,1669463390.832
2108859.0,1669463390.873
2109035.0,1669463390.912
2109340.0,1669463390.952
2109895.0,1669463390.994
2110153.0,1669463391.032
2109963.0,1669463391.072
2110265.0,1669463391.111
2107871.0,1669463391.15
2103869.0,1669463391.191
2099917.0,1669463391.231
2096360.0,1669463391.27
2093687.0,1669463391.308
2091706.0,1669463391.35
2089968.0,1669463391.389
2088802.0,1669463391.429
2087268.0,1669463391.47
2085473.0,1669463391.509
2084107.0,1669463391.55
2082705.0,1669463391.591
2081704.0,1669463391.628
2080841.0,1669463391.66
2080060.0,1669463391.701
2079711.0,1669463391.74
2079390.0,1669463391.781
2079179.0,1669463391.822
2079290.0,1669463391.861
2079297.0,1669463391.901
2079265.0,1669463391.942
2079581.0,1669463391.982
2079822.0,1669463392.021
2080118.0,1669463392.062
2080638.0,1669463392.101
2081039.0,1669463392.141
2081693.0,1669463392.183
2081369.0,1669463392.222
2078640.0,1669463392.262
2074404.0,1669463392.303
2070685.0,1669463392.342
2067686.0,1669463392.378
2065464.0,1669463392.419
2063920.0,1669463392.452
2062462.0,1669463392.49
2061530.0,1669463392.532
2060166.0,1669463392.571
2058993.0,1669463392.611
2057819.0,1669463392.653
2056572.0,1669463392.692
2056038.0,1669463392.732
2055530.0,1669463392.774
2055108.0,1669463392.81
2055202.0,1669463392.85
2055036.0,1669463392.927
2054835.0,1669463392.888
2054989.0,1669463392.968
2055246.0,1669463393.009
2055737.0,1669463393.048
2055843.0,1669463393.088
2056151.0,1669463393.129
2056762.0,1669463393.169
2057577.0,1669463393.208
2057952.0,1669463393.249
2057187.0,1669463393.288
2054046.0,1669463393.328
2050082.0,1669463393.37
2047922.0,1669463393.409
2045985.0,1669463393.449
2045278.0,1669463393.49
2044296.0,1669463393.529
2044011.0,1669463393.57
2043502.0,1669463393.611
2042506.0,1669463393.65
2041990.0,1669463393.691
2041624.0,1669463393.732
2041410.0,1669463393.772
2041757.0,1669463393.812
2041736.0,1669463393.855
2042197.0,1669463393.89
2043010.0,1669463393.931
2043393.0,1669463393.973
2044115.0,1669463394.011
2044947.0,1669463394.051
2045932.0,1669463394.093
2046885.0,1669463394.132
2048175.0,1669463394.173
2049003.0,1669463394.206
2050095.0,1669463394.245
2051205.0,1669463394.285
2051520.0,1669463394.326
2048893.0,1669463394.366
2045326.0,1669463394.405
2042405.0,1669463394.446
2040739.0,1669463394.485
2039211.0,1669463394.525
2038380.0,1669463394.567
2037712.0,1669463394.605
2037590.0,1669463394.646
2037071.0,1669463394.687
2036356.0,1669463394.726
2036008.0,1669463394.766
2036085.0,1669463394.807
2035864.0,1669463394.846
2036324.0,1669463394.886
2036881.0,1669463394.924
2037864.0,1669463394.964
2038829.0,1669463394.999
2039527.0,1669463395.035
2040399.0,1669463395.071
2041535.0,1669463395.111
2042666.0,1669463395.153
2043900.0,1669463395.192
2045110.0,1669463395.232
2046355.0,1669463395.273
2048107.0,1669463395.312
2049431.0,1669463395.353
2050487.0,1669463395.394
2050487.0,1669463395.428
2050392.0,1669463395.468
2047699.0,1669463395.509
2044780.0,1669463395.549
2042800.0,1669463395.588
2041530.0,1669463395.629
2040804.0,1669463395.668
2040211.0,1669463395.708
2040275.0,1669463395.75
2040501.0,1669463395.789
2040331.0,1669463395.829
2040166.0,1669463395.87
2040138.0,1669463395.909
2040342.0,1669463395.95
2041021.0,1669463395.99
2041942.0,1669463396.029
2042830.0,1669463396.069
2043340.0,1669463396.11
2044392.0,1669463396.15
2045303.0,1669463396.19
2046399.0,1669463396.232
2047695.0,1669463396.271
2048806.0,1669463396.312
2050127.0,1669463396.353
2051465.0,1669463396.392
2052871.0,1669463396.432
2054125.0,1669463396.473
2055559.0,1669463396.512
2055416.0,1669463396.553
2053145.0,1669463396.594
2050624.0,1669463396.633
2049304.0,1669463396.669
2048333.0,1669463396.71
2048146.0,1669463396.75
2048215.0,1669463396.789
2048395.0,1669463396.83
2048703.0,1669463396.869
2048785.0,1669463396.909
2048869.0,1669463396.951
2048804.0,1669463396.989
2049142.0,1669463397.03
2049469.0,1669463397.071
2050855.0,1669463397.11
2051667.0,1669463397.151
2052893.0,1669463397.191
2053801.0,1669463397.23
2054893.0,1669463397.27
2056052.0,1669463397.311
2057547.0,1669463397.351
2058674.0,1669463397.391
2060188.0,1669463397.433
2061495.0,1669463397.472
2063142.0,1669463397.512
2064391.0,1669463397.554
2065953.0,1669463397.592
2065503.0,1669463397.633
2063130.0,1669463397.674
2060338.0,1669463397.713
2058521.0,1669463397.754
2057274.0,1669463397.785
2056237.0,1669463397.824
2055820.0,1669463397.865
2055672.0,1669463397.906
2055439.0,1669463397.945
2055338.0,1669463397.985
2055062.0,1669463398.026
2055014.0,1669463398.065
2055167.0,1669463398.105
2055507.0,1669463398.147
2056277.0,1669463398.185
2056990.0,1669463398.225
2057600.0,1669463398.266
2058273.0,1669463398.305
2059281.0,1669463398.346
2060744.0,1669463398.387
2061484.0,1669463398.426
2062597.0,1669463398.466
2063738.0,1669463398.499
2064995.0,1669463398.536
2066728.0,1669463398.576
2067906.0,1669463398.615
2069283.0,1669463398.654
2070479.0,1669463398.694
2069980.0,1669463398.736
2067321.0,1669463398.775
2064380.0,1669463398.815
2062642.0,1669463398.856
2061467.0,1669463398.895
2060533.0,1669463398.936
2060058.0,1669463398.976
2060155.0,1669463399.007
2059754.0,1669463399.047
2059879.0,1669463399.088
2059400.0,1669463399.128
2059553.0,1669463399.167
2059462.0,1669463399.208
2059805.0,1669463399.247
2060346.0,1669463399.287
2060839.0,1669463399.329
2061784.0,1669463399.367
2062449.0,1669463399.408
2063523.0,1669463399.449
2064679.0,1669463399.488
2065681.0,1669463399.528
2066546.0,1669463399.569
2067504.0,1669463399.608
2068820.0,1669463399.648
2070037.0,1669463399.689
2071155.0,1669463399.725
2072697.0,1669463399.758
2073221.0,1669463399.797
2071758.0,1669463399.834
2068784.0,1669463399.873
2064839.0,1669463399.951
2066503.0,1669463399.912
2063904.0,1669463399.99
2063314.0,1669463400.029
2062896.0,1669463400.068
2063133.0,1669463400.107
2062845.0,1669463400.146
2062417.0,1669463400.185
2061824.0,1669463400.224
2061775.0,1669463400.263
2062018.0,1669463400.302
2062311.0,1669463400.341
2062721.0,1669463400.38
2063292.0,1669463400.419
2063971.0,1669463400.458
2064875.0,1669463400.497
2066607.0,1669463400.575
2065910.0,1669463400.536
2067812.0,1669463400.614
2068515.0,1669463400.653
2069770.0,1669463400.692
2070750.0,1669463400.731
2069622.0,1669463400.77
2066181.0,1669463400.809
2063367.0,1669463400.848
2061429.0,1669463400.887
2057194.0,1669463401.238
2060176.0,1669463400.926
2059571.0,1669463400.965
2058947.0,1669463401.004
2058951.0,1669463401.043
2058371.0,1669463401.082
2057882.0,1669463401.121
2057492.0,1669463401.16
2057641.0,1669463401.199
2057514.0,1669463401.277
2057978.0,1669463401.316
2058692.0,1669463401.355
2059611.0,1669463401.394
2059611.0,1669463401.433
2060522.0,1669463401.472
2061003.0,1669463401.511
2062149.0,1669463401.55
2063092.0,1669463401.589
2064218.0,1669463401.628
2065518.0,1669463401.667
2062728.0,1669463401.784
2056342.0,1669463402.096
2056643.0,1669463402.057
2056525.0,1669463402.174
2056995.0,1669463401.979
2056870.0,1669463402.213
2066349.0,1669463401.706
2056161.0,1669463402.135
2060321.0,1669463401.823
2065542.0,1669463401.745
2058663.0,1669463401.862
2056926.0,1669463401.94
2057561.0,1669463401.901
2056943.0,1669463402.018
2057982.0,1669463402.291
2058976.0,1669463402.33
2057227.0,1669463402.252
2060126.0,1669463402.369
2060889.0,1669463402.408
2066347.0,1669463402.603
2062023.0,1669463402.447
2062906.0,1669463402.486
2064321.0,1669463402.525
2067794.0,1669463402.642
2065663.0,1669463402.564
2069059.0,1669463402.681
2068911.0,1669463402.72
2065503.0,1669463402.798
2064507.0,1669463402.876
2064786.0,1669463402.915
2066938.0,1669463402.759
2065023.0,1669463402.837
2065516.0,1669463402.954
2066306.0,1669463402.993
2066637.0,1669463403.032
2067122.0,1669463403.071
2067643.0,1669463403.11
2069455.0,1669463403.188
2068300.0,1669463403.149
2070534.0,1669463403.227
2071747.0,1669463403.266
2072832.0,1669463403.305
2074178.0,1669463403.344
2075467.0,1669463403.383
2076913.0,1669463403.422
2078576.0,1669463403.461
2080488.0,1669463403.5
2082105.0,1669463403.539
2083307.0,1669463403.578
2085153.0,1669463403.617
2085246.0,1669463403.656
2084437.0,1669463403.695
2083988.0,1669463403.734
2083923.0,1669463403.773
2084523.0,1669463403.812
2085367.0,1669463403.851
2086101.0,1669463403.89
2087216.0,1669463403.929
2088088.0,1669463403.968
2089248.0,1669463404.007
2089887.0,1669463404.046
2091144.0,1669463404.085
2092251.0,1669463404.124
2093683.0,1669463404.163
2095281.0,1669463404.202
2096628.0,1669463404.242
2098370.0,1669463404.282
2099704.0,1669463404.322
2101492.0,1669463404.362
2103175.0,1669463404.402
2104960.0,1669463404.442
2106730.0,1669463404.482
2108422.0,1669463404.522
2110041.0,1669463404.562
2111848.0,1669463404.602
2113597.0,1669463404.642
2114554.0,1669463404.682
2114647.0,1669463404.722
2112599.0,1669463404.762
2111737.0,1669463404.802
2112267.0,1669463404.842
2111707.0,1669463404.882
2112027.0,1669463404.922
2114513.0,1669463404.962
2118122.0,1669463405.002
2118562.0,1669463405.042
2119293.0,1669463405.082
2121331.0,1669463405.122
2124239.0,1669463405.162
2126966.0,1669463405.202
2129884.0,1669463405.242
2132381.0,1669463405.282
2133565.0,1669463405.322
2135407.0,1669463405.362
2136531.0,1669463405.402
2138779.0,1669463405.442
2140751.0,1669463405.482
2142444.0,1669463405.522
2140415.0,1669463405.562
2138310.0,1669463405.602
2136958.0,1669463405.642
2135094.0,1669463405.682
2132758.0,1669463405.722
2131348.0,1669463405.762
2130750.0,1669463405.802
2131137.0,1669463405.842
2131429.0,1669463405.882
2131949.0,1669463405.922
2134277.0,1669463405.962
2137501.0,1669463406.002
2141438.0,1669463406.042
2147208.0,1669463406.082
2150599.0,1669463406.122
2154358.0,1669463406.162
2156958.0,1669463406.202
2162756.0,1669463406.242
2168939.0,1669463406.282
2168939.0,1669463406.322
2171443.0,1669463406.362
2169462.0,1669463406.402
2165967.0,1669463406.442
2164855.0,1669463406.482
2169723.0,1669463406.522
2174690.0,1669463406.562
2181432.0,1669463406.602
2187708.0,1669463406.642
2193973.0,1669463406.682
2201077.0,1669463406.722
2205909.0,1669463406.762
2209685.0,1669463406.802
2214360.0,1669463406.842
2219123.0,1669463406.882
2223110.0,1669463406.922
2226992.0,1669463406.962
2230050.0,1669463407.002
2232843.0,1669463407.042
2235616.0,1669463407.082
2238507.0,1669463407.122
2241130.0,1669463407.162
2243545.0,1669463407.202
2246396.0,1669463407.242
2249915.0,1669463407.282
2252618.0,1669463407.322
2255971.0,1669463407.362
2259798.0,1669463407.402
2262984.0,1669463407.442
2265938.0,1669463407.482
2268762.0,1669463407.522
2270693.0,1669463407.562
2272778.0,1669463407.602
2275240.0,1669463407.642
2276903.0,1669463407.682
2278422.0,1669463407.722
2278433.0,1669463407.762
2278000.0,1669463407.802
2278931.0,1669463407.842
2280075.0,1669463407.882
2281247.0,1669463407.922
2282612.0,1669463407.962
2284133.0,1669463408.002
2285281.0,1669463408.042
2286410.0,1669463408.082
2287768.0,1669463408.122
2289154.0,1669463408.162
2290285.0,1669463408.202
2291947.0,1669463408.242
2292954.0,1669463408.282
2294495.0,1669463408.322
2296044.0,1669463408.362
2297176.0,1669463408.402
2298230.0,1669463408.442
2299681.0,1669463408.482
2301387.0,1669463408.522
2302609.0,1669463408.562
2303702.0,1669463408.602
2304817.0,1669463408.642
2306299.0,1669463408.682
2307652.0,1669463408.722
2308435.0,1669463408.762
2308048.0,1669463408.802
2307546.0,1669463408.842
2307758.0,1669463408.882
2308359.0,1669463408.922
2309033.0,1669463408.962
2309417.0,1669463409.002
2309913.0,1669463409.042
2310208.0,1669463409.082
2310979.0,1669463409.122
2311591.0,1669463409.162
2312146.0,1669463409.202
2312802.0,1669463409.242
2313573.0,1669463409.282
2314160.0,1669463409.322
2315384.0,1669463409.362
2316526.0,1669463409.402
2317266.0,1669463409.442
2318303.0,1669463409.482
2319514.0,1669463409.522
2320613.0,1669463409.562
2321571.0,1669463409.602
2322499.0,1669463409.642
2323463.0,1669463409.682
2324866.0,1669463409.722
2325752.0,1669463409.762
2325963.0,1669463409.802
2325413.0,1669463409.842
2325034.0,1669463409.882
2325278.0,1669463409.922
2325440.0,1669463409.962
2325885.0,1669463410.002
2326702.0,1669463410.042
2327017.0,1669463410.082
2327560.0,1669463410.122
2328526.0,1669463410.162
2329020.0,1669463410.202
2329819.0,1669463410.242
2330586.0,1669463410.282
2330966.0,1669463410.322
2331907.0,1669463410.362
2332939.0,1669463410.402
2333934.0,1669463410.442
2334534.0,1669463410.482
2335287.0,1669463410.522
2336091.0,1669463410.562
2337152.0,1669463410.602
2337984.0,1669463410.642
2338503.0,1669463410.682
2339408.0,1669463410.722
2340261.0,1669463410.762
2341548.0,1669463410.802
2341647.0,1669463410.842
2340886.0,1669463410.882
2340302.0,1669463410.922
2339660.0,1669463410.962
2339592.0,1669463411.002
2339769.0,1669463411.042
2339441.0,1669463411.082
2339727.0,1669463411.122
2340295.0,1669463411.162
2340342.0,1669463411.202
2340560.0,1669463411.242
2341014.0,1669463411.282
2341571.0,1669463411.322
2342343.0,1669463411.362
2342685.0,1669463411.402
2343628.0,1669463411.442
2343904.0,1669463411.482
2344596.0,1669463411.522
2345281.0,1669463411.562
2345990.0,1669463411.602
2347042.0,1669463411.642
2347259.0,1669463411.682
2348194.0,1669463411.722
2348972.0,1669463411.751
2349384.0,1669463411.793
2350159.0,1669463411.831
2350787.0,1669463411.872
2350500.0,1669463411.913
2349220.0,1669463411.952
2347900.0,1669463411.993
2347246.0,1669463412.033
2346567.0,1669463412.072
2346686.0,1669463412.112
2346253.0,1669463412.153
2346300.0,1669463412.19
2346669.0,1669463412.23
2346201.0,1669463412.271
2346092.0,1669463412.31
2346101.0,1669463412.351
2346626.0,1669463412.392
2346897.0,1669463412.431
2347155.0,1669463412.469
2347155.0,1669463412.503
2347607.0,1669463412.542
2348127.0,1669463412.583
2348744.0,1669463412.624
2349133.0,1669463412.663
2349763.0,1669463412.703
2350334.0,1669463412.744
2350684.0,1669463412.784
2352310.0,1669463412.903
2351380.0,1669463412.823
2352893.0,1669463412.943
2353548.0,1669463412.985
2353786.0,1669463413.023
2352820.0,1669463413.063
2351091.0,1669463413.105
2349868.0,1669463413.144
2348774.0,1669463413.184
2348469.0,1669463413.225
2347992.0,1669463413.264
2348239.0,1669463413.304
2348014.0,1669463413.345
2347926.0,1669463413.385
2347402.0,1669463413.424
2347315.0,1669463413.465
2347599.0,1669463413.544
2347811.0,1669463413.586
2348011.0,1669463413.625
2347362.0,1669463413.504
2348946.0,1669463413.665
2349554.0,1669463413.743
2352113.0,1669463413.937
2352846.0,1669463413.977
2350393.0,1669463413.817
2351147.0,1669463413.856
2350128.0,1669463413.784
2349021.0,1669463413.707
2353412.0,1669463414.016
2351728.0,1669463413.896
2353192.0,1669463414.057
2351609.0,1669463414.096
2351870.0,1669463412.864
2349479.0,1669463414.136
2347831.0,1669463414.178
2346881.0,1669463414.217
2345574.0,1669463414.257
2345035.0,1669463414.298
2344635.0,1669463414.337
2344164.0,1669463414.378
2343566.0,1669463414.418
2342392.0,1669463414.535
2342585.0,1669463414.497
2342100.0,1669463414.572
2341873.0,1669463414.612
2341664.0,1669463414.654
2343150.0,1669463414.457
2341889.0,1669463414.692
2342280.0,1669463414.775
2342116.0,1669463414.733
2342809.0,1669463414.854
2342547.0,1669463414.813
2342993.0,1669463414.893
2343171.0,1669463414.932
2343666.0,1669463414.973
2343933.0,1669463415.014
2344542.0,1669463415.046
2344841.0,1669463415.086
2343218.0,1669463415.127
2339627.0,1669463415.167
2336631.0,1669463415.206
2334479.0,1669463415.248
2332397.0,1669463415.287
2330634.0,1669463415.327
2329420.0,1669463415.368
2328464.0,1669463415.407
2327359.0,1669463415.447
2326191.0,1669463415.488
2324701.0,1669463415.527
2323960.0,1669463415.568
2323183.0,1669463415.608
2322224.0,1669463415.648
2321732.0,1669463415.688
2321505.0,1669463415.729
2321632.0,1669463415.766
2321702.0,1669463415.806
2321273.0,1669463415.843
2321516.0,1669463415.872
2321239.0,1669463415.912
2321594.0,1669463415.954
2321790.0,1669463415.993
2322100.0,1669463416.033
2322343.0,1669463416.074
2322260.0,1669463416.114
2320205.0,1669463416.152
2316148.0,1669463416.193
2311927.0,1669463416.232
2311927.0,1669463416.266
2307829.0,1669463416.308
2304907.0,1669463416.347
2301836.0,1669463416.387
2299664.0,1669463416.428
2297763.0,1669463416.467
2295633.0,1669463416.507
2293656.0,1669463416.549
2291818.0,1669463416.587
2289915.0,1669463416.627
2288430.0,1669463416.668
2287068.0,1669463416.707
2285867.0,1669463416.748
2284987.0,1669463416.789
2284365.0,1669463416.828
2283619.0,1669463416.868
2283013.0,1669463416.909
2282458.0,1669463416.949
2282167.0,1669463416.986
2281696.0,1669463417.024
2281514.0,1669463417.055
2281722.0,1669463417.095
2281178.0,1669463417.135
2279323.0,1669463417.174
2274229.0,1669463417.214
2269078.0,1669463417.255
2264847.0,1669463417.294
2260744.0,1669463417.335
2257312.0,1669463417.376
2254532.0,1669463417.413
2252708.0,1669463417.454
2250395.0,1669463417.494
2247793.0,1669463417.532
2245624.0,1669463417.571
2243391.0,1669463417.612
2241760.0,1669463417.651
2240593.0,1669463417.691
2239558.0,1669463417.733
2238765.0,1669463417.771
2238190.0,1669463417.811
2237534.0,1669463417.852
2236925.0,1669463417.891
2236765.0,1669463417.932
2236331.0,1669463417.973
2236134.0,1669463418.012
2236610.0,1669463418.093
2236737.0,1669463418.133
2236399.0,1669463418.052
2236582.0,1669463418.214
2237035.0,1669463418.172
2232906.0,1669463418.253
2223729.0,1669463418.336
2227840.0,1669463418.293
2220178.0,1669463418.374
2217249.0,1669463418.414
2214314.0,1669463418.456
2212355.0,1669463418.495
2210901.0,1669463418.536
2209412.0,1669463418.577
2207610.0,1669463418.616
2206192.0,1669463418.654
2205415.0,1669463418.696
2204703.0,1669463418.726
2204403.0,1669463418.765
2204432.0,1669463418.806
2204323.0,1669463418.845
2204721.0,1669463418.885
2205164.0,1669463418.927
2205156.0,1669463418.966
2205894.0,1669463419.006
2206775.0,1669463419.047
2207399.0,1669463419.086
2208254.0,1669463419.127
2209506.0,1669463419.167
2210625.0,1669463419.206
2211589.0,1669463419.246
2212974.0,1669463419.287
2212866.0,1669463419.327
2210322.0,1669463419.366
2207300.0,1669463419.408
2205297.0,1669463419.442
2204013.0,1669463419.473
2202773.0,1669463419.514
2201910.0,1669463419.554
2201432.0,1669463419.593
2201480.0,1669463419.635
2201362.0,1669463419.674
2201109.0,1669463419.715
2201430.0,1669463419.755
2201965.0,1669463419.794
2202779.0,1669463419.835
2203651.0,1669463419.876
2204661.0,1669463419.916
2205467.0,1669463419.955
2206474.0,1669463419.996
2208108.0,1669463420.035
2209422.0,1669463420.075
2210543.0,1669463420.117
2212409.0,1669463420.155
2213640.0,1669463420.196
2215011.0,1669463420.237
2216537.0,1669463420.276
2218301.0,1669463420.317
2219889.0,1669463420.357
2221658.0,1669463420.396
2223253.0,1669463420.436
2222705.0,1669463420.477
2221514.0,1669463420.517
2220969.0,1669463420.556
2220998.0,1669463420.597
2220924.0,1669463420.636
2221340.0,1669463420.674
2221792.0,1669463420.716
2222574.0,1669463420.755
2223166.0,1669463420.795
2223935.0,1669463420.836
2224325.0,1669463420.875
2225533.0,1669463420.916
2226713.0,1669463420.957
2227556.0,1669463420.996
2228927.0,1669463421.034
2230148.0,1669463421.076
2231582.0,1669463421.115
2233123.0,1669463421.155
2234652.0,1669463421.196
2236157.0,1669463421.235
2237950.0,1669463421.275
2239698.0,1669463421.317
2241553.0,1669463421.355
2243212.0,1669463421.396
2245365.0,1669463421.437
2246991.0,1669463421.476
2248290.0,1669463421.516
2248092.0,1669463421.557
2247011.0,1669463421.596
2246669.0,1669463421.636
2247048.0,1669463421.677
2247340.0,1669463421.717
2247650.0,1669463421.756
2248031.0,1669463421.797
2249281.0,1669463421.836
2249790.0,1669463421.876
2250344.0,1669463421.918
2251037.0,1669463421.957
2251689.0,1669463421.997
2252481.0,1669463422.038
2253323.0,1669463422.077
2254720.0,1669463422.116
2255734.0,1669463422.156
2256941.0,1669463422.196
2256941.0,1669463422.229
2257981.0,1669463422.27
2259420.0,1669463422.31
2260594.0,1669463422.349
2262092.0,1669463422.391
2263467.0,1669463422.429
2264812.0,1669463422.47
2266381.0,1669463422.511
2267590.0,1669463422.55
2268953.0,1669463422.59
2270603.0,1669463422.631
2271765.0,1669463422.67
2271505.0,1669463422.711
2270386.0,1669463422.751
2269662.0,1669463422.791
2268770.0,1669463422.83
2268648.0,1669463422.871
2268830.0,1669463422.911
2268757.0,1669463422.952
2269111.0,1669463422.992
2269239.0,1669463423.028
2269541.0,1669463423.064
2269648.0,1669463423.106
2269920.0,1669463423.137
2270452.0,1669463423.177
2271458.0,1669463423.219
2271831.0,1669463423.258
2272656.0,1669463423.299
2273684.0,1669463423.34
2274933.0,1669463423.379
2275942.0,1669463423.416
2276676.0,1669463423.458
2277653.0,1669463423.498
2278757.0,1669463423.536
2279849.0,1669463423.578
2281094.0,1669463423.617
2282431.0,1669463423.707
2283427.0,1669463423.748
2284264.0,1669463423.787
2285049.0,1669463423.827
2283901.0,1669463423.868
2282516.0,1669463423.907
2281224.0,1669463423.948
2280891.0,1669463423.988
2280417.0,1669463424.027
2280208.0,1669463424.067
2280188.0,1669463424.108
2280286.0,1669463424.148
2280119.0,1669463424.187
2280141.0,1669463424.229
2280541.0,1669463424.268
2280542.0,1669463424.308
2281084.0,1669463424.351
2281638.0,1669463424.389
2282273.0,1669463424.427
2283354.0,1669463424.469
2283854.0,1669463424.507
2284421.0,1669463424.548
2285676.0,1669463424.588
2286506.0,1669463424.625
2287150.0,1669463424.665
2288379.0,1669463424.707
2289508.0,1669463424.747
2290257.0,1669463424.787
2291572.0,1669463424.819
2292010.0,1669463424.858
2290537.0,1669463424.898
2288592.0,1669463424.94
2287003.0,1669463424.978
2285644.0,1669463425.018
2284660.0,1669463425.059
2283673.0,1669463425.098
2283121.0,1669463425.139
2283192.0,1669463425.179
2282625.0,1669463425.219
2282257.0,1669463425.259
2282341.0,1669463425.3
2282106.0,1669463425.339
2282138.0,1669463425.379
2282199.0,1669463425.42
2283109.0,1669463425.459
2282966.0,1669463425.499
2283336.0,1669463425.535
2283882.0,1669463425.569
2284712.0,1669463425.607
2285351.0,1669463425.648
2285316.0,1669463425.687
2285879.0,1669463425.728
2285801.0,1669463425.769
2286448.0,1669463425.808
2287285.0,1669463425.848
2287520.0,1669463425.89
2287332.0,1669463425.929
2284864.0,1669463425.967
2282463.0,1669463426.008
2280377.0,1669463426.048
2278866.0,1669463426.089
2277263.0,1669463426.13
2275759.0,1669463426.169
2275081.0,1669463426.209
2274790.0,1669463426.25
2274127.0,1669463426.289
2273405.0,1669463426.33
2272629.0,1669463426.37
2271714.0,1669463426.409
2271324.0,1669463426.449
2271285.0,1669463426.49
2271408.0,1669463426.53
2271406.0,1669463426.569
2271688.0,1669463426.611
2271639.0,1669463426.65
2271589.0,1669463426.69
2272057.0,1669463426.731
2272392.0,1669463426.767
2273106.0,1669463426.808
2273187.0,1669463426.849
2273796.0,1669463426.888
2274609.0,1669463426.929
2274938.0,1669463426.97
2274177.0,1669463427.009
2271579.0,1669463427.049
2269434.0,1669463427.09
2268035.0,1669463427.128
2266655.0,1669463427.168
2265611.0,1669463427.209
2264252.0,1669463427.248
2264252.0,1669463427.282
2263875.0,1669463427.324
2263232.0,1669463427.362
2262566.0,1669463427.402
2262204.0,1669463427.443
2261637.0,1669463427.482
2261743.0,1669463427.523
2261552.0,1669463427.564
2261677.0,1669463427.603
2261770.0,1669463427.643
2261773.0,1669463427.684
2262381.0,1669463427.724
2262702.0,1669463427.763
2262994.0,1669463427.804
2263656.0,1669463427.843
2263905.0,1669463427.883
2264869.0,1669463427.925
2265283.0,1669463427.964
2265716.0,1669463428.005
2265711.0,1669463428.046
2264009.0,1669463428.086
2262019.0,1669463428.126
2259619.0,1669463428.167
2256959.0,1669463428.207
2255534.0,1669463428.248
2254480.0,1669463428.289
2254436.0,1669463428.329
2254027.0,1669463428.368
2253908.0,1669463428.409
2254559.0,1669463428.448
2254302.0,1669463428.489
2255077.0,1669463428.526
2256002.0,1669463428.565
2256587.0,1669463428.605
2257546.0,1669463428.646
2257960.0,1669463428.685
2258666.0,1669463428.726
2259519.0,1669463428.766
2260349.0,1669463428.805
2261606.0,1669463428.845
2262273.0,1669463428.887
2262847.0,1669463428.926
2263974.0,1669463428.966
2264374.0,1669463429.007
2263584.0,1669463429.046
2262052.0,1669463429.086
2260575.0,1669463429.128
2259374.0,1669463429.166
2259354.0,1669463429.207
2259810.0,1669463429.248
2260726.0,1669463429.287
2262087.0,1669463429.329
2263115.0,1669463429.37
2263570.0,1669463429.409
2263495.0,1669463429.449
2263277.0,1669463429.49
2263499.0,1669463429.53
2263691.0,1669463429.569
2264168.0,1669463429.61
2263735.0,1669463429.65
2262947.0,1669463429.692
2262328.0,1669463429.734
2259789.0,1669463429.772
2256176.0,1669463429.812
2254400.0,1669463429.853
2253008.0,1669463429.892
2252026.0,1669463429.933
2250144.0,1669463429.974
2247261.0,1669463430.013
2242378.0,1669463430.053
2237586.0,1669463430.094
2231997.0,1669463430.133
2227569.0,1669463430.173
2220367.0,1669463430.214
2210126.0,1669463430.253
2201744.0,1669463430.293
2195288.0,1669463430.335
2193089.0,1669463430.373
2194958.0,1669463430.413
2197322.0,1669463430.453
2198994.0,1669463430.489
2202904.0,1669463430.53
2202866.0,1669463430.571
2203883.0,1669463430.61
2205183.0,1669463430.65
2209297.0,1669463430.692
2212431.0,1669463430.732
2210736.0,1669463430.771
2212545.0,1669463430.812
2213977.0,1669463430.85
2215305.0,1669463430.89
2223212.0,1669463430.932
2226571.0,1669463430.961
2226882.0,1669463431.001
2227419.0,1669463431.042
2226420.0,1669463431.081
2226122.0,1669463431.122
2226218.0,1669463431.163
2226222.0,1669463431.202
2227900.0,1669463431.242
2227419.0,1669463431.283
2227888.0,1669463431.323
2227390.0,1669463431.362
2227951.0,1669463431.403
2229203.0,1669463431.442
2231054.0,1669463431.482
2233151.0,1669463431.524
2234703.0,1669463431.562
2236514.0,1669463431.602
2237702.0,1669463431.644
2238392.0,1669463431.679
2240018.0,1669463431.721
2241324.0,1669463431.754
2241572.0,1669463431.793
2241036.0,1669463431.831
2240017.0,1669463431.873
2238523.0,1669463431.912
2236632.0,1669463431.952
2234519.0,1669463431.993
2232828.0,1669463432.032
2231256.0,1669463432.072
2228106.0,1669463432.115
2225602.0,1669463432.153
2222131.0,1669463432.19
2219067.0,1669463432.232
2216629.0,1669463432.271
2215486.0,1669463432.311
2213369.0,1669463432.352
2212482.0,1669463432.391
2211842.0,1669463432.431
2212248.0,1669463432.472
2212915.0,1669463432.512
2213772.0,1669463432.551
2215010.0,1669463432.592
2214698.0,1669463432.631
2212938.0,1669463432.671
2211008.0,1669463432.713
2209740.0,1669463432.752
2209267.0,1669463432.792
2209501.0,1669463432.833
2208930.0,1669463432.872
2208773.0,1669463432.913
2208437.0,1669463432.954
2207405.0,1669463432.993
2206726.0,1669463433.032
2206106.0,1669463433.073
2206285.0,1669463433.113
2208143.0,1669463433.152
2210494.0,1669463433.194
2212733.0,1669463433.233
2215012.0,1669463433.273
2215590.0,1669463433.315
2214186.0,1669463433.354
2212462.0,1669463433.392
2211883.0,1669463433.424
2210151.0,1669463433.463
2209868.0,1669463433.504
2208233.0,1669463433.544
2207339.0,1669463433.584
2206752.0,1669463433.624
2207014.0,1669463433.665
2210786.0,1669463433.704
2219250.0,1669463433.744
2223020.0,1669463433.785
2226030.0,1669463433.824
2229167.0,1669463433.864
2228736.0,1669463433.906
2230004.0,1669463433.944
2233033.0,1669463433.984
2234379.0,1669463434.025
2237035.0,1669463434.064
2240899.0,1669463434.105
2242276.0,1669463434.141
2242101.0,1669463434.18
2245517.0,1669463434.214
2249777.0,1669463434.252
2253869.0,1669463434.292
2257214.0,1669463434.332
2260314.0,1669463434.373
2264936.0,1669463434.412
2270176.0,1669463434.453
2274487.0,1669463434.495
2276920.0,1669463434.533
2279332.0,1669463434.573
2281504.0,1669463434.613
2281504.0,1669463434.648
2283562.0,1669463434.689
2283642.0,1669463434.729
2283636.0,1669463434.768
2282013.0,1669463434.808
2281489.0,1669463434.849
2279719.0,1669463434.889
2277258.0,1669463434.929
2274609.0,1669463434.97
2270807.0,1669463435.009
2268705.0,1669463435.049
2266214.0,1669463435.091
2265695.0,1669463435.129
2267702.0,1669463435.169
2270987.0,1669463435.21
2273160.0,1669463435.249
2275871.0,1669463435.29
2279163.0,1669463435.33
2282623.0,1669463435.37
2286059.0,1669463435.41
2288580.0,1669463435.451
2290901.0,1669463435.492
2292835.0,1669463435.532
2293737.0,1669463435.574
2294184.0,1669463435.612
2294671.0,1669463435.651
2295898.0,1669463435.69
2297102.0,1669463435.729
2298499.0,1669463435.768
2299759.0,1669463435.807
2283121.0,1669463436.353
2283322.0,1669463436.392
2283286.0,1669463436.431
2288492.0,1669463435.963
2292328.0,1669463435.924
2283353.0,1669463436.08
2281532.0,1669463436.119
2282248.0,1669463436.158
2282887.0,1669463436.197
2284001.0,1669463436.236
2285141.0,1669463436.041
2283516.0,1669463436.275
2286409.0,1669463436.002
2295161.0,1669463435.885
2282947.0,1669463436.314
2298651.0,1669463435.846
2284092.0,1669463436.47
2284836.0,1669463436.509
2285363.0,1669463436.548
2285040.0,1669463436.587
2284033.0,1669463436.626
2284434.0,1669463436.665
2285154.0,1669463436.704
2285216.0,1669463436.743
2287396.0,1669463436.782
2296118.0,1669463436.821
2304782.0,1669463436.86
2312712.0,1669463436.899
2320079.0,1669463436.938
2325320.0,1669463436.977
2328801.0,1669463437.016
2331670.0,1669463437.055
2333129.0,1669463437.094
2334943.0,1669463437.133
2336879.0,1669463437.172
2338108.0,1669463437.211
2340284.0,1669463437.25
2341708.0,1669463437.289
2343827.0,1669463437.328
2345184.0,1669463437.367
2346456.0,1669463437.406
2347598.0,1669463437.445
2348995.0,1669463437.484
2349718.0,1669463437.523
2349267.0,1669463437.562
2348582.0,1669463437.601
2347896.0,1669463437.64
2348424.0,1669463437.679
2348258.0,1669463437.718
2348232.0,1669463437.757
2348387.0,1669463437.796
2349146.0,1669463437.835
2349215.0,1669463437.874
2348974.0,1669463437.913
2349335.0,1669463437.952
2349655.0,1669463437.991
2349859.0,1669463438.03
2350124.0,1669463438.069
2350688.0,1669463438.108
2351394.0,1669463438.147
2351471.0,1669463438.186
2351947.0,1669463438.225
2352549.0,1669463438.264
2353341.0,1669463438.303
2353710.0,1669463438.342
2354945.0,1669463438.381
2355705.0,1669463438.42
2355922.0,1669463438.459
2355778.0,1669463438.498
2354736.0,1669463438.537
2348905.0,1669463438.576
2343539.0,1669463438.615
2339895.0,1669463438.654
2338274.0,1669463438.693
2337599.0,1669463438.732
2338682.0,1669463438.771
2338263.0,1669463438.81
2338355.0,1669463438.849
2338217.0,1669463438.888
2337235.0,1669463438.927
2337236.0,1669463438.966
2337557.0,1669463439.005
2337977.0,1669463439.044
2337870.0,1669463439.083
2337122.0,1669463439.122
2337983.0,1669463439.161
2339176.0,1669463439.2
2341266.0,1669463439.239
2344587.0,1669463439.278
2346241.0,1669463439.317
2348094.0,1669463439.356
2348662.0,1669463439.395
2349501.0,1669463439.434
2350213.0,1669463439.473
2349006.0,1669463439.512
2347413.0,1669463439.551
2346028.0,1669463439.591
2345075.0,1669463439.631
2343955.0,1669463439.671
2343937.0,1669463439.711
2344410.0,1669463439.751
2344201.0,1669463439.791
2343834.0,1669463439.831
2342255.0,1669463439.871
2341424.0,1669463439.911
2340617.0,1669463439.951
2340097.0,1669463439.991
2339601.0,1669463440.031
2338713.0,1669463440.071
2338649.0,1669463440.111
2338506.0,1669463440.151
2337807.0,1669463440.191
2337827.0,1669463440.231
2338084.0,1669463440.271
2338111.0,1669463440.311
2338148.0,1669463440.351
2337891.0,1669463440.391
2337735.0,1669463440.431
2335073.0,1669463440.471
2331432.0,1669463440.511
2328197.0,1669463440.551
2325705.0,1669463440.591
2323184.0,1669463440.631
2320748.0,1669463440.671
2319002.0,1669463440.711
2319002.0,1669463440.751
2316946.0,1669463440.791
2314433.0,1669463440.831
2311774.0,1669463440.871
2309271.0,1669463440.911
2306358.0,1669463440.951
2301897.0,1669463440.991
2298044.0,1669463441.031
2293804.0,1669463441.071
2287575.0,1669463441.111
2281853.0,1669463441.151
2278416.0,1669463441.191
2276186.0,1669463441.231
2274630.0,1669463441.271
2272054.0,1669463441.311
2269424.0,1669463441.351
2266243.0,1669463441.391
2263397.0,1669463441.431
2261646.0,1669463441.471
2257075.0,1669463441.511
2252874.0,1669463441.551
2246796.0,1669463441.591
2243766.0,1669463441.631
2242653.0,1669463441.671
2238396.0,1669463441.711
2234676.0,1669463441.751
2232922.0,1669463441.791
2231214.0,1669463441.831
2231733.0,1669463441.871
2232405.0,1669463441.911
2234737.0,1669463441.951
2234646.0,1669463441.991
2235023.0,1669463442.031
2234547.0,1669463442.071
2234671.0,1669463442.111
2234949.0,1669463442.151
2234700.0,1669463442.191
2234101.0,1669463442.231
2233310.0,1669463442.271
2232521.0,1669463442.311
2231978.0,1669463442.351
2231901.0,1669463442.391
2231897.0,1669463442.431
2231762.0,1669463442.471
2231577.0,1669463442.511
2229210.0,1669463442.551
2226000.0,1669463442.591
2223385.0,1669463442.631
2221235.0,1669463442.671
2219373.0,1669463442.711
2217717.0,1669463442.751
2216239.0,1669463442.791
2215118.0,1669463442.831
2214105.0,1669463442.871
2213119.0,1669463442.911
2212064.0,1669463442.951
2211300.0,1669463442.991
2210802.0,1669463443.031
2210071.0,1669463443.071
2209600.0,1669463443.111
2209213.0,1669463443.151
2209165.0,1669463443.191
2209057.0,1669463443.231
2208692.0,1669463443.271
2208712.0,1669463443.311
2208799.0,1669463443.351
2208901.0,1669463443.391
2209264.0,1669463443.431
2208984.0,1669463443.471
2204284.0,1669463443.511
2196618.0,1669463443.551
2188001.0,1669463443.591
2188011.0,1669463443.631
2194753.0,1669463443.671
2202116.0,1669463443.711
2205599.0,1669463443.751
2206730.0,1669463443.791
2207363.0,1669463443.831
2208114.0,1669463443.871
2209551.0,1669463443.911
2209156.0,1669463443.951
2209802.0,1669463443.991
2211448.0,1669463444.031
2212018.0,1669463444.071
2212540.0,1669463444.111
2213223.0,1669463444.151
2213398.0,1669463444.191
2213664.0,1669463444.231
2213405.0,1669463444.271
2212747.0,1669463444.311
2211653.0,1669463444.351
2211224.0,1669463444.391
2211051.0,1669463444.431
2211128.0,1669463444.471
2211184.0,1669463444.511
2209383.0,1669463444.551
2207027.0,1669463444.591
2204743.0,1669463444.631
2202951.0,1669463444.671
2201098.0,1669463444.711
2199951.0,1669463444.751
2199214.0,1669463444.791
2198452.0,1669463444.831
2197725.0,1669463444.871
2196926.0,1669463444.911
2196195.0,1669463444.951
2195745.0,1669463444.991
2195610.0,1669463445.031
2195426.0,1669463445.071
2195730.0,1669463445.111
2195717.0,1669463445.151
2196215.0,1669463445.191
2196663.0,1669463445.231
2196858.0,1669463445.271
2197859.0,1669463445.311
2198210.0,1669463445.351
2198862.0,1669463445.391
2199492.0,1669463445.431
2200010.0,1669463445.471
2201214.0,1669463445.511
2200799.0,1669463445.551
2198939.0,1669463445.591
2196763.0,1669463445.631
2195091.0,1669463445.671
2193958.0,1669463445.711
2192419.0,1669463445.751
2190883.0,1669463445.791
2189830.0,1669463445.831
2187959.0,1669463445.871
2179893.0,1669463445.911
2172932.0,1669463445.951
2168685.0,1669463445.991
2164581.0,1669463446.031
2162613.0,1669463446.071
2160115.0,1669463446.111
2157953.0,1669463446.151
2156449.0,1669463446.191
2155514.0,1669463446.231
2156058.0,1669463446.271
2156188.0,1669463446.311
2156176.0,1669463446.351
2157724.0,1669463446.391
2158729.0,1669463446.431
2160267.0,1669463446.471
2161642.0,1669463446.511
2163391.0,1669463446.551
2164069.0,1669463446.591
2164264.0,1669463446.631
2166122.0,1669463446.671
2168918.0,1669463446.711
2169901.0,1669463446.751
2169280.0,1669463446.791
2169632.0,1669463446.831
2170167.0,1669463446.871
2170167.0,1669463446.911
2170596.0,1669463446.951
2171631.0,1669463446.991
2173096.0,1669463447.031
2174174.0,1669463447.071
2175573.0,1669463447.111
2176832.0,1669463447.151
2178546.0,1669463447.191
2180339.0,1669463447.231
2181398.0,1669463447.271
2182929.0,1669463447.311
2184593.0,1669463447.351
2186197.0,1669463447.391
2188139.0,1669463447.431
2189737.0,1669463447.471
2191710.0,1669463447.511
2193330.0,1669463447.537
2195047.0,1669463447.58
2196142.0,1669463447.617
2195538.0,1669463447.658
2194470.0,1669463447.699
2193868.0,1669463447.738
2193828.0,1669463447.778
2193510.0,1669463447.819
2193340.0,1669463447.858
2193511.0,1669463447.898
2193886.0,1669463447.939
2193883.0,1669463447.979
2193991.0,1669463448.019
2194276.0,1669463448.06
2194299.0,1669463448.099
2194659.0,1669463448.134
2192299.0,1669463448.176
2186215.0,1669463448.214
2178642.0,1669463448.254
2171119.0,1669463448.295
2170815.0,1669463448.334
2177912.0,1669463448.375
2183581.0,1669463448.416
2189778.0,1669463448.455
2195057.0,1669463448.495
2198945.0,1669463448.536
2202664.0,1669463448.576
2206009.0,1669463448.615
2208160.0,1669463448.656
2209505.0,1669463448.695
2210117.0,1669463448.735
2211405.0,1669463448.777
2213726.0,1669463448.857
2213883.0,1669463448.896
2212366.0,1669463448.933
2210092.0,1669463448.97
2204446.0,1669463449.002
2198465.0,1669463449.04
2193482.0,1669463449.081
2192125.0,1669463449.122
2190923.0,1669463449.162
2212319.0,1669463448.815
2189971.0,1669463449.202
2191666.0,1669463449.243
2192370.0,1669463449.282
2192759.0,1669463449.32
2194515.0,1669463449.394
2195581.0,1669463449.434
2196460.0,1669463449.475
2200729.0,1669463449.635
2201840.0,1669463449.675
2200728.0,1669463449.716
2198251.0,1669463449.556
2197316.0,1669463449.514
2199401.0,1669463449.596
2198562.0,1669463449.756
2193353.0,1669463449.356
2197087.0,1669463449.795
2195693.0,1669463449.836
2194316.0,1669463449.875
2193517.0,1669463449.916
2193221.0,1669463449.957
2192498.0,1669463449.996
2191295.0,1669463450.076
2191815.0,1669463450.036
2190094.0,1669463450.157
2190305.0,1669463450.115
2189701.0,1669463450.198
2189533.0,1669463450.237
2189137.0,1669463450.277
2189229.0,1669463450.358
2189825.0,1669463450.439
2188360.0,1669463450.519
2182135.0,1669463450.561
2171358.0,1669463450.595
2164578.0,1669463450.635
2161317.0,1669463450.676
2189792.0,1669463450.478
2189854.0,1669463450.398
2189031.0,1669463450.319
2162991.0,1669463450.715
2162632.0,1669463450.756
2163162.0,1669463450.796
2163233.0,1669463450.835
2163609.0,1669463450.875
2165117.0,1669463450.916
2166383.0,1669463450.956
2167612.0,1669463450.996
2168575.0,1669463451.037
2168815.0,1669463451.076
2168092.0,1669463451.116
2168038.0,1669463451.158
2168936.0,1669463451.196
2166972.0,1669463451.236
2167833.0,1669463451.274
2168901.0,1669463451.308
2170660.0,1669463451.35
2173007.0,1669463451.384
2175247.0,1669463451.42
2177456.0,1669463451.461
2179471.0,1669463451.502
2181408.0,1669463451.542
2183949.0,1669463451.581
2186583.0,1669463451.623
2187337.0,1669463451.662
2187173.0,1669463451.702
2186620.0,1669463451.744
2186067.0,1669463451.781
2186067.0,1669463451.812
2185510.0,1669463451.853
2184982.0,1669463451.892
2184788.0,1669463451.933
2184897.0,1669463451.973
2184739.0,1669463452.012
2184761.0,1669463452.052
2185000.0,1669463452.093
2184887.0,1669463452.133
2185553.0,1669463452.172
2185273.0,1669463452.214
2185114.0,1669463452.253
2184801.0,1669463452.293
2183892.0,1669463452.335
2183963.0,1669463452.373
2184164.0,1669463452.413
2184708.0,1669463452.454
2185464.0,1669463452.493
2186373.0,1669463452.536
2187425.0,1669463452.568
2188308.0,1669463452.604
2188858.0,1669463452.642
2188887.0,1669463452.684
2187333.0,1669463452.722
2184928.0,1669463452.762
2182673.0,1669463452.803
2180838.0,1669463452.842
2179001.0,1669463452.882
2177499.0,1669463452.925
2176776.0,1669463452.963
2174814.0,1669463453.003
2171758.0,1669463453.04
2168097.0,1669463453.079
2165396.0,1669463453.12
2163833.0,1669463453.16
2163152.0,1669463453.199
2163085.0,1669463453.239
2162614.0,1669463453.281
2161187.0,1669463453.32
2160560.0,1669463453.36
2160717.0,1669463453.401
2160071.0,1669463453.44
2160631.0,1669463453.48
2158444.0,1669463453.522
2159241.0,1669463453.56
2159121.0,1669463453.6
2160092.0,1669463453.641
2162254.0,1669463453.68
2164288.0,1669463453.721
2164639.0,1669463453.763
2163204.0,1669463453.802
2162481.0,1669463453.842
2162102.0,1669463453.884
2161834.0,1669463453.923
2162037.0,1669463453.963
2162501.0,1669463454.004
2163196.0,1669463454.043
2163563.0,1669463454.083
2163751.0,1669463454.126
2164202.0,1669463454.164
2164615.0,1669463454.205
2165196.0,1669463454.244
2165640.0,1669463454.282
2166307.0,1669463454.323
2166826.0,1669463454.363
2167881.0,1669463454.402
2168783.0,1669463454.442
2169896.0,1669463454.484
2170698.0,1669463454.523
2171819.0,1669463454.563
2173141.0,1669463454.604
2174240.0,1669463454.643
2175550.0,1669463454.683
2176514.0,1669463454.725
2177265.0,1669463454.763
2175440.0,1669463454.803
2173841.0,1669463454.844
2172057.0,1669463454.883
2171072.0,1669463454.924
2170012.0,1669463454.966
2169455.0,1669463455.004
2168800.0,1669463455.045
2168577.0,1669463455.086
2168615.0,1669463455.126
2168050.0,1669463455.166
2168364.0,1669463455.205
2168161.0,1669463455.243
2168636.0,1669463455.283
2168672.0,1669463455.325
2168174.0,1669463455.363
2168175.0,1669463455.404
2166816.0,1669463455.445
2165792.0,1669463455.483
2165062.0,1669463455.517
2165694.0,1669463455.557
2166630.0,1669463455.596
2166953.0,1669463455.637
2167491.0,1669463455.678
2167181.0,1669463455.717
2168281.0,1669463455.757
2167032.0,1669463455.798
2166466.0,1669463455.837
2164632.0,1669463455.877
2162836.0,1669463455.919
2161244.0,1669463455.957
2160162.0,1669463455.998
2159380.0,1669463456.039
2159253.0,1669463456.078
2159755.0,1669463456.118
2160292.0,1669463456.159
2160123.0,1669463456.195
2160538.0,1669463456.229
2161369.0,1669463456.271
2161831.0,1669463456.306
2163587.0,1669463456.343
2164454.0,1669463456.384
2165612.0,1669463456.423
2166802.0,1669463456.464
2168039.0,1669463456.506
2169531.0,1669463456.545
2170505.0,1669463456.584
2171765.0,1669463456.626
2172896.0,1669463456.665
2174403.0,1669463456.704
2174403.0,1669463456.74
2174982.0,1669463456.779
2176651.0,1669463456.819
2177989.0,1669463456.861
2179356.0,1669463456.9
2179716.0,1669463456.94
2178956.0,1669463456.981
2177936.0,1669463457.02
2177379.0,1669463457.06
2177361.0,1669463457.102
2177355.0,1669463457.14
2177455.0,1669463457.18
2177831.0,1669463457.222
2178482.0,1669463457.261
2178572.0,1669463457.301
2179249.0,1669463457.342
2179495.0,1669463457.381
2180305.0,1669463457.421
2181281.0,1669463457.458
2182087.0,1669463457.498
2184325.0,1669463457.576
2183358.0,1669463457.534
2185002.0,1669463457.609
2186101.0,1669463457.687
2185340.0,1669463457.646
2187337.0,1669463457.764
2188439.0,1669463457.797
2186674.0,1669463457.725
2191038.0,1669463457.877
2191586.0,1669463457.918
2190668.0,1669463457.957
2189619.0,1669463457.837
2190056.0,1669463457.997
2187749.0,1669463458.078
2189294.0,1669463458.038
2186419.0,1669463458.117
2185183.0,1669463458.158
2184905.0,1669463458.198
2183661.0,1669463458.238
2182964.0,1669463458.28
2180921.0,1669463458.318
2182137.0,1669463458.358
2183189.0,1669463458.399
2186113.0,1669463458.438
2190094.0,1669463458.48
2193444.0,1669463458.516
2196584.0,1669463458.555
2199161.0,1669463458.588
2201437.0,1669463458.63
2203914.0,1669463458.667
2206064.0,1669463458.704
2208607.0,1669463458.745
2210681.0,1669463458.785
2213055.0,1669463458.825
2215136.0,1669463458.867
2216890.0,1669463458.905
2218536.0,1669463458.946
2218714.0,1669463458.987
2218961.0,1669463459.026
2219256.0,1669463459.065
2219736.0,1669463459.105
2220214.0,1669463459.144
2220899.0,1669463459.184
2221725.0,1669463459.225
2222988.0,1669463459.265
2223775.0,1669463459.305
2224663.0,1669463459.346
2225330.0,1669463459.385
2226633.0,1669463459.418
2228622.0,1669463459.498
2229770.0,1669463459.538
2231349.0,1669463459.579
2232389.0,1669463459.618
2233797.0,1669463459.659
2235416.0,1669463459.699
2236204.0,1669463459.738
2237547.0,1669463459.778
2239048.0,1669463459.819
2240064.0,1669463459.859
2241391.0,1669463459.899
2242564.0,1669463459.94
2242852.0,1669463459.979
2242418.0,1669463460.019
2240119.0,1669463460.061
2238555.0,1669463460.098
2227384.0,1669463459.46
2236006.0,1669463460.138
2234672.0,1669463460.179
2233918.0,1669463460.219
2234754.0,1669463460.26
2236209.0,1669463460.336
2237373.0,1669463460.376
2238183.0,1669463460.418
2236209.0,1669463460.3
2239032.0,1669463460.457
2239528.0,1669463460.497
2238242.0,1669463460.538
