bvp,time
21.26,1778927760.0
38.66,1778927760.015625
55.61,1778927760.03125
67.77,1778927760.046875
71.03,1778927760.0625
63.16,1778927760.078125
44.62,1778927760.09375
18.42,1778927760.109375
-11.04,1778927760.125
-39.39,1778927760.140625
-63.59,1778927760.15625
-82.42,1778927760.171875
-96.39,1778927760.1875
-107.05,1778927760.203125
-116.3,1778927760.21875
-125.7,1778927760.234375
-136.1,1778927760.25
-147.4,1778927760.265625
-158.58,1778927760.28125
-167.93,1778927760.296875
-173.49,1778927760.3125
-173.73,1778927760.328125
-168.04,1778927760.34375
-157.02,1778927760.359375
-142.13,1778927760.375
-125.3,1778927760.390625
-108.13,1778927760.40625
-91.57,1778927760.421875
-75.77,1778927760.4375
-60.36,1778927760.453125
-44.82,1778927760.46875
-28.85,1778927760.484375
-12.51,1778927760.5
3.86,1778927760.515625
19.91,1778927760.53125
35.7,1778927760.546875
51.91,1778927760.5625
69.72,1778927760.578125
90.42,1778927760.59375
114.7,1778927760.609375
141.92,1778927760.625
169.85,1778927760.640625
195.01,1778927760.65625
213.57,1778927760.671875
222.49,1778927760.6875
220.57,1778927760.703125
208.62,1778927760.71875
189.15,1778927760.734375
165.35,1778927760.75
140.15,1778927760.765625
115.54,1778927760.78125
92.45,1778927760.796875
71.1,1778927760.8125
51.41,1778927760.828125
33.43,1778927760.84375
17.33,1778927760.859375
3.33,1778927760.875
-8.36,1778927760.890625
-17.72,1778927760.90625
-24.88,1778927760.921875
-30.12,1778927760.9375
-34.02,1778927760.953125
-37.45,1778927760.96875
-41.48,1778927760.984375
-46.84,1778927761.0
-53.59,1778927761.015625
-60.74,1778927761.03125
-66.49,1778927761.046875
-68.81,1778927761.0625
-66.45,1778927761.078125
-59.42,1778927761.09375
-49.15,1778927761.109375
-37.81,1778927761.125
-27.54,1778927761.140625
-19.93,1778927761.15625
-15.81,1778927761.171875
-15.83,1778927761.1875
-20.74,1778927761.203125
-31.39,1778927761.21875
-48.24,1778927761.234375
-70.57,1778927761.25
-96.07,1778927761.265625
-121.2,1778927761.28125
-142.26,1778927761.296875
-156.56,1778927761.3125
-163.52,1778927761.328125
-164.71,1778927761.34375
-163.31,1778927761.359375
-163.08,1778927761.375
-167.06,1778927761.390625
-176.44,1778927761.40625
-189.91,1778927761.421875
-203.63,1778927761.4375
-212.03,1778927761.453125
-209.39,1778927761.46875
-191.64,1778927761.484375
-157.94,1778927761.5
-111.25,1778927761.515625
-57.53,1778927761.53125
-3.96,1778927761.546875
43.13,1778927761.5625
79.78,1778927761.578125
104.75,1778927761.59375
118.72,1778927761.609375
123.4,1778927761.625
120.51,1778927761.640625
111.56,1778927761.65625
98.12,1778927761.671875
81.95,1778927761.6875
65.04,1778927761.703125
49.03,1778927761.71875
34.78,1778927761.734375
22.09,1778927761.75
10.19,1778927761.765625
-1.35,1778927761.78125
-11.78,1778927761.796875
-18.97,1778927761.8125
-20.23,1778927761.828125
-13.51,1778927761.84375
1.41,1778927761.859375
22.72,1778927761.875
47.18,1778927761.890625
71.43,1778927761.90625
93.13,1778927761.921875
111.41,1778927761.9375
126.61,1778927761.953125
139.41,1778927761.96875
150.19,1778927761.984375
158.73,1778927762.0
164.5,1778927762.015625
167.12,1778927762.03125
166.71,1778927762.046875
163.83,1778927762.0625
159.2,1778927762.078125
153.26,1778927762.09375
146.04,1778927762.109375
137.25,1778927762.125
126.61,1778927762.140625
114.22,1778927762.15625
100.64,1778927762.171875
86.86,1778927762.1875
73.94,1778927762.203125
62.73,1778927762.21875
53.56,1778927762.234375
46.2,1778927762.25
39.94,1778927762.265625
33.9,1778927762.28125
27.28,1778927762.296875
19.64,1778927762.3125
11.03,1778927762.328125
1.83,1778927762.34375
-7.48,1778927762.359375
-16.59,1778927762.375
-25.53,1778927762.390625
-34.55,1778927762.40625
-43.93,1778927762.421875
-53.75,1778927762.4375
-63.84,1778927762.453125
-73.89,1778927762.46875
-83.59,1778927762.484375
-92.58,1778927762.5
-100.34,1778927762.515625
-106.13,1778927762.53125
-108.92,1778927762.546875
-107.7,1778927762.5625
-101.81,1778927762.578125
-91.16,1778927762.59375
-76.23,1778927762.609375
-57.95,1778927762.625
-37.47,1778927762.640625
-16.16,1778927762.65625
4.32,1778927762.671875
22.03,1778927762.6875
35.01,1778927762.703125
41.87,1778927762.71875
42.28,1778927762.734375
37.33,1778927762.75
29.21,1778927762.765625
20.45,1778927762.78125
12.98,1778927762.796875
7.56,1778927762.8125
3.7,1778927762.828125
0.15,1778927762.84375
-4.29,1778927762.859375
-10.07,1778927762.875
-16.68,1778927762.890625
-22.74,1778927762.90625
-26.56,1778927762.921875
-26.7,1778927762.9375
-22.49,1778927762.953125
-14.18,1778927762.96875
-2.99,1778927762.984375
9.28,1778927763.0
20.77,1778927763.015625
30.07,1778927763.03125
36.53,1778927763.046875
40.43,1778927763.0625
42.65,1778927763.078125
44.26,1778927763.09375
45.97,1778927763.109375
47.82,1778927763.125
49.2,1778927763.140625
49.08,1778927763.15625
46.44,1778927763.171875
40.77,1778927763.1875
32.35,1778927763.203125
22.39,1778927763.21875
12.74,1778927763.234375
5.44,1778927763.25
2.09,1778927763.265625
3.43,1778927763.28125
9.15,1778927763.296875
18.12,1778927763.3125
28.78,1778927763.328125
39.59,1778927763.34375
49.42,1778927763.359375
57.6,1778927763.375
63.98,1778927763.390625
68.65,1778927763.40625
71.82,1778927763.421875
73.61,1778927763.4375
74.04,1778927763.453125
73.19,1778927763.46875
71.31,1778927763.484375
68.86,1778927763.5
66.39,1778927763.515625
64.24,1778927763.53125
62.28,1778927763.546875
60.01,1778927763.5625
56.74,1778927763.578125
52.2,1778927763.59375
46.75,1778927763.609375
41.31,1778927763.625
36.94,1778927763.640625
34.3,1778927763.65625
33.37,1778927763.671875
33.47,1778927763.6875
33.74,1778927763.703125
33.32,1778927763.71875
31.62,1778927763.734375
28.15,1778927763.75
22.4,1778927763.765625
13.83,1778927763.78125
2.05,1778927763.796875
-13.03,1778927763.8125
-31.01,1778927763.828125
-51.13,1778927763.84375
-72.28,1778927763.859375
-93.13,1778927763.875
-112.04,1778927763.890625
-127.17,1778927763.90625
-136.63,1778927763.921875
-138.92,1778927763.9375
-133.47,1778927763.953125
-120.89,1778927763.96875
-102.95,1778927763.984375
-81.98,1778927764.0
-60.18,1778927764.015625
-39.03,1778927764.03125
-19.19,1778927764.046875
-0.84,1778927764.0625
15.89,1778927764.078125
30.62,1778927764.09375
42.75,1778927764.109375
51.8,1778927764.125
57.67,1778927764.140625
60.58,1778927764.15625
60.86,1778927764.171875
58.62,1778927764.1875
53.67,1778927764.203125
45.75,1778927764.21875
34.98,1778927764.234375
22.23,1778927764.25
9.07,1778927764.265625
-2.67,1778927764.28125
-11.55,1778927764.296875
-17.03,1778927764.3125
-19.6,1778927764.328125
-20.44,1778927764.34375
-20.82,1778927764.359375
-21.59,1778927764.375
-22.96,1778927764.390625
-24.59,1778927764.40625
-25.92,1778927764.421875
-26.49,1778927764.4375
-26.08,1778927764.453125
-24.79,1778927764.46875
-23.01,1778927764.484375
-21.38,1778927764.5
-20.62,1778927764.515625
-21.28,1778927764.53125
-23.29,1778927764.546875
-25.66,1778927764.5625
-26.35,1778927764.578125
-22.74,1778927764.59375
-12.49,1778927764.609375
5.49,1778927764.625
30.4,1778927764.640625
59.42,1778927764.65625
88.38,1778927764.671875
112.7,1778927764.6875
128.52,1778927764.703125
133.52,1778927764.71875
127.4,1778927764.734375
111.8,1778927764.75
89.76,1778927764.765625
64.95,1778927764.78125
40.72,1778927764.796875
19.45,1778927764.8125
2.2,1778927764.828125
-11.04,1778927764.84375
-20.87,1778927764.859375
-27.99,1778927764.875
-32.96,1778927764.890625
-36.18,1778927764.90625
-38.05,1778927764.921875
-39.04,1778927764.9375
-39.58,1778927764.953125
-39.88,1778927764.96875
-39.81,1778927764.984375
-39.03,1778927765.0
-37.34,1778927765.015625
-34.94,1778927765.03125
-32.6,1778927765.046875
-31.46,1778927765.0625
-32.56,1778927765.078125
-36.42,1778927765.09375
-42.78,1778927765.109375
-50.74,1778927765.125
-59.06,1778927765.140625
-66.73,1778927765.15625
-73.37,1778927765.171875
-79.32,1778927765.1875
-85.5,1778927765.203125
-93.0,1778927765.21875
-102.51,1778927765.234375
-113.89,1778927765.25
-125.97,1778927765.265625
-136.65,1778927765.28125
-143.43,1778927765.296875
-144.16,1778927765.3125
-137.75,1778927765.328125
-124.53,1778927765.34375
-106.15,1778927765.359375
-85.15,1778927765.375
-64.15,1778927765.390625
-45.3,1778927765.40625
-29.96,1778927765.421875
-18.68,1778927765.4375
-11.39,1778927765.453125
-7.67,1778927765.46875
-6.91,1778927765.484375
-8.39,1778927765.5
-11.39,1778927765.515625
-15.28,1778927765.53125
-19.57,1778927765.546875
-23.99,1778927765.5625
-28.45,1778927765.578125
-33.06,1778927765.59375
-37.84,1778927765.609375
-42.55,1778927765.625
-46.34,1778927765.640625
-47.76,1778927765.65625
-44.94,1778927765.671875
-36.26,1778927765.6875
-21.14,1778927765.703125
-0.59,1778927765.71875
22.72,1778927765.734375
45.27,1778927765.75
63.7,1778927765.765625
75.9,1778927765.78125
81.58,1778927765.796875
82.04,1778927765.8125
79.32,1778927765.828125
75.32,1778927765.84375
71.08,1778927765.859375
66.75,1778927765.875
61.8,1778927765.890625
55.57,1778927765.90625
47.68,1778927765.921875
38.25,1778927765.9375
28.04,1778927765.953125
18.46,1778927765.96875
11.33,1778927765.984375
8.59,1778927766.0
11.81,1778927766.015625
21.76,1778927766.03125
38.1,1778927766.046875
59.48,1778927766.0625
83.81,1778927766.078125
108.58,1778927766.09375
131.26,1778927766.109375
149.52,1778927766.125
161.51,1778927766.140625
166.15,1778927766.15625
163.33,1778927766.171875
154.02,1778927766.1875
139.91,1778927766.203125
122.81,1778927766.21875
104.06,1778927766.234375
84.26,1778927766.25
63.44,1778927766.265625
41.76,1778927766.28125
19.97,1778927766.296875
-0.26,1778927766.3125
-16.83,1778927766.328125
-27.86,1778927766.34375
-32.46,1778927766.359375
-31.12,1778927766.375
-25.5,1778927766.390625
-17.92,1778927766.40625
-10.57,1778927766.421875
-5.05,1778927766.4375
-2.17,1778927766.453125
-2.12,1778927766.46875
-4.74,1778927766.484375
-9.74,1778927766.5
-16.76,1778927766.515625
-25.39,1778927766.53125
-35.12,1778927766.546875
-45.66,1778927766.5625
-57.02,1778927766.578125
-69.68,1778927766.59375
-84.36,1778927766.609375
-101.43,1778927766.625
-120.37,1778927766.640625
-139.37,1778927766.65625
-155.51,1778927766.671875
-165.58,1778927766.6875
-167.07,1778927766.703125
-159.05,1778927766.71875
-142.55,1778927766.734375
-120.13,1778927766.75
-95.09,1778927766.765625
-70.64,1778927766.78125
-49.11,1778927766.796875
-31.71,1778927766.8125
-18.65,1778927766.828125
-9.45,1778927766.84375
-3.39,1778927766.859375
0.18,1778927766.875
1.63,1778927766.890625
1.1,1778927766.90625
-1.35,1778927766.921875
-5.5,1778927766.9375
-10.84,1778927766.953125
-16.6,1778927766.96875
-22.07,1778927766.984375
-26.87,1778927767.0
-31.04,1778927767.015625
-34.91,1778927767.03125
-38.72,1778927767.046875
-42.33,1778927767.0625
-45.14,1778927767.078125
-46.54,1778927767.09375
-46.25,1778927767.109375
-44.79,1778927767.125
-43.36,1778927767.140625
-43.33,1778927767.15625
-45.64,1778927767.171875
-50.27,1778927767.1875
-56.18,1778927767.203125
-61.85,1778927767.21875
-66.05,1778927767.234375
-68.52,1778927767.25
-70.24,1778927767.265625
-73.11,1778927767.28125
-79.24,1778927767.296875
-90.0,1778927767.3125
-105.42,1778927767.328125
-123.99,1778927767.34375
-143.0,1778927767.359375
-159.18,1778927767.375
-169.62,1778927767.390625
-172.42,1778927767.40625
-167.05,1778927767.421875
-154.35,1778927767.4375
-136.11,1778927767.453125
-114.47,1778927767.46875
-91.24,1778927767.484375
-67.58,1778927767.5
-43.88,1778927767.515625
-20.11,1778927767.53125
3.65,1778927767.546875
26.6,1778927767.5625
46.86,1778927767.578125
61.66,1778927767.59375
68.02,1778927767.609375
64.03,1778927767.625
50.16,1778927767.640625
30.16,1778927767.65625
10.56,1778927767.671875
-1.03,1778927767.6875
1.38,1778927767.703125
19.84,1778927767.71875
51.39,1778927767.734375
89.09,1778927767.75
124.57,1778927767.765625
150.98,1778927767.78125
164.94,1778927767.796875
167.05,1778927767.8125
160.62,1778927767.828125
149.87,1778927767.84375
138.29,1778927767.859375
128.08,1778927767.875
120.17,1778927767.890625
114.73,1778927767.90625
111.59,1778927767.921875
110.26,1778927767.9375
109.92,1778927767.953125
109.44,1778927767.96875
107.64,1778927767.984375
103.55,1778927768.0
96.74,1778927768.015625
87.27,1778927768.03125
75.53,1778927768.046875
61.89,1778927768.0625
46.57,1778927768.078125
29.82,1778927768.09375
12.22,1778927768.109375
-4.98,1778927768.125
-19.88,1778927768.140625
-30.31,1778927768.15625
-34.41,1778927768.171875
-31.28,1778927768.1875
-21.22,1778927768.203125
-5.73,1778927768.21875
13.02,1778927768.234375
32.56,1778927768.25
50.69,1778927768.265625
65.68,1778927768.28125
76.4,1778927768.296875
82.39,1778927768.3125
83.8,1778927768.328125
81.41,1778927768.34375
76.36,1778927768.359375
69.92,1778927768.375
63.12,1778927768.390625
56.54,1778927768.40625
50.31,1778927768.421875
44.16,1778927768.4375
37.78,1778927768.453125
31.0,1778927768.46875
23.97,1778927768.484375
17.08,1778927768.5
10.88,1778927768.515625
5.84,1778927768.53125
2.22,1778927768.546875
0.05,1778927768.5625
-0.95,1778927768.578125
-1.25,1778927768.59375
-1.51,1778927768.609375
-2.46,1778927768.625
-4.71,1778927768.640625
-8.53,1778927768.65625
-13.81,1778927768.671875
-19.96,1778927768.6875
-26.16,1778927768.703125
-31.74,1778927768.71875
-36.44,1778927768.734375
-40.6,1778927768.75
-45.03,1778927768.765625
-50.75,1778927768.78125
-58.55,1778927768.796875
-68.63,1778927768.8125
-80.39,1778927768.828125
-92.33,1778927768.84375
-102.32,1778927768.859375
-107.93,1778927768.875
-107.08,1778927768.890625
-98.66,1778927768.90625
-82.92,1778927768.921875
-61.46,1778927768.9375
-36.83,1778927768.953125
-11.82,1778927768.96875
11.25,1778927768.984375
30.93,1778927769.0
46.75,1778927769.015625
58.82,1778927769.03125
67.58,1778927769.046875
73.4,1778927769.0625
76.57,1778927769.078125
77.35,1778927769.09375
76.12,1778927769.109375
73.43,1778927769.125
69.91,1778927769.140625
66.09,1778927769.15625
62.27,1778927769.171875
58.45,1778927769.1875
54.47,1778927769.203125
50.26,1778927769.21875
45.9,1778927769.234375
41.76,1778927769.25
38.2,1778927769.265625
35.4,1778927769.28125
33.08,1778927769.296875
30.64,1778927769.3125
27.26,1778927769.328125
22.29,1778927769.34375
15.48,1778927769.359375
7.03,1778927769.375
-2.48,1778927769.390625
-12.32,1778927769.40625
-21.82,1778927769.421875
-30.52,1778927769.4375
-38.28,1778927769.453125
-45.36,1778927769.46875
-52.36,1778927769.484375
-60.12,1778927769.5
-69.49,1778927769.515625
-80.76,1778927769.53125
-93.36,1778927769.546875
-105.67,1778927769.5625
-115.27,1778927769.578125
-119.59,1778927769.59375
-116.71,1778927769.609375
-105.99,1778927769.625
-88.22,1778927769.640625
-65.37,1778927769.65625
-39.92,1778927769.671875
-14.26,1778927769.6875
9.76,1778927769.703125
30.98,1778927769.71875
48.76,1778927769.734375
62.81,1778927769.75
73.09,1778927769.765625
79.7,1778927769.78125
82.89,1778927769.796875
83.1,1778927769.8125
80.88,1778927769.828125
76.82,1778927769.84375
71.56,1778927769.859375
65.59,1778927769.875
59.31,1778927769.890625
52.97,1778927769.90625
46.69,1778927769.921875
40.62,1778927769.9375
34.97,1778927769.953125
30.11,1778927769.96875
26.38,1778927769.984375
23.95,1778927770.0
22.6,1778927770.015625
21.65,1778927770.03125
20.12,1778927770.046875
17.01,1778927770.0625
11.65,1778927770.078125
3.99,1778927770.09375
-5.59,1778927770.109375
-16.27,1778927770.125
-27.21,1778927770.140625
-37.84,1778927770.15625
-47.85,1778927770.171875
-57.32,1778927770.1875
-66.68,1778927770.203125
-76.48,1778927770.21875
-87.32,1778927770.234375
-99.45,1778927770.25
-112.42,1778927770.265625
-124.81,1778927770.28125
-134.36,1778927770.296875
-138.47,1778927770.3125
-135.02,1778927770.328125
-123.16,1778927770.34375
-103.65,1778927770.359375
-78.58,1778927770.375
-50.75,1778927770.390625
-22.79,1778927770.40625
3.42,1778927770.421875
26.83,1778927770.4375
47.04,1778927770.453125
63.92,1778927770.46875
77.37,1778927770.484375
87.28,1778927770.5
93.66,1778927770.515625
96.78,1778927770.53125
97.15,1778927770.546875
95.5,1778927770.5625
92.54,1778927770.578125
88.86,1778927770.59375
84.76,1778927770.609375
80.34,1778927770.625
75.53,1778927770.640625
70.26,1778927770.65625
64.6,1778927770.671875
58.79,1778927770.6875
53.23,1778927770.703125
48.2,1778927770.71875
43.75,1778927770.734375
39.53,1778927770.75
34.83,1778927770.765625
28.79,1778927770.78125
20.74,1778927770.796875
10.47,1778927770.8125
-1.66,1778927770.828125
-14.82,1778927770.84375
-28.11,1778927770.859375
-40.91,1778927770.875
-53.1,1778927770.890625
-65.05,1778927770.90625
-77.44,1778927770.921875
-91.0,1778927770.9375
-106.29,1778927770.953125
-123.48,1778927770.96875
-142.17,1778927770.984375
-161.25,1778927771.0
-178.79,1778927771.015625
-192.24,1778927771.03125
-198.91,1778927771.046875
-196.8,1778927771.0625
-185.25,1778927771.078125
-165.24,1778927771.09375
-139.22,1778927771.109375
-110.19,1778927771.125
-80.99,1778927771.140625
-53.6,1778927771.15625
-29.18,1778927771.171875
-8.27,1778927771.1875
8.79,1778927771.203125
21.65,1778927771.21875
30.06,1778927771.234375
34.13,1778927771.25
34.56,1778927771.265625
32.55,1778927771.28125
29.49,1778927771.296875
26.55,1778927771.3125
24.43,1778927771.328125
23.19,1778927771.34375
22.43,1778927771.359375
21.59,1778927771.375
20.13,1778927771.390625
17.81,1778927771.40625
14.75,1778927771.421875
11.4,1778927771.4375
8.33,1778927771.453125
6.05,1778927771.46875
4.72,1778927771.484375
4.07,1778927771.5
3.4,1778927771.515625
1.92,1778927771.53125
-0.98,1778927771.546875
-5.51,1778927771.5625
-11.54,1778927771.578125
-18.92,1778927771.59375
-27.74,1778927771.609375
-38.4,1778927771.625
-51.32,1778927771.640625
-66.33,1778927771.65625
-82.34,1778927771.671875
-97.24,1778927771.6875
-108.42,1778927771.703125
-113.51,1778927771.71875
-110.99,1778927771.734375
-100.36,1778927771.75
-82.07,1778927771.765625
-57.1,1778927771.78125
-26.94,1778927771.796875
6.62,1778927771.8125
41.38,1778927771.828125
75.02,1778927771.84375
105.45,1778927771.859375
131.37,1778927771.875
152.55,1778927771.890625
169.64,1778927771.90625
183.71,1778927771.921875
195.55,1778927771.9375
205.29,1778927771.953125
212.4,1778927771.96875
216.08,1778927771.984375
215.71,1778927772.0
211.22,1778927772.015625
203.24,1778927772.03125
192.93,1778927772.046875
181.72,1778927772.0625
170.94,1778927772.078125
161.46,1778927772.09375
153.53,1778927772.109375
146.72,1778927772.125
140.15,1778927772.140625
132.79,1778927772.15625
123.91,1778927772.171875
113.35,1778927772.1875
101.6,1778927772.203125
89.7,1778927772.21875
78.68,1778927772.234375
69.25,1778927772.25
61.29,1778927772.265625
53.85,1778927772.28125
45.32,1778927772.296875
33.88,1778927772.3125
18.13,1778927772.328125
-2.31,1778927772.34375
-26.45,1778927772.359375
-51.9,1778927772.375
-75.38,1778927772.390625
-93.51,1778927772.40625
-103.76,1778927772.421875
-105.06,1778927772.4375
-98.03,1778927772.453125
-84.57,1778927772.46875
-67.18,1778927772.484375
-48.35,1778927772.5
-30.11,1778927772.515625
-13.81,1778927772.53125
-0.29,1778927772.546875
10.09,1778927772.5625
17.31,1778927772.578125
21.66,1778927772.59375
23.57,1778927772.609375
23.48,1778927772.625
21.78,1778927772.640625
18.71,1778927772.65625
14.52,1778927772.671875
9.47,1778927772.6875
3.94,1778927772.703125
-1.69,1778927772.71875
-7.08,1778927772.734375
-12.02,1778927772.75
-16.39,1778927772.765625
-20.17,1778927772.78125
-23.41,1778927772.796875
-26.14,1778927772.8125
-28.52,1778927772.828125
-30.67,1778927772.84375
-32.76,1778927772.859375
-34.88,1778927772.875
-37.1,1778927772.890625
-39.5,1778927772.90625
-42.33,1778927772.921875
-46.08,1778927772.9375
-51.58,1778927772.953125
-59.73,1778927772.96875
-71.11,1778927772.984375
-85.62,1778927773.0
-102.07,1778927773.015625
-118.23,1778927773.03125
-131.23,1778927773.046875
-138.29,1778927773.0625
-137.37,1778927773.078125
-127.66,1778927773.09375
-109.56,1778927773.109375
-84.52,1778927773.125
-54.55,1778927773.140625
-22.0,1778927773.15625
10.73,1778927773.171875
41.31,1778927773.1875
67.7,1778927773.203125
88.32,1778927773.21875
102.25,1778927773.234375
109.29,1778927773.25
109.93,1778927773.265625
105.11,1778927773.28125
96.0,1778927773.296875
83.79,1778927773.3125
69.56,1778927773.328125
54.19,1778927773.34375
38.42,1778927773.359375
22.76,1778927773.375
7.6,1778927773.390625
-6.73,1778927773.40625
-19.96,1778927773.421875
-31.82,1778927773.4375
-42.16,1778927773.453125
-51.02,1778927773.46875
-58.77,1778927773.484375
-66.03,1778927773.5
-73.54,1778927773.515625
-81.96,1778927773.53125
-91.67,1778927773.546875
-102.68,1778927773.5625
-114.78,1778927773.578125
-127.62,1778927773.59375
-140.85,1778927773.609375
-153.99,1778927773.625
-166.34,1778927773.640625
-176.94,1778927773.65625
-184.6,1778927773.671875
-188.06,1778927773.6875
-186.15,1778927773.703125
-177.8,1778927773.71875
-162.11,1778927773.734375
-138.44,1778927773.75
-106.66,1778927773.765625
-67.49,1778927773.78125
-22.69,1778927773.796875
25.04,1778927773.8125
72.64,1778927773.828125
117.31,1778927773.84375
157.09,1778927773.859375
190.94,1778927773.875
218.54,1778927773.890625
239.75,1778927773.90625
254.4,1778927773.921875
262.23,1778927773.9375
263.27,1778927773.953125
258.06,1778927773.96875
247.81,1778927773.984375
234.19,1778927774.0
218.92,1778927774.015625
203.42,1778927774.03125
188.58,1778927774.046875
174.85,1778927774.0625
162.39,1778927774.078125
151.42,1778927774.09375
142.24,1778927774.109375
135.19,1778927774.125
130.38,1778927774.140625
127.47,1778927774.15625
125.55,1778927774.171875
123.35,1778927774.1875
119.64,1778927774.203125
113.7,1778927774.21875
105.64,1778927774.234375
96.41,1778927774.25
87.52,1778927774.265625
80.6,1778927774.28125
76.82,1778927774.296875
76.51,1778927774.3125
78.81,1778927774.328125
81.62,1778927774.34375
81.79,1778927774.359375
75.84,1778927774.375
60.98,1778927774.390625
36.26,1778927774.40625
3.23,1778927774.421875
-34.06,1778927774.4375
-70.11,1778927774.453125
-99.45,1778927774.46875
-118.06,1778927774.484375
-124.23,1778927774.5
-118.6,1778927774.515625
-103.61,1778927774.53125
-82.71,1778927774.546875
-59.52,1778927774.5625
-37.32,1778927774.578125
-18.58,1778927774.59375
-4.85,1778927774.609375
3.45,1778927774.625
6.79,1778927774.640625
6.28,1778927774.65625
3.34,1778927774.671875
-0.65,1778927774.6875
-4.5,1778927774.703125
-7.51,1778927774.71875
-9.44,1778927774.734375
-10.67,1778927774.75
-11.98,1778927774.765625
-14.2,1778927774.78125
-17.89,1778927774.796875
-22.91,1778927774.8125
-28.5,1778927774.828125
-33.49,1778927774.84375
-36.89,1778927774.859375
-38.42,1778927774.875
-38.84,1778927774.890625
-39.82,1778927774.90625
-43.51,1778927774.921875
-51.67,1778927774.9375
-64.89,1778927774.953125
-82.06,1778927774.96875
-100.5,1778927774.984375
-116.86,1778927775.0
-128.28,1778927775.015625
-133.49,1778927775.03125
-133.2,1778927775.046875
-129.71,1778927775.0625
-125.9,1778927775.078125
-124.22,1778927775.09375
-126.04,1778927775.109375
-131.5,1778927775.125
-139.67,1778927775.140625
-148.99,1778927775.15625
-157.42,1778927775.171875
-162.82,1778927775.1875
-163.34,1778927775.203125
-157.97,1778927775.21875
-146.94,1778927775.234375
-131.74,1778927775.25
-114.62,1778927775.265625
-97.85,1778927775.28125
-83.05,1778927775.296875
-71.01,1778927775.3125
-61.95,1778927775.328125
-55.98,1778927775.34375
-53.48,1778927775.359375
-54.97,1778927775.375
-60.8,1778927775.390625
-70.7,1778927775.40625
-83.49,1778927775.421875
-97.35,1778927775.4375
-110.25,1778927775.453125
-120.63,1778927775.46875
-127.9,1778927775.484375
-132.78,1778927775.5
-136.98,1778927775.515625
-142.32,1778927775.53125
-149.66,1778927775.546875
-157.9,1778927775.5625
-163.91,1778927775.578125
-163.31,1778927775.59375
-152.1,1778927775.609375
-128.16,1778927775.625
-91.95,1778927775.640625
-46.16,1778927775.65625
5.16,1778927775.671875
57.54,1778927775.6875
106.6,1778927775.703125
148.15,1778927775.71875
178.41,1778927775.734375
194.69,1778927775.75
196.09,1778927775.765625
184.17,1778927775.78125
162.51,1778927775.796875
135.59,1778927775.8125
107.4,1778927775.828125
80.56,1778927775.84375
56.41,1778927775.859375
35.86,1778927775.875
20.12,1778927775.890625
10.86,1778927775.90625
9.62,1778927775.921875
17.02,1778927775.9375
32.15,1778927775.953125
52.72,1778927775.96875
75.86,1778927775.984375
98.83,1778927776.0
119.73,1778927776.015625
137.59,1778927776.03125
152.08,1778927776.046875
163.0,1778927776.0625
170.09,1778927776.078125
172.96,1778927776.09375
171.43,1778927776.109375
165.87,1778927776.125
157.29,1778927776.140625
147.09,1778927776.15625
136.64,1778927776.171875
126.73,1778927776.1875
117.43,1778927776.203125
108.23,1778927776.21875
98.49,1778927776.234375
88.0,1778927776.25
77.12,1778927776.265625
66.79,1778927776.28125
58.01,1778927776.296875
51.42,1778927776.3125
46.81,1778927776.328125
43.2,1778927776.34375
39.08,1778927776.359375
32.94,1778927776.375
23.82,1778927776.390625
11.63,1778927776.40625
-2.84,1778927776.421875
-18.25,1778927776.4375
-33.18,1778927776.453125
-46.72,1778927776.46875
-58.64,1778927776.484375
-69.46,1778927776.5
-80.16,1778927776.515625
-91.83,1778927776.53125
-105.24,1778927776.546875
-120.53,1778927776.5625
-136.88,1778927776.578125
-152.46,1778927776.59375
-164.62,1778927776.609375
-170.48,1778927776.625
-167.67,1778927776.640625
-155.08,1778927776.65625
-133.25,1778927776.671875
-104.18,1778927776.6875
-70.84,1778927776.703125
-36.31,1778927776.71875
-3.22,1778927776.734375
26.54,1778927776.75
51.81,1778927776.765625
71.96,1778927776.78125
86.74,1778927776.796875
96.26,1778927776.8125
100.97,1778927776.828125
101.74,1778927776.84375
99.68,1778927776.859375
95.94,1778927776.875
91.53,1778927776.890625
87.11,1778927776.90625
83.01,1778927776.921875
79.3,1778927776.9375
75.95,1778927776.953125
72.86,1778927776.96875
69.98,1778927776.984375
67.22,1778927777.0
64.47,1778927777.015625
61.5,1778927777.03125
58.07,1778927777.046875
53.9,1778927777.0625
48.75,1778927777.078125
42.48,1778927777.09375
35.02,1778927777.109375
26.42,1778927777.125
16.84,1778927777.140625
6.55,1778927777.15625
-4.09,1778927777.171875
-14.67,1778927777.1875
-24.92,1778927777.203125
-34.77,1778927777.21875
-44.4,1778927777.234375
-54.29,1778927777.25
-65.1,1778927777.265625
-77.41,1778927777.28125
-91.45,1778927777.296875
-106.75,1778927777.3125
-121.86,1778927777.328125
-134.45,1778927777.34375
-141.7,1778927777.359375
-141.08,1778927777.375
-131.18,1778927777.390625
-112.17,1778927777.40625
-85.89,1778927777.421875
-55.26,1778927777.4375
-23.53,1778927777.453125
6.56,1778927777.46875
33.11,1778927777.484375
55.13,1778927777.5
72.26,1778927777.515625
84.55,1778927777.53125
92.27,1778927777.546875
95.91,1778927777.5625
96.18,1778927777.578125
93.99,1778927777.59375
90.23,1778927777.609375
85.61,1778927777.625
80.51,1778927777.640625
74.94,1778927777.65625
68.76,1778927777.671875
61.9,1778927777.6875
54.53,1778927777.703125
47.14,1778927777.71875
40.42,1778927777.734375
35.01,1778927777.75
31.22,1778927777.765625
28.87,1778927777.78125
27.25,1778927777.796875
25.38,1778927777.8125
22.27,1778927777.828125
17.26,1778927777.84375
10.24,1778927777.859375
1.58,1778927777.875
-8.11,1778927777.890625
-18.12,1778927777.90625
-28.02,1778927777.921875
-37.68,1778927777.9375
-47.35,1778927777.953125
-57.48,1778927777.96875
-68.57,1778927777.984375
-80.82,1778927778.0
-93.86,1778927778.015625
-106.5,1778927778.03125
-116.74,1778927778.046875
-122.21,1778927778.0625
-120.75,1778927778.078125
-111.1,1778927778.09375
-93.45,1778927778.109375
-69.44,1778927778.125
-41.71,1778927778.140625
-13.21,1778927778.15625
13.51,1778927778.171875
36.79,1778927778.1875
55.8,1778927778.203125
70.36,1778927778.21875
80.59,1778927778.234375
86.68,1778927778.25
88.94,1778927778.265625
87.88,1778927778.28125
84.26,1778927778.296875
78.98,1778927778.3125
72.9,1778927778.328125
66.57,1778927778.34375
60.16,1778927778.359375
53.55,1778927778.375
46.59,1778927778.390625
39.38,1778927778.40625
32.32,1778927778.421875
25.97,1778927778.4375
20.73,1778927778.453125
16.57,1778927778.46875
12.93,1778927778.484375
8.9,1778927778.5
3.61,1778927778.515625
-3.39,1778927778.53125
-11.95,1778927778.546875
-21.46,1778927778.5625
-31.16,1778927778.578125
-40.52,1778927778.59375
-49.43,1778927778.609375
-58.22,1778927778.625
-67.48,1778927778.640625
-77.81,1778927778.65625
-89.6,1778927778.671875
-102.65,1778927778.6875
-116.07,1778927778.703125
-128.18,1778927778.71875
-136.7,1778927778.734375
-139.24,1778927778.75
-133.94,1778927778.765625
-120.12,1778927778.78125
-98.52,1778927778.796875
-71.18,1778927778.8125
-40.98,1778927778.828125
-10.87,1778927778.84375
16.66,1778927778.859375
39.95,1778927778.875
58.25,1778927778.890625
71.54,1778927778.90625
80.27,1778927778.921875
85.16,1778927778.9375
86.95,1778927778.953125
86.27,1778927778.96875
83.65,1778927778.984375
79.46,1778927779.0
74.04,1778927779.015625
67.7,1778927779.03125
60.85,1778927779.046875
53.88,1778927779.0625
47.12,1778927779.078125
40.86,1778927779.09375
35.24,1778927779.109375
30.3,1778927779.125
25.94,1778927779.140625
21.92,1778927779.15625
17.87,1778927779.171875
13.41,1778927779.1875
8.16,1778927779.203125
1.96,1778927779.21875
-5.1,1778927779.234375
-12.73,1778927779.25
-20.59,1778927779.265625
-28.51,1778927779.28125
-36.68,1778927779.296875
-45.7,1778927779.3125
-56.34,1778927779.328125
-69.15,1778927779.34375
-83.96,1778927779.359375
-99.57,1778927779.375
-113.76,1778927779.390625
-123.7,1778927779.40625
-126.62,1778927779.421875
-120.69,1778927779.4375
-105.49,1778927779.453125
-82.27,1778927779.46875
-53.54,1778927779.484375
-22.52,1778927779.5
7.66,1778927779.515625
34.54,1778927779.53125
56.56,1778927779.546875
73.15,1778927779.5625
84.45,1778927779.578125
91.01,1778927779.59375
93.64,1778927779.609375
93.19,1778927779.625
90.44,1778927779.640625
86.12,1778927779.65625
80.72,1778927779.671875
74.54,1778927779.6875
67.71,1778927779.703125
60.34,1778927779.71875
52.66,1778927779.734375
45.13,1778927779.75
38.32,1778927779.765625
32.72,1778927779.78125
28.52,1778927779.796875
25.4,1778927779.8125
22.65,1778927779.828125
19.32,1778927779.84375
14.64,1778927779.859375
8.15,1778927779.875
-0.09,1778927779.890625
-9.58,1778927779.90625
-19.62,1778927779.921875
-29.58,1778927779.9375
-39.16,1778927779.953125
-48.51,1778927779.96875
-58.26,1778927779.984375
-69.15,1778927780.0
-81.74,1778927780.015625
-95.88,1778927780.03125
-110.53,1778927780.046875
-123.73,1778927780.0625
-133.0,1778927780.078125
-135.9,1778927780.09375
-130.69,1778927780.109375
-116.91,1778927780.125
-95.55,1778927780.140625
-68.91,1778927780.15625
-40.04,1778927780.171875
-12.0,1778927780.1875
12.82,1778927780.203125
33.0,1778927780.21875
48.16,1778927780.234375
58.57,1778927780.25
64.79,1778927780.265625
67.46,1778927780.28125
67.14,1778927780.296875
64.44,1778927780.3125
60.03,1778927780.328125
54.62,1778927780.34375
48.84,1778927780.359375
43.12,1778927780.375
37.66,1778927780.390625
32.49,1778927780.40625
27.6,1778927780.421875
23.11,1778927780.4375
19.15,1778927780.453125
15.85,1778927780.46875
13.15,1778927780.484375
10.79,1778927780.5
8.29,1778927780.515625
5.2,1778927780.53125
1.27,1778927780.546875
-3.53,1778927780.5625
-8.95,1778927780.578125
-14.75,1778927780.59375
-20.79,1778927780.609375
-27.27,1778927780.625
-34.7,1778927780.640625
-43.77,1778927780.65625
-55.02,1778927780.671875
-68.46,1778927780.6875
-83.26,1778927780.703125
-97.53,1778927780.71875
-108.54,1778927780.734375
-113.29,1778927780.75
-109.25,1778927780.765625
-95.3,1778927780.78125
-72.16,1778927780.796875
-42.3,1778927780.8125
-9.32,1778927780.828125
23.02,1778927780.84375
51.76,1778927780.859375
75.14,1778927780.875
92.67,1778927780.890625
104.65,1778927780.90625
111.71,1778927780.921875
114.52,1778927780.9375
113.75,1778927780.953125
110.13,1778927780.96875
104.53,1778927780.984375
97.83,1778927781.0
90.79,1778927781.015625
83.8,1778927781.03125
76.89,1778927781.046875
69.94,1778927781.0625
62.85,1778927781.078125
55.78,1778927781.09375
49.19,1778927781.109375
43.46,1778927781.125
38.72,1778927781.140625
34.59,1778927781.15625
30.29,1778927781.171875
24.94,1778927781.1875
17.95,1778927781.203125
9.29,1778927781.21875
-0.52,1778927781.234375
-10.66,1778927781.25
-20.45,1778927781.265625
-29.7,1778927781.28125
-38.78,1778927781.296875
-48.57,1778927781.3125
-60.01,1778927781.328125
-73.71,1778927781.34375
-89.42,1778927781.359375
-105.87,1778927781.375
-120.76,1778927781.390625
-131.14,1778927781.40625
-134.21,1778927781.421875
-128.02,1778927781.4375
-112.17,1778927781.453125
-88.04,1778927781.46875
-58.37,1778927781.484375
-26.62,1778927781.5
3.93,1778927781.515625
30.92,1778927781.53125
53.09,1778927781.546875
70.23,1778927781.5625
82.68,1778927781.578125
90.96,1778927781.59375
95.54,1778927781.609375
96.8,1778927781.625
95.17,1778927781.640625
91.2,1778927781.65625
85.54,1778927781.671875
78.84,1778927781.6875
71.57,1778927781.703125
64.0,1778927781.71875
56.28,1778927781.734375
48.55,1778927781.75
41.04,1778927781.765625
34.19,1778927781.78125
28.42,1778927781.796875
24.0,1778927781.8125
20.8,1778927781.828125
18.27,1778927781.84375
15.39,1778927781.859375
11.08,1778927781.875
4.4,1778927781.890625
-4.99,1778927781.90625
-16.68,1778927781.921875
-29.66,1778927781.9375
-42.6,1778927781.953125
-54.41,1778927781.96875
-64.57,1778927781.984375
-73.39,1778927782.0
-81.79,1778927782.015625
-90.97,1778927782.03125
-101.83,1778927782.046875
-114.54,1778927782.0625
-128.18,1778927782.078125
-140.79,1778927782.09375
-149.65,1778927782.109375
-151.96,1778927782.125
-145.58,1778927782.140625
-129.71,1778927782.15625
-105.23,1778927782.171875
-74.55,1778927782.1875
-40.89,1778927782.203125
-7.53,1778927782.21875
22.97,1778927782.234375
49.12,1778927782.25
70.44,1778927782.265625
87.15,1778927782.28125
99.68,1778927782.296875
108.49,1778927782.3125
113.92,1778927782.328125
116.32,1778927782.34375
116.11,1778927782.359375
113.77,1778927782.375
109.85,1778927782.390625
104.9,1778927782.40625
99.42,1778927782.421875
93.85,1778927782.4375
88.6,1778927782.453125
84.01,1778927782.46875
80.29,1778927782.484375
77.48,1778927782.5
75.48,1778927782.515625
74.01,1778927782.53125
72.7,1778927782.546875
71.2,1778927782.5625
69.08,1778927782.578125
65.92,1778927782.59375
61.33,1778927782.609375
54.99,1778927782.625
46.77,1778927782.640625
36.92,1778927782.65625
26.0,1778927782.671875
14.83,1778927782.6875
4.19,1778927782.703125
-5.41,1778927782.71875
-13.94,1778927782.734375
-21.87,1778927782.75
-30.01,1778927782.765625
-39.26,1778927782.78125
-50.14,1778927782.796875
-62.62,1778927782.8125
-75.87,1778927782.828125
-88.34,1778927782.84375
-98.05,1778927782.859375
-102.94,1778927782.875
-101.39,1778927782.890625
-92.57,1778927782.90625
-76.61,1778927782.921875
-54.66,1778927782.9375
-28.65,1778927782.953125
-0.85,1778927782.96875
26.49,1778927782.984375
51.57,1778927783.0
73.25,1778927783.015625
91.09,1778927783.03125
105.1,1778927783.046875
115.47,1778927783.0625
122.31,1778927783.078125
125.51,1778927783.09375
124.92,1778927783.109375
120.57,1778927783.125
112.9,1778927783.140625
102.79,1778927783.15625
91.38,1778927783.171875
79.77,1778927783.1875
68.68,1778927783.203125
58.38,1778927783.21875
48.76,1778927783.234375
39.59,1778927783.25
30.77,1778927783.265625
22.47,1778927783.28125
14.99,1778927783.296875
8.43,1778927783.3125
2.5,1778927783.328125
-3.54,1778927783.34375
-10.6,1778927783.359375
-19.37,1778927783.375
-30.01,1778927783.390625
-42.16,1778927783.40625
-55.15,1778927783.421875
-68.4,1778927783.4375
-81.76,1778927783.453125
-95.48,1778927783.46875
-110.07,1778927783.484375
-125.92,1778927783.5
-143.02,1778927783.515625
-160.86,1778927783.53125
-178.26,1778927783.546875
-193.53,1778927783.5625
-204.4,1778927783.578125
-208.42,1778927783.59375
-203.43,1778927783.609375
-188.27,1778927783.625
-163.39,1778927783.640625
-130.93,1778927783.65625
-94.34,1778927783.671875
-57.44,1778927783.6875
-23.49,1778927783.703125
5.54,1778927783.71875
29.1,1778927783.734375
47.7,1778927783.75
62.39,1778927783.765625
74.07,1778927783.78125
83.22,1778927783.796875
89.82,1778927783.8125
93.49,1778927783.828125
93.85,1778927783.84375
90.88,1778927783.859375
84.99,1778927783.875
77.06,1778927783.890625
68.17,1778927783.90625
59.16,1778927783.921875
50.42,1778927783.9375
41.79,1778927783.953125
32.86,1778927783.96875
23.3,1778927783.984375
13.16,1778927784.0
2.87,1778927784.015625
-6.95,1778927784.03125
-15.87,1778927784.046875
-23.82,1778927784.0625
-31.21,1778927784.078125
-38.78,1778927784.09375
-47.42,1778927784.109375
-57.97,1778927784.125
-71.01,1778927784.140625
-86.49,1778927784.15625
-103.49,1778927784.171875
-119.94,1778927784.1875
-132.92,1778927784.203125
-139.3,1778927784.21875
-136.77,1778927784.234375
-124.79,1778927784.25
-105.03,1778927784.265625
-81.09,1778927784.28125
-57.55,1778927784.296875
-38.65,1778927784.3125
-27.05,1778927784.328125
-23.07,1778927784.34375
-24.65,1778927784.359375
-28.07,1778927784.375
-29.15,1778927784.390625
-24.65,1778927784.40625
-13.21,1778927784.421875
4.47,1778927784.4375
25.97,1778927784.453125
48.31,1778927784.46875
68.89,1778927784.484375
86.08,1778927784.5
99.24,1778927784.515625
108.36,1778927784.53125
113.73,1778927784.546875
115.68,1778927784.5625
114.68,1778927784.578125
111.32,1778927784.59375
106.38,1778927784.609375
100.62,1778927784.625
94.54,1778927784.640625
88.29,1778927784.65625
81.74,1778927784.671875
74.78,1778927784.6875
67.6,1778927784.703125
60.77,1778927784.71875
55.1,1778927784.734375
51.31,1778927784.75
49.61,1778927784.765625
49.6,1778927784.78125
50.33,1778927784.796875
50.64,1778927784.8125
49.51,1778927784.828125
46.4,1778927784.84375
41.24,1778927784.859375
34.32,1778927784.875
26.04,1778927784.890625
16.78,1778927784.90625
6.77,1778927784.921875
-3.81,1778927784.9375
-14.7,1778927784.953125
-25.56,1778927784.96875
-36.0,1778927784.984375
-45.73,1778927785.0
-54.67,1778927785.015625
-63.07,1778927785.03125
-71.41,1778927785.046875
-80.27,1778927785.0625
-90.04,1778927785.078125
-100.69,1778927785.09375
-111.58,1778927785.109375
-121.43,1778927785.125
-128.53,1778927785.140625
-131.13,1778927785.15625
-127.92,1778927785.171875
-118.41,1778927785.1875
-103.08,1778927785.203125
-83.28,1778927785.21875
-60.78,1778927785.234375
-37.4,1778927785.25
-14.62,1778927785.265625
6.55,1778927785.28125
25.48,1778927785.296875
41.7,1778927785.3125
54.78,1778927785.328125
64.32,1778927785.34375
69.97,1778927785.359375
71.69,1778927785.375
69.84,1778927785.390625
65.24,1778927785.40625
59.08,1778927785.421875
52.63,1778927785.4375
46.96,1778927785.453125
42.6,1778927785.46875
39.56,1778927785.484375
37.44,1778927785.5
35.7,1778927785.515625
33.95,1778927785.53125
32.07,1778927785.546875
30.14,1778927785.5625
28.19,1778927785.578125
26.07,1778927785.59375
23.39,1778927785.609375
19.68,1778927785.625
14.6,1778927785.640625
8.12,1778927785.65625
0.49,1778927785.671875
-7.85,1778927785.6875
-16.5,1778927785.703125
-25.14,1778927785.71875
-33.56,1778927785.734375
-41.66,1778927785.75
-49.48,1778927785.765625
-57.16,1778927785.78125
-65.02,1778927785.796875
-73.45,1778927785.8125
-82.72,1778927785.828125
-92.77,1778927785.84375
-102.89,1778927785.859375
-111.74,1778927785.875
-117.57,1778927785.890625
-118.57,1778927785.90625
-113.47,1778927785.921875
-101.9,1778927785.9375
-84.56,1778927785.953125
-63.14,1778927785.96875
-39.88,1778927785.984375
-17.09,1778927786.0
3.27,1778927786.015625
19.85,1778927786.03125
31.98,1778927786.046875
39.59,1778927786.0625
43.07,1778927786.078125
43.2,1778927786.09375
41.04,1778927786.109375
37.81,1778927786.125
34.52,1778927786.140625
31.84,1778927786.15625
29.82,1778927786.171875
27.91,1778927786.1875
25.46,1778927786.203125
22.05,1778927786.21875
17.98,1778927786.234375
14.28,1778927786.25
12.56,1778927786.265625
14.38,1778927786.28125
20.78,1778927786.296875
31.75,1778927786.3125
46.12,1778927786.328125
61.75,1778927786.34375
75.94,1778927786.359375
86.07,1778927786.375
90.26,1778927786.390625
87.83,1778927786.40625
79.4,1778927786.421875
66.56,1778927786.4375
51.34,1778927786.453125
35.48,1778927786.46875
20.03,1778927786.484375
5.19,1778927786.5
-9.45,1778927786.515625
-24.5,1778927786.53125
-40.27,1778927786.546875
-56.44,1778927786.5625
-71.85,1778927786.578125
-84.67,1778927786.59375
-92.71,1778927786.609375
-94.05,1778927786.625
-87.6,1778927786.640625
-73.56,1778927786.65625
-53.31,1778927786.671875
-29.21,1778927786.6875
-3.93,1778927786.703125
20.18,1778927786.71875
41.39,1778927786.734375
58.68,1778927786.75
71.6,1778927786.765625
80.1,1778927786.78125
84.34,1778927786.796875
84.78,1778927786.8125
82.15,1778927786.828125
77.33,1778927786.84375
71.34,1778927786.859375
64.94,1778927786.875
58.6,1778927786.890625
52.3,1778927786.90625
45.8,1778927786.921875
38.83,1778927786.9375
31.4,1778927786.953125
23.86,1778927786.96875
16.86,1778927786.984375
11.05,1778927787.0
6.8,1778927787.015625
3.94,1778927787.03125
1.78,1778927787.046875
-0.61,1778927787.0625
-4.08,1778927787.078125
-9.13,1778927787.09375
-15.69,1778927787.109375
-23.29,1778927787.125
-31.3,1778927787.140625
-39.22,1778927787.15625
-46.81,1778927787.171875
-54.23,1778927787.1875
-61.92,1778927787.203125
-70.42,1778927787.21875
-80.28,1778927787.234375
-91.78,1778927787.25
-104.74,1778927787.265625
-118.3,1778927787.28125
-130.79,1778927787.296875
-139.9,1778927787.3125
-143.12,1778927787.328125
-138.37,1778927787.34375
-124.58,1778927787.359375
-102.13,1778927787.375
-72.58,1778927787.390625
-38.3,1778927787.40625
-1.81,1778927787.421875
34.64,1778927787.4375
69.13,1778927787.453125
100.08,1778927787.46875
126.1,1778927787.484375
146.12,1778927787.5
159.56,1778927787.515625
166.72,1778927787.53125
168.74,1778927787.546875
167.38,1778927787.5625
164.44,1778927787.578125
161.17,1778927787.59375
157.95,1778927787.609375
154.38,1778927787.625
149.69,1778927787.640625
143.3,1778927787.65625
135.18,1778927787.671875
125.75,1778927787.6875
115.6,1778927787.703125
105.05,1778927787.71875
93.77,1778927787.734375
80.92,1778927787.75
65.55,1778927787.765625
47.18,1778927787.78125
26.16,1778927787.796875
3.67,1778927787.8125
-18.79,1778927787.828125
-39.92,1778927787.84375
-59.1,1778927787.859375
-76.48,1778927787.875
-92.62,1778927787.890625
-108.05,1778927787.90625
-122.96,1778927787.921875
-137.22,1778927787.9375
-150.53,1778927787.953125
-162.89,1778927787.96875
-174.51,1778927787.984375
-185.69,1778927788.0
-196.24,1778927788.015625
-205.2,1778927788.03125
-210.76,1778927788.046875
-210.79,1778927788.0625
-203.5,1778927788.078125
-188.19,1778927788.09375
-165.51,1778927788.109375
-137.3,1778927788.125
-106.08,1778927788.140625
-74.41,1778927788.15625
-44.29,1778927788.171875
-16.97,1778927788.1875
7.11,1778927788.203125
28.06,1778927788.21875
46.34,1778927788.234375
62.49,1778927788.25
76.95,1778927788.265625
90.03,1778927788.28125
101.77,1778927788.296875
111.97,1778927788.3125
120.23,1778927788.328125
126.0,1778927788.34375
128.71,1778927788.359375
127.98,1778927788.375
123.73,1778927788.390625
116.22,1778927788.40625
106.06,1778927788.421875
94.05,1778927788.4375
81.07,1778927788.453125
67.83,1778927788.46875
54.85,1778927788.484375
42.29,1778927788.5
30.02,1778927788.515625
17.66,1778927788.53125
4.78,1778927788.546875
-8.89,1778927788.5625
-23.17,1778927788.578125
-37.47,1778927788.59375
-50.93,1778927788.609375
-62.74,1778927788.625
-72.55,1778927788.640625
-80.61,1778927788.65625
-87.68,1778927788.671875
-94.77,1778927788.6875
-102.58,1778927788.703125
-111.13,1778927788.71875
-119.53,1778927788.734375
-126.09,1778927788.75
-128.78,1778927788.765625
-125.88,1778927788.78125
-116.48,1778927788.796875
-100.78,1778927788.8125
-80.08,1778927788.828125
-56.33,1778927788.84375
-31.62,1778927788.859375
-7.78,1778927788.875
13.84,1778927788.890625
32.39,1778927788.90625
47.47,1778927788.921875
58.91,1778927788.9375
66.77,1778927788.953125
71.17,1778927788.96875
72.39,1778927788.984375
70.82,1778927789.0
67.01,1778927789.015625
61.58,1778927789.03125
55.25,1778927789.046875
48.58,1778927789.0625
41.95,1778927789.078125
35.47,1778927789.09375
29.04,1778927789.109375
22.56,1778927789.125
16.14,1778927789.140625
10.05,1778927789.15625
4.61,1778927789.171875
-0.03,1778927789.1875
-4.04,1778927789.203125
-7.92,1778927789.21875
-12.24,1778927789.234375
-17.42,1778927789.25
-23.48,1778927789.265625
-30.08,1778927789.28125
-36.77,1778927789.296875
-43.14,1778927789.3125
-49.17,1778927789.328125
-55.2,1778927789.34375
-61.88,1778927789.359375
-69.89,1778927789.375
-79.69,1778927789.390625
-91.26,1778927789.40625
-103.88,1778927789.421875
-116.11,1778927789.4375
-125.94,1778927789.453125
-131.28,1778927789.46875
-130.56,1778927789.484375
-123.18,1778927789.5
-109.76,1778927789.515625
-91.93,1778927789.53125
-71.65,1778927789.546875
-50.53,1778927789.5625
-29.37,1778927789.578125
-8.09,1778927789.59375
13.71,1778927789.609375
36.15,1778927789.625
58.61,1778927789.640625
79.7,1778927789.65625
97.76,1778927789.671875
111.44,1778927789.6875
120.18,1778927789.703125
124.21,1778927789.71875
124.38,1778927789.734375
121.64,1778927789.75
116.87,1778927789.765625
110.71,1778927789.78125
103.72,1778927789.796875
96.42,1778927789.8125
89.21,1778927789.828125
82.35,1778927789.84375
75.83,1778927789.859375
69.55,1778927789.875
63.35,1778927789.890625
57.12,1778927789.90625
50.66,1778927789.921875
43.61,1778927789.9375
35.34,1778927789.953125
25.14,1778927789.96875
12.51,1778927789.984375
-2.61,1778927790.0
-19.7,1778927790.015625
-37.84,1778927790.03125
-56.16,1778927790.046875
-74.16,1778927790.0625
-91.92,1778927790.078125
-110.05,1778927790.09375
-129.38,1778927790.109375
-150.54,1778927790.125
-173.47,1778927790.140625
-197.1,1778927790.15625
-219.28,1778927790.171875
-237.16,1778927790.1875
-247.87,1778927790.203125
-249.34,1778927790.21875
-241.0,1778927790.234375
-224.07,1778927790.25
-201.5,1778927790.265625
-177.38,1778927790.28125
-156.17,1778927790.296875
-141.62,1778927790.3125
-135.96,1778927790.328125
-139.19,1778927790.34375
-149.0,1778927790.359375
-161.24,1778927790.375
-170.92,1778927790.390625
-173.48,1778927790.40625
-165.77,1778927790.421875
-146.74,1778927790.4375
-117.25,1778927790.453125
-79.49,1778927790.46875
-36.22,1778927790.484375
9.73,1778927790.5
55.61,1778927790.515625
98.72,1778927790.53125
136.48,1778927790.546875
166.88,1778927790.5625
189.07,1778927790.578125
203.78,1778927790.59375
213.29,1778927790.609375
220.6,1778927790.625
228.12,1778927790.640625
236.53,1778927790.65625
244.42,1778927790.671875
248.87,1778927790.6875
246.91,1778927790.703125
236.81,1778927790.71875
219.05,1778927790.734375
195.97,1778927790.75
170.87,1778927790.765625
146.72,1778927790.78125
125.27,1778927790.796875
106.82,1778927790.8125
90.54,1778927790.828125
75.07,1778927790.84375
59.1,1778927790.859375
41.71,1778927790.875
22.61,1778927790.890625
2.22,1778927790.90625
-18.23,1778927790.921875
-36.75,1778927790.9375
-50.97,1778927790.953125
-58.52,1778927790.96875
-57.83,1778927790.984375
-48.56,1778927791.0
-31.78,1778927791.015625
-9.73,1778927791.03125
14.67,1778927791.046875
38.52,1778927791.0625
59.5,1778927791.078125
76.22,1778927791.09375
88.26,1778927791.109375
95.98,1778927791.125
100.17,1778927791.140625
101.67,1778927791.15625
101.05,1778927791.171875
98.57,1778927791.1875
94.28,1778927791.203125
88.23,1778927791.21875
80.71,1778927791.234375
72.24,1778927791.25
63.43,1778927791.265625
54.84,1778927791.28125
46.93,1778927791.296875
39.93,1778927791.3125
33.98,1778927791.328125
29.17,1778927791.34375
25.5,1778927791.359375
22.84,1778927791.375
20.92,1778927791.390625
19.2,1778927791.40625
17.01,1778927791.421875
13.61,1778927791.4375
8.42,1778927791.453125
1.28,1778927791.46875
-7.51,1778927791.484375
-17.16,1778927791.5
-26.74,1778927791.515625
-35.46,1778927791.53125
-43.03,1778927791.546875
-49.76,1778927791.5625
-56.41,1778927791.578125
-63.94,1778927791.59375
-73.11,1778927791.609375
-84.33,1778927791.625
-97.42,1778927791.640625
-111.61,1778927791.65625
-125.48,1778927791.671875
-137.07,1778927791.6875
-144.1,1778927791.703125
-144.42,1778927791.71875
-136.58,1778927791.734375
-120.31,1778927791.75
-96.69,1778927791.765625
-67.92,1778927791.78125
-36.75,1778927791.796875
-5.91,1778927791.8125
22.4,1778927791.828125
46.75,1778927791.84375
66.33,1778927791.859375
80.92,1778927791.875
90.63,1778927791.890625
95.9,1778927791.90625
97.37,1778927791.921875
95.91,1778927791.9375
92.44,1778927791.953125
87.84,1778927791.96875
82.8,1778927791.984375
77.72,1778927792.0
72.82,1778927792.015625
68.05,1778927792.03125
63.38,1778927792.046875
58.76,1778927792.0625
54.26,1778927792.078125
50.02,1778927792.09375
46.2,1778927792.109375
42.81,1778927792.125
39.66,1778927792.140625
36.29,1778927792.15625
32.03,1778927792.171875
26.26,1778927792.1875
18.64,1778927792.203125
9.24,1778927792.21875
-1.35,1778927792.234375
-12.36,1778927792.25
-23.06,1778927792.265625
-33.04,1778927792.28125
-42.38,1778927792.296875
-51.6,1778927792.3125
-61.51,1778927792.328125
-72.84,1778927792.34375
-85.93,1778927792.359375
-100.38,1778927792.375
-114.91,1778927792.390625
-127.43,1778927792.40625
-135.47,1778927792.421875
-136.74,1778927792.4375
-129.79,1778927792.453125
-114.48,1778927792.46875
-91.97,1778927792.484375
-64.52,1778927792.5
-34.81,1778927792.515625
-5.53,1778927792.53125
21.17,1778927792.546875
43.84,1778927792.5625
61.7,1778927792.578125
74.58,1778927792.59375
82.74,1778927792.609375
86.74,1778927792.625
87.26,1778927792.640625
85.1,1778927792.65625
80.97,1778927792.671875
75.57,1778927792.6875
69.44,1778927792.703125
62.98,1778927792.71875
56.39,1778927792.734375
49.69,1778927792.75
42.81,1778927792.765625
35.69,1778927792.78125
28.45,1778927792.796875
21.34,1778927792.8125
14.71,1778927792.828125
8.8,1778927792.84375
3.54,1778927792.859375
-1.46,1778927792.875
-6.91,1778927792.890625
-13.54,1778927792.90625
-21.94,1778927792.921875
-32.31,1778927792.9375
-44.34,1778927792.953125
-57.3,1778927792.96875
-70.27,1778927792.984375
-82.47,1778927793.0
-93.52,1778927793.015625
-103.62,1778927793.03125
-113.47,1778927793.046875
-124.03,1778927793.0625
-136.13,1778927793.078125
-149.91,1778927793.09375
-164.54,1778927793.109375
-177.98,1778927793.125
-187.2,1778927793.140625
-188.81,1778927793.15625
-179.92,1778927793.171875
-159.1,1778927793.1875
-126.97,1778927793.203125
-86.14,1778927793.21875
-40.53,1778927793.234375
5.67,1778927793.25
48.98,1778927793.265625
87.18,1778927793.28125
119.4,1778927793.296875
145.84,1778927793.3125
167.29,1778927793.328125
184.65,1778927793.34375
198.59,1778927793.359375
209.31,1778927793.375
216.43,1778927793.390625
219.18,1778927793.40625
216.88,1778927793.421875
209.28,1778927793.4375
196.98,1778927793.453125
181.34,1778927793.46875
164.11,1778927793.484375
146.99,1778927793.5
131.23,1778927793.515625
117.54,1778927793.53125
106.24,1778927793.546875
97.36,1778927793.5625
90.74,1778927793.578125
85.96,1778927793.59375
82.25,1778927793.609375
78.5,1778927793.625
73.47,1778927793.640625
66.17,1778927793.65625
56.13,1778927793.671875
43.61,1778927793.6875
29.45,1778927793.703125
14.77,1778927793.71875
0.53,1778927793.734375
-12.83,1778927793.75
-25.53,1778927793.765625
-38.31,1778927793.78125
-52.12,1778927793.796875
-67.73,1778927793.8125
-85.35,1778927793.828125
-104.48,1778927793.84375
-123.82,1778927793.859375
-141.42,1778927793.875
-154.98,1778927793.890625
-162.31,1778927793.90625
-161.8,1778927793.921875
-152.75,1778927793.9375
-135.54,1778927793.953125
-111.52,1778927793.96875
-82.66,1778927793.984375
-51.23,1778927794.0
-19.58,1778927794.015625
10.11,1778927794.03125
35.98,1778927794.046875
56.66,1778927794.0625
71.48,1778927794.078125
80.46,1778927794.09375
84.29,1778927794.109375
83.95,1778927794.125
80.46,1778927794.140625
74.59,1778927794.15625
66.88,1778927794.171875
57.8,1778927794.1875
47.83,1778927794.203125
37.56,1778927794.21875
27.55,1778927794.234375
18.19,1778927794.25
9.64,1778927794.265625
1.93,1778927794.28125
-4.87,1778927794.296875
-10.65,1778927794.3125
-15.25,1778927794.328125
-18.84,1778927794.34375
-22.14,1778927794.359375
-26.45,1778927794.375
-33.28,1778927794.390625
-43.64,1778927794.40625
-57.4,1778927794.421875
-72.94,1778927794.4375
-87.51,1778927794.453125
-98.05,1778927794.46875
-102.34,1778927794.484375
-99.75,1778927794.5
-91.5,1778927794.515625
-80.11,1778927794.53125
-68.51,1778927794.546875
-59.23,1778927794.5625
-53.97,1778927794.578125
-53.52,1778927794.59375
-57.99,1778927794.609375
-66.76,1778927794.625
-78.31,1778927794.640625
-90.03,1778927794.65625
-98.34,1778927794.671875
-99.37,1778927794.6875
-90.09,1778927794.703125
-69.36,1778927794.71875
-38.53,1778927794.734375
-1.11,1778927794.75
38.24,1778927794.765625
75.08,1778927794.78125
106.38,1778927794.796875
130.84,1778927794.8125
148.66,1778927794.828125
160.76,1778927794.84375
168.01,1778927794.859375
170.82,1778927794.875
169.29,1778927794.890625
163.59,1778927794.90625
154.31,1778927794.921875
142.68,1778927794.9375
130.18,1778927794.953125
118.13,1778927794.96875
107.26,1778927794.984375
97.58,1778927795.0
88.69,1778927795.015625
80.2,1778927795.03125
72.08,1778927795.046875
64.73,1778927795.0625
58.7,1778927795.078125
54.26,1778927795.09375
51.08,1778927795.109375
48.2,1778927795.125
44.23,1778927795.140625
37.93,1778927795.15625
28.63,1778927795.171875
16.45,1778927795.1875
2.26,1778927795.203125
-12.72,1778927795.21875
-27.38,1778927795.234375
-40.95,1778927795.25
-53.29,1778927795.265625
-64.74,1778927795.28125
-76.04,1778927795.296875
-88.03,1778927795.3125
-101.44,1778927795.328125
-116.51,1778927795.34375
-132.63,1778927795.359375
-148.18,1778927795.375
-160.59,1778927795.390625
-166.93,1778927795.40625
-164.7,1778927795.421875
-152.59,1778927795.4375
-130.96,1778927795.453125
-101.74,1778927795.46875
-67.97,1778927795.484375
-32.98,1778927795.5
0.23,1778927795.515625
29.51,1778927795.53125
53.61,1778927795.546875
72.06,1778927795.5625
85.0,1778927795.578125
92.89,1778927795.59375
96.41,1778927795.609375
96.38,1778927795.625
93.7,1778927795.640625
89.27,1778927795.65625
83.9,1778927795.671875
78.22,1778927795.6875
72.53,1778927795.703125
66.9,1778927795.71875
61.21,1778927795.734375
55.43,1778927795.75
49.69,1778927795.765625
44.36,1778927795.78125
39.85,1778927795.796875
36.43,1778927795.8125
33.95,1778927795.828125
31.82,1778927795.84375
29.12,1778927795.859375
24.88,1778927795.875
18.52,1778927795.890625
9.97,1778927795.90625
-0.21,1778927795.921875
-11.11,1778927795.9375
-21.8,1778927795.953125
-31.69,1778927795.96875
-40.74,1778927795.984375
-49.46,1778927796.0
-58.71,1778927796.015625
-69.39,1778927796.03125
-82.03,1778927796.046875
-96.45,1778927796.0625
-111.58,1778927796.078125
-125.41,1778927796.09375
-135.38,1778927796.109375
-138.91,1778927796.125
-134.11,1778927796.140625
-120.34,1778927796.15625
-98.51,1778927796.171875
-70.82,1778927796.1875
-40.26,1778927796.203125
-9.86,1778927796.21875
17.9,1778927796.234375
41.43,1778927796.25
59.98,1778927796.265625
73.48,1778927796.28125
82.24,1778927796.296875
86.78,1778927796.3125
87.71,1778927796.328125
85.81,1778927796.34375
81.86,1778927796.359375
76.64,1778927796.375
70.73,1778927796.390625
64.45,1778927796.40625
57.88,1778927796.421875
51.02,1778927796.4375
44.02,1778927796.453125
37.23,1778927796.46875
31.2,1778927796.484375
26.47,1778927796.5
23.29,1778927796.515625
21.45,1778927796.53125
20.22,1778927796.546875
18.62,1778927796.5625
15.65,1778927796.578125
10.7,1778927796.59375
3.69,1778927796.609375
-4.93,1778927796.625
-14.38,1778927796.640625
-23.9,1778927796.65625
-32.98,1778927796.671875
-41.64,1778927796.6875
-50.28,1778927796.703125
-59.65,1778927796.71875
-70.5,1778927796.734375
-83.33,1778927796.75
-98.0,1778927796.765625
-113.49,1778927796.78125
-127.89,1778927796.796875
-138.56,1778927796.8125
-142.84,1778927796.828125
-138.65,1778927796.84375
-125.28,1778927796.859375
-103.62,1778927796.875
-75.96,1778927796.890625
-45.38,1778927796.90625
-14.9,1778927796.921875
13.04,1778927796.9375
36.98,1778927796.953125
56.25,1778927796.96875
70.81,1778927796.984375
80.89,1778927797.0
86.95,1778927797.015625
89.62,1778927797.03125
89.82,1778927797.046875
88.57,1778927797.0625
86.81,1778927797.078125
85.0,1778927797.09375
83.04,1778927797.109375
80.32,1778927797.125
76.2,1778927797.140625
70.5,1778927797.15625
63.71,1778927797.171875
56.96,1778927797.1875
51.52,1778927797.203125
48.15,1778927797.21875
46.75,1778927797.234375
46.33,1778927797.25
45.38,1778927797.265625
42.46,1778927797.28125
36.64,1778927797.296875
27.76,1778927797.3125
16.34,1778927797.328125
3.3,1778927797.34375
-10.35,1778927797.359375
-23.73,1778927797.375
-36.31,1778927797.390625
-47.93,1778927797.40625
-58.73,1778927797.421875
-69.21,1778927797.4375
-79.9,1778927797.453125
-91.07,1778927797.46875
-102.21,1778927797.484375
-111.72,1778927797.5
-116.94,1778927797.515625
-114.73,1778927797.53125
-102.54,1778927797.546875
-79.42,1778927797.5625
-46.7,1778927797.578125
-7.8,1778927797.59375
32.73,1778927797.609375
70.49,1778927797.625
102.37,1778927797.640625
127.0,1778927797.65625
144.54,1778927797.671875
155.9,1778927797.6875
162.03,1778927797.703125
163.47,1778927797.71875
160.31,1778927797.734375
152.54,1778927797.75
140.36,1778927797.765625
124.44,1778927797.78125
105.89,1778927797.796875
86.08,1778927797.8125
66.27,1778927797.828125
47.41,1778927797.84375
30.07,1778927797.859375
14.5,1778927797.875
0.72,1778927797.890625
-11.43,1778927797.90625
-22.26,1778927797.921875
-32.38,1778927797.9375
-42.64,1778927797.953125
-53.95,1778927797.96875
-66.92,1778927797.984375
-81.38,1778927798.0
-96.15,1778927798.015625
-109.23,1778927798.03125
-118.26,1778927798.046875
-121.45,1778927798.0625
-118.3,1778927798.078125
-110.06,1778927798.09375
-99.42,1778927798.109375
-89.76,1778927798.125
-83.96,1778927798.140625
-83.47,1778927798.15625
-87.73,1778927798.171875
-94.4,1778927798.1875
-100.08,1778927798.203125
-101.46,1778927798.21875
-96.33,1778927798.234375
-84.18,1778927798.25
-66.26,1778927798.265625
-45.15,1778927798.28125
-23.95,1778927798.296875
-5.46,1778927798.3125
8.4,1778927798.328125
16.86,1778927798.34375
20.15,1778927798.359375
19.23,1778927798.375
15.39,1778927798.390625
9.92,1778927798.40625
3.8,1778927798.421875
-2.75,1778927798.4375
-10.57,1778927798.453125
-21.61,1778927798.46875
-38.25,1778927798.484375
-62.16,1778927798.5
-92.87,1778927798.515625
-127.09,1778927798.53125
-158.98,1778927798.546875
-181.7,1778927798.5625
-189.58,1778927798.578125
-179.93,1778927798.59375
-153.99,1778927798.609375
-116.46,1778927798.625
-74.04,1778927798.640625
-33.6,1778927798.65625
-0.54,1778927798.671875
22.13,1778927798.6875
33.95,1778927798.703125
36.55,1778927798.71875
32.76,1778927798.734375
25.52,1778927798.75
17.1,1778927798.765625
8.57,1778927798.78125
-0.0,1778927798.796875
-9.14,1778927798.8125
-19.34,1778927798.828125
-30.46,1778927798.84375
-41.42,1778927798.859375
-50.28,1778927798.875
-54.58,1778927798.890625
-52.01,1778927798.90625
-41.11,1778927798.921875
-21.77,1778927798.9375
4.68,1778927798.953125
35.83,1778927798.96875
68.71,1778927798.984375
100.47,1778927799.0
128.74,1778927799.015625
151.89,1778927799.03125
168.98,1778927799.046875
179.73,1778927799.0625
184.53,1778927799.078125
184.25,1778927799.09375
180.11,1778927799.109375
173.34,1778927799.125
164.97,1778927799.140625
155.59,1778927799.15625
145.47,1778927799.171875
134.62,1778927799.1875
123.07,1778927799.203125
111.08,1778927799.21875
99.13,1778927799.234375
87.9,1778927799.25
78.09,1778927799.265625
70.13,1778927799.28125
63.98,1778927799.296875
59.03,1778927799.3125
54.25,1778927799.328125
48.42,1778927799.34375
40.51,1778927799.359375
30.06,1778927799.375
17.23,1778927799.390625
2.79,1778927799.40625
-12.17,1778927799.421875
-26.63,1778927799.4375
-39.91,1778927799.453125
-51.82,1778927799.46875
-62.81,1778927799.484375
-73.72,1778927799.5
-85.6,1778927799.515625
-99.27,1778927799.53125
-114.8,1778927799.546875
-131.17,1778927799.5625
-146.21,1778927799.578125
-156.94,1778927799.59375
-160.36,1778927799.609375
-154.37,1778927799.625
-138.42,1778927799.640625
-113.76,1778927799.65625
-83.01,1778927799.671875
-49.51,1778927799.6875
-16.39,1778927799.703125
13.9,1778927799.71875
39.89,1778927799.734375
60.89,1778927799.75
76.76,1778927799.765625
87.68,1778927799.78125
93.93,1778927799.796875
95.99,1778927799.8125
94.54,1778927799.828125
90.47,1778927799.84375
84.8,1778927799.859375
78.41,1778927799.875
71.89,1778927799.890625
65.43,1778927799.90625
58.94,1778927799.921875
52.29,1778927799.9375
45.51,1778927799.953125
38.91,1778927799.96875
32.98,1778927799.984375
28.14,1778927800.0
24.42,1778927800.015625
21.4,1778927800.03125
18.29,1778927800.046875
14.17,1778927800.0625
8.35,1778927800.078125
0.59,1778927800.09375
-8.75,1778927800.109375
-18.96,1778927800.125
-29.11,1778927800.140625
-38.51,1778927800.15625
-46.9,1778927800.171875
-54.62,1778927800.1875
-62.47,1778927800.203125
-71.48,1778927800.21875
-82.48,1778927800.234375
-95.56,1778927800.25
-109.81,1778927800.265625
-123.18,1778927800.28125
-132.94,1778927800.296875
-136.31,1778927800.3125
-131.28,1778927800.328125
-117.3,1778927800.34375
-95.37,1778927800.359375
-67.81,1778927800.375
-37.5,1778927800.390625
-7.28,1778927800.40625
20.67,1778927800.421875
44.89,1778927800.4375
64.66,1778927800.453125
79.69,1778927800.46875
90.0,1778927800.484375
95.86,1778927800.5
97.75,1778927800.515625
96.39,1778927800.53125
92.61,1778927800.546875
87.21,1778927800.5625
80.85,1778927800.578125
73.99,1778927800.59375
66.89,1778927800.609375
59.77,1778927800.625
52.92,1778927800.640625
46.64,1778927800.65625
41.28,1778927800.671875
37.04,1778927800.6875
33.84,1778927800.703125
31.3,1778927800.71875
28.8,1778927800.734375
25.59,1778927800.75
21.07,1778927800.765625
14.85,1778927800.78125
6.91,1778927800.796875
-2.49,1778927800.8125
-12.81,1778927800.828125
-23.5,1778927800.84375
-34.09,1778927800.859375
-44.38,1778927800.875
-54.54,1778927800.890625
-65.07,1778927800.90625
-76.64,1778927800.921875
-89.76,1778927800.9375
-104.36,1778927800.953125
-119.44,1778927800.96875
-133.04,1778927800.984375
-142.57,1778927801.0
-145.44,1778927801.015625
-139.85,1778927801.03125
-125.37,1778927801.046875
-103.1,1778927801.0625
-75.29,1778927801.078125
-44.77,1778927801.09375
-14.14,1778927801.109375
14.59,1778927801.125
40.12,1778927801.140625
61.72,1778927801.15625
78.93,1778927801.171875
91.49,1778927801.1875
99.39,1778927801.203125
102.91,1778927801.21875
102.66,1778927801.234375
99.59,1778927801.25
94.65,1778927801.265625
88.68,1778927801.28125
82.24,1778927801.296875
75.61,1778927801.3125
68.92,1778927801.328125
62.31,1778927801.34375
55.99,1778927801.359375
50.22,1778927801.375
45.24,1778927801.390625
41.12,1778927801.40625
37.7,1778927801.421875
34.54,1778927801.4375
31.08,1778927801.453125
26.73,1778927801.46875
21.08,1778927801.484375
14.09,1778927801.5
5.98,1778927801.515625
-2.78,1778927801.53125
-11.72,1778927801.546875
-20.52,1778927801.5625
-29.14,1778927801.578125
-37.83,1778927801.59375
-47.11,1778927801.609375
-57.62,1778927801.625
-69.94,1778927801.640625
-84.29,1778927801.65625
-100.16,1778927801.671875
-116.09,1778927801.6875
-129.72,1778927801.703125
-138.17,1778927801.71875
-138.85,1778927801.734375
-130.26,1778927801.75
-112.51,1778927801.765625
-87.38,1778927801.78125
-57.77,1778927801.796875
-26.9,1778927801.8125
2.5,1778927801.828125
28.54,1778927801.84375
50.28,1778927801.859375
67.43,1778927801.875
79.99,1778927801.890625
88.16,1778927801.90625
92.23,1778927801.921875
92.68,1778927801.9375
90.15,1778927801.953125
85.47,1778927801.96875
79.4,1778927801.984375
72.63,1778927802.0
65.54,1778927802.015625
58.38,1778927802.03125
51.23,1778927802.046875
44.2,1778927802.0625
37.47,1778927802.078125
31.33,1778927802.09375
26.07,1778927802.109375
21.87,1778927802.125
18.64,1778927802.140625
15.99,1778927802.15625
13.23,1778927802.171875
9.64,1778927802.1875
4.64,1778927802.203125
-1.95,1778927802.21875
-9.85,1778927802.234375
-18.46,1778927802.25
-27.06,1778927802.265625
-35.16,1778927802.28125
-42.62,1778927802.296875
-49.79,1778927802.3125
-57.37,1778927802.328125
-66.19,1778927802.34375
-76.88,1778927802.359375
-89.46,1778927802.375
-103.13,1778927802.390625
-116.15,1778927802.40625
-126.07,1778927802.421875
-130.29,1778927802.4375
-126.83,1778927802.453125
-114.87,1778927802.46875
-95.02,1778927802.484375
-69.18,1778927802.5
-40.04,1778927802.515625
-10.4,1778927802.53125
17.3,1778927802.546875
41.36,1778927802.5625
60.86,1778927802.578125
75.53,1778927802.59375
85.59,1778927802.609375
91.52,1778927802.625
93.92,1778927802.640625
93.41,1778927802.65625
90.56,1778927802.671875
85.93,1778927802.6875
80.03,1778927802.703125
73.34,1778927802.71875
66.25,1778927802.734375
59.12,1778927802.75
52.2,1778927802.765625
45.75,1778927802.78125
40.05,1778927802.796875
35.38,1778927802.8125
31.88,1778927802.828125
29.44,1778927802.84375
27.56,1778927802.859375
25.49,1778927802.875
22.36,1778927802.890625
17.53,1778927802.90625
10.8,1778927802.921875
2.44,1778927802.9375
-6.9,1778927802.953125
-16.46,1778927802.96875
-25.74,1778927802.984375
-34.67,1778927803.0
-43.67,1778927803.015625
-53.52,1778927803.03125
-64.94,1778927803.046875
-78.22,1778927803.0625
-92.84,1778927803.078125
-107.27,1778927803.09375
-119.21,1778927803.109375
-126.05,1778927803.125
-125.58,1778927803.140625
-116.65,1778927803.15625
-99.57,1778927803.171875
-75.98,1778927803.1875
-48.48,1778927803.203125
-19.95,1778927803.21875
7.05,1778927803.234375
30.68,1778927803.25
49.95,1778927803.265625
64.55,1778927803.28125
74.67,1778927803.296875
80.78,1778927803.3125
83.46,1778927803.328125
83.36,1778927803.34375
81.11,1778927803.359375
77.34,1778927803.375
72.57,1778927803.390625
67.18,1778927803.40625
61.38,1778927803.421875
55.27,1778927803.4375
49.02,1778927803.453125
42.93,1778927803.46875
37.49,1778927803.484375
33.2,1778927803.5
30.32,1778927803.515625
28.65,1778927803.53125
27.49,1778927803.546875
25.83,1778927803.5625
22.71,1778927803.578125
17.69,1778927803.59375
10.89,1778927803.609375
2.94,1778927803.625
-5.38,1778927803.640625
-13.51,1778927803.65625
-21.31,1778927803.671875
-29.18,1778927803.6875
-37.86,1778927803.703125
-48.16,1778927803.71875
-60.51,1778927803.734375
-74.7,1778927803.75
-89.58,1778927803.765625
-103.18,1778927803.78125
-113.01,1778927803.796875
-116.62,1778927803.8125
-112.34,1778927803.828125
-99.68,1778927803.84375
-79.57,1778927803.859375
-54.02,1778927803.875
-25.69,1778927803.890625
2.74,1778927803.90625
28.99,1778927803.921875
51.45,1778927803.9375
69.24,1778927803.953125
82.13,1778927803.96875
90.37,1778927803.984375
94.53,1778927804.0
95.34,1778927804.015625
93.52,1778927804.03125
89.77,1778927804.046875
84.63,1778927804.0625
78.58,1778927804.078125
71.97,1778927804.09375
65.11,1778927804.109375
58.25,1778927804.125
51.64,1778927804.140625
45.54,1778927804.15625
40.18,1778927804.171875
35.73,1778927804.1875
32.12,1778927804.203125
29.0,1778927804.21875
25.84,1778927804.234375
21.93,1778927804.25
16.7,1778927804.265625
9.9,1778927804.28125
1.68,1778927804.296875
-7.42,1778927804.3125
-16.68,1778927804.328125
-25.48,1778927804.34375
-33.58,1778927804.359375
-41.23,1778927804.375
-49.21,1778927804.390625
-58.55,1778927804.40625
-70.07,1778927804.421875
-83.93,1778927804.4375
-99.19,1778927804.453125
-113.86,1778927804.46875
-125.22,1778927804.484375
-130.55,1778927804.5
-127.81,1778927804.515625
-116.33,1778927804.53125
-96.9,1778927804.546875
-71.55,1778927804.5625
-43.0,1778927804.578125
-14.02,1778927804.59375
13.07,1778927804.609375
36.59,1778927804.625
55.65,1778927804.640625
69.93,1778927804.65625
79.61,1778927804.671875
85.17,1778927804.6875
87.26,1778927804.703125
86.63,1778927804.71875
84.06,1778927804.734375
80.2,1778927804.75
75.63,1778927804.765625
70.72,1778927804.78125
65.63,1778927804.796875
60.32,1778927804.8125
54.73,1778927804.828125
48.86,1778927804.84375
42.91,1778927804.859375
37.26,1778927804.875
32.34,1778927804.890625
28.42,1778927804.90625
25.36,1778927804.921875
22.6,1778927804.9375
19.34,1778927804.953125
14.82,1778927804.96875
8.61,1778927804.984375
0.81,1778927805.0
-8.08,1778927805.015625
-17.39,1778927805.03125
-26.54,1778927805.046875
-35.34,1778927805.0625
-43.97,1778927805.078125
-52.98,1778927805.09375
-63.01,1778927805.109375
-74.47,1778927805.125
-87.29,1778927805.140625
-100.68,1778927805.15625
-113.1,1778927805.171875
-122.49,1778927805.1875
-126.72,1778927805.203125
-124.11,1778927805.21875
-113.95,1778927805.234375
-96.72,1778927805.25
-74.03,1778927805.265625
-48.27,1778927805.28125
-22.08,1778927805.296875
2.14,1778927805.3125
22.61,1778927805.328125
38.37,1778927805.34375
49.24,1778927805.359375
55.62,1778927805.375
58.3,1778927805.390625
58.17,1778927805.40625
56.09,1778927805.421875
52.77,1778927805.4375
48.76,1778927805.453125
44.51,1778927805.46875
40.36,1778927805.484375
36.59,1778927805.5
33.46,1778927805.515625
31.3,1778927805.53125
30.5,1778927805.546875
31.54,1778927805.5625
34.73,1778927805.578125
40.06,1778927805.59375
46.95,1778927805.609375
54.35,1778927805.625
60.91,1778927805.640625
65.49,1778927805.65625
67.52,1778927805.671875
67.12,1778927805.6875
65.02,1778927805.703125
62.16,1778927805.71875
59.3,1778927805.734375
56.63,1778927805.75
53.69,1778927805.765625
49.36,1778927805.78125
42.15,1778927805.796875
30.71,1778927805.8125
14.27,1778927805.828125
-6.74,1778927805.84375
-30.53,1778927805.859375
-54.07,1778927805.875
-73.82,1778927805.890625
-86.69,1778927805.90625
-90.82,1778927805.921875
-86.12,1778927805.9375
-74.04,1778927805.953125
-57.04,1778927805.96875
-37.78,1778927805.984375
-18.55,1778927806.0
-0.93,1778927806.015625
14.21,1778927806.03125
26.52,1778927806.046875
36.02,1778927806.0625
42.84,1778927806.078125
47.04,1778927806.09375
48.52,1778927806.109375
47.08,1778927806.125
42.54,1778927806.140625
35.05,1778927806.15625
25.27,1778927806.171875
14.22,1778927806.1875
3.14,1778927806.203125
-6.89,1778927806.21875
-15.2,1778927806.234375
-21.55,1778927806.25
-25.95,1778927806.265625
-28.59,1778927806.28125
-29.68,1778927806.296875
-29.64,1778927806.3125
-29.09,1778927806.328125
-28.94,1778927806.34375
-30.12,1778927806.359375
-33.31,1778927806.375
-38.64,1778927806.390625
-45.62,1778927806.40625
-53.32,1778927806.421875
-60.79,1778927806.4375
-67.44,1778927806.453125
-73.46,1778927806.46875
-79.74,1778927806.484375
-87.6,1778927806.5
-98.21,1778927806.515625
-111.98,1778927806.53125
-128.17,1778927806.546875
-144.81,1778927806.5625
-159.16,1778927806.578125
-168.41,1778927806.59375
-170.62,1778927806.609375
-165.2,1778927806.625
-153.05,1778927806.640625
-136.3,1778927806.65625
-117.54,1778927806.671875
-99.16,1778927806.6875
-82.8,1778927806.703125
-69.28,1778927806.71875
-58.68,1778927806.734375
-50.79,1778927806.75
-45.48,1778927806.765625
-42.93,1778927806.78125
-43.7,1778927806.796875
-48.57,1778927806.8125
-58.1,1778927806.828125
-72.14,1778927806.84375
-89.33,1778927806.859375
-106.94,1778927806.875
-121.23,1778927806.890625
-128.48,1778927806.90625
-126.06,1778927806.921875
-113.37,1778927806.9375
-91.91,1778927806.953125
-64.52,1778927806.96875
-34.19,1778927806.984375
-3.1,1778927807.0
27.86,1778927807.015625
58.59,1778927807.03125
88.97,1778927807.046875
118.26,1778927807.0625
144.89,1778927807.078125
166.9,1778927807.09375
182.64,1778927807.109375
191.2,1778927807.125
192.45,1778927807.140625
186.72,1778927807.15625
174.58,1778927807.171875
156.63,1778927807.1875
133.74,1778927807.203125
107.14,1778927807.21875
78.4,1778927807.234375
49.32,1778927807.25
21.54,1778927807.265625
-3.47,1778927807.28125
-24.43,1778927807.296875
-39.96,1778927807.3125
-48.66,1778927807.328125
-49.28,1778927807.34375
-41.37,1778927807.359375
-25.71,1778927807.375
-4.39,1778927807.390625
19.67,1778927807.40625
43.49,1778927807.421875
64.85,1778927807.4375
82.64,1778927807.453125
96.71,1778927807.46875
107.29,1778927807.484375
114.55,1778927807.5
118.28,1778927807.515625
118.15,1778927807.53125
113.98,1778927807.546875
106.19,1778927807.5625
95.82,1778927807.578125
84.36,1778927807.59375
73.26,1778927807.609375
63.47,1778927807.625
55.27,1778927807.640625
48.28,1778927807.65625
41.81,1778927807.671875
35.41,1778927807.6875
29.07,1778927807.703125
23.25,1778927807.71875
18.56,1778927807.734375
15.32,1778927807.75
13.23,1778927807.765625
11.42,1778927807.78125
8.73,1778927807.796875
4.22,1778927807.8125
-2.46,1778927807.828125
-11.03,1778927807.84375
-20.66,1778927807.859375
-30.4,1778927807.875
-39.48,1778927807.890625
-47.56,1778927807.90625
-54.69,1778927807.921875
-61.45,1778927807.9375
-68.67,1778927807.953125
-77.29,1778927807.96875
-88.02,1778927807.984375
-100.78,1778927808.0
-114.47,1778927808.015625
-126.81,1778927808.03125
-134.85,1778927808.046875
-135.65,1778927808.0625
-127.42,1778927808.078125
-109.99,1778927808.09375
-85.03,1778927808.109375
-55.46,1778927808.125
-24.6,1778927808.140625
4.65,1778927808.15625
30.34,1778927808.171875
51.46,1778927808.1875
67.74,1778927808.203125
79.26,1778927808.21875
86.25,1778927808.234375
89.08,1778927808.25
88.3,1778927808.265625
84.7,1778927808.28125
79.25,1778927808.296875
72.85,1778927808.3125
66.18,1778927808.328125
59.54,1778927808.34375
52.92,1778927808.359375
46.25,1778927808.375
39.61,1778927808.390625
33.37,1778927808.40625
28.09,1778927808.421875
24.2,1778927808.4375
21.77,1778927808.453125
20.27,1778927808.46875
18.77,1778927808.484375
16.17,1778927808.5
11.74,1778927808.515625
5.3,1778927808.53125
-2.66,1778927808.546875
-11.33,1778927808.5625
-19.84,1778927808.578125
-27.59,1778927808.59375
-34.41,1778927808.609375
-40.58,1778927808.625
-46.76,1778927808.640625
-53.82,1778927808.65625
-62.64,1778927808.671875
-73.66,1778927808.6875
-86.54,1778927808.703125
-99.9,1778927808.71875
-111.37,1778927808.734375
-118.08,1778927808.75
-117.43,1778927808.765625
-107.96,1778927808.78125
-89.79,1778927808.796875
-64.69,1778927808.8125
-35.48,1778927808.828125
-5.32,1778927808.84375
23.09,1778927808.859375
47.83,1778927808.875
67.9,1778927808.890625
82.99,1778927808.90625
93.19,1778927808.921875
98.85,1778927808.9375
100.5,1778927808.953125
98.86,1778927808.96875
94.85,1778927808.984375
89.34,1778927809.0
83.14,1778927809.015625
76.7,1778927809.03125
70.17,1778927809.046875
63.52,1778927809.0625
56.78,1778927809.078125
50.19,1778927809.09375
44.22,1778927809.109375
39.34,1778927809.125
35.74,1778927809.140625
33.13,1778927809.15625
30.73,1778927809.171875
27.54,1778927809.1875
22.7,1778927809.203125
15.84,1778927809.21875
7.13,1778927809.234375
-2.8,1778927809.25
-13.17,1778927809.265625
-23.37,1778927809.28125
-33.15,1778927809.296875
-42.65,1778927809.3125
-52.35,1778927809.328125
-62.9,1778927809.34375
-74.9,1778927809.359375
-88.58,1778927809.375
-103.51,1778927809.390625
-118.3,1778927809.40625
-130.7,1778927809.421875
-137.94,1778927809.4375
-137.5,1778927809.453125
-127.92,1778927809.46875
-109.35,1778927809.484375
-83.63,1778927809.5
-53.78,1778927809.515625
-23.16,1778927809.53125
5.36,1778927809.546875
29.95,1778927809.5625
49.83,1778927809.578125
64.96,1778927809.59375
75.72,1778927809.609375
82.57,1778927809.625
86.01,1778927809.640625
86.64,1778927809.65625
85.14,1778927809.671875
82.21,1778927809.6875
78.44,1778927809.703125
74.12,1778927809.71875
69.28,1778927809.734375
63.82,1778927809.75
57.78,1778927809.765625
51.5,1778927809.78125
45.48,1778927809.796875
40.3,1778927809.8125
36.22,1778927809.828125
33.04,1778927809.84375
30.14,1778927809.859375
26.65,1778927809.875
21.84,1778927809.890625
15.34,1778927809.90625
7.28,1778927809.921875
-1.81,1778927809.9375
-11.27,1778927809.953125
-20.53,1778927809.96875
-29.38,1778927809.984375
-38.03,1778927810.0
-47.11,1778927810.015625
-57.43,1778927810.03125
-69.72,1778927810.046875
-84.13,1778927810.0625
-99.87,1778927810.078125
-115.08,1778927810.09375
-127.06,1778927810.109375
-132.84,1778927810.125
-130.06,1778927810.140625
-117.65,1778927810.15625
-96.25,1778927810.171875
-68.09,1778927810.1875
-36.33,1778927810.203125
-4.28,1778927810.21875
25.35,1778927810.234375
50.78,1778927810.25
71.2,1778927810.265625
86.53,1778927810.28125
97.03,1778927810.296875
103.14,1778927810.3125
105.38,1778927810.328125
104.41,1778927810.34375
101.01,1778927810.359375
95.99,1778927810.375
90.11,1778927810.390625
83.85,1778927810.40625
77.46,1778927810.421875
71.02,1778927810.4375
64.61,1778927810.453125
58.46,1778927810.46875
52.93,1778927810.484375
48.33,1778927810.5
44.76,1778927810.515625
41.89,1778927810.53125
39.03,1778927810.546875
35.36,1778927810.5625
30.21,1778927810.578125
23.35,1778927810.59375
15.02,1778927810.609375
5.77,1778927810.625
-3.83,1778927810.640625
-13.43,1778927810.65625
-23.11,1778927810.671875
-33.28,1778927810.6875
-44.53,1778927810.703125
-57.39,1778927810.71875
-71.97,1778927810.734375
-87.68,1778927810.75
-103.07,1778927810.765625
-115.94,1778927810.78125
-123.64,1778927810.796875
-123.75,1778927810.8125
-114.77,1778927810.828125
-96.74,1778927810.84375
-71.24,1778927810.859375
-41.12,1778927810.875
-9.7,1778927810.890625
19.94,1778927810.90625
45.55,1778927810.921875
65.86,1778927810.9375
80.48,1778927810.953125
89.61,1778927810.96875
93.78,1778927810.984375
93.75,1778927811.0
90.37,1778927811.015625
84.58,1778927811.03125
77.28,1778927811.046875
69.27,1778927811.0625
61.14,1778927811.078125
53.27,1778927811.09375
45.92,1778927811.109375
39.22,1778927811.125
33.26,1778927811.140625
28.1,1778927811.15625
23.66,1778927811.171875
19.78,1778927811.1875
16.15,1778927811.203125
12.38,1778927811.21875
8.09,1778927811.234375
3.0,1778927811.25
-2.94,1778927811.265625
-9.63,1778927811.28125
-16.86,1778927811.296875
-24.47,1778927811.3125
-32.47,1778927811.328125
-41.15,1778927811.34375
-50.98,1778927811.359375
-62.48,1778927811.375
-76.0,1778927811.390625
-91.36,1778927811.40625
-107.6,1778927811.421875
-122.79,1778927811.4375
-134.27,1778927811.453125
-139.15,1778927811.46875
-135.11,1778927811.484375
-121.19,1778927811.5
-98.23,1778927811.515625
-68.78,1778927811.53125
-36.33,1778927811.546875
-4.42,1778927811.5625
24.29,1778927811.578125
48.38,1778927811.59375
67.54,1778927811.609375
82.0,1778927811.625
92.11,1778927811.640625
98.14,1778927811.65625
100.32,1778927811.671875
99.12,1778927811.6875
95.37,1778927811.703125
90.19,1778927811.71875
84.56,1778927811.734375
79.1,1778927811.75
73.9,1778927811.765625
68.72,1778927811.78125
63.37,1778927811.796875
57.88,1778927811.8125
52.68,1778927811.828125
48.25,1778927811.84375
44.88,1778927811.859375
42.33,1778927811.875
39.89,1778927811.890625
36.66,1778927811.90625
31.81,1778927811.921875
25.01,1778927811.9375
16.33,1778927811.953125
6.31,1778927811.96875
-4.39,1778927811.984375
-15.14,1778927812.0
-25.54,1778927812.015625
-35.55,1778927812.03125
-45.57,1778927812.046875
-56.34,1778927812.0625
-68.71,1778927812.078125
-83.2,1778927812.09375
-99.35,1778927812.109375
-115.44,1778927812.125
-128.57,1778927812.140625
-135.41,1778927812.15625
-133.18,1778927812.171875
-120.68,1778927812.1875
-98.74,1778927812.203125
-69.96,1778927812.21875
-37.86,1778927812.234375
-5.9,1778927812.25
23.29,1778927812.265625
48.23,1778927812.28125
68.37,1778927812.296875
83.65,1778927812.3125
94.27,1778927812.328125
100.46,1778927812.34375
102.52,1778927812.359375
101.01,1778927812.375
96.7,1778927812.390625
90.59,1778927812.40625
83.72,1778927812.421875
76.95,1778927812.4375
70.85,1778927812.453125
65.61,1778927812.46875
61.09,1778927812.484375
57.01,1778927812.5
53.1,1778927812.515625
49.28,1778927812.53125
45.65,1778927812.546875
42.4,1778927812.5625
39.6,1778927812.578125
37.04,1778927812.59375
34.17,1778927812.609375
30.23,1778927812.625
24.58,1778927812.640625
16.95,1778927812.65625
7.55,1778927812.671875
-2.93,1778927812.6875
-13.66,1778927812.703125
-23.97,1778927812.71875
-33.53,1778927812.734375
-42.43,1778927812.75
-51.11,1778927812.765625
-60.19,1778927812.78125
-70.27,1778927812.796875
-81.7,1778927812.8125
-94.35,1778927812.828125
-107.29,1778927812.84375
-118.74,1778927812.859375
-126.2,1778927812.875
-127.02,1778927812.890625
-119.2,1778927812.90625
-102.07,1778927812.921875
-76.75,1778927812.9375
-45.81,1778927812.953125
-12.65,1778927812.96875
19.47,1778927812.984375
48.12,1778927813.0
72.02,1778927813.015625
90.84,1778927813.03125
104.89,1778927813.046875
114.59,1778927813.0625
120.34,1778927813.078125
122.45,1778927813.09375
121.28,1778927813.109375
117.32,1778927813.125
111.3,1778927813.140625
104.0,1778927813.15625
96.26,1778927813.171875
88.72,1778927813.1875
81.86,1778927813.203125
75.86,1778927813.21875
70.72,1778927813.234375
66.26,1778927813.25
62.23,1778927813.265625
58.4,1778927813.28125
54.59,1778927813.296875
50.64,1778927813.3125
46.44,1778927813.328125
41.84,1778927813.34375
36.61,1778927813.359375
30.5,1778927813.375
23.25,1778927813.390625
14.72,1778927813.40625
4.99,1778927813.421875
-5.65,1778927813.4375
-16.7,1778927813.453125
-27.61,1778927813.46875
-37.94,1778927813.484375
-47.5,1778927813.5
-56.36,1778927813.515625
-64.88,1778927813.53125
-73.58,1778927813.546875
-83.08,1778927813.5625
-93.73,1778927813.578125
-105.38,1778927813.59375
-117.07,1778927813.609375
-126.96,1778927813.625
-132.62,1778927813.640625
-131.67,1778927813.65625
-122.56,1778927813.671875
-105.2,1778927813.6875
-81.14,1778927813.703125
-53.09,1778927813.71875
-24.22,1778927813.734375
2.76,1778927813.75
26.06,1778927813.765625
44.95,1778927813.78125
59.41,1778927813.796875
69.67,1778927813.8125
76.01,1778927813.828125
78.63,1778927813.84375
77.89,1778927813.859375
74.44,1778927813.875
69.22,1778927813.890625
63.33,1778927813.90625
57.68,1778927813.921875
52.78,1778927813.9375
48.63,1778927813.953125
44.93,1778927813.96875
41.27,1778927813.984375
37.4,1778927814.0
33.37,1778927814.015625
29.42,1778927814.03125
25.84,1778927814.046875
22.73,1778927814.0625
20.0,1778927814.078125
17.23,1778927814.09375
13.92,1778927814.109375
9.53,1778927814.125
3.7,1778927814.140625
-3.61,1778927814.15625
-12.17,1778927814.171875
-21.43,1778927814.1875
-30.77,1778927814.203125
-39.68,1778927814.21875
-47.89,1778927814.234375
-55.53,1778927814.25
-63.08,1778927814.265625
-71.29,1778927814.28125
-80.81,1778927814.296875
-91.93,1778927814.3125
-104.13,1778927814.328125
-116.01,1778927814.34375
-125.31,1778927814.359375
-129.46,1778927814.375
-126.26,1778927814.390625
-114.63,1778927814.40625
-94.99,1778927814.421875
-69.3,1778927814.4375
-40.46,1778927814.453125
-11.57,1778927814.46875
14.82,1778927814.484375
37.13,1778927814.5
54.82,1778927814.515625
68.05,1778927814.53125
77.3,1778927814.546875
83.06,1778927814.5625
85.73,1778927814.578125
85.69,1778927814.59375
83.41,1778927814.609375
79.51,1778927814.625
74.65,1778927814.640625
69.43,1778927814.65625
64.23,1778927814.671875
59.2,1778927814.6875
54.35,1778927814.703125
49.67,1778927814.71875
45.19,1778927814.734375
41.04,1778927814.75
37.32,1778927814.765625
34.09,1778927814.78125
31.26,1778927814.796875
28.6,1778927814.8125
25.77,1778927814.828125
22.35,1778927814.84375
17.93,1778927814.859375
12.18,1778927814.875
5.02,1778927814.890625
-3.39,1778927814.90625
-12.61,1778927814.921875
-22.05,1778927814.9375
-31.19,1778927814.953125
-39.67,1778927814.96875
-47.55,1778927814.984375
-55.15,1778927815.0
-63.0,1778927815.015625
-71.67,1778927815.03125
-81.44,1778927815.046875
-92.15,1778927815.0625
-103.03,1778927815.078125
-112.65,1778927815.09375
-119.13,1778927815.109375
-120.53,1778927815.125
-115.34,1778927815.140625
-102.95,1778927815.15625
-83.97,1778927815.171875
-60.11,1778927815.1875
-33.8,1778927815.203125
-7.57,1778927815.21875
16.44,1778927815.234375
36.88,1778927815.25
53.17,1778927815.265625
65.35,1778927815.28125
73.74,1778927815.296875
78.78,1778927815.3125
80.89,1778927815.328125
80.46,1778927815.34375
77.97,1778927815.359375
73.95,1778927815.375
69.0,1778927815.390625
63.73,1778927815.40625
58.61,1778927815.421875
53.93,1778927815.4375
49.79,1778927815.453125
46.13,1778927815.46875
42.82,1778927815.484375
39.8,1778927815.5
37.09,1778927815.515625
34.7,1778927815.53125
32.59,1778927815.546875
30.55,1778927815.5625
28.15,1778927815.578125
24.93,1778927815.59375
20.54,1778927815.609375
14.88,1778927815.625
8.12,1778927815.640625
0.58,1778927815.65625
-7.44,1778927815.671875
-15.69,1778927815.6875
-23.99,1778927815.703125
-32.17,1778927815.71875
-40.0,1778927815.734375
-47.3,1778927815.75
-54.13,1778927815.765625
-60.83,1778927815.78125
-68.07,1778927815.796875
-76.56,1778927815.8125
-86.56,1778927815.828125
-97.53,1778927815.84375
-107.98,1778927815.859375
-115.68,1778927815.875
-118.35,1778927815.890625
-114.3,1778927815.90625
-103.05,1778927815.921875
-85.39,1778927815.9375
-63.19,1778927815.953125
-38.8,1778927815.96875
-14.47,1778927815.984375
8.02,1778927816.0
27.47,1778927816.015625
43.21,1778927816.03125
54.93,1778927816.046875
62.61,1778927816.0625
66.54,1778927816.078125
67.22,1778927816.09375
65.37,1778927816.109375
61.82,1778927816.125
57.35,1778927816.140625
52.65,1778927816.15625
48.21,1778927816.171875
44.3,1778927816.1875
41.02,1778927816.203125
38.24,1778927816.21875
35.78,1778927816.234375
33.42,1778927816.25
31.14,1778927816.265625
29.03,1778927816.28125
27.29,1778927816.296875
26.03,1778927816.3125
25.16,1778927816.328125
24.24,1778927816.34375
22.66,1778927816.359375
19.75,1778927816.375
15.11,1778927816.390625
8.76,1778927816.40625
1.14,1778927816.421875
-7.03,1778927816.4375
-15.02,1778927816.453125
-22.39,1778927816.46875
-29.07,1778927816.484375
-35.4,1778927816.5
-42.07,1778927816.515625
-49.87,1778927816.53125
-59.39,1778927816.546875
-70.72,1778927816.5625
-83.1,1778927816.578125
-94.93,1778927816.59375
-104.04,1778927816.609375
-108.26,1778927816.625
-106.02,1778927816.640625
-96.86,1778927816.65625
-81.56,1778927816.671875
-61.86,1778927816.6875
-40.0,1778927816.703125
-18.15,1778927816.71875
1.97,1778927816.734375
19.25,1778927816.75
33.13,1778927816.765625
43.46,1778927816.78125
50.3,1778927816.796875
53.84,1778927816.8125
54.3,1778927816.828125
52.03,1778927816.84375
47.58,1778927816.859375
41.67,1778927816.875
35.14,1778927816.890625
28.72,1778927816.90625
22.85,1778927816.921875
17.57,1778927816.9375
12.69,1778927816.953125
8.02,1778927816.96875
3.57,1778927816.984375
-0.34,1778927817.0
-3.32,1778927817.015625
-5.15,1778927817.03125
-6.04,1778927817.046875
-6.59,1778927817.0625
-7.69,1778927817.078125
-10.08,1778927817.09375
-14.08,1778927817.109375
-19.5,1778927817.125
-25.74,1778927817.140625
-32.08,1778927817.15625
-37.98,1778927817.171875
-43.28,1778927817.1875
-48.13,1778927817.203125
-52.96,1778927817.21875
-58.17,1778927817.234375
-64.1,1778927817.25
-70.99,1778927817.265625
-78.94,1778927817.28125
-87.75,1778927817.296875
-96.69,1778927817.3125
-104.42,1778927817.328125
-109.07,1778927817.34375
-108.66,1778927817.359375
-101.7,1778927817.375
-87.83,1778927817.390625
-67.91,1778927817.40625
-43.91,1778927817.421875
-18.28,1778927817.4375
6.64,1778927817.453125
29.03,1778927817.46875
47.8,1778927817.484375
62.54,1778927817.5
73.29,1778927817.515625
80.34,1778927817.53125
84.18,1778927817.546875
85.3,1778927817.5625
84.28,1778927817.578125
81.61,1778927817.59375
77.84,1778927817.609375
73.4,1778927817.625
68.69,1778927817.640625
64.04,1778927817.65625
59.61,1778927817.671875
55.53,1778927817.6875
51.8,1778927817.703125
48.45,1778927817.71875
45.45,1778927817.734375
42.75,1778927817.75
40.2,1778927817.765625
37.52,1778927817.78125
34.29,1778927817.796875
30.09,1778927817.8125
24.59,1778927817.828125
17.72,1778927817.84375
9.67,1778927817.859375
0.85,1778927817.875
-8.25,1778927817.890625
-17.14,1778927817.90625
-25.49,1778927817.921875
-33.04,1778927817.9375
-39.83,1778927817.953125
-46.04,1778927817.96875
-52.25,1778927817.984375
-59.24,1778927818.0
-67.8,1778927818.015625
-78.39,1778927818.03125
-90.54,1778927818.046875
-102.68,1778927818.0625
-112.1,1778927818.078125
-115.71,1778927818.09375
-110.73,1778927818.109375
-95.74,1778927818.125
-71.14,1778927818.140625
-39.13,1778927818.15625
-3.24,1778927818.171875
32.73,1778927818.1875
65.48,1778927818.203125
92.89,1778927818.21875
114.26,1778927818.234375
130.08,1778927818.25
141.55,1778927818.265625
150.01,1778927818.28125
156.55,1778927818.296875
161.71,1778927818.3125
165.58,1778927818.328125
167.93,1778927818.34375
168.38,1778927818.359375
166.44,1778927818.375
161.61,1778927818.390625
153.48,1778927818.40625
141.85,1778927818.421875
127.08,1778927818.4375
110.05,1778927818.453125
92.12,1778927818.46875
74.67,1778927818.484375
58.75,1778927818.5
44.83,1778927818.515625
32.75,1778927818.53125
21.91,1778927818.546875
11.59,1778927818.5625
1.19,1778927818.578125
-9.66,1778927818.59375
-21.03,1778927818.609375
-32.75,1778927818.625
-44.54,1778927818.640625
-56.04,1778927818.65625
-66.99,1778927818.671875
-77.26,1778927818.6875
-86.94,1778927818.703125
-96.19,1778927818.71875
-105.33,1778927818.734375
-114.72,1778927818.75
-124.64,1778927818.765625
-135.06,1778927818.78125
-145.28,1778927818.796875
-153.84,1778927818.8125
-158.66,1778927818.828125
-157.73,1778927818.84375
-149.77,1778927818.859375
-134.86,1778927818.875
-114.51,1778927818.890625
-91.08,1778927818.90625
-67.05,1778927818.921875
-44.3,1778927818.9375
-23.92,1778927818.953125
-6.35,1778927818.96875
8.19,1778927818.984375
19.55,1778927819.0
27.53,1778927819.015625
32.17,1778927819.03125
33.88,1778927819.046875
33.43,1778927819.0625
31.72,1778927819.078125
29.48,1778927819.09375
27.12,1778927819.109375
24.75,1778927819.125
22.27,1778927819.140625
19.58,1778927819.15625
16.71,1778927819.171875
13.87,1778927819.1875
11.31,1778927819.203125
9.24,1778927819.21875
7.71,1778927819.234375
6.5,1778927819.25
5.16,1778927819.265625
3.11,1778927819.28125
-0.2,1778927819.296875
-5.02,1778927819.3125
-11.3,1778927819.328125
-18.66,1778927819.34375
-26.59,1778927819.359375
-34.64,1778927819.375
-42.66,1778927819.390625
-50.75,1778927819.40625
-59.3,1778927819.421875
-68.8,1778927819.4375
-79.6,1778927819.453125
-91.8,1778927819.46875
-104.99,1778927819.484375
-118.19,1778927819.5
-129.83,1778927819.515625
-138.02,1778927819.53125
-140.86,1778927819.546875
-137.04,1778927819.5625
-126.21,1778927819.578125
-109.09,1778927819.59375
-87.32,1778927819.609375
-62.95,1778927819.625
-38.01,1778927819.640625
-14.11,1778927819.65625
7.62,1778927819.671875
26.38,1778927819.6875
41.6,1778927819.703125
52.83,1778927819.71875
59.82,1778927819.734375
62.75,1778927819.75
62.29,1778927819.765625
59.57,1778927819.78125
55.9,1778927819.796875
52.35,1778927819.8125
49.5,1778927819.828125
47.23,1778927819.84375
44.99,1778927819.859375
42.18,1778927819.875
38.58,1778927819.890625
34.61,1778927819.90625
31.17,1778927819.921875
29.27,1778927819.9375
29.45,1778927819.953125
31.41,1778927819.96875
34.11,1778927819.984375
36.03,1778927820.0
35.88,1778927820.015625
33.06,1778927820.03125
27.79,1778927820.046875
20.93,1778927820.0625
13.6,1778927820.078125
6.69,1778927820.09375
0.68,1778927820.109375
-4.38,1778927820.125
-8.89,1778927820.140625
-13.52,1778927820.15625
-19.11,1778927820.171875
-26.44,1778927820.1875
-35.76,1778927820.203125
-46.46,1778927820.21875
-56.89,1778927820.234375
-64.65,1778927820.25
-67.29,1778927820.265625
-63.13,1778927820.28125
-51.85,1778927820.296875
-34.58,1778927820.3125
-13.42,1778927820.328125
9.2,1778927820.34375
31.11,1778927820.359375
50.75,1778927820.375
67.12,1778927820.390625
79.64,1778927820.40625
88.12,1778927820.421875
92.72,1778927820.4375
93.91,1778927820.453125
92.45,1778927820.46875
89.07,1778927820.484375
84.33,1778927820.5
78.36,1778927820.515625
71.1,1778927820.53125
62.36,1778927820.546875
52.14,1778927820.5625
40.72,1778927820.578125
28.72,1778927820.59375
16.92,1778927820.609375
6.04,1778927820.625
-3.58,1778927820.640625
-12.11,1778927820.65625
-20.3,1778927820.671875
-29.28,1778927820.6875
-40.18,1778927820.703125
-53.71,1778927820.71875
-69.87,1778927820.734375
-87.93,1778927820.75
-106.73,1778927820.765625
-125.14,1778927820.78125
-142.46,1778927820.796875
-158.7,1778927820.8125
-174.49,1778927820.828125
-190.83,1778927820.84375
-208.76,1778927820.859375
-229.06,1778927820.875
-251.8,1778927820.890625
-275.96,1778927820.90625
-299.16,1778927820.921875
-317.62,1778927820.9375
-326.99,1778927820.953125
-323.48,1778927820.96875
-305.24,1778927820.984375
-273.12,1778927821.0
-230.49,1778927821.015625
-182.01,1778927821.03125
-132.02,1778927821.046875
-83.2,1778927821.0625
-36.38,1778927821.078125
8.66,1778927821.09375
51.86,1778927821.109375
92.01,1778927821.125
126.78,1778927821.140625
153.69,1778927821.15625
171.38,1778927821.171875
180.2,1778927821.1875
182.0,1778927821.203125
179.25,1778927821.21875
173.91,1778927821.234375
167.07,1778927821.25
159.08,1778927821.265625
150.25,1778927821.28125
141.46,1778927821.296875
134.14,1778927821.3125
129.73,1778927821.328125
128.93,1778927821.34375
131.2,1778927821.359375
134.85,1778927821.375
137.63,1778927821.390625
137.62,1778927821.40625
133.69,1778927821.421875
125.79,1778927821.4375
114.62,1778927821.453125
101.22,1778927821.46875
86.5,1778927821.484375
71.13,1778927821.5
55.46,1778927821.515625
39.64,1778927821.53125
23.81,1778927821.546875
8.02,1778927821.5625
-7.7,1778927821.578125
-23.63,1778927821.59375
-40.28,1778927821.609375
-58.28,1778927821.625
-77.89,1778927821.640625
-98.56,1778927821.65625
-118.63,1778927821.671875
-135.31,1778927821.6875
-145.42,1778927821.703125
-146.14,1778927821.71875
-136.08,1778927821.734375
-115.74,1778927821.75
-87.43,1778927821.765625
-54.54,1778927821.78125
-20.61,1778927821.796875
11.46,1778927821.8125
39.88,1778927821.828125
63.71,1778927821.84375
82.61,1778927821.859375
96.38,1778927821.875
104.9,1778927821.890625
108.26,1778927821.90625
106.95,1778927821.921875
102.04,1778927821.9375
94.99,1778927821.953125
87.34,1778927821.96875
80.24,1778927821.984375
74.17,1778927822.0
69.05,1778927822.015625
64.43,1778927822.03125
59.95,1778927822.046875
55.6,1778927822.0625
51.76,1778927822.078125
48.91,1778927822.09375
47.25,1778927822.109375
46.42,1778927822.125
45.53,1778927822.140625
43.45,1778927822.15625
39.23,1778927822.171875
32.52,1778927822.1875
23.65,1778927822.203125
13.4,1778927822.21875
2.61,1778927822.234375
-8.18,1778927822.25
-18.86,1778927822.265625
-29.77,1778927822.28125
-41.41,1778927822.296875
-54.28,1778927822.3125
-68.74,1778927822.328125
-84.91,1778927822.34375
-102.47,1778927822.359375
-120.37,1778927822.375
-136.59,1778927822.390625
-148.21,1778927822.40625
-152.0,1778927822.421875
-145.31,1778927822.4375
-127.15,1778927822.453125
-98.71,1778927822.46875
-63.08,1778927822.484375
-24.45,1778927822.5
13.13,1778927822.515625
46.67,1778927822.53125
74.63,1778927822.546875
96.7,1778927822.5625
113.21,1778927822.578125
124.66,1778927822.59375
131.49,1778927822.609375
134.13,1778927822.625
133.25,1778927822.640625
129.74,1778927822.65625
124.64,1778927822.671875
118.79,1778927822.6875
112.63,1778927822.703125
106.24,1778927822.71875
99.41,1778927822.734375
92.04,1778927822.75
84.35,1778927822.765625
76.89,1778927822.78125
70.44,1778927822.796875
65.49,1778927822.8125
62.03,1778927822.828125
59.3,1778927822.84375
56.02,1778927822.859375
50.82,1778927822.875
42.78,1778927822.890625
31.79,1778927822.90625
18.6,1778927822.921875
4.49,1778927822.9375
-9.27,1778927822.953125
-21.92,1778927822.96875
-33.41,1778927822.984375
-44.33,1778927823.0
-55.64,1778927823.015625
-68.28,1778927823.03125
-82.95,1778927823.046875
-99.78,1778927823.0625
-118.06,1778927823.078125
-135.99,1778927823.09375
-150.79,1778927823.109375
-159.25,1778927823.125
-158.65,1778927823.140625
-147.64,1778927823.15625
-126.8,1778927823.171875
-98.41,1778927823.1875
-65.71,1778927823.203125
-31.93,1778927823.21875
0.46,1778927823.234375
29.86,1778927823.25
55.32,1778927823.265625
76.22,1778927823.28125
92.02,1778927823.296875
102.44,1778927823.3125
107.62,1778927823.328125
108.34,1778927823.34375
105.82,1778927823.359375
101.45,1778927823.375
96.34,1778927823.390625
91.01,1778927823.40625
85.44,1778927823.421875
79.32,1778927823.4375
72.46,1778927823.453125
65.18,1778927823.46875
58.35,1778927823.484375
53.04,1778927823.5
49.97,1778927823.515625
49.02,1778927823.53125
49.12,1778927823.546875
48.57,1778927823.5625
45.83,1778927823.578125
40.05,1778927823.59375
31.43,1778927823.609375
20.97,1778927823.625
9.94,1778927823.640625
-0.71,1778927823.65625
-10.64,1778927823.671875
-20.16,1778927823.6875
-29.94,1778927823.703125
-40.83,1778927823.71875
-53.63,1778927823.734375
-68.82,1778927823.75
-86.26,1778927823.765625
-104.71,1778927823.78125
-121.76,1778927823.796875
-134.0,1778927823.8125
-137.91,1778927823.828125
-130.94,1778927823.84375
-112.58,1778927823.859375
-84.7,1778927823.875
-51.07,1778927823.890625
-16.19,1778927823.90625
16.07,1778927823.921875
43.36,1778927823.9375
64.97,1778927823.953125
81.39,1778927823.96875
93.55,1778927823.984375
102.24,1778927824.0
107.76,1778927824.015625
110.2,1778927824.03125
109.6,1778927824.046875
106.24,1778927824.0625
100.7,1778927824.078125
93.68,1778927824.09375
85.86,1778927824.109375
77.77,1778927824.125
69.79,1778927824.140625
62.26,1778927824.15625
55.49,1778927824.171875
49.72,1778927824.1875
45.02,1778927824.203125
41.13,1778927824.21875
37.48,1778927824.234375
33.3,1778927824.25
27.92,1778927824.265625
20.97,1778927824.28125
12.56,1778927824.296875
3.12,1778927824.3125
-6.79,1778927824.328125
-16.86,1778927824.34375
-27.19,1778927824.359375
-38.39,1778927824.375
-51.31,1778927824.390625
-66.57,1778927824.40625
-84.01,1778927824.421875
-102.22,1778927824.4375
-118.61,1778927824.453125
-129.79,1778927824.46875
-132.58,1778927824.484375
-124.96,1778927824.5
-106.82,1778927824.515625
-80.01,1778927824.53125
-47.84,1778927824.546875
-14.11,1778927824.5625
17.83,1778927824.578125
45.68,1778927824.59375
68.33,1778927824.609375
85.62,1778927824.625
97.95,1778927824.640625
105.95,1778927824.65625
110.22,1778927824.671875
111.36,1778927824.6875
109.81,1778927824.703125
106.01,1778927824.71875
100.28,1778927824.734375
93.01,1778927824.75
84.64,1778927824.765625
75.73,1778927824.78125
66.91,1778927824.796875
58.79,1778927824.8125
51.76,1778927824.828125
45.88,1778927824.84375
40.92,1778927824.859375
36.34,1778927824.875
31.6,1778927824.890625
26.25,1778927824.90625
20.01,1778927824.921875
12.84,1778927824.9375
4.85,1778927824.953125
-3.77,1778927824.96875
-12.84,1778927824.984375
-22.29,1778927825.0
-32.33,1778927825.015625
-43.45,1778927825.03125
-56.27,1778927825.046875
-71.14,1778927825.0625
-87.6,1778927825.078125
-103.9,1778927825.09375
-117.12,1778927825.109375
-123.82,1778927825.125
-121.07,1778927825.140625
-107.59,1778927825.15625
-84.27,1778927825.171875
-53.95,1778927825.1875
-20.46,1778927825.203125
12.46,1778927825.21875
42.0,1778927825.234375
66.61,1778927825.25
85.71,1778927825.265625
99.31,1778927825.28125
107.64,1778927825.296875
111.16,1778927825.3125
110.53,1778927825.328125
106.76,1778927825.34375
100.99,1778927825.359375
94.23,1778927825.375
87.09,1778927825.390625
79.76,1778927825.40625
72.18,1778927825.421875
64.35,1778927825.4375
56.52,1778927825.453125
49.26,1778927825.46875
43.19,1778927825.484375
38.68,1778927825.5
35.59,1778927825.515625
33.2,1778927825.53125
30.44,1778927825.546875
26.28,1778927825.5625
20.08,1778927825.578125
11.86,1778927825.59375
2.2,1778927825.609375
-7.99,1778927825.625
-17.91,1778927825.640625
-27.21,1778927825.65625
-36.11,1778927825.671875
-45.35,1778927825.6875
-55.9,1778927825.703125
-68.56,1778927825.71875
-83.55,1778927825.734375
-100.17,1778927825.75
-116.6,1778927825.765625
-130.07,1778927825.78125
-137.41,1778927825.796875
-135.9,1778927825.8125
-124.16,1778927825.828125
-102.71,1778927825.84375
-73.96,1778927825.859375
-41.53,1778927825.875
-9.24,1778927825.890625
19.8,1778927825.90625
43.79,1778927825.921875
62.09,1778927825.9375
74.92,1778927825.953125
82.8,1778927825.96875
86.34,1778927825.984375
86.22,1778927826.0
83.18,1778927826.015625
78.1,1778927826.03125
71.83,1778927826.046875
65.04,1778927826.0625
58.11,1778927826.078125
51.21,1778927826.09375
44.39,1778927826.109375
37.87,1778927826.125
32.01,1778927826.140625
27.26,1778927826.15625
23.88,1778927826.171875
21.77,1778927826.1875
20.37,1778927826.203125
18.78,1778927826.21875
16.09,1778927826.234375
11.64,1778927826.25
5.24,1778927826.265625
-2.84,1778927826.28125
-12.0,1778927826.296875
-21.58,1778927826.3125
-31.11,1778927826.328125
-40.48,1778927826.34375
-50.11,1778927826.359375
-60.76,1778927826.375
-73.28,1778927826.390625
-87.98,1778927826.40625
-104.08,1778927826.421875
-119.44,1778927826.4375
-130.86,1778927826.453125
-134.88,1778927826.46875
-128.97,1778927826.484375
-112.39,1778927826.5
-86.6,1778927826.515625
-54.8,1778927826.53125
-20.99,1778927826.546875
11.18,1778927826.5625
39.13,1778927826.578125
61.63,1778927826.59375
78.49,1778927826.609375
90.15,1778927826.625
97.25,1778927826.640625
100.4,1778927826.65625
100.24,1778927826.671875
97.5,1778927826.6875
93.03,1778927826.703125
87.71,1778927826.71875
82.26,1778927826.734375
77.06,1778927826.75
72.11,1778927826.765625
67.17,1778927826.78125
62.09,1778927826.796875
57.02,1778927826.8125
52.46,1778927826.828125
49.07,1778927826.84375
47.2,1778927826.859375
46.67,1778927826.875
46.62,1778927826.890625
45.88,1778927826.90625
43.36,1778927826.921875
38.53,1778927826.9375
31.58,1778927826.953125
23.26,1778927826.96875
14.61,1778927826.984375
6.48,1778927827.0
-0.7,1778927827.015625
-7.12,1778927827.03125
-13.5,1778927827.046875
-20.98,1778927827.0625
-30.7,1778927827.078125
-43.28,1778927827.09375
-58.22,1778927827.109375
-73.57,1778927827.125
-86.1,1778927827.140625
-92.12,1778927827.15625
-88.49,1778927827.171875
-73.77,1778927827.1875
-48.64,1778927827.203125
-15.74,1778927827.21875
21.19,1778927827.234375
58.37,1778927827.25
92.86,1778927827.265625
122.97,1778927827.28125
148.13,1778927827.296875
168.53,1778927827.3125
184.58,1778927827.328125
196.71,1778927827.34375
205.16,1778927827.359375
210.12,1778927827.375
211.79,1778927827.390625
210.5,1778927827.40625
206.65,1778927827.421875
200.64,1778927827.4375
192.83,1778927827.453125
183.58,1778927827.46875
173.27,1778927827.484375
162.37,1778927827.5
151.31,1778927827.515625
140.43,1778927827.53125
129.75,1778927827.546875
119.15,1778927827.5625
108.39,1778927827.578125
97.42,1778927827.59375
86.37,1778927827.609375
75.53,1778927827.625
65.06,1778927827.640625
54.77,1778927827.65625
44.12,1778927827.671875
32.44,1778927827.6875
19.15,1778927827.703125
3.99,1778927827.71875
-13.07,1778927827.734375
-32.11,1778927827.75
-53.47,1778927827.765625
-77.78,1778927827.78125
-105.59,1778927827.796875
-136.78,1778927827.8125
-170.03,1778927827.828125
-202.7,1778927827.84375
-231.35,1778927827.859375
-252.79,1778927827.875
-265.17,1778927827.890625
-268.67,1778927827.90625
-265.44,1778927827.921875
-258.81,1778927827.9375
-252.13,1778927827.953125
-247.71,1778927827.96875
-246.51,1778927827.984375
-248.34,1778927828.0
-252.7,1778927828.015625
-259.49,1778927828.03125
-269.32,1778927828.046875
-283.14,1778927828.0625
-301.53,1778927828.078125
-323.97,1778927828.09375
-348.63,1778927828.109375
-372.63,1778927828.125
-392.79,1778927828.140625
-406.36,1778927828.15625
-411.56,1778927828.171875
-407.7,1778927828.1875
-395.04,1778927828.203125
-374.63,1778927828.21875
-348.24,1778927828.234375
-318.27,1778927828.25
-287.48,1778927828.265625
-258.47,1778927828.28125
-232.86,1778927828.296875
-210.82,1778927828.3125
-190.97,1778927828.328125
-171.06,1778927828.34375
-149.01,1778927828.359375
-123.84,1778927828.375
-95.99,1778927828.390625
-66.93,1778927828.40625
-38.37,1778927828.421875
-11.53,1778927828.4375
13.06,1778927828.453125
35.31,1778927828.46875
55.11,1778927828.484375
71.98,1778927828.5
85.12,1778927828.515625
93.76,1778927828.53125
97.57,1778927828.546875
97.02,1778927828.5625
93.4,1778927828.578125
88.62,1778927828.59375
84.86,1778927828.609375
84.09,1778927828.625
87.72,1778927828.640625
96.3,1778927828.65625
109.42,1778927828.671875
125.96,1778927828.6875
144.4,1778927828.703125
163.13,1778927828.71875
180.63,1778927828.734375
195.28,1778927828.75
205.36,1778927828.765625
209.26,1778927828.78125
205.98,1778927828.796875
195.75,1778927828.8125
180.32,1778927828.828125
162.7,1778927828.84375
146.2,1778927828.859375
133.45,1778927828.875
125.49,1778927828.890625
121.71,1778927828.90625
120.39,1778927828.921875
119.66,1778927828.9375
118.32,1778927828.953125
116.1,1778927828.96875
113.53,1778927828.984375
111.34,1778927829.0
110.04,1778927829.015625
109.8,1778927829.03125
110.56,1778927829.046875
112.21,1778927829.0625
114.69,1778927829.078125
117.82,1778927829.09375
121.06,1778927829.109375
123.42,1778927829.125
123.78,1778927829.140625
121.37,1778927829.15625
116.38,1778927829.171875
110.13,1778927829.1875
104.63,1778927829.203125
101.75,1778927829.21875
102.21,1778927829.234375
105.33,1778927829.25
109.51,1778927829.265625
113.35,1778927829.28125
116.6,1778927829.296875
120.24,1778927829.3125
125.6,1778927829.328125
133.13,1778927829.34375
141.69,1778927829.359375
149.05,1778927829.375
153.13,1778927829.390625
153.24,1778927829.40625
150.33,1778927829.421875
146.01,1778927829.4375
141.03,1778927829.453125
134.39,1778927829.46875
123.64,1778927829.484375
106.4,1778927829.5
81.9,1778927829.515625
51.69,1778927829.53125
18.98,1778927829.546875
-12.87,1778927829.5625
-41.77,1778927829.578125
-67.45,1778927829.59375
-90.88,1778927829.609375
-113.52,1778927829.625
-136.58,1778927829.640625
-161.04,1778927829.65625
-187.87,1778927829.671875
-218.05,1778927829.6875
-252.11,1778927829.703125
-289.03,1778927829.71875
-325.49,1778927829.734375
-355.93,1778927829.75
-373.93,1778927829.765625
-374.2,1778927829.78125
-354.49,1778927829.796875
-316.37,1778927829.8125
-264.62,1778927829.828125
-205.6,1778927829.84375
-145.48,1778927829.859375
-89.07,1778927829.875
-39.42,1778927829.890625
1.79,1778927829.90625
33.9,1778927829.921875
57.01,1778927829.9375
71.91,1778927829.953125
79.89,1778927829.96875
82.49,1778927829.984375
81.22,1778927830.0
77.36,1778927830.015625
72.13,1778927830.03125
66.91,1778927830.046875
63.18,1778927830.0625
62.21,1778927830.078125
64.56,1778927830.09375
69.89,1778927830.109375
77.26,1778927830.125
85.7,1778927830.140625
94.74,1778927830.15625
104.48,1778927830.171875
115.15,1778927830.1875
126.35,1778927830.203125
136.69,1778927830.21875
143.96,1778927830.234375
145.95,1778927830.25
141.41,1778927830.265625
130.6,1778927830.28125
115.22,1778927830.296875
97.83,1778927830.3125
80.98,1778927830.328125
66.57,1778927830.34375
55.39,1778927830.359375
47.26,1778927830.375
41.38,1778927830.390625
36.91,1778927830.40625
33.14,1778927830.421875
29.69,1778927830.4375
26.41,1778927830.453125
23.26,1778927830.46875
20.03,1778927830.484375
16.36,1778927830.5
11.85,1778927830.515625
6.52,1778927830.53125
1.0,1778927830.546875
-3.86,1778927830.5625
-7.45,1778927830.578125
-9.76,1778927830.59375
-11.45,1778927830.609375
-13.65,1778927830.625
-17.61,1778927830.640625
-24.34,1778927830.65625
-33.81,1778927830.671875
-44.92,1778927830.6875
-56.07,1778927830.703125
-65.51,1778927830.71875
-71.61,1778927830.734375
-73.05,1778927830.75
-69.02,1778927830.765625
-59.54,1778927830.78125
-45.74,1778927830.796875
-28.99,1778927830.8125
-10.73,1778927830.828125
7.29,1778927830.84375
23.27,1778927830.859375
35.67,1778927830.875
43.54,1778927830.890625
46.48,1778927830.90625
44.37,1778927830.921875
36.7,1778927830.9375
20.68,1778927830.953125
-3.83,1778927830.96875
-33.53,1778927830.984375
-62.95,1778927831.0
-87.39,1778927831.015625
-104.47,1778927831.03125
-114.0,1778927831.046875
-117.35,1778927831.0625
-119.95,1778927831.078125
-123.25,1778927831.09375
-126.93,1778927831.109375
-130.1,1778927831.125
-131.86,1778927831.140625
-131.94,1778927831.15625
-130.85,1778927831.171875
-130.0,1778927831.1875
-128.25,1778927831.203125
-126.22,1778927831.21875
-123.96,1778927831.234375
-121.17,1778927831.25
-117.53,1778927831.265625
-112.96,1778927831.28125
-107.87,1778927831.296875
-102.98,1778927831.3125
-99.1,1778927831.328125
-96.95,1778927831.34375
-97.35,1778927831.359375
-100.03,1778927831.375
-103.99,1778927831.390625
-107.67,1778927831.40625
-109.19,1778927831.421875
-106.58,1778927831.4375
-98.23,1778927831.453125
-83.2,1778927831.46875
-61.6,1778927831.484375
-34.91,1778927831.5
-5.01,1778927831.515625
25.86,1778927831.53125
55.55,1778927831.546875
82.14,1778927831.5625
104.09,1778927831.578125
120.44,1778927831.59375
130.81,1778927831.609375
135.54,1778927831.625
135.34,1778927831.640625
131.54,1778927831.65625
125.53,1778927831.671875
118.44,1778927831.6875
110.99,1778927831.703125
103.48,1778927831.71875
95.93,1778927831.734375
88.23,1778927831.75
80.3,1778927831.765625
72.05,1778927831.78125
63.69,1778927831.796875
55.65,1778927831.8125
48.5,1778927831.828125
42.76,1778927831.84375
38.62,1778927831.859375
35.72,1778927831.875
33.16,1778927831.890625
29.78,1778927831.90625
24.57,1778927831.921875
17.15,1778927831.9375
7.93,1778927831.953125
-2.08,1778927831.96875
-11.69,1778927831.984375
-20.07,1778927832.0
-27.05,1778927832.015625
-33.26,1778927832.03125
-39.79,1778927832.046875
-47.82,1778927832.0625
-58.1,1778927832.078125
-70.57,1778927832.09375
-84.09,1778927832.109375
-96.59,1778927832.125
-105.46,1778927832.140625
-108.22,1778927832.15625
-103.22,1778927832.171875
-90.24,1778927832.1875
-70.57,1778927832.203125
-46.62,1778927832.21875
-21.22,1778927832.234375
3.14,1778927832.25
24.75,1778927832.265625
42.78,1778927832.28125
56.92,1778927832.296875
67.13,1778927832.3125
73.38,1778927832.328125
75.82,1778927832.34375
74.89,1778927832.359375
71.45,1778927832.375
66.59,1778927832.390625
61.32,1778927832.40625
56.24,1778927832.421875
51.38,1778927832.4375
46.48,1778927832.453125
41.26,1778927832.46875
35.78,1778927832.484375
30.47,1778927832.5
25.94,1778927832.515625
22.6,1778927832.53125
20.36,1778927832.546875
18.59,1778927832.5625
16.31,1778927832.578125
12.57,1778927832.59375
6.83,1778927832.609375
-0.86,1778927832.625
-9.9,1778927832.640625
-19.44,1778927832.65625
-28.67,1778927832.671875
-37.14,1778927832.6875
-44.81,1778927832.703125
-52.12,1778927832.71875
-59.78,1778927832.734375
-68.59,1778927832.75
-79.1,1778927832.765625
-91.19,1778927832.78125
-103.86,1778927832.796875
-115.06,1778927832.8125
-122.14,1778927832.828125
-122.55,1778927832.84375
-114.66,1778927832.859375
-98.41,1778927832.875
-75.31,1778927832.890625
-48.02,1778927832.90625
-19.42,1778927832.921875
8.09,1778927832.9375
33.01,1778927832.953125
54.68,1778927832.96875
72.9,1778927832.984375
87.53,1778927833.0
98.38,1778927833.015625
105.32,1778927833.03125
108.51,1778927833.046875
108.63,1778927833.0625
106.84,1778927833.078125
104.44,1778927833.09375
102.48,1778927833.109375
101.48,1778927833.125
101.24,1778927833.140625
101.14,1778927833.15625
100.56,1778927833.171875
99.16,1778927833.1875
97.2,1778927833.203125
95.29,1778927833.21875
94.13,1778927833.234375
94.06,1778927833.25
94.8,1778927833.265625
95.49,1778927833.28125
94.95,1778927833.296875
92.14,1778927833.3125
86.5,1778927833.328125
78.21,1778927833.34375
68.05,1778927833.359375
57.08,1778927833.375
46.33,1778927833.390625
36.38,1778927833.40625
27.24,1778927833.421875
18.34,1778927833.4375
8.68,1778927833.453125
-2.98,1778927833.46875
-17.64,1778927833.484375
-35.65,1778927833.5
-56.26,1778927833.515625
-77.48,1778927833.53125
-96.41,1778927833.546875
-110.02,1778927833.5625
-116.09,1778927833.578125
-113.92,1778927833.59375
-104.52,1778927833.609375
-90.16,1778927833.625
-73.52,1778927833.640625
-56.93,1778927833.65625
-41.89,1778927833.671875
-28.99,1778927833.6875
-18.34,1778927833.703125
-9.92,1778927833.71875
-3.75,1778927833.734375
0.03,1778927833.75
1.43,1778927833.765625
0.68,1778927833.78125
-1.68,1778927833.796875
-4.91,1778927833.8125
-8.38,1778927833.828125
-11.69,1778927833.84375
-14.78,1778927833.859375
-17.7,1778927833.875
-20.4,1778927833.890625
-22.62,1778927833.90625
-23.88,1778927833.921875
-23.76,1778927833.9375
-22.28,1778927833.953125
-19.98,1778927833.96875
-17.92,1778927833.984375
-17.32,1778927834.0
-19.1,1778927834.015625
-23.56,1778927834.03125
-30.3,1778927834.046875
-38.42,1778927834.0625
-46.86,1778927834.078125
-54.78,1778927834.09375
-61.78,1778927834.109375
-67.89,1778927834.125
-73.42,1778927834.140625
-78.8,1778927834.15625
-84.44,1778927834.171875
-90.64,1778927834.1875
-97.45,1778927834.203125
-104.58,1778927834.21875
-111.16,1778927834.234375
-115.76,1778927834.25
-116.57,1778927834.265625
-111.89,1778927834.28125
-100.64,1778927834.296875
-82.82,1778927834.3125
-59.53,1778927834.328125
-32.67,1778927834.34375
-4.39,1778927834.359375
23.47,1778927834.375
49.66,1778927834.390625
73.53,1778927834.40625
94.84,1778927834.421875
113.42,1778927834.4375
129.06,1778927834.453125
141.48,1778927834.46875
150.36,1778927834.484375
155.49,1778927834.5
156.86,1778927834.515625
154.68,1778927834.53125
149.44,1778927834.546875
142.0,1778927834.5625
133.36,1778927834.578125
124.41,1778927834.59375
115.77,1778927834.609375
107.64,1778927834.625
99.88,1778927834.640625
92.14,1778927834.65625
84.03,1778927834.671875
75.32,1778927834.6875
66.2,1778927834.703125
56.98,1778927834.71875
47.82,1778927834.734375
38.53,1778927834.75
28.64,1778927834.765625
17.56,1778927834.78125
4.96,1778927834.796875
-9.11,1778927834.8125
-24.2,1778927834.828125
-39.28,1778927834.84375
-53.43,1778927834.859375
-66.18,1778927834.875
-77.73,1778927834.890625
-88.71,1778927834.90625
-99.85,1778927834.921875
-111.69,1778927834.9375
-124.42,1778927834.953125
-137.69,1778927834.96875
-149.53,1778927834.984375
-157.32,1778927835.0
-158.6,1778927835.015625
-151.78,1778927835.03125
-136.47,1778927835.046875
-113.45,1778927835.0625
-84.48,1778927835.078125
-52.04,1778927835.09375
-18.85,1778927835.109375
14.72,1778927835.125
48.64,1778927835.140625
82.23,1778927835.15625
113.37,1778927835.171875
138.94,1778927835.1875
156.19,1778927835.203125
163.66,1778927835.21875
161.5,1778927835.234375
151.51,1778927835.25
140.04,1778927835.265625
133.66,1778927835.28125
136.74,1778927835.296875
149.7,1778927835.3125
169.52,1778927835.328125
191.83,1778927835.34375
212.27,1778927835.359375
227.24,1778927835.375
234.31,1778927835.390625
236.8,1778927835.40625
239.22,1778927835.421875
245.36,1778927835.4375
256.78,1778927835.453125
273.65,1778927835.46875
296.61,1778927835.484375
326.85,1778927835.5
365.03,1778927835.515625
383.67,1778927835.53125
361.87,1778927835.546875
293.35,1778927835.5625
192.64,1778927835.578125
84.88,1778927835.59375
-9.11,1778927835.609375
-78.86,1778927835.625
-123.27,1778927835.640625
-147.35,1778927835.65625
-159.12,1778927835.671875
-162.46,1778927835.6875
-159.72,1778927835.703125
-152.51,1778927835.71875
-143.06,1778927835.734375
-133.93,1778927835.75
-126.53,1778927835.765625
-121.2,1778927835.78125
-117.72,1778927835.796875
-116.02,1778927835.8125
-112.67,1778927835.828125
-104.41,1778927835.84375
-89.75,1778927835.859375
-69.07,1778927835.875
-46.65,1778927835.890625
-26.65,1778927835.90625
-12.22,1778927835.921875
-5.01,1778927835.9375
-5.4,1778927835.953125
-9.98,1778927835.96875
-14.21,1778927835.984375
-14.19,1778927836.0
-8.19,1778927836.015625
3.01,1778927836.03125
17.49,1778927836.046875
32.89,1778927836.0625
47.17,1778927836.078125
58.72,1778927836.09375
68.27,1778927836.109375
77.45,1778927836.125
87.7,1778927836.140625
99.24,1778927836.15625
110.74,1778927836.171875
120.12,1778927836.1875
124.74,1778927836.203125
125.37,1778927836.21875
122.03,1778927836.234375
115.52,1778927836.25
