bvp,time
41.46,1549375729.640625
36.36,1549375729.65625
31.88,1549375729.671875
28.1,1549375729.6875
24.79,1549375729.703125
21.57,1549375729.71875
18.03,1549375729.734375
13.97,1549375729.75
9.47,1549375729.765625
4.89,1549375729.78125
0.63,1549375729.796875
-3.03,1549375729.8125
-6.16,1549375729.828125
-9.19,1549375729.84375
-12.64,1549375729.859375
-16.94,1549375729.875
-22.12,1549375729.890625
-27.77,1549375729.90625
-33.25,1549375729.921875
-37.96,1549375729.9375
-41.66,1549375729.953125
-44.58,1549375729.96875
-47.4,1549375729.984375
-50.9,1549375730.0
-55.68,1549375730.015625
-61.8,1549375730.03125
-68.65,1549375730.046875
-74.95,1549375730.0625
-79.08,1549375730.078125
-79.51,1549375730.09375
-75.32,1549375730.109375
-66.49,1549375730.125
-54.04,1549375730.140625
-39.71,1549375730.15625
-25.41,1549375730.171875
-12.73,1549375730.1875
-2.49,1549375730.203125
5.28,1549375730.21875
11.13,1549375730.234375
15.78,1549375730.25
19.82,1549375730.265625
23.51,1549375730.28125
26.89,1549375730.296875
29.89,1549375730.3125
32.47,1549375730.328125
34.6,1549375730.34375
36.25,1549375730.359375
37.35,1549375730.375
37.77,1549375730.390625
37.46,1549375730.40625
36.51,1549375730.421875
35.19,1549375730.4375
33.84,1549375730.453125
32.76,1549375730.46875
32.01,1549375730.484375
31.43,1549375730.5
30.64,1549375730.515625
29.25,1549375730.53125
27.0,1549375730.546875
23.88,1549375730.5625
20.19,1549375730.578125
16.46,1549375730.59375
13.22,1549375730.609375
10.87,1549375730.625
9.46,1549375730.640625
8.75,1549375730.65625
8.21,1549375730.671875
7.39,1549375730.6875
6.19,1549375730.703125
5.02,1549375730.71875
4.82,1549375730.734375
6.67,1549375730.75
11.31,1549375730.765625
18.85,1549375730.78125
28.56,1549375730.796875
39.13,1549375730.8125
49.11,1549375730.828125
57.3,1549375730.84375
63.06,1549375730.859375
66.19,1549375730.875
66.71,1549375730.890625
64.61,1549375730.90625
59.72,1549375730.921875
51.71,1549375730.9375
40.26,1549375730.953125
25.18,1549375730.96875
6.46,1549375730.984375
-15.57,1549375731.0
-40.05,1549375731.015625
-65.39,1549375731.03125
-89.19,1549375731.046875
-108.67,1549375731.0625
-121.33,1549375731.078125
-125.8,1549375731.09375
-122.44,1549375731.109375
-113.15,1549375731.125
-100.74,1549375731.140625
-87.82,1549375731.15625
-76.01,1549375731.171875
-65.73,1549375731.1875
-56.5,1549375731.203125
-47.68,1549375731.21875
-38.98,1549375731.234375
-30.59,1549375731.25
-23.01,1549375731.265625
-16.56,1549375731.28125
-11.21,1549375731.296875
-6.6,1549375731.3125
-2.26,1549375731.328125
2.06,1549375731.34375
6.33,1549375731.359375
10.27,1549375731.375
13.57,1549375731.390625
16.07,1549375731.40625
17.88,1549375731.421875
19.29,1549375731.4375
20.6,1549375731.453125
21.99,1549375731.46875
23.37,1549375731.484375
24.37,1549375731.5
24.54,1549375731.515625
23.59,1549375731.53125
21.53,1549375731.546875
18.73,1549375731.5625
15.76,1549375731.578125
13.13,1549375731.59375
11.06,1549375731.609375
9.41,1549375731.625
7.78,1549375731.640625
5.76,1549375731.65625
3.2,1549375731.671875
0.26,1549375731.6875
-2.71,1549375731.703125
-5.38,1549375731.71875
-7.67,1549375731.734375
-9.76,1549375731.75
-12.01,1549375731.765625
-14.73,1549375731.78125
-18.0,1549375731.796875
-21.69,1549375731.8125
-25.44,1549375731.828125
-28.95,1549375731.84375
-32.1,1549375731.859375
-34.99,1549375731.875
-37.98,1549375731.890625
-41.56,1549375731.90625
-46.19,1549375731.921875
-52.14,1549375731.9375
-59.29,1549375731.953125
-67.0,1549375731.96875
-74.08,1549375731.984375
-78.92,1549375732.0
-79.97,1549375732.015625
-76.13,1549375732.03125
-67.28,1549375732.046875
-54.38,1549375732.0625
-39.27,1549375732.078125
-24.12,1549375732.09375
-10.76,1549375732.109375
-0.19,1549375732.125
7.55,1549375732.140625
13.12,1549375732.15625
17.45,1549375732.171875
21.28,1549375732.1875
24.99,1549375732.203125
28.6,1549375732.21875
31.96,1549375732.234375
34.94,1549375732.25
37.48,1549375732.265625
39.53,1549375732.28125
41.04,1549375732.296875
41.96,1549375732.3125
42.27,1549375732.328125
42.08,1549375732.34375
41.65,1549375732.359375
41.26,1549375732.375
41.12,1549375732.390625
41.21,1549375732.40625
41.33,1549375732.421875
41.13,1549375732.4375
40.32,1549375732.453125
38.79,1549375732.46875
36.58,1549375732.484375
33.9,1549375732.5
30.98,1549375732.515625
27.98,1549375732.53125
25.01,1549375732.546875
22.1,1549375732.5625
19.19,1549375732.578125
16.27,1549375732.59375
13.3,1549375732.609375
10.29,1549375732.625
7.32,1549375732.640625
4.49,1549375732.65625
1.92,1549375732.671875
-0.36,1549375732.6875
-2.43,1549375732.703125
-4.5,1549375732.71875
-6.8,1549375732.734375
-9.49,1549375732.75
-12.58,1549375732.765625
-15.88,1549375732.78125
-19.16,1549375732.796875
-22.23,1549375732.8125
-25.1,1549375732.828125
-27.98,1549375732.84375
-31.29,1549375732.859375
-35.37,1549375732.875
-40.44,1549375732.890625
-46.32,1549375732.90625
-52.41,1549375732.921875
-57.65,1549375732.9375
-60.73,1549375732.953125
-60.42,1549375732.96875
-55.95,1549375732.984375
-47.35,1549375733.0
-35.59,1549375733.015625
-22.29,1549375733.03125
-9.28,1549375733.046875
1.95,1549375733.0625
10.59,1549375733.078125
16.65,1549375733.09375
20.68,1549375733.109375
23.4,1549375733.125
25.39,1549375733.140625
26.92,1549375733.15625
28.01,1549375733.171875
28.65,1549375733.1875
28.9,1549375733.203125
28.98,1549375733.21875
29.2,1549375733.234375
29.85,1549375733.25
31.03,1549375733.265625
32.65,1549375733.28125
34.49,1549375733.296875
36.29,1549375733.3125
37.79,1549375733.328125
38.82,1549375733.34375
39.29,1549375733.359375
39.16,1549375733.375
38.47,1549375733.390625
37.32,1549375733.40625
35.85,1549375733.421875
34.23,1549375733.4375
32.59,1549375733.453125
30.98,1549375733.46875
29.37,1549375733.484375
27.69,1549375733.5
25.92,1549375733.515625
24.14,1549375733.53125
22.56,1549375733.546875
21.39,1549375733.5625
20.79,1549375733.578125
20.73,1549375733.59375
21.01,1549375733.609375
21.33,1549375733.625
21.38,1549375733.640625
21.0,1549375733.65625
20.25,1549375733.671875
19.36,1549375733.6875
18.68,1549375733.703125
18.6,1549375733.71875
19.48,1549375733.734375
21.49,1549375733.75
24.48,1549375733.765625
27.8,1549375733.78125
30.29,1549375733.796875
30.58,1549375733.8125
27.5,1549375733.828125
20.62,1549375733.84375
10.46,1549375733.859375
-1.64,1549375733.875
-14.08,1549375733.890625
-25.65,1549375733.90625
-35.97,1549375733.921875
-45.47,1549375733.9375
-54.9,1549375733.953125
-64.78,1549375733.96875
-74.91,1549375733.984375
-84.41,1549375734.0
-91.99,1549375734.015625
-96.57,1549375734.03125
-97.55,1549375734.046875
-94.98,1549375734.0625
-89.36,1549375734.078125
-81.3,1549375734.09375
-71.25,1549375734.109375
-59.54,1549375734.125
-46.52,1549375734.140625
-32.8,1549375734.15625
-19.29,1549375734.171875
-7.07,1549375734.1875
2.96,1549375734.203125
10.4,1549375734.21875
15.41,1549375734.234375
18.59,1549375734.25
20.68,1549375734.265625
22.23,1549375734.28125
23.5,1549375734.296875
24.51,1549375734.3125
25.16,1549375734.328125
25.41,1549375734.34375
25.3,1549375734.359375
24.95,1549375734.375
24.48,1549375734.390625
23.97,1549375734.40625
23.49,1549375734.421875
23.1,1549375734.4375
22.84,1549375734.453125
22.8,1549375734.46875
23.08,1549375734.484375
23.75,1549375734.5
24.77,1549375734.515625
25.92,1549375734.53125
26.79,1549375734.546875
26.89,1549375734.5625
25.88,1549375734.578125
23.67,1549375734.59375
20.54,1549375734.609375
16.9,1549375734.625
13.12,1549375734.640625
9.3,1549375734.65625
5.16,1549375734.671875
0.2,1549375734.6875
-6.0,1549375734.703125
-13.56,1549375734.71875
-22.03,1549375734.734375
-30.39,1549375734.75
-37.17,1549375734.765625
-40.86,1549375734.78125
-40.35,1549375734.796875
-35.36,1549375734.8125
-26.6,1549375734.828125
-15.58,1549375734.84375
-4.04,1549375734.859375
6.58,1549375734.875
15.59,1549375734.890625
23.03,1549375734.90625
29.44,1549375734.921875
35.41,1549375734.9375
41.27,1549375734.953125
47.09,1549375734.96875
52.87,1549375734.984375
58.74,1549375735.0
64.92,1549375735.015625
71.48,1549375735.03125
78.0,1549375735.046875
83.45,1549375735.0625
86.39,1549375735.078125
85.5,1549375735.09375
80.05,1549375735.109375
70.24,1549375735.125
56.99,1549375735.140625
41.63,1549375735.15625
25.51,1549375735.171875
10.07,1549375735.1875
-2.9,1549375735.203125
-11.32,1549375735.21875
-13.51,1549375735.234375
-9.39,1549375735.25
-1.36,1549375735.265625
5.75,1549375735.28125
6.14,1549375735.296875
-4.65,1549375735.3125
-27.77,1549375735.328125
-60.51,1549375735.34375
-97.45,1549375735.359375
-132.61,1549375735.375
-161.6,1549375735.390625
-182.59,1549375735.40625
-196.08,1549375735.421875
-203.69,1549375735.4375
-207.04,1549375735.453125
-207.05,1549375735.46875
-203.86,1549375735.484375
-197.1,1549375735.5
-186.29,1549375735.515625
-171.01,1549375735.53125
-151.11,1549375735.546875
-126.83,1549375735.5625
-98.87,1549375735.578125
-68.57,1549375735.59375
-37.99,1549375735.609375
-9.78,1549375735.625
13.14,1549375735.640625
28.36,1549375735.65625
34.77,1549375735.671875
33.12,1549375735.6875
25.98,1549375735.703125
17.01,1549375735.71875
9.72,1549375735.734375
6.41,1549375735.75
7.67,1549375735.765625
12.64,1549375735.78125
19.72,1549375735.796875
27.29,1549375735.8125
34.23,1549375735.828125
39.91,1549375735.84375
44.16,1549375735.859375
47.12,1549375735.875
49.18,1549375735.890625
50.95,1549375735.90625
53.12,1549375735.921875
56.25,1549375735.9375
60.57,1549375735.953125
65.84,1549375735.96875
71.46,1549375735.984375
76.72,1549375736.0
81.1,1549375736.015625
84.46,1549375736.03125
87.11,1549375736.046875
89.72,1549375736.0625
93.16,1549375736.078125
98.25,1549375736.09375
105.52,1549375736.109375
114.97,1549375736.125
125.9,1549375736.140625
136.81,1549375736.15625
145.61,1549375736.171875
150.1,1549375736.1875
148.57,1549375736.203125
140.44,1549375736.21875
126.51,1549375736.234375
108.74,1549375736.25
89.53,1549375736.265625
70.88,1549375736.28125
53.76,1549375736.296875
38.1,1549375736.3125
23.17,1549375736.328125
8.25,1549375736.34375
-6.91,1549375736.359375
-21.95,1549375736.375
-36.21,1549375736.390625
-49.18,1549375736.40625
-60.85,1549375736.421875
-71.76,1549375736.4375
-82.86,1549375736.453125
-95.16,1549375736.46875
-109.41,1549375736.484375
-125.87,1549375736.5
-144.23,1549375736.515625
-163.59,1549375736.53125
-182.55,1549375736.546875
-199.31,1549375736.5625
-211.9,1549375736.578125
-218.52,1549375736.59375
-217.93,1549375736.609375
-209.8,1549375736.625
-194.9,1549375736.640625
-174.99,1549375736.65625
-152.46,1549375736.671875
-129.7,1549375736.6875
-108.59,1549375736.703125
-90.12,1549375736.71875
-74.33,1549375736.734375
-60.54,1549375736.75
-47.78,1549375736.765625
-35.22,1549375736.78125
-22.5,1549375736.796875
-9.81,1549375736.8125
2.25,1549375736.828125
12.97,1549375736.84375
21.81,1549375736.859375
28.64,1549375736.875
33.72,1549375736.890625
37.53,1549375736.90625
40.56,1549375736.921875
43.13,1549375736.9375
45.42,1549375736.953125
47.48,1549375736.96875
49.4,1549375736.984375
51.23,1549375737.0
53.0,1549375737.015625
54.53,1549375737.03125
55.44,1549375737.046875
55.29,1549375737.0625
53.74,1549375737.078125
50.75,1549375737.09375
46.67,1549375737.109375
42.11,1549375737.125
37.71,1549375737.140625
33.85,1549375737.15625
30.55,1549375737.171875
27.43,1549375737.1875
24.02,1549375737.203125
19.99,1549375737.21875
15.28,1549375737.234375
10.11,1549375737.25
4.87,1549375737.265625
-0.13,1549375737.28125
-4.74,1549375737.296875
-9.06,1549375737.3125
-13.38,1549375737.328125
-18.13,1549375737.34375
-23.77,1549375737.359375
-30.7,1549375737.375
-39.07,1549375737.390625
-48.56,1549375737.40625
-58.3,1549375737.421875
-66.86,1549375737.4375
-72.58,1549375737.453125
-73.95,1549375737.46875
-70.13,1549375737.484375
-61.21,1549375737.5
-48.25,1549375737.515625
-33.01,1549375737.53125
-17.5,1549375737.546875
-3.47,1549375737.5625
8.03,1549375737.578125
16.74,1549375737.59375
23.07,1549375737.609375
27.78,1549375737.625
31.6,1549375737.640625
34.97,1549375737.65625
37.98,1549375737.671875
40.54,1549375737.6875
42.54,1549375737.703125
44.05,1549375737.71875
45.22,1549375737.734375
46.25,1549375737.75
47.19,1549375737.765625
47.97,1549375737.78125
48.44,1549375737.796875
48.51,1549375737.8125
48.24,1549375737.828125
47.83,1549375737.84375
47.58,1549375737.859375
47.62,1549375737.875
47.86,1549375737.890625
47.95,1549375737.90625
47.4,1549375737.921875
45.79,1549375737.9375
42.96,1549375737.953125
39.09,1549375737.96875
34.66,1549375737.984375
30.23,1549375738.0
26.21,1549375738.015625
22.75,1549375738.03125
19.69,1549375738.046875
16.75,1549375738.0625
13.62,1549375738.078125
10.2,1549375738.09375
6.55,1549375738.109375
2.89,1549375738.125
-0.54,1549375738.140625
-3.66,1549375738.15625
-6.58,1549375738.171875
-9.62,1549375738.1875
-13.2,1549375738.203125
-17.69,1549375738.21875
-23.23,1549375738.234375
-29.71,1549375738.25
-36.66,1549375738.265625
-43.31,1549375738.28125
-48.63,1549375738.296875
-51.54,1549375738.3125
-51.05,1549375738.328125
-46.56,1549375738.34375
-38.11,1549375738.359375
-26.45,1549375738.375
-12.93,1549375738.390625
0.82,1549375738.40625
13.29,1549375738.421875
23.51,1549375738.4375
31.1,1549375738.453125
36.31,1549375738.46875
39.69,1549375738.484375
41.81,1549375738.5
43.05,1549375738.515625
43.55,1549375738.53125
43.29,1549375738.546875
42.3,1549375738.5625
40.76,1549375738.578125
39.04,1549375738.59375
37.53,1549375738.609375
36.47,1549375738.625
35.8,1549375738.640625
35.27,1549375738.65625
34.58,1549375738.671875
33.6,1549375738.6875
32.44,1549375738.703125
31.39,1549375738.71875
30.65,1549375738.734375
30.17,1549375738.75
29.57,1549375738.765625
28.33,1549375738.78125
26.0,1549375738.796875
22.4,1549375738.8125
17.72,1549375738.828125
12.45,1549375738.84375
7.18,1549375738.859375
2.37,1549375738.875
-1.76,1549375738.890625
-5.3,1549375738.90625
-8.6,1549375738.921875
-11.99,1549375738.9375
-15.68,1549375738.953125
-19.6,1549375738.96875
-23.44,1549375738.984375
-26.8,1549375739.0
-29.48,1549375739.015625
-31.62,1549375739.03125
-33.7,1549375739.046875
-36.39,1549375739.0625
-40.28,1549375739.078125
-45.58,1549375739.09375
-52.03,1549375739.109375
-58.86,1549375739.125
-64.95,1549375739.140625
-69.03,1549375739.15625
-69.93,1549375739.171875
-66.9,1549375739.1875
-59.85,1549375739.203125
-49.42,1549375739.21875
-36.95,1549375739.234375
-24.05,1549375739.25
-12.18,1549375739.265625
-2.28,1549375739.28125
5.43,1549375739.296875
11.31,1549375739.3125
15.96,1549375739.328125
19.9,1549375739.34375
23.46,1549375739.359375
26.66,1549375739.375
29.43,1549375739.390625
31.69,1549375739.40625
33.43,1549375739.421875
34.68,1549375739.4375
35.51,1549375739.453125
35.94,1549375739.46875
35.96,1549375739.484375
35.58,1549375739.5
34.84,1549375739.515625
33.83,1549375739.53125
32.71,1549375739.546875
31.56,1549375739.5625
30.44,1549375739.578125
29.27,1549375739.59375
27.91,1549375739.609375
26.16,1549375739.625
23.89,1549375739.640625
21.05,1549375739.65625
17.71,1549375739.671875
14.1,1549375739.6875
10.47,1549375739.703125
7.16,1549375739.71875
4.41,1549375739.734375
2.38,1549375739.75
1.0,1549375739.765625
0.03,1549375739.78125
-0.9,1549375739.796875
-2.19,1549375739.8125
-4.03,1549375739.828125
-6.35,1549375739.84375
-8.82,1549375739.859375
-11.03,1549375739.875
-12.73,1549375739.890625
-14.03,1549375739.90625
-15.34,1549375739.921875
-17.28,1549375739.9375
-20.39,1549375739.953125
-24.91,1549375739.96875
-30.68,1549375739.984375
-37.09,1549375740.0
-43.16,1549375740.015625
-47.69,1549375740.03125
-49.53,1549375740.046875
-47.88,1549375740.0625
-42.54,1549375740.078125
-34.06,1549375740.09375
-23.61,1549375740.109375
-12.65,1549375740.125
-2.47,1549375740.140625
6.11,1549375740.15625
12.91,1549375740.171875
18.23,1549375740.1875
22.59,1549375740.203125
26.48,1549375740.21875
30.16,1549375740.234375
33.63,1549375740.25
36.77,1549375740.265625
39.41,1549375740.28125
41.47,1549375740.296875
43.0,1549375740.3125
44.16,1549375740.328125
45.11,1549375740.34375
45.87,1549375740.359375
46.22,1549375740.375
45.7,1549375740.390625
43.76,1549375740.40625
39.91,1549375740.421875
33.98,1549375740.4375
26.18,1549375740.453125
17.15,1549375740.46875
7.74,1549375740.484375
-1.16,1549375740.5
-8.89,1549375740.515625
-15.07,1549375740.53125
-19.6,1549375740.546875
-22.57,1549375740.5625
-24.16,1549375740.578125
-24.53,1549375740.59375
-23.94,1549375740.609375
-22.74,1549375740.625
-21.39,1549375740.640625
-20.37,1549375740.65625
-20.01,1549375740.671875
-20.43,1549375740.6875
-21.44,1549375740.703125
-22.64,1549375740.71875
-23.61,1549375740.734375
-24.05,1549375740.75
-23.96,1549375740.765625
-23.61,1549375740.78125
-23.47,1549375740.796875
-23.98,1549375740.8125
-25.45,1549375740.828125
-27.96,1549375740.84375
-31.3,1549375740.859375
-35.02,1549375740.875
-38.45,1549375740.890625
-40.78,1549375740.90625
-41.25,1549375740.921875
-39.27,1549375740.9375
-34.69,1549375740.953125
-27.88,1549375740.96875
-19.68,1549375740.984375
-11.19,1549375741.0
-3.39,1549375741.015625
3.09,1549375741.03125
8.08,1549375741.046875
11.8,1549375741.0625
14.6,1549375741.078125
16.79,1549375741.09375
18.51,1549375741.109375
19.78,1549375741.125
20.59,1549375741.140625
20.94,1549375741.15625
20.92,1549375741.171875
20.63,1549375741.1875
20.25,1549375741.203125
19.91,1549375741.21875
19.8,1549375741.234375
20.01,1549375741.25
20.51,1549375741.265625
21.14,1549375741.28125
21.68,1549375741.296875
21.9,1549375741.3125
21.69,1549375741.328125
21.09,1549375741.34375
20.18,1549375741.359375
19.06,1549375741.375
17.73,1549375741.390625
16.12,1549375741.40625
14.2,1549375741.421875
11.98,1549375741.4375
9.58,1549375741.453125
7.11,1549375741.46875
4.65,1549375741.484375
2.15,1549375741.5
-0.47,1549375741.515625
-3.38,1549375741.53125
-6.66,1549375741.546875
-10.31,1549375741.5625
-14.18,1549375741.578125
-17.95,1549375741.59375
-21.24,1549375741.609375
-23.7,1549375741.625
-25.18,1549375741.640625
-25.79,1549375741.65625
-25.95,1549375741.671875
-26.21,1549375741.6875
-27.13,1549375741.703125
-29.09,1549375741.71875
-32.13,1549375741.734375
-35.9,1549375741.75
-39.76,1549375741.765625
-42.83,1549375741.78125
-44.19,1549375741.796875
-43.16,1549375741.8125
-39.47,1549375741.828125
-33.4,1549375741.84375
-25.74,1549375741.859375
-17.57,1549375741.875
-9.93,1549375741.890625
-3.54,1549375741.90625
1.34,1549375741.921875
4.91,1549375741.9375
7.62,1549375741.953125
9.96,1549375741.96875
12.25,1549375741.984375
14.53,1549375742.0
16.61,1549375742.015625
18.23,1549375742.03125
19.17,1549375742.046875
19.47,1549375742.0625
19.32,1549375742.078125
19.03,1549375742.09375
18.82,1549375742.109375
18.72,1549375742.125
18.62,1549375742.140625
18.37,1549375742.15625
17.94,1549375742.171875
17.48,1549375742.1875
17.24,1549375742.203125
17.42,1549375742.21875
17.99,1549375742.234375
18.66,1549375742.25
18.97,1549375742.265625
18.5,1549375742.28125
17.07,1549375742.296875
14.85,1549375742.3125
12.22,1549375742.328125
9.64,1549375742.34375
7.43,1549375742.359375
5.63,1549375742.375
4.1,1549375742.390625
2.53,1549375742.40625
0.63,1549375742.421875
-1.78,1549375742.4375
-4.73,1549375742.453125
-8.14,1549375742.46875
-11.82,1549375742.484375
-15.49,1549375742.5
-18.88,1549375742.515625
-21.77,1549375742.53125
-24.2,1549375742.546875
-26.45,1549375742.5625
-29.05,1549375742.578125
-32.56,1549375742.59375
-37.28,1549375742.609375
-42.96,1549375742.625
-48.77,1549375742.640625
-53.47,1549375742.65625
-55.77,1549375742.671875
-54.82,1549375742.6875
-50.45,1549375742.703125
-43.21,1549375742.71875
-34.18,1549375742.734375
-24.63,1549375742.75
-15.7,1549375742.765625
-8.14,1549375742.78125
-2.23,1549375742.796875
2.16,1549375742.8125
5.48,1549375742.828125
8.25,1549375742.84375
10.89,1549375742.859375
13.62,1549375742.875
16.41,1549375742.890625
19.09,1549375742.90625
21.48,1549375742.921875
23.44,1549375742.9375
24.97,1549375742.953125
26.13,1549375742.96875
26.99,1549375742.984375
27.56,1549375743.0
27.88,1549375743.015625
27.97,1549375743.03125
27.91,1549375743.046875
27.77,1549375743.0625
27.56,1549375743.078125
27.17,1549375743.09375
26.42,1549375743.109375
25.07,1549375743.125
23.0,1549375743.140625
20.23,1549375743.15625
16.96,1549375743.171875
13.51,1549375743.1875
10.23,1549375743.203125
7.38,1549375743.21875
5.03,1549375743.234375
3.08,1549375743.25
1.21,1549375743.265625
-0.9,1549375743.28125
-3.54,1549375743.296875
-6.74,1549375743.3125
-10.3,1549375743.328125
-13.9,1549375743.34375
-17.22,1549375743.359375
-20.12,1549375743.375
-22.75,1549375743.390625
-25.5,1549375743.40625
-28.87,1549375743.421875
-33.29,1549375743.4375
-38.92,1549375743.453125
-45.54,1549375743.46875
-52.45,1549375743.484375
-58.54,1549375743.5
-62.57,1549375743.515625
-63.45,1549375743.53125
-60.66,1549375743.546875
-54.41,1549375743.5625
-45.61,1549375743.578125
-35.6,1549375743.59375
-25.7,1549375743.609375
-16.86,1549375743.625
-9.46,1549375743.640625
-3.41,1549375743.65625
1.67,1549375743.671875
6.21,1549375743.6875
10.56,1549375743.703125
14.93,1549375743.71875
19.32,1549375743.734375
23.64,1549375743.75
27.64,1549375743.765625
31.08,1549375743.78125
33.76,1549375743.796875
35.64,1549375743.8125
36.84,1549375743.828125
37.57,1549375743.84375
38.09,1549375743.859375
38.57,1549375743.875
39.08,1549375743.890625
39.58,1549375743.90625
39.9,1549375743.921875
39.89,1549375743.9375
39.4,1549375743.953125
38.35,1549375743.96875
36.76,1549375743.984375
34.73,1549375744.0
32.37,1549375744.015625
29.76,1549375744.03125
26.9,1549375744.046875
23.76,1549375744.0625
20.32,1549375744.078125
16.7,1549375744.09375
13.12,1549375744.109375
9.78,1549375744.125
6.81,1549375744.140625
4.15,1549375744.15625
1.53,1549375744.171875
-1.33,1549375744.1875
-4.6,1549375744.203125
-8.23,1549375744.21875
-11.99,1549375744.234375
-15.57,1549375744.25
-18.83,1549375744.265625
-21.87,1549375744.28125
-24.98,1549375744.296875
-28.56,1549375744.3125
-32.96,1549375744.328125
-38.4,1549375744.34375
-44.9,1549375744.359375
-52.26,1549375744.375
-60.03,1549375744.390625
-67.33,1549375744.40625
-72.95,1549375744.421875
-75.55,1549375744.4375
-74.08,1549375744.453125
-68.19,1549375744.46875
-58.52,1549375744.484375
-46.54,1549375744.5
-34.09,1549375744.515625
-22.74,1549375744.53125
-13.33,1549375744.546875
-5.91,1549375744.5625
0.1,1549375744.578125
5.39,1549375744.59375
10.55,1549375744.609375
15.84,1549375744.625
21.25,1549375744.640625
26.56,1549375744.65625
31.51,1549375744.671875
35.8,1549375744.6875
39.21,1549375744.703125
41.65,1549375744.71875
43.17,1549375744.734375
44.0,1549375744.75
44.42,1549375744.765625
44.74,1549375744.78125
45.14,1549375744.796875
45.71,1549375744.8125
46.37,1549375744.828125
46.99,1549375744.84375
47.35,1549375744.859375
47.18,1549375744.875
46.27,1549375744.890625
44.48,1549375744.90625
41.89,1549375744.921875
38.72,1549375744.9375
35.33,1549375744.953125
32.08,1549375744.96875
29.18,1549375744.984375
26.61,1549375745.0
24.22,1549375745.015625
21.72,1549375745.03125
18.84,1549375745.046875
15.49,1549375745.0625
11.78,1549375745.078125
8.05,1549375745.09375
4.66,1549375745.109375
1.92,1549375745.125
-0.18,1549375745.140625
-1.87,1549375745.15625
-3.61,1549375745.171875
-5.79,1549375745.1875
-8.62,1549375745.203125
-12.06,1549375745.21875
-15.89,1549375745.234375
-19.93,1549375745.25
-24.17,1549375745.265625
-28.84,1549375745.28125
-34.32,1549375745.296875
-40.95,1549375745.3125
-48.82,1549375745.328125
-57.51,1549375745.34375
-66.14,1549375745.359375
-73.4,1549375745.375
-77.87,1549375745.390625
-78.34,1549375745.40625
-74.26,1549375745.421875
-65.91,1549375745.4375
-54.45,1549375745.453125
-41.48,1549375745.46875
-28.68,1549375745.484375
-17.29,1549375745.5
-7.91,1549375745.515625
-0.45,1549375745.53125
5.63,1549375745.546875
11.03,1549375745.5625
16.26,1549375745.578125
21.6,1549375745.59375
26.98,1549375745.609375
32.09,1549375745.625
36.54,1549375745.640625
39.99,1549375745.65625
42.31,1549375745.671875
43.61,1549375745.6875
44.16,1549375745.703125
44.35,1549375745.71875
44.49,1549375745.734375
44.74,1549375745.75
45.11,1549375745.765625
45.54,1549375745.78125
45.9,1549375745.796875
46.06,1549375745.8125
45.87,1549375745.828125
45.19,1549375745.84375
43.96,1549375745.859375
42.16,1549375745.875
39.87,1549375745.890625
37.2,1549375745.90625
34.33,1549375745.921875
31.36,1549375745.9375
28.37,1549375745.953125
25.37,1549375745.96875
22.37,1549375745.984375
19.34,1549375746.0
16.27,1549375746.015625
13.16,1549375746.03125
9.96,1549375746.046875
6.64,1549375746.0625
3.1,1549375746.078125
-0.67,1549375746.09375
-4.68,1549375746.109375
-8.81,1549375746.125
-12.88,1549375746.140625
-16.74,1549375746.15625
-20.33,1549375746.171875
-23.76,1549375746.1875
-27.33,1549375746.203125
-31.48,1549375746.21875
-36.59,1549375746.234375
-42.85,1549375746.25
-50.08,1549375746.265625
-57.64,1549375746.28125
-64.46,1549375746.296875
-69.2,1549375746.3125
-70.61,1549375746.328125
-67.83,1549375746.34375
-60.7,1549375746.359375
-49.93,1549375746.375
-36.91,1549375746.390625
-23.37,1549375746.40625
-10.88,1549375746.421875
-0.49,1549375746.4375
7.52,1549375746.453125
13.52,1549375746.46875
18.3,1549375746.484375
22.67,1549375746.5
27.1,1549375746.515625
31.62,1549375746.53125
35.94,1549375746.546875
39.63,1549375746.5625
42.35,1549375746.578125
44.03,1549375746.59375
44.77,1549375746.609375
44.77,1549375746.625
44.21,1549375746.640625
43.26,1549375746.65625
42.07,1549375746.671875
40.82,1549375746.6875
39.73,1549375746.703125
38.93,1549375746.71875
38.44,1549375746.734375
38.1,1549375746.75
37.59,1549375746.765625
36.63,1549375746.78125
34.99,1549375746.796875
32.63,1549375746.8125
29.66,1549375746.828125
26.27,1549375746.84375
22.71,1549375746.859375
19.23,1549375746.875
16.02,1549375746.890625
13.22,1549375746.90625
10.83,1549375746.921875
8.68,1549375746.9375
6.51,1549375746.953125
3.95,1549375746.96875
0.76,1549375746.984375
-3.11,1549375747.0
-7.45,1549375747.015625
-11.86,1549375747.03125
-15.93,1549375747.046875
-19.46,1549375747.0625
-22.62,1549375747.078125
-25.83,1549375747.09375
-29.66,1549375747.109375
-34.52,1549375747.125
-40.56,1549375747.140625
-47.49,1549375747.15625
-54.64,1549375747.171875
-60.99,1549375747.1875
-65.32,1549375747.203125
-66.44,1549375747.21875
-63.51,1549375747.234375
-56.38,1549375747.25
-45.74,1549375747.265625
-33.0,1549375747.28125
-19.95,1549375747.296875
-8.22,1549375747.3125
1.21,1549375747.328125
8.16,1549375747.34375
13.12,1549375747.359375
16.86,1549375747.375
20.02,1549375747.390625
22.92,1549375747.40625
25.52,1549375747.421875
27.68,1549375747.4375
29.29,1549375747.453125
30.45,1549375747.46875
31.38,1549375747.484375
32.28,1549375747.5
33.24,1549375747.515625
34.16,1549375747.53125
34.86,1549375747.546875
35.17,1549375747.5625
35.08,1549375747.578125
34.66,1549375747.59375
34.09,1549375747.609375
33.48,1549375747.625
32.83,1549375747.640625
31.99,1549375747.65625
30.67,1549375747.671875
28.55,1549375747.6875
25.44,1549375747.703125
21.37,1549375747.71875
16.68,1549375747.734375
11.92,1549375747.75
7.63,1549375747.765625
4.18,1549375747.78125
1.55,1549375747.796875
-0.65,1549375747.8125
-3.02,1549375747.828125
-6.03,1549375747.84375
-9.83,1549375747.859375
-14.19,1549375747.875
-18.63,1549375747.890625
-22.71,1549375747.90625
-26.21,1549375747.921875
-29.32,1549375747.9375
-32.53,1549375747.953125
-36.45,1549375747.96875
-41.65,1549375747.984375
-48.37,1549375748.0
-56.45,1549375748.015625
-65.2,1549375748.03125
-73.54,1549375748.046875
-80.04,1549375748.0625
-83.34,1549375748.078125
-82.41,1549375748.09375
-76.88,1549375748.109375
-67.24,1549375748.125
-54.72,1549375748.140625
-40.98,1549375748.15625
-27.67,1549375748.171875
-15.98,1549375748.1875
-6.42,1549375748.203125
1.15,1549375748.21875
7.28,1549375748.234375
12.68,1549375748.25
17.86,1549375748.265625
23.04,1549375748.28125
28.1,1549375748.296875
32.74,1549375748.3125
36.63,1549375748.328125
39.53,1549375748.34375
41.43,1549375748.359375
42.51,1549375748.375
43.11,1549375748.390625
43.55,1549375748.40625
44.04,1549375748.421875
44.62,1549375748.4375
45.17,1549375748.453125
45.54,1549375748.46875
45.59,1549375748.484375
45.28,1549375748.5
44.57,1549375748.515625
43.46,1549375748.53125
41.86,1549375748.546875
39.65,1549375748.5625
36.75,1549375748.578125
33.17,1549375748.59375
29.11,1549375748.609375
24.89,1549375748.625
20.86,1549375748.640625
17.24,1549375748.65625
14.0,1549375748.671875
10.89,1549375748.6875
7.56,1549375748.703125
3.77,1549375748.71875
-0.5,1549375748.734375
-5.01,1549375748.75
-9.43,1549375748.765625
-13.51,1549375748.78125
-17.23,1549375748.796875
-20.74,1549375748.8125
-24.3,1549375748.828125
-28.1,1549375748.84375
-32.23,1549375748.859375
-36.73,1549375748.875
-41.76,1549375748.890625
-47.6,1549375748.90625
-54.46,1549375748.921875
-62.18,1549375748.9375
-69.98,1549375748.953125
-76.48,1549375748.96875
-80.01,1549375748.984375
-79.2,1549375749.0
-73.49,1549375749.015625
-63.44,1549375749.03125
-50.5,1549375749.046875
-36.58,1549375749.0625
-23.42,1549375749.078125
-12.15,1549375749.09375
-3.11,1549375749.109375
4.01,1549375749.125
9.83,1549375749.140625
14.99,1549375749.15625
19.87,1549375749.171875
24.6,1549375749.1875
29.04,1549375749.203125
33.03,1549375749.21875
36.37,1549375749.234375
38.99,1549375749.25
40.89,1549375749.265625
42.16,1549375749.28125
42.92,1549375749.296875
43.32,1549375749.3125
43.5,1549375749.328125
43.6,1549375749.34375
43.72,1549375749.359375
43.86,1549375749.375
43.99,1549375749.390625
43.94,1549375749.40625
43.54,1549375749.421875
42.63,1549375749.4375
41.15,1549375749.453125
39.07,1549375749.46875
36.47,1549375749.484375
33.47,1549375749.5
30.19,1549375749.515625
26.75,1549375749.53125
23.28,1549375749.546875
19.86,1549375749.5625
16.54,1549375749.578125
13.29,1549375749.59375
10.08,1549375749.609375
6.81,1549375749.625
3.42,1549375749.640625
-0.13,1549375749.65625
-3.84,1549375749.671875
-7.71,1549375749.6875
-11.72,1549375749.703125
-15.87,1549375749.71875
-20.12,1549375749.734375
-24.38,1549375749.75
-28.54,1549375749.765625
-32.53,1549375749.78125
-36.43,1549375749.796875
-40.49,1549375749.8125
-45.12,1549375749.828125
-50.77,1549375749.84375
-57.61,1549375749.859375
-65.37,1549375749.875
-73.11,1549375749.890625
-79.4,1549375749.90625
-82.64,1549375749.921875
-81.56,1549375749.9375
-75.75,1549375749.953125
-65.76,1549375749.96875
-53.04,1549375749.984375
-39.41,1549375750.0
-26.51,1549375750.015625
-15.37,1549375750.03125
-6.31,1549375750.046875
0.96,1549375750.0625
6.98,1549375750.078125
12.27,1549375750.09375
17.17,1549375750.109375
21.84,1549375750.125
26.28,1549375750.140625
30.4,1549375750.15625
34.1,1549375750.171875
37.24,1549375750.1875
39.76,1549375750.203125
41.65,1549375750.21875
42.98,1549375750.234375
43.86,1549375750.25
44.41,1549375750.265625
44.75,1549375750.28125
44.96,1549375750.296875
45.09,1549375750.3125
45.13,1549375750.328125
44.96,1549375750.34375
44.38,1549375750.359375
43.17,1549375750.375
41.22,1549375750.390625
38.54,1549375750.40625
35.35,1549375750.421875
31.95,1549375750.4375
28.58,1549375750.453125
25.36,1549375750.46875
22.25,1549375750.484375
19.12,1549375750.5
15.93,1549375750.515625
12.69,1549375750.53125
9.49,1549375750.546875
6.38,1549375750.5625
3.33,1549375750.578125
0.17,1549375750.59375
-3.26,1549375750.609375
-7.06,1549375750.625
-11.19,1549375750.640625
-15.46,1549375750.65625
-19.67,1549375750.671875
-23.68,1549375750.6875
-27.44,1549375750.703125
-31.11,1549375750.71875
-34.94,1549375750.734375
-39.26,1549375750.75
-44.39,1549375750.765625
-50.53,1549375750.78125
-57.57,1549375750.796875
-64.99,1549375750.8125
-71.78,1549375750.828125
-76.57,1549375750.84375
-78.01,1549375750.859375
-75.15,1549375750.875
-67.82,1549375750.890625
-56.73,1549375750.90625
-43.32,1549375750.921875
-29.33,1549375750.9375
-16.36,1549375750.953125
-5.44,1549375750.96875
3.08,1549375750.984375
9.52,1549375751.0
14.54,1549375751.015625
18.8,1549375751.03125
22.75,1549375751.046875
26.49,1549375751.0625
29.85,1549375751.078125
32.64,1549375751.09375
34.79,1549375751.109375
36.38,1549375751.125
37.63,1549375751.140625
38.76,1549375751.15625
39.86,1549375751.171875
40.92,1549375751.1875
41.9,1549375751.203125
42.75,1549375751.21875
43.47,1549375751.234375
44.01,1549375751.25
44.25,1549375751.265625
44.02,1549375751.28125
43.11,1549375751.296875
41.43,1549375751.3125
39.01,1549375751.328125
36.0,1549375751.34375
32.56,1549375751.359375
28.84,1549375751.375
24.97,1549375751.390625
21.07,1549375751.40625
17.28,1549375751.421875
13.71,1549375751.4375
10.41,1549375751.453125
7.34,1549375751.46875
4.36,1549375751.484375
1.3,1549375751.5
-1.94,1549375751.515625
-5.43,1549375751.53125
-9.14,1549375751.546875
-13.04,1549375751.5625
-17.11,1549375751.578125
-21.32,1549375751.59375
-25.63,1549375751.609375
-29.97,1549375751.625
-34.25,1549375751.640625
-38.42,1549375751.65625
-42.61,1549375751.671875
-47.16,1549375751.6875
-52.55,1549375751.703125
-59.25,1549375751.71875
-67.3,1549375751.734375
-76.11,1549375751.75
-84.33,1549375751.765625
-90.1,1549375751.78125
-91.64,1549375751.796875
-87.87,1549375751.8125
-78.87,1549375751.828125
-65.89,1549375751.84375
-50.9,1549375751.859375
-35.99,1549375751.875
-22.71,1549375751.890625
-11.83,1549375751.90625
-3.31,1549375751.921875
3.41,1549375751.9375
9.08,1549375751.953125
14.29,1549375751.96875
19.44,1549375751.984375
24.64,1549375752.0
29.82,1549375752.015625
34.8,1549375752.03125
39.34,1549375752.046875
43.24,1549375752.0625
46.35,1549375752.078125
48.54,1549375752.09375
49.81,1549375752.109375
50.29,1549375752.125
50.32,1549375752.140625
50.31,1549375752.15625
50.63,1549375752.171875
51.37,1549375752.1875
52.29,1549375752.203125
52.87,1549375752.21875
52.54,1549375752.234375
50.95,1549375752.25
48.13,1549375752.265625
44.47,1549375752.28125
40.47,1549375752.296875
36.57,1549375752.3125
32.95,1549375752.328125
29.56,1549375752.34375
26.22,1549375752.359375
22.76,1549375752.375
19.12,1549375752.390625
15.39,1549375752.40625
11.7,1549375752.421875
8.14,1549375752.4375
4.68,1549375752.453125
1.17,1549375752.46875
-2.64,1549375752.484375
-6.91,1549375752.5
-11.65,1549375752.515625
-16.67,1549375752.53125
-21.75,1549375752.546875
-26.64,1549375752.5625
-31.25,1549375752.578125
-35.65,1549375752.59375
-40.04,1549375752.609375
-44.75,1549375752.625
-50.18,1549375752.640625
-56.69,1549375752.65625
-64.39,1549375752.671875
-72.9,1549375752.6875
-81.18,1549375752.703125
-87.61,1549375752.71875
-90.42,1549375752.734375
-88.27,1549375752.75
-80.82,1549375752.765625
-68.84,1549375752.78125
-54.08,1549375752.796875
-38.62,1549375752.8125
-24.25,1549375752.828125
-12.03,1549375752.84375
-2.17,1549375752.859375
5.78,1549375752.875
12.56,1549375752.890625
18.86,1549375752.90625
25.06,1549375752.921875
31.21,1549375752.9375
37.04,1549375752.953125
42.16,1549375752.96875
46.26,1549375752.984375
49.26,1549375753.0
51.38,1549375753.015625
52.96,1549375753.03125
54.34,1549375753.046875
55.69,1549375753.0625
57.0,1549375753.078125
58.14,1549375753.09375
58.94,1549375753.109375
59.37,1549375753.125
59.44,1549375753.140625
59.2,1549375753.15625
58.65,1549375753.171875
57.73,1549375753.1875
56.36,1549375753.203125
54.54,1549375753.21875
52.39,1549375753.234375
50.12,1549375753.25
47.95,1549375753.265625
45.99,1549375753.28125
44.2,1549375753.296875
42.48,1549375753.3125
40.67,1549375753.328125
38.73,1549375753.34375
36.66,1549375753.359375
34.55,1549375753.375
32.43,1549375753.390625
30.23,1549375753.40625
27.82,1549375753.421875
25.1,1549375753.4375
22.18,1549375753.453125
19.46,1549375753.46875
17.55,1549375753.484375
17.04,1549375753.5
18.01,1549375753.515625
19.77,1549375753.53125
20.69,1549375753.546875
18.59,1549375753.5625
11.26,1549375753.578125
-2.74,1549375753.59375
-23.58,1549375753.609375
-49.84,1549375753.625
-78.74,1549375753.640625
-106.7,1549375753.65625
-130.1,1549375753.671875
-146.01,1549375753.6875
-152.77,1549375753.703125
-150.24,1549375753.71875
-139.72,1549375753.734375
-123.57,1549375753.75
-104.61,1549375753.765625
-85.5,1549375753.78125
-68.24,1549375753.796875
-53.88,1549375753.8125
-42.52,1549375753.828125
-33.55,1549375753.84375
-26.03,1549375753.859375
-19.05,1549375753.875
-12.07,1549375753.890625
-5.0,1549375753.90625
1.88,1549375753.921875
8.18,1549375753.9375
13.61,1549375753.953125
18.15,1549375753.96875
22.04,1549375753.984375
25.62,1549375754.0
29.16,1549375754.015625
32.69,1549375754.03125
36.08,1549375754.046875
39.12,1549375754.0625
41.63,1549375754.078125
43.5,1549375754.09375
44.65,1549375754.109375
45.03,1549375754.125
44.57,1549375754.140625
43.22,1549375754.15625
41.09,1549375754.171875
38.34,1549375754.1875
35.28,1549375754.203125
32.09,1549375754.21875
28.86,1549375754.234375
25.5,1549375754.25
21.9,1549375754.265625
17.98,1549375754.28125
13.85,1549375754.296875
9.7,1549375754.3125
5.73,1549375754.328125
1.95,1549375754.34375
-1.79,1549375754.359375
-5.77,1549375754.375
-10.19,1549375754.390625
-15.08,1549375754.40625
-20.27,1549375754.421875
-25.49,1549375754.4375
-30.53,1549375754.453125
-35.28,1549375754.46875
-39.85,1549375754.484375
-44.5,1549375754.5
-49.61,1549375754.515625
-55.61,1549375754.53125
-62.86,1549375754.546875
-71.45,1549375754.5625
-80.92,1549375754.578125
-90.15,1549375754.59375
-97.44,1549375754.609375
-100.9,1549375754.625
-99.03,1549375754.640625
-91.3,1549375754.65625
-78.43,1549375754.671875
-62.19,1549375754.6875
-44.89,1549375754.703125
-28.66,1549375754.71875
-14.84,1549375754.734375
-3.81,1549375754.75
4.89,1549375754.765625
12.13,1549375754.78125
18.75,1549375754.796875
25.26,1549375754.8125
31.8,1549375754.828125
38.22,1549375754.84375
44.22,1549375754.859375
49.49,1549375754.875
53.8,1549375754.890625
57.03,1549375754.90625
59.19,1549375754.921875
60.41,1549375754.9375
60.91,1549375754.953125
61.0,1549375754.96875
60.96,1549375754.984375
60.99,1549375755.0
61.21,1549375755.015625
61.6,1549375755.03125
61.96,1549375755.046875
61.98,1549375755.0625
61.26,1549375755.078125
59.45,1549375755.09375
56.36,1549375755.109375
52.15,1549375755.125
47.25,1549375755.140625
42.32,1549375755.15625
37.94,1549375755.171875
34.43,1549375755.1875
31.69,1549375755.203125
29.32,1549375755.21875
26.77,1549375755.234375
23.66,1549375755.25
19.87,1549375755.265625
15.6,1549375755.28125
11.23,1549375755.296875
7.11,1549375755.3125
3.38,1549375755.328125
-0.09,1549375755.34375
-3.63,1549375755.359375
-7.6,1549375755.375
-12.26,1549375755.390625
-17.59,1549375755.40625
-23.36,1549375755.421875
-29.22,1549375755.4375
-34.86,1549375755.453125
-40.16,1549375755.46875
-45.2,1549375755.484375
-50.25,1549375755.5
-55.7,1549375755.515625
-61.98,1549375755.53125
-69.43,1549375755.546875
-78.08,1549375755.5625
-87.41,1549375755.578125
-96.15,1549375755.59375
-102.47,1549375755.609375
-104.41,1549375755.625
-100.52,1549375755.640625
-90.5,1549375755.65625
-75.45,1549375755.671875
-57.49,1549375755.6875
-39.13,1549375755.703125
-22.45,1549375755.71875
-8.61,1549375755.734375
2.24,1549375755.75
10.63,1549375755.765625
17.39,1549375755.78125
23.3,1549375755.796875
28.91,1549375755.8125
34.54,1549375755.828125
40.26,1549375755.84375
45.87,1549375755.859375
50.96,1549375755.875
55.06,1549375755.890625
57.81,1549375755.90625
59.14,1549375755.921875
59.36,1549375755.9375
58.99,1549375755.953125
58.61,1549375755.96875
58.62,1549375755.984375
59.13,1549375756.0
59.97,1549375756.015625
60.8,1549375756.03125
61.2,1549375756.046875
60.73,1549375756.0625
59.11,1549375756.078125
56.22,1549375756.09375
52.2,1549375756.109375
47.43,1549375756.125
42.48,1549375756.140625
37.92,1549375756.15625
34.1,1549375756.171875
31.01,1549375756.1875
28.35,1549375756.203125
25.58,1549375756.21875
22.26,1549375756.234375
18.19,1549375756.25
13.55,1549375756.265625
8.74,1549375756.28125
4.25,1549375756.296875
0.34,1549375756.3125
-3.04,1549375756.328125
-6.22,1549375756.34375
-9.67,1549375756.359375
-13.8,1549375756.375
-18.79,1549375756.390625
-24.51,1549375756.40625
-30.59,1549375756.421875
-36.58,1549375756.4375
-42.07,1549375756.453125
-46.97,1549375756.46875
-51.5,1549375756.484375
-56.25,1549375756.5
-61.97,1549375756.515625
-69.23,1549375756.53125
-78.02,1549375756.546875
-87.5,1549375756.5625
-96.05,1549375756.578125
-101.64,1549375756.59375
-102.43,1549375756.609375
-97.36,1549375756.625
-86.55,1549375756.640625
-71.2,1549375756.65625
-53.26,1549375756.671875
-34.95,1549375756.6875
-18.17,1549375756.703125
-4.19,1549375756.71875
6.53,1549375756.734375
14.29,1549375756.75
19.92,1549375756.765625
24.42,1549375756.78125
28.65,1549375756.796875
33.03,1549375756.8125
37.5,1549375756.828125
41.64,1549375756.84375
45.0,1549375756.859375
47.36,1549375756.875
48.82,1549375756.890625
49.71,1549375756.90625
50.42,1549375756.921875
51.15,1549375756.9375
51.93,1549375756.953125
52.61,1549375756.96875
53.04,1549375756.984375
53.13,1549375757.0
52.87,1549375757.015625
52.2,1549375757.03125
51.01,1549375757.046875
49.14,1549375757.0625
46.44,1549375757.078125
42.96,1549375757.09375
38.89,1549375757.109375
34.55,1549375757.125
30.18,1549375757.140625
25.92,1549375757.15625
21.76,1549375757.171875
17.65,1549375757.1875
13.61,1549375757.203125
9.75,1549375757.21875
6.19,1549375757.234375
2.88,1549375757.25
-0.41,1549375757.265625
-4.09,1549375757.28125
-8.51,1549375757.296875
-13.74,1549375757.3125
-19.49,1549375757.328125
-25.29,1549375757.34375
-30.69,1549375757.359375
-35.55,1549375757.375
-40.07,1549375757.390625
-44.66,1549375757.40625
-49.82,1549375757.421875
-55.92,1549375757.4375
-63.14,1549375757.453125
-71.44,1549375757.46875
-80.42,1549375757.484375
-89.21,1549375757.5
-96.42,1549375757.515625
-100.29,1549375757.53125
-99.16,1549375757.546875
-92.08,1549375757.5625
-79.32,1549375757.578125
-62.44,1549375757.59375
-43.86,1549375757.609375
-26.08,1549375757.625
-10.97,1549375757.640625
0.76,1549375757.65625
9.42,1549375757.671875
15.97,1549375757.6875
21.5,1549375757.703125
26.76,1549375757.71875
32.01,1549375757.734375
37.12,1549375757.75
41.8,1549375757.765625
45.76,1549375757.78125
48.94,1549375757.796875
51.37,1549375757.8125
53.22,1549375757.828125
54.56,1549375757.84375
55.47,1549375757.859375
55.94,1549375757.875
56.02,1549375757.890625
55.85,1549375757.90625
55.59,1549375757.921875
55.39,1549375757.9375
55.2,1549375757.953125
54.76,1549375757.96875
53.71,1549375757.984375
51.77,1549375758.0
48.86,1549375758.015625
45.18,1549375758.03125
41.1,1549375758.046875
36.96,1549375758.0625
32.93,1549375758.078125
28.99,1549375758.09375
24.94,1549375758.109375
20.63,1549375758.125
16.02,1549375758.140625
11.29,1549375758.15625
6.71,1549375758.171875
2.47,1549375758.1875
-1.41,1549375758.203125
-5.19,1549375758.21875
-9.26,1549375758.234375
-13.96,1549375758.25
-19.38,1549375758.265625
-25.28,1549375758.28125
-31.23,1549375758.296875
-36.77,1549375758.3125
-41.67,1549375758.328125
-46.02,1549375758.34375
-50.27,1549375758.359375
-55.02,1549375758.375
-60.85,1549375758.390625
-68.06,1549375758.40625
-76.51,1549375758.421875
-85.45,1549375758.4375
-93.46,1549375758.453125
-98.79,1549375758.46875
-99.7,1549375758.484375
-95.04,1549375758.5
-84.7,1549375758.515625
-69.73,1549375758.53125
-52.11,1549375758.546875
-34.2,1549375758.5625
-18.01,1549375758.578125
-4.72,1549375758.59375
5.45,1549375758.609375
13.06,1549375758.625
19.06,1549375758.640625
24.37,1549375758.65625
29.57,1549375758.671875
34.81,1549375758.6875
39.94,1549375758.703125
44.63,1549375758.71875
48.58,1549375758.734375
51.63,1549375758.75
53.75,1549375758.765625
55.04,1549375758.78125
55.66,1549375758.796875
55.79,1549375758.8125
55.58,1549375758.828125
55.22,1549375758.84375
54.81,1549375758.859375
54.45,1549375758.875
54.1,1549375758.890625
53.61,1549375758.90625
52.75,1549375758.921875
51.23,1549375758.9375
48.88,1549375758.953125
45.69,1549375758.96875
41.89,1549375758.984375
37.85,1549375759.0
33.97,1549375759.015625
30.47,1549375759.03125
27.32,1549375759.046875
24.28,1549375759.0625
20.98,1549375759.078125
17.18,1549375759.09375
12.91,1549375759.109375
8.39,1549375759.125
3.96,1549375759.140625
-0.19,1549375759.15625
-4.09,1549375759.171875
-8.0,1549375759.1875
-12.26,1549375759.203125
-17.1,1549375759.21875
-22.49,1549375759.234375
-28.22,1549375759.25
-33.91,1549375759.265625
-39.28,1549375759.28125
-44.23,1549375759.296875
-48.89,1549375759.3125
-53.64,1549375759.328125
-58.96,1549375759.34375
-65.35,1549375759.359375
-73.0,1549375759.375
-81.66,1549375759.390625
-90.36,1549375759.40625
-97.51,1549375759.421875
-101.16,1549375759.4375
-99.67,1549375759.453125
-92.23,1549375759.46875
-79.27,1549375759.484375
-62.43,1549375759.5
-44.06,1549375759.515625
-26.49,1549375759.53125
-11.44,1549375759.546875
0.39,1549375759.5625
9.2,1549375759.578125
15.77,1549375759.59375
20.98,1549375759.609375
25.56,1549375759.625
29.9,1549375759.640625
34.13,1549375759.65625
38.21,1549375759.671875
41.95,1549375759.6875
45.18,1549375759.703125
47.71,1549375759.71875
49.47,1549375759.734375
50.48,1549375759.75
50.88,1549375759.765625
50.92,1549375759.78125
50.82,1549375759.796875
50.77,1549375759.8125
50.77,1549375759.828125
50.76,1549375759.84375
50.58,1549375759.859375
50.05,1549375759.875
49.0,1549375759.890625
47.24,1549375759.90625
44.69,1549375759.921875
41.36,1549375759.9375
37.43,1549375759.953125
33.18,1549375759.96875
28.96,1549375759.984375
25.01,1549375760.0
21.36,1549375760.015625
17.88,1549375760.03125
14.35,1549375760.046875
10.64,1549375760.0625
6.77,1549375760.078125
2.94,1549375760.09375
-0.63,1549375760.109375
-3.83,1549375760.125
-6.79,1549375760.140625
-9.8,1549375760.15625
-13.19,1549375760.171875
-17.15,1549375760.1875
-21.58,1549375760.203125
-26.21,1549375760.21875
-30.66,1549375760.234375
-34.75,1549375760.25
-38.57,1549375760.265625
-42.48,1549375760.28125
-47.0,1549375760.296875
-52.63,1549375760.3125
-59.61,1549375760.328125
-67.76,1549375760.34375
-76.32,1549375760.359375
-83.91,1549375760.375
-88.81,1549375760.390625
-89.35,1549375760.40625
-84.44,1549375760.421875
-73.99,1549375760.4375
-59.11,1549375760.453125
-41.8,1549375760.46875
-24.4,1549375760.484375
-8.94,1549375760.5
3.42,1549375760.515625
12.44,1549375760.53125
18.67,1549375760.546875
23.0,1549375760.5625
26.32,1549375760.578125
29.2,1549375760.59375
31.9,1549375760.609375
34.44,1549375760.625
36.74,1549375760.640625
38.74,1549375760.65625
40.44,1549375760.671875
41.85,1549375760.6875
42.99,1549375760.703125
43.87,1549375760.71875
44.5,1549375760.734375
44.91,1549375760.75
45.17,1549375760.765625
45.35,1549375760.78125
45.46,1549375760.796875
45.4,1549375760.8125
44.97,1549375760.828125
43.92,1549375760.84375
42.06,1549375760.859375
39.34,1549375760.875
35.86,1549375760.890625
31.9,1549375760.90625
27.72,1549375760.921875
23.52,1549375760.9375
19.37,1549375760.953125
15.25,1549375760.96875
11.14,1549375760.984375
7.07,1549375761.0
3.11,1549375761.015625
-0.63,1549375761.03125
-4.11,1549375761.046875
-7.42,1549375761.0625
-10.81,1549375761.078125
-14.55,1549375761.09375
-18.9,1549375761.109375
-23.96,1549375761.125
-29.57,1549375761.140625
-35.39,1549375761.15625
-40.97,1549375761.171875
-46.01,1549375761.1875
-50.43,1549375761.203125
-54.55,1549375761.21875
-59.01,1549375761.234375
-64.56,1549375761.25
-71.73,1549375761.265625
-80.49,1549375761.28125
-89.98,1549375761.296875
-98.52,1549375761.3125
-104.01,1549375761.328125
-104.47,1549375761.34375
-98.71,1549375761.359375
-86.81,1549375761.375
-70.15,1549375761.390625
-51.03,1549375761.40625
-31.93,1549375761.421875
-14.89,1549375761.4375
-0.99,1549375761.453125
9.62,1549375761.46875
17.53,1549375761.484375
23.65,1549375761.5
28.86,1549375761.515625
33.81,1549375761.53125
38.85,1549375761.546875
43.99,1549375761.5625
48.97,1549375761.578125
53.36,1549375761.59375
56.71,1549375761.609375
58.74,1549375761.625
59.41,1549375761.640625
58.98,1549375761.65625
57.87,1549375761.671875
56.51,1549375761.6875
55.27,1549375761.703125
54.37,1549375761.71875
53.83,1549375761.734375
53.5,1549375761.75
53.1,1549375761.765625
52.3,1549375761.78125
50.83,1549375761.796875
48.57,1549375761.8125
45.57,1549375761.828125
42.09,1549375761.84375
38.43,1549375761.859375
34.77,1549375761.875
31.15,1549375761.890625
27.44,1549375761.90625
23.48,1549375761.921875
19.21,1549375761.9375
14.7,1549375761.953125
10.13,1549375761.96875
5.67,1549375761.984375
1.41,1549375762.0
-2.71,1549375762.015625
-6.85,1549375762.03125
-11.23,1549375762.046875
-16.0,1549375762.0625
-21.27,1549375762.078125
-26.99,1549375762.09375
-33.07,1549375762.109375
-39.28,1549375762.125
-45.39,1549375762.140625
-51.19,1549375762.15625
-56.59,1549375762.171875
-61.77,1549375762.1875
-67.2,1549375762.203125
-73.51,1549375762.21875
-81.2,1549375762.234375
-90.21,1549375762.25
-99.65,1549375762.265625
-107.71,1549375762.28125
-112.15,1549375762.296875
-111.04,1549375762.3125
-103.47,1549375762.328125
-89.97,1549375762.34375
-72.37,1549375762.359375
-53.17,1549375762.375
-34.71,1549375762.390625
-18.59,1549375762.40625
-5.4,1549375762.421875
5.11,1549375762.4375
13.59,1549375762.453125
20.74,1549375762.46875
27.11,1549375762.484375
32.97,1549375762.5
38.44,1549375762.515625
43.49,1549375762.53125
48.04,1549375762.546875
51.95,1549375762.5625
55.13,1549375762.578125
57.53,1549375762.59375
59.11,1549375762.609375
59.95,1549375762.625
60.18,1549375762.640625
60.03,1549375762.65625
59.82,1549375762.671875
59.83,1549375762.6875
60.22,1549375762.703125
60.84,1549375762.71875
61.27,1549375762.734375
60.91,1549375762.75
59.24,1549375762.765625
56.11,1549375762.78125
51.79,1549375762.796875
46.95,1549375762.8125
42.32,1549375762.828125
38.44,1549375762.84375
35.37,1549375762.859375
32.8,1549375762.875
30.18,1549375762.890625
26.98,1549375762.90625
22.98,1549375762.921875
18.27,1549375762.9375
13.19,1549375762.953125
8.16,1549375762.96875
3.48,1549375762.984375
-0.74,1549375763.0
-4.61,1549375763.015625
-8.36,1549375763.03125
-12.28,1549375763.046875
-16.62,1549375763.0625
-21.47,1549375763.078125
-26.74,1549375763.09375
-32.23,1549375763.109375
-37.61,1549375763.125
-42.67,1549375763.140625
-47.4,1549375763.15625
-52.11,1549375763.171875
-57.34,1549375763.1875
-63.71,1549375763.203125
-71.52,1549375763.21875
-80.54,1549375763.234375
-89.76,1549375763.25
-97.53,1549375763.265625
-101.87,1549375763.28125
-101.09,1549375763.296875
-94.31,1549375763.3125
-81.88,1549375763.328125
-65.27,1549375763.34375
-46.79,1549375763.359375
-28.8,1549375763.375
-13.16,1549375763.390625
-0.76,1549375763.40625
8.5,1549375763.421875
15.41,1549375763.4375
20.98,1549375763.453125
26.06,1549375763.46875
31.07,1549375763.484375
36.02,1549375763.5
40.61,1549375763.515625
44.5,1549375763.53125
47.5,1549375763.546875
49.58,1549375763.5625
50.92,1549375763.578125
51.81,1549375763.59375
52.5,1549375763.609375
53.19,1549375763.625
53.96,1549375763.640625
54.73,1549375763.65625
55.37,1549375763.671875
55.66,1549375763.6875
55.35,1549375763.703125
54.21,1549375763.71875
52.07,1549375763.734375
48.92,1549375763.75
44.93,1549375763.765625
40.48,1549375763.78125
35.95,1549375763.796875
31.66,1549375763.8125
27.71,1549375763.828125
23.99,1549375763.84375
20.27,1549375763.859375
16.37,1549375763.875
12.25,1549375763.890625
8.03,1549375763.90625
3.89,1549375763.921875
-0.08,1549375763.9375
-3.97,1549375763.953125
-8.0,1549375763.96875
-12.43,1549375763.984375
-17.4,1549375764.0
-22.85,1549375764.015625
-28.56,1549375764.03125
-34.22,1549375764.046875
-39.6,1549375764.0625
-44.67,1549375764.078125
-49.62,1549375764.09375
-54.91,1549375764.109375
-61.16,1549375764.125
-68.85,1549375764.140625
-78.12,1549375764.15625
-88.43,1549375764.171875
-98.44,1549375764.1875
-106.2,1549375764.203125
-109.63,1549375764.21875
-107.18,1549375764.234375
-98.31,1549375764.25
-83.83,1549375764.265625
-65.65,1549375764.28125
-46.24,1549375764.296875
-27.92,1549375764.3125
-12.26,1549375764.328125
0.18,1549375764.34375
9.72,1549375764.359375
17.26,1549375764.375
23.79,1549375764.390625
30.07,1549375764.40625
36.47,1549375764.421875
42.89,1549375764.4375
48.97,1549375764.453125
54.25,1549375764.46875
58.35,1549375764.484375
61.12,1549375764.5
62.65,1549375764.515625
63.24,1549375764.53125
63.23,1549375764.546875
62.98,1549375764.5625
62.73,1549375764.578125
62.6,1549375764.59375
62.64,1549375764.609375
62.71,1549375764.625
62.59,1549375764.640625
61.96,1549375764.65625
60.46,1549375764.671875
57.88,1549375764.6875
54.21,1549375764.703125
49.74,1549375764.71875
44.91,1549375764.734375
40.17,1549375764.75
35.77,1549375764.765625
31.69,1549375764.78125
27.71,1549375764.796875
23.55,1549375764.8125
19.07,1549375764.828125
14.35,1549375764.84375
9.6,1549375764.859375
5.04,1549375764.875
0.72,1549375764.890625
-3.5,1549375764.90625
-7.9,1549375764.921875
-12.73,1549375764.9375
-18.06,1549375764.953125
-23.76,1549375764.96875
-29.51,1549375764.984375
-35.02,1549375765.0
-40.13,1549375765.015625
-44.9,1549375765.03125
-49.6,1549375765.046875
-54.68,1549375765.0625
-60.66,1549375765.078125
-67.97,1549375765.09375
-76.69,1549375765.109375
-86.31,1549375765.125
-95.55,1549375765.140625
-102.51,1549375765.15625
-105.11,1549375765.171875
-101.76,1549375765.1875
-91.99,1549375765.203125
-76.75,1549375765.21875
-58.14,1549375765.234375
-38.79,1549375765.25
-21.02,1549375765.265625
-6.24,1549375765.28125
5.2,1549375765.296875
13.85,1549375765.3125
20.67,1549375765.328125
26.6,1549375765.34375
32.28,1549375765.359375
37.97,1549375765.375
43.58,1549375765.390625
48.84,1549375765.40625
53.39,1549375765.421875
56.9,1549375765.4375
59.21,1549375765.453125
60.33,1549375765.46875
60.51,1549375765.484375
60.1,1549375765.5
59.48,1549375765.515625
58.96,1549375765.53125
58.73,1549375765.546875
58.8,1549375765.5625
59.02,1549375765.578125
59.1,1549375765.59375
58.63,1549375765.609375
57.24,1549375765.625
54.7,1549375765.640625
51.03,1549375765.65625
46.55,1549375765.671875
41.8,1549375765.6875
37.29,1549375765.703125
33.34,1549375765.71875
29.96,1549375765.734375
26.84,1549375765.75
23.53,1549375765.765625
19.72,1549375765.78125
15.35,1549375765.796875
10.67,1549375765.8125
6.07,1549375765.828125
1.88,1549375765.84375
-1.86,1549375765.859375
-5.36,1549375765.875
-9.04,1549375765.890625
-13.24,1549375765.90625
-18.08,1549375765.921875
-23.41,1549375765.9375
-28.85,1549375765.953125
-34.04,1549375765.96875
-38.74,1549375765.984375
-43.03,1549375766.0
-47.19,1549375766.015625
-51.7,1549375766.03125
-57.06,1549375766.046875
-63.66,1549375766.0625
-71.58,1549375766.078125
-80.37,1549375766.09375
-88.9,1549375766.109375
-95.45,1549375766.125
-98.08,1549375766.140625
-95.24,1549375766.15625
-86.35,1549375766.171875
-72.11,1549375766.1875
-54.38,1549375766.203125
-35.64,1549375766.21875
-18.25,1549375766.234375
-3.82,1549375766.25
7.11,1549375766.265625
14.93,1549375766.28125
20.55,1549375766.296875
24.98,1549375766.3125
28.92,1549375766.328125
32.71,1549375766.34375
36.31,1549375766.359375
39.52,1549375766.375
42.12,1549375766.390625
44.08,1549375766.40625
45.51,1549375766.421875
46.62,1549375766.4375
47.64,1549375766.453125
48.66,1549375766.46875
49.64,1549375766.484375
50.47,1549375766.5
51.02,1549375766.515625
51.28,1549375766.53125
51.25,1549375766.546875
50.89,1549375766.5625
50.08,1549375766.578125
48.57,1549375766.59375
46.1,1549375766.609375
42.61,1549375766.625
38.3,1549375766.640625
33.65,1549375766.65625
29.21,1549375766.671875
25.33,1549375766.6875
22.02,1549375766.703125
18.98,1549375766.71875
15.77,1549375766.734375
12.04,1549375766.75
7.77,1549375766.765625
3.23,1549375766.78125
-1.21,1549375766.796875
-5.25,1549375766.8125
-8.85,1549375766.828125
-12.26,1549375766.84375
-15.87,1549375766.859375
-20.03,1549375766.875
-24.91,1549375766.890625
-30.4,1549375766.90625
-36.21,1549375766.921875
-41.98,1549375766.9375
-47.44,1549375766.953125
-52.52,1549375766.96875
-57.41,1549375766.984375
-62.55,1549375767.0
-68.49,1549375767.015625
-75.74,1549375767.03125
-84.45,1549375767.046875
-94.08,1549375767.0625
-103.32,1549375767.078125
-110.21,1549375767.09375
-112.65,1549375767.109375
-109.12,1549375767.125
-99.19,1549375767.140625
-83.83,1549375767.15625
-65.13,1549375767.171875
-45.66,1549375767.1875
-27.7,1549375767.203125
-12.67,1549375767.21875
-0.95,1549375767.234375
7.93,1549375767.25
14.92,1549375767.265625
21.01,1549375767.28125
26.94,1549375767.296875
33.11,1549375767.3125
39.5,1549375767.328125
45.84,1549375767.34375
51.68,1549375767.359375
56.55,1549375767.375
60.18,1549375767.390625
62.5,1549375767.40625
63.66,1549375767.421875
63.95,1549375767.4375
63.67,1549375767.453125
63.07,1549375767.46875
62.39,1549375767.484375
61.79,1549375767.5
61.32,1549375767.515625
60.92,1549375767.53125
60.33,1549375767.546875
59.19,1549375767.5625
57.17,1549375767.578125
54.11,1549375767.59375
50.16,1549375767.609375
45.74,1549375767.625
41.33,1549375767.640625
37.31,1549375767.65625
33.82,1549375767.671875
30.71,1549375767.6875
27.69,1549375767.703125
24.41,1549375767.71875
20.65,1549375767.734375
16.37,1549375767.75
11.73,1549375767.765625
7.06,1549375767.78125
2.67,1549375767.796875
-1.22,1549375767.8125
-4.69,1549375767.828125
-8.09,1549375767.84375
-11.89,1549375767.859375
-16.5,1549375767.875
-22.01,1549375767.890625
-28.15,1549375767.90625
-34.39,1549375767.921875
-40.19,1549375767.9375
-45.26,1549375767.953125
-49.68,1549375767.96875
-53.91,1549375767.984375
-58.58,1549375768.0
-64.32,1549375768.015625
-71.49,1549375768.03125
-80.01,1549375768.046875
-89.17,1549375768.0625
-97.61,1549375768.078125
-103.45,1549375768.09375
-104.76,1549375768.109375
-100.11,1549375768.125
-89.17,1549375768.140625
-73.03,1549375768.15625
-53.9,1549375768.171875
-34.5,1549375768.1875
-17.17,1549375768.203125
-3.26,1549375768.21875
7.11,1549375768.234375
14.74,1549375768.25
20.77,1549375768.265625
26.18,1549375768.28125
31.47,1549375768.296875
36.69,1549375768.3125
41.66,1549375768.328125
46.2,1549375768.34375
50.14,1549375768.359375
53.43,1549375768.375
55.93,1549375768.390625
57.52,1549375768.40625
58.17,1549375768.421875
57.97,1549375768.4375
57.22,1549375768.453125
56.32,1549375768.46875
55.61,1549375768.484375
55.16,1549375768.5
54.77,1549375768.515625
53.99,1549375768.53125
52.41,1549375768.546875
49.83,1549375768.5625
46.32,1549375768.578125
42.2,1549375768.59375
37.82,1549375768.609375
33.44,1549375768.625
29.08,1549375768.640625
24.63,1549375768.65625
19.96,1549375768.671875
15.09,1549375768.6875
10.21,1549375768.703125
5.62,1549375768.71875
1.52,1549375768.734375
-2.06,1549375768.75
-5.37,1549375768.765625
-8.82,1549375768.78125
-12.82,1549375768.796875
-17.6,1549375768.8125
-23.1,1549375768.828125
-29.03,1549375768.84375
-34.96,1549375768.859375
-40.51,1549375768.875
-45.51,1549375768.890625
-50.05,1549375768.90625
-54.45,1549375768.921875
-59.24,1549375768.9375
-65.01,1549375768.953125
-72.21,1549375768.96875
-80.91,1549375768.984375
-90.61,1549375769.0
-100.03,1549375769.015625
-107.27,1549375769.03125
-110.2,1549375769.046875
-107.13,1549375769.0625
-97.41,1549375769.078125
-81.81,1549375769.09375
-62.39,1549375769.109375
-41.86,1549375769.125
-22.75,1549375769.140625
-6.75,1549375769.15625
5.62,1549375769.171875
14.84,1549375769.1875
21.92,1549375769.203125
27.95,1549375769.21875
33.64,1549375769.234375
39.27,1549375769.25
44.73,1549375769.265625
49.73,1549375769.28125
53.98,1549375769.296875
57.34,1549375769.3125
59.79,1549375769.328125
61.41,1549375769.34375
62.27,1549375769.359375
62.44,1549375769.375
62.0,1549375769.390625
61.12,1549375769.40625
60.09,1549375769.421875
59.25,1549375769.4375
58.77,1549375769.453125
58.57,1549375769.46875
58.26,1549375769.484375
57.33,1549375769.5
55.37,1549375769.515625
52.23,1549375769.53125
48.17,1549375769.546875
43.63,1549375769.5625
39.12,1549375769.578125
34.93,1549375769.59375
31.08,1549375769.609375
27.41,1549375769.625
23.63,1549375769.640625
19.53,1549375769.65625
15.09,1549375769.671875
10.46,1549375769.6875
5.88,1549375769.703125
1.56,1549375769.71875
-2.43,1549375769.734375
-6.29,1549375769.75
-10.36,1549375769.765625
-15.0,1549375769.78125
-20.4,1549375769.796875
-26.43,1549375769.8125
-32.7,1549375769.828125
-38.7,1549375769.84375
-44.05,1549375769.859375
-48.73,1549375769.875
-53.16,1549375769.890625
-58.07,1549375769.90625
-64.27,1549375769.921875
-72.23,1549375769.9375
-81.77,1549375769.953125
-91.91,1549375769.96875
-100.88,1549375769.984375
-106.54,1549375770.0
-106.9,1549375770.015625
-100.84,1549375770.03125
-88.47,1549375770.046875
-71.23,1549375770.0625
-51.5,1549375770.078125
-31.89,1549375770.09375
-14.48,1549375770.109375
-0.34,1549375770.125
10.45,1549375770.140625
18.61,1549375770.15625
25.1,1549375770.171875
30.75,1549375770.1875
36.06,1549375770.203125
41.21,1549375770.21875
46.13,1549375770.234375
50.64,1549375770.25
54.5,1549375770.265625
57.51,1549375770.28125
59.46,1549375770.296875
60.32,1549375770.3125
60.23,1549375770.328125
59.55,1549375770.34375
58.78,1549375770.359375
58.33,1549375770.375
58.41,1549375770.390625
58.92,1549375770.40625
59.5,1549375770.421875
59.63,1549375770.4375
58.86,1549375770.453125
56.91,1549375770.46875
53.78,1549375770.484375
49.68,1549375770.5
44.92,1549375770.515625
39.93,1549375770.53125
35.04,1549375770.546875
30.58,1549375770.5625
26.66,1549375770.578125
23.23,1549375770.59375
20.06,1549375770.609375
16.8,1549375770.625
13.17,1549375770.640625
9.06,1549375770.65625
4.64,1549375770.671875
0.24,1549375770.6875
-3.84,1549375770.703125
-7.48,1549375770.71875
-10.88,1549375770.734375
-14.42,1549375770.75
-18.47,1549375770.765625
-23.17,1549375770.78125
-28.3,1549375770.796875
-33.46,1549375770.8125
-38.25,1549375770.828125
-42.59,1549375770.84375
-46.76,1549375770.859375
-51.42,1549375770.875
-57.3,1549375770.890625
-64.85,1549375770.90625
-73.87,1549375770.921875
-83.34,1549375770.9375
-91.5,1549375770.953125
-96.22,1549375770.96875
-95.68,1549375770.984375
-88.9,1549375771.0
-76.22,1549375771.015625
-59.23,1549375771.03125
-40.33,1549375771.046875
-22.02,1549375771.0625
-6.21,1549375771.078125
6.18,1549375771.09375
15.25,1549375771.109375
21.8,1549375771.125
26.79,1549375771.140625
31.04,1549375771.15625
34.92,1549375771.171875
38.4,1549375771.1875
41.28,1549375771.203125
43.34,1549375771.21875
44.53,1549375771.234375
44.96,1549375771.25
44.91,1549375771.265625
44.58,1549375771.28125
44.15,1549375771.296875
43.66,1549375771.3125
43.14,1549375771.328125
42.61,1549375771.34375
42.07,1549375771.359375
41.51,1549375771.375
40.84,1549375771.390625
39.88,1549375771.40625
38.4,1549375771.421875
36.27,1549375771.4375
33.46,1549375771.453125
30.07,1549375771.46875
26.29,1549375771.484375
22.29,1549375771.5
18.2,1549375771.515625
14.13,1549375771.53125
10.15,1549375771.546875
6.29,1549375771.5625
2.58,1549375771.578125
-1.01,1549375771.59375
-4.54,1549375771.609375
-8.1,1549375771.625
-11.79,1549375771.640625
-15.68,1549375771.65625
-19.8,1549375771.671875
-24.16,1549375771.6875
-28.74,1549375771.703125
-33.43,1549375771.71875
-38.16,1549375771.734375
-42.84,1549375771.75
-47.45,1549375771.765625
-52.12,1549375771.78125
-57.17,1549375771.796875
-63.07,1549375771.8125
-70.25,1549375771.828125
-78.85,1549375771.84375
-88.37,1549375771.859375
-97.52,1549375771.875
-104.32,1549375771.890625
-106.68,1549375771.90625
-103.05,1549375771.921875
-93.03,1549375771.9375
-77.66,1549375771.953125
-59.07,1549375771.96875
-39.9,1549375771.984375
-22.4,1549375772.0
-8.01,1549375772.015625
2.94,1549375772.03125
10.95,1549375772.046875
16.99,1549375772.0625
22.07,1549375772.078125
26.95,1549375772.09375
32.03,1549375772.109375
37.33,1549375772.125
42.56,1549375772.140625
47.3,1549375772.15625
51.14,1549375772.171875
53.83,1549375772.1875
55.35,1549375772.203125
55.91,1549375772.21875
55.86,1549375772.234375
55.6,1549375772.25
55.41,1549375772.265625
55.49,1549375772.28125
55.82,1549375772.296875
56.21,1549375772.3125
56.33,1549375772.328125
55.82,1549375772.34375
54.42,1549375772.359375
52.05,1549375772.375
48.88,1549375772.390625
45.22,1549375772.40625
41.37,1549375772.421875
37.52,1549375772.4375
33.7,1549375772.453125
29.84,1549375772.46875
25.86,1549375772.484375
21.79,1549375772.5
17.68,1549375772.515625
13.63,1549375772.53125
9.65,1549375772.546875
5.63,1549375772.5625
1.41,1549375772.578125
-3.09,1549375772.59375
-7.92,1549375772.609375
-13.03,1549375772.625
-18.32,1549375772.640625
-23.74,1549375772.65625
-29.22,1549375772.671875
-34.71,1549375772.6875
-40.09,1549375772.703125
-45.29,1549375772.71875
-50.4,1549375772.734375
-55.71,1549375772.75
-61.76,1549375772.765625
-69.09,1549375772.78125
-77.88,1549375772.796875
-87.57,1549375772.8125
-96.73,1549375772.828125
-103.34,1549375772.84375
-105.31,1549375772.859375
-101.27,1549375772.875
-91.03,1549375772.890625
-75.73,1549375772.90625
-57.49,1549375772.921875
-38.74,1549375772.9375
-21.59,1549375772.953125
-7.32,1549375772.96875
3.68,1549375772.984375
11.82,1549375773.0
17.92,1549375773.015625
22.96,1549375773.03125
27.69,1549375773.046875
32.47,1549375773.0625
37.31,1549375773.078125
41.89,1549375773.09375
45.78,1549375773.109375
48.67,1549375773.125
50.49,1549375773.140625
51.42,1549375773.15625
51.77,1549375773.171875
51.83,1549375773.1875
51.81,1549375773.203125
51.84,1549375773.21875
51.95,1549375773.234375
52.14,1549375773.25
52.31,1549375773.265625
52.29,1549375773.28125
51.79,1549375773.296875
50.47,1549375773.3125
48.14,1549375773.328125
44.79,1549375773.34375
40.65,1549375773.359375
36.1,1549375773.375
31.49,1549375773.390625
27.04,1549375773.40625
22.8,1549375773.421875
18.7,1549375773.4375
14.72,1549375773.453125
10.91,1549375773.46875
7.37,1549375773.484375
4.15,1549375773.5
1.12,1549375773.515625
-2.02,1549375773.53125
-5.57,1549375773.546875
-9.72,1549375773.5625
-14.37,1549375773.578125
-19.19,1549375773.59375
-23.85,1549375773.609375
-28.13,1549375773.625
-32.1,1549375773.640625
-36.07,1549375773.65625
-40.48,1549375773.671875
-45.79,1549375773.6875
-52.38,1549375773.703125
-60.43,1549375773.71875
-69.69,1549375773.734375
-79.32,1549375773.75
-87.75,1549375773.765625
-92.99,1549375773.78125
-93.14,1549375773.796875
-87.12,1549375773.8125
-75.14,1549375773.828125
-58.76,1549375773.84375
-40.43,1549375773.859375
-22.7,1549375773.875
-7.48,1549375773.890625
4.37,1549375773.90625
13.0,1549375773.921875
19.23,1549375773.9375
24.04,1549375773.953125
28.21,1549375773.96875
32.11,1549375773.984375
35.74,1549375774.0
38.89,1549375774.015625
41.35,1549375774.03125
43.09,1549375774.046875
44.3,1549375774.0625
45.3,1549375774.078125
46.37,1549375774.09375
47.61,1549375774.109375
48.9,1549375774.125
50.01,1549375774.140625
50.71,1549375774.15625
50.88,1549375774.171875
50.51,1549375774.1875
49.64,1549375774.203125
48.25,1549375774.21875
46.24,1549375774.234375
43.52,1549375774.25
40.03,1549375774.265625
35.89,1549375774.28125
31.33,1549375774.296875
26.71,1549375774.3125
22.3,1549375774.328125
18.29,1549375774.34375
14.65,1549375774.359375
11.23,1549375774.375
7.84,1549375774.390625
4.31,1549375774.40625
0.55,1549375774.421875
-3.41,1549375774.4375
-7.55,1549375774.453125
-11.84,1549375774.46875
-16.25,1549375774.484375
-20.73,1549375774.5
-25.24,1549375774.515625
-29.7,1549375774.53125
-34.12,1549375774.546875
-38.55,1549375774.5625
-43.2,1549375774.578125
-48.41,1549375774.59375
-54.58,1549375774.609375
-62.08,1549375774.625
-71.05,1549375774.640625
-81.11,1549375774.65625
-91.19,1549375774.671875
-99.54,1549375774.6875
-104.06,1549375774.703125
-102.94,1549375774.71875
-95.35,1549375774.734375
-81.89,1549375774.75
-64.5,1549375774.765625
-45.85,1549375774.78125
-28.47,1549375774.796875
-14.01,1549375774.8125
-2.94,1549375774.828125
5.28,1549375774.84375
11.65,1549375774.859375
17.19,1549375774.875
22.51,1549375774.890625
27.87,1549375774.90625
33.22,1549375774.921875
38.35,1549375774.9375
43.01,1549375774.953125
46.98,1549375774.96875
50.08,1549375774.984375
52.18,1549375775.0
53.24,1549375775.015625
53.34,1549375775.03125
52.72,1549375775.046875
51.74,1549375775.0625
50.83,1549375775.078125
50.33,1549375775.09375
50.34,1549375775.109375
50.7,1549375775.125
50.93,1549375775.140625
50.51,1549375775.15625
49.06,1549375775.171875
46.52,1549375775.1875
43.17,1549375775.203125
39.52,1549375775.21875
36.05,1549375775.234375
33.02,1549375775.25
30.41,1549375775.265625
27.92,1549375775.28125
25.17,1549375775.296875
21.86,1549375775.3125
17.9,1549375775.328125
13.52,1549375775.34375
9.08,1549375775.359375
5.02,1549375775.375
1.48,1549375775.390625
-1.66,1549375775.40625
-4.9,1549375775.421875
-8.77,1549375775.4375
-13.65,1549375775.453125
-19.46,1549375775.46875
-25.75,1549375775.484375
-31.85,1549375775.5
-37.22,1549375775.515625
-41.7,1549375775.53125
-45.6,1549375775.546875
-49.57,1549375775.5625
-54.39,1549375775.578125
-60.74,1549375775.59375
-68.96,1549375775.609375
-78.79,1549375775.625
-89.31,1549375775.640625
-98.87,1549375775.65625
-105.35,1549375775.671875
-106.71,1549375775.6875
-101.67,1549375775.703125
-90.26,1549375775.71875
-73.88,1549375775.734375
-55.01,1549375775.75
-36.33,1549375775.765625
-19.96,1549375775.78125
-6.92,1549375775.796875
2.93,1549375775.8125
10.49,1549375775.828125
16.88,1549375775.84375
22.98,1549375775.859375
29.19,1549375775.875
35.46,1549375775.890625
41.47,1549375775.90625
46.81,1549375775.921875
51.16,1549375775.9375
54.34,1549375775.953125
56.39,1549375775.96875
57.5,1549375775.984375
57.98,1549375776.0
58.23,1549375776.015625
58.55,1549375776.03125
59.1,1549375776.046875
59.82,1549375776.0625
60.49,1549375776.078125
60.76,1549375776.09375
60.33,1549375776.109375
59.03,1549375776.125
56.8,1549375776.140625
53.71,1549375776.15625
49.88,1549375776.171875
45.52,1549375776.1875
40.92,1549375776.203125
36.37,1549375776.21875
32.14,1549375776.234375
28.26,1549375776.25
24.57,1549375776.265625
20.72,1549375776.28125
16.43,1549375776.296875
11.59,1549375776.3125
6.47,1549375776.328125
1.46,1549375776.34375
-3.11,1549375776.359375
-7.15,1549375776.375
-10.92,1549375776.390625
-14.8,1549375776.40625
-19.11,1549375776.421875
-23.9,1549375776.4375
-29.04,1549375776.453125
-34.25,1549375776.46875
-39.39,1549375776.484375
-44.52,1549375776.5
-49.93,1549375776.515625
-56.02,1549375776.53125
-63.18,1549375776.546875
-71.55,1549375776.5625
-80.8,1549375776.578125
-89.98,1549375776.59375
-97.5,1549375776.609375
-101.43,1549375776.625
-100.06,1549375776.640625
-92.52,1549375776.65625
-79.26,1549375776.671875
-62.01,1549375776.6875
-43.29,1549375776.703125
-25.62,1549375776.71875
-10.69,1549375776.734375
0.88,1549375776.75
9.55,1549375776.765625
16.25,1549375776.78125
21.99,1549375776.796875
27.39,1549375776.8125
32.68,1549375776.828125
37.81,1549375776.84375
42.55,1549375776.859375
46.66,1549375776.875
49.9,1549375776.890625
52.08,1549375776.90625
53.13,1549375776.921875
53.22,1549375776.9375
52.69,1549375776.953125
52.02,1549375776.96875
51.65,1549375776.984375
51.79,1549375777.0
52.38,1549375777.015625
53.12,1549375777.03125
53.53,1549375777.046875
53.16,1549375777.0625
51.72,1549375777.078125
49.14,1549375777.09375
45.61,1549375777.109375
41.49,1549375777.125
37.21,1549375777.140625
33.07,1549375777.15625
29.18,1549375777.171875
25.44,1549375777.1875
21.64,1549375777.203125
17.65,1549375777.21875
13.5,1549375777.234375
9.36,1549375777.25
5.46,1549375777.265625
1.91,1549375777.28125
-1.39,1549375777.296875
-4.73,1549375777.3125
-8.43,1549375777.328125
-12.74,1549375777.34375
-17.68,1549375777.359375
-23.1,1549375777.375
-28.68,1549375777.390625
-34.13,1549375777.40625
-39.25,1549375777.421875
-44.07,1549375777.4375
-48.76,1549375777.453125
-53.7,1549375777.46875
-59.32,1549375777.484375
-66.08,1549375777.5
-74.19,1549375777.515625
-83.4,1549375777.53125
-92.72,1549375777.546875
-100.46,1549375777.5625
-104.53,1549375777.578125
-103.03,1549375777.59375
-95.03,1549375777.609375
-81.01,1549375777.625
-62.87,1549375777.640625
-43.32,1549375777.65625
-25.01,1549375777.671875
-9.73,1549375777.6875
2.0,1549375777.703125
10.76,1549375777.71875
17.71,1549375777.734375
23.93,1549375777.75
30.09,1549375777.765625
36.28,1549375777.78125
42.25,1549375777.796875
47.61,1549375777.8125
52.06,1549375777.828125
55.46,1549375777.84375
57.86,1549375777.859375
59.34,1549375777.875
60.07,1549375777.890625
60.22,1549375777.90625
60.01,1549375777.921875
59.66,1549375777.9375
59.4,1549375777.953125
59.37,1549375777.96875
59.51,1549375777.984375
59.55,1549375778.0
59.09,1549375778.015625
57.67,1549375778.03125
55.05,1549375778.046875
51.28,1549375778.0625
46.76,1549375778.078125
42.04,1549375778.09375
37.65,1549375778.109375
33.84,1549375778.125
30.53,1549375778.140625
27.39,1549375778.15625
24.03,1549375778.171875
20.21,1549375778.1875
15.95,1549375778.203125
11.52,1549375778.21875
7.21,1549375778.234375
3.2,1549375778.25
-0.57,1549375778.265625
-4.38,1549375778.28125
-8.55,1549375778.296875
-13.34,1549375778.3125
-18.78,1549375778.328125
-24.65,1549375778.34375
-30.58,1549375778.359375
-36.2,1549375778.375
-41.37,1549375778.390625
-46.23,1549375778.40625
-51.16,1549375778.421875
-56.65,1549375778.4375
-63.14,1549375778.453125
-70.8,1549375778.46875
-79.43,1549375778.484375
-88.28,1549375778.5
-96.08,1549375778.515625
-101.12,1549375778.53125
-101.71,1549375778.546875
-96.67,1549375778.5625
-85.86,1549375778.578125
-70.35,1549375778.59375
-52.23,1549375778.609375
-33.96,1549375778.625
-17.62,1549375778.640625
-4.38,1549375778.65625
5.67,1549375778.671875
13.19,1549375778.6875
19.1,1549375778.703125
24.13,1549375778.71875
28.65,1549375778.734375
32.69,1549375778.75
36.13,1549375778.765625
38.92,1549375778.78125
41.15,1549375778.796875
43.01,1549375778.8125
44.71,1549375778.828125
46.36,1549375778.84375
47.92,1549375778.859375
49.21,1549375778.875
50.08,1549375778.890625
50.44,1549375778.90625
50.36,1549375778.921875
49.96,1549375778.9375
49.32,1549375778.953125
48.35,1549375778.96875
46.88,1549375778.984375
44.65,1549375779.0
41.49,1549375779.015625
37.43,1549375779.03125
32.62,1549375779.046875
27.34,1549375779.0625
21.86,1549375779.078125
16.49,1549375779.09375
11.44,1549375779.109375
6.83,1549375779.125
2.63,1549375779.140625
-1.4,1549375779.15625
-5.6,1549375779.171875
-10.29,1549375779.1875
-15.58,1549375779.203125
-21.31,1549375779.21875
-27.05,1549375779.234375
-32.36,1549375779.25
-36.98,1549375779.265625
-41.01,1549375779.28125
-44.83,1549375779.296875
-48.99,1549375779.3125
-54.09,1549375779.328125
-60.54,1549375779.34375
-68.55,1549375779.359375
-78.02,1549375779.375
-88.26,1549375779.390625
-97.97,1549375779.40625
-105.24,1549375779.421875
-107.97,1549375779.4375
-104.55,1549375779.453125
-94.49,1549375779.46875
-78.76,1549375779.484375
-59.6,1549375779.5
-39.77,1549375779.515625
-21.71,1549375779.53125
-6.82,1549375779.546875
4.64,1549375779.5625
13.37,1549375779.578125
20.4,1549375779.59375
26.65,1549375779.609375
32.7,1549375779.625
38.68,1549375779.640625
44.46,1549375779.65625
49.74,1549375779.671875
54.23,1549375779.6875
57.7,1549375779.703125
60.09,1549375779.71875
61.51,1549375779.734375
62.17,1549375779.75
62.34,1549375779.765625
62.21,1549375779.78125
61.9,1549375779.796875
61.45,1549375779.8125
60.91,1549375779.828125
60.28,1549375779.84375
59.59,1549375779.859375
58.7,1549375779.875
57.34,1549375779.890625
55.13,1549375779.90625
51.73,1549375779.921875
47.06,1549375779.9375
41.37,1549375779.953125
35.21,1549375779.96875
29.21,1549375779.984375
23.89,1549375780.0
19.44,1549375780.015625
15.73,1549375780.03125
12.4,1549375780.046875
8.99,1549375780.0625
5.1,1549375780.078125
0.49,1549375780.09375
-4.88,1549375780.109375
-10.86,1549375780.125
-17.12,1549375780.140625
-23.29,1549375780.15625
-29.02,1549375780.171875
-34.19,1549375780.1875
-38.93,1549375780.203125
-43.67,1549375780.21875
-48.98,1549375780.234375
-55.47,1549375780.25
-63.55,1549375780.265625
-73.24,1549375780.28125
-83.9,1549375780.296875
-94.2,1549375780.3125
-102.16,1549375780.328125
-105.65,1549375780.34375
-102.99,1549375780.359375
-93.61,1549375780.375
-78.39,1549375780.390625
-59.48,1549375780.40625
-39.66,1549375780.421875
-21.4,1549375780.4375
-6.23,1549375780.453125
5.49,1549375780.46875
14.38,1549375780.484375
21.48,1549375780.5
27.74,1549375780.515625
33.71,1549375780.53125
39.52,1549375780.546875
44.97,1549375780.5625
49.78,1549375780.578125
53.69,1549375780.59375
56.56,1549375780.609375
58.38,1549375780.625
59.27,1549375780.640625
59.42,1549375780.65625
59.07,1549375780.671875
58.45,1549375780.6875
57.78,1549375780.703125
57.19,1549375780.71875
56.7,1549375780.734375
56.24,1549375780.75
55.61,1549375780.765625
54.59,1549375780.78125
52.96,1549375780.796875
50.6,1549375780.8125
47.54,1549375780.828125
43.87,1549375780.84375
39.78,1549375780.859375
35.45,1549375780.875
31.01,1549375780.890625
26.57,1549375780.90625
22.19,1549375780.921875
17.9,1549375780.9375
13.69,1549375780.953125
9.49,1549375780.96875
5.18,1549375780.984375
0.59,1549375781.0
-4.41,1549375781.015625
-9.83,1549375781.03125
-15.54,1549375781.046875
-21.26,1549375781.0625
-26.74,1549375781.078125
-31.77,1549375781.09375
-36.35,1549375781.109375
-40.61,1549375781.125
-44.89,1549375781.140625
-49.62,1549375781.15625
-55.27,1549375781.171875
-62.27,1549375781.1875
-70.72,1549375781.203125
-80.17,1549375781.21875
-89.38,1549375781.234375
-96.45,1549375781.25
-99.23,1549375781.265625
-96.06,1549375781.28125
-86.41,1549375781.296875
-71.25,1549375781.3125
-52.77,1549375781.328125
-33.66,1549375781.34375
-16.28,1549375781.359375
-2.02,1549375781.375
8.85,1549375781.390625
16.86,1549375781.40625
22.89,1549375781.421875
27.62,1549375781.4375
31.5,1549375781.453125
34.68,1549375781.46875
37.22,1549375781.484375
39.24,1549375781.5
40.89,1549375781.515625
42.33,1549375781.53125
43.67,1549375781.546875
44.94,1549375781.5625
46.05,1549375781.578125
46.88,1549375781.59375
47.3,1549375781.609375
47.3,1549375781.625
46.97,1549375781.640625
46.47,1549375781.65625
45.96,1549375781.671875
45.39,1549375781.6875
44.46,1549375781.703125
42.72,1549375781.71875
39.79,1549375781.734375
35.55,1549375781.75
30.26,1549375781.765625
24.5,1549375781.78125
18.91,1549375781.796875
13.92,1549375781.8125
9.59,1549375781.828125
5.67,1549375781.84375
1.74,1549375781.859375
-2.58,1549375781.875
-7.47,1549375781.890625
-12.88,1549375781.90625
-18.58,1549375781.921875
-24.23,1549375781.9375
-29.55,1549375781.953125
-34.39,1549375781.96875
-38.86,1549375781.984375
-43.33,1549375782.0
-48.36,1549375782.015625
-54.56,1549375782.03125
-62.38,1549375782.046875
-71.84,1549375782.0625
-82.31,1549375782.078125
-92.39,1549375782.09375
-100.05,1549375782.109375
-103.15,1549375782.125
-100.07,1549375782.140625
-90.4,1549375782.15625
-75.18,1549375782.171875
-56.64,1549375782.1875
-37.44,1549375782.203125
-19.83,1549375782.21875
-5.06,1549375782.234375
6.67,1549375782.25
15.88,1549375782.265625
23.28,1549375782.28125
29.46,1549375782.296875
34.73,1549375782.3125
39.24,1549375782.328125
43.11,1549375782.34375
46.47,1549375782.359375
49.37,1549375782.375
51.81,1549375782.390625
53.76,1549375782.40625
55.23,1549375782.421875
56.3,1549375782.4375
57.12,1549375782.453125
57.73,1549375782.46875
58.05,1549375782.484375
57.96,1549375782.5
57.33,1549375782.515625
56.21,1549375782.53125
54.7,1549375782.546875
52.87,1549375782.5625
50.67,1549375782.578125
47.83,1549375782.59375
44.03,1549375782.609375
39.11,1549375782.625
33.23,1549375782.640625
26.84,1549375782.65625
20.6,1549375782.671875
15.05,1549375782.6875
10.44,1549375782.703125
6.65,1549375782.71875
3.23,1549375782.734375
-0.37,1549375782.75
-4.61,1549375782.765625
-9.68,1549375782.78125
-15.52,1549375782.796875
-21.82,1549375782.8125
-28.18,1549375782.828125
-34.24,1549375782.84375
-39.8,1549375782.859375
-44.94,1549375782.875
-49.98,1549375782.890625
-55.47,1549375782.90625
-62.07,1549375782.921875
-70.27,1549375782.9375
-80.18,1549375782.953125
-91.19,1549375782.96875
-101.91,1549375782.984375
-110.27,1549375783.0
-114.03,1549375783.015625
-111.48,1549375783.03125
-102.05,1549375783.046875
-86.62,1549375783.0625
-67.33,1549375783.078125
-46.86,1549375783.09375
-27.74,1549375783.109375
-11.54,1549375783.125
1.25,1549375783.140625
11.12,1549375783.15625
19.08,1549375783.171875
26.17,1549375783.1875
33.14,1549375783.203125
40.26,1549375783.21875
47.39,1549375783.234375
54.1,1549375783.25
59.79,1549375783.265625
64.01,1549375783.28125
66.54,1549375783.296875
67.52,1549375783.3125
67.4,1549375783.328125
66.71,1549375783.34375
65.92,1549375783.359375
65.3,1549375783.375
64.87,1549375783.390625
64.58,1549375783.40625
64.28,1549375783.421875
63.89,1549375783.4375
63.28,1549375783.453125
62.23,1549375783.46875
60.47,1549375783.484375
57.72,1549375783.5
53.84,1549375783.515625
48.87,1549375783.53125
43.11,1549375783.546875
37.04,1549375783.5625
31.12,1549375783.578125
25.71,1549375783.59375
20.95,1549375783.609375
16.76,1549375783.625
12.83,1549375783.640625
8.79,1549375783.65625
4.32,1549375783.671875
-0.76,1549375783.6875
-6.43,1549375783.703125
-12.44,1549375783.71875
-18.43,1549375783.734375
-24.04,1549375783.75
-29.06,1549375783.765625
-33.55,1549375783.78125
-37.86,1549375783.796875
-42.51,1549375783.8125
-48.11,1549375783.828125
-55.19,1549375783.84375
-63.94,1549375783.859375
-74.11,1549375783.875
-84.76,1549375783.890625
-94.19,1549375783.90625
-100.27,1549375783.921875
-100.91,1549375783.9375
-94.84,1549375783.953125
-82.22,1549375783.96875
-64.78,1549375783.984375
-45.31,1549375784.0
-26.84,1549375784.015625
-11.62,1549375784.03125
-0.59,1549375784.046875
6.68,1549375784.0625
11.46,1549375784.078125
15.25,1549375784.09375
19.17,1549375784.109375
23.72,1549375784.125
28.9,1549375784.140625
34.29,1549375784.15625
39.4,1549375784.171875
43.82,1549375784.1875
47.36,1549375784.203125
49.99,1549375784.21875
51.87,1549375784.234375
53.22,1549375784.25
54.2,1549375784.265625
54.9,1549375784.28125
55.33,1549375784.296875
55.5,1549375784.3125
55.42,1549375784.328125
55.06,1549375784.34375
54.39,1549375784.359375
53.29,1549375784.375
51.58,1549375784.390625
49.08,1549375784.40625
45.76,1549375784.421875
41.72,1549375784.4375
37.24,1549375784.453125
32.68,1549375784.46875
28.38,1549375784.484375
24.52,1549375784.5
21.09,1549375784.515625
17.89,1549375784.53125
14.61,1549375784.546875
10.97,1549375784.5625
6.79,1549375784.578125
2.11,1549375784.59375
-2.88,1549375784.609375
-7.91,1549375784.625
-12.71,1549375784.640625
-17.12,1549375784.65625
-21.15,1549375784.671875
-24.99,1549375784.6875
-28.99,1549375784.703125
-33.59,1549375784.71875
-39.23,1549375784.734375
-46.2,1549375784.75
-54.49,1549375784.765625
-63.6,1549375784.78125
-72.48,1549375784.796875
-79.6,1549375784.8125
-83.26,1549375784.828125
-82.04,1549375784.84375
-75.31,1549375784.859375
-63.51,1549375784.875
-48.16,1549375784.890625
-31.45,1549375784.90625
-15.6,1549375784.921875
-2.23,1549375784.9375
8.04,1549375784.953125
15.55,1549375784.96875
21.21,1549375784.984375
25.98,1549375785.0
30.39,1549375785.015625
34.49,1549375785.03125
37.92,1549375785.046875
40.32,1549375785.0625
41.61,1549375785.078125
42.07,1549375785.09375
42.25,1549375785.109375
42.62,1549375785.125
43.39,1549375785.140625
44.43,1549375785.15625
45.41,1549375785.171875
46.04,1549375785.1875
46.2,1549375785.203125
45.99,1549375785.21875
45.56,1549375785.234375
44.97,1549375785.25
44.08,1549375785.265625
42.62,1549375785.28125
40.37,1549375785.296875
37.21,1549375785.3125
33.26,1549375785.328125
28.77,1549375785.34375
24.05,1549375785.359375
19.36,1549375785.375
14.89,1549375785.390625
10.75,1549375785.40625
6.96,1549375785.421875
3.49,1549375785.4375
0.19,1549375785.453125
-3.2,1549375785.46875
-6.91,1549375785.484375
-11.08,1549375785.5
-15.69,1549375785.515625
-20.54,1549375785.53125
-25.35,1549375785.546875
-29.92,1549375785.5625
-34.15,1549375785.578125
-38.18,1549375785.59375
-42.24,1549375785.609375
-46.65,1549375785.625
-51.74,1549375785.640625
-57.84,1549375785.65625
-65.06,1549375785.671875
-73.16,1549375785.6875
-81.32,1549375785.703125
-88.11,1549375785.71875
-91.76,1549375785.734375
-90.68,1549375785.75
-84.09,1549375785.765625
-72.47,1549375785.78125
-57.45,1549375785.796875
-41.35,1549375785.8125
-26.36,1549375785.828125
-13.85,1549375785.84375
-4.15,1549375785.859375
3.3,1549375785.875
9.47,1549375785.890625
15.19,1549375785.90625
20.88,1549375785.921875
26.52,1549375785.9375
31.85,1549375785.953125
36.56,1549375785.96875
40.47,1549375785.984375
43.54,1549375786.0
45.81,1549375786.015625
47.3,1549375786.03125
48.08,1549375786.046875
48.23,1549375786.0625
47.93,1549375786.078125
47.4,1549375786.09375
46.9,1549375786.109375
46.61,1549375786.125
46.51,1549375786.140625
46.42,1549375786.15625
46.02,1549375786.171875
45.03,1549375786.1875
43.29,1549375786.203125
40.85,1549375786.21875
37.87,1549375786.234375
34.61,1549375786.25
31.26,1549375786.265625
27.9,1549375786.28125
24.44,1549375786.296875
20.74,1549375786.3125
16.72,1549375786.328125
12.43,1549375786.34375
8.14,1549375786.359375
4.16,1549375786.375
0.77,1549375786.390625
-2.02,1549375786.40625
-4.44,1549375786.421875
-6.91,1549375786.4375
-9.82,1549375786.453125
-13.36,1549375786.46875
-17.43,1549375786.484375
-21.72,1549375786.5
-25.89,1549375786.515625
-29.74,1549375786.53125
-33.27,1549375786.546875
-36.7,1549375786.5625
-40.29,1549375786.578125
-44.33,1549375786.59375
-49.02,1549375786.609375
-54.44,1549375786.625
-60.45,1549375786.640625
-66.53,1549375786.65625
-71.72,1549375786.671875
-74.69,1549375786.6875
-74.12,1549375786.703125
-69.2,1549375786.71875
-60.03,1549375786.734375
-47.78,1549375786.75
-34.34,1549375786.765625
-21.67,1549375786.78125
-11.18,1549375786.796875
-3.3,1549375786.8125
2.46,1549375786.828125
7.07,1549375786.84375
11.41,1549375786.859375
15.93,1549375786.875
20.51,1549375786.890625
24.68,1549375786.90625
27.97,1549375786.921875
30.15,1549375786.9375
31.34,1549375786.953125
31.88,1549375786.96875
32.14,1549375786.984375
32.39,1549375787.0
32.73,1549375787.015625
33.09,1549375787.03125
33.38,1549375787.046875
33.48,1549375787.0625
33.38,1549375787.078125
33.09,1549375787.09375
32.61,1549375787.109375
31.96,1549375787.125
31.08,1549375787.140625
29.86,1549375787.15625
28.16,1549375787.171875
25.88,1549375787.1875
23.05,1549375787.203125
19.81,1549375787.21875
16.41,1549375787.234375
13.1,1549375787.25
10.07,1549375787.265625
7.34,1549375787.28125
4.84,1549375787.296875
2.44,1549375787.3125
-0.01,1549375787.328125
-2.59,1549375787.34375
-5.4,1549375787.359375
-8.5,1549375787.375
-11.96,1549375787.390625
-15.71,1549375787.40625
-19.63,1549375787.421875
-23.52,1549375787.4375
-27.16,1549375787.453125
-30.5,1549375787.46875
-33.66,1549375787.484375
-36.99,1549375787.5
-40.92,1549375787.515625
-45.82,1549375787.53125
-51.75,1549375787.546875
-58.31,1549375787.5625
-64.54,1549375787.578125
-69.13,1549375787.59375
-70.7,1549375787.609375
-68.25,1549375787.625
-61.57,1549375787.640625
-51.35,1549375787.65625
-38.99,1549375787.671875
-26.22,1549375787.6875
-14.54,1549375787.703125
-4.88,1549375787.71875
2.56,1549375787.734375
8.17,1549375787.75
12.65,1549375787.765625
16.62,1549375787.78125
20.45,1549375787.796875
24.19,1549375787.8125
27.65,1549375787.828125
30.57,1549375787.84375
32.78,1549375787.859375
34.29,1549375787.875
35.21,1549375787.890625
35.71,1549375787.90625
35.98,1549375787.921875
36.1,1549375787.9375
36.14,1549375787.953125
36.08,1549375787.96875
35.94,1549375787.984375
35.69,1549375788.0
35.29,1549375788.015625
34.67,1549375788.03125
33.72,1549375788.046875
32.34,1549375788.0625
30.44,1549375788.078125
28.03,1549375788.09375
25.23,1549375788.109375
22.18,1549375788.125
19.06,1549375788.140625
15.98,1549375788.15625
12.95,1549375788.171875
9.88,1549375788.1875
6.72,1549375788.203125
3.47,1549375788.21875
0.28,1549375788.234375
-2.71,1549375788.25
-5.42,1549375788.265625
-7.96,1549375788.28125
-10.64,1549375788.296875
-13.75,1549375788.3125
-17.44,1549375788.328125
-21.59,1549375788.34375
-25.87,1549375788.359375
-29.92,1549375788.375
-33.57,1549375788.390625
-36.91,1549375788.40625
-40.29,1549375788.421875
-44.15,1549375788.4375
-48.84,1549375788.453125
-54.53,1549375788.46875
-61.05,1549375788.484375
-67.92,1549375788.5
-74.23,1549375788.515625
-78.75,1549375788.53125
-80.16,1549375788.546875
-77.44,1549375788.5625
-70.3,1549375788.578125
-59.41,1549375788.59375
-46.28,1549375788.609375
-32.84,1549375788.625
-20.78,1549375788.640625
-11.06,1549375788.65625
-3.78,1549375788.671875
1.63,1549375788.6875
6.03,1549375788.703125
10.14,1549375788.71875
14.3,1549375788.734375
18.55,1549375788.75
22.65,1549375788.765625
26.33,1549375788.78125
29.35,1549375788.796875
31.58,1549375788.8125
33.02,1549375788.828125
33.8,1549375788.84375
34.11,1549375788.859375
34.19,1549375788.875
34.23,1549375788.890625
34.36,1549375788.90625
34.58,1549375788.921875
34.81,1549375788.9375
34.85,1549375788.953125
34.47,1549375788.96875
33.47,1549375788.984375
31.76,1549375789.0
29.38,1549375789.015625
26.54,1549375789.03125
23.58,1549375789.046875
20.85,1549375789.0625
18.55,1549375789.078125
16.7,1549375789.09375
15.07,1549375789.109375
13.32,1549375789.125
11.17,1549375789.140625
8.54,1549375789.15625
5.58,1549375789.171875
2.59,1549375789.1875
-0.15,1549375789.203125
-2.54,1549375789.21875
-4.72,1549375789.234375
-7.02,1549375789.25
-9.74,1549375789.265625
-13.03,1549375789.28125
-16.83,1549375789.296875
-20.84,1549375789.3125
-24.74,1549375789.328125
-28.31,1549375789.34375
-31.53,1549375789.359375
-34.6,1549375789.375
-37.88,1549375789.390625
-41.8,1549375789.40625
-46.68,1549375789.421875
-52.57,1549375789.4375
-59.06,1549375789.453125
-65.27,1549375789.46875
-69.92,1549375789.484375
-71.66,1549375789.5
-69.46,1549375789.515625
-63.04,1549375789.53125
-52.97,1549375789.546875
-40.6,1549375789.5625
-27.64,1549375789.578125
-15.64,1549375789.59375
-5.59,1549375789.609375
2.2,1549375789.625
8.04,1549375789.640625
12.5,1549375789.65625
16.11,1549375789.671875
19.24,1549375789.6875
22.04,1549375789.703125
24.51,1549375789.71875
26.64,1549375789.734375
28.38,1549375789.75
29.72,1549375789.765625
30.71,1549375789.78125
31.44,1549375789.796875
32.05,1549375789.8125
32.73,1549375789.828125
33.57,1549375789.84375
34.52,1549375789.859375
35.39,1549375789.875
35.95,1549375789.890625
36.02,1549375789.90625
35.55,1549375789.921875
34.63,1549375789.9375
33.35,1549375789.953125
31.74,1549375789.96875
29.74,1549375789.984375
27.3,1549375790.0
24.5,1549375790.015625
21.56,1549375790.03125
18.72,1549375790.046875
16.11,1549375790.0625
13.63,1549375790.078125
11.07,1549375790.09375
8.2,1549375790.109375
4.96,1549375790.125
1.48,1549375790.140625
-2.05,1549375790.15625
-5.5,1549375790.171875
-8.93,1549375790.1875
-12.51,1549375790.203125
-16.42,1549375790.21875
-20.68,1549375790.234375
-25.11,1549375790.25
-29.45,1549375790.265625
-33.48,1549375790.28125
-37.21,1549375790.296875
-40.87,1549375790.3125
-44.87,1549375790.328125
-49.66,1549375790.34375
-55.55,1549375790.359375
-62.62,1549375790.375
-70.51,1549375790.390625
-78.38,1549375790.40625
-84.94,1549375790.421875
-88.73,1549375790.4375
-88.49,1549375790.453125
-83.62,1549375790.46875
-74.38,1549375790.484375
-61.91,1549375790.5
-47.87,1549375790.515625
-33.96,1549375790.53125
-21.49,1549375790.546875
-11.14,1549375790.5625
-2.96,1549375790.578125
3.49,1549375790.59375
8.84,1549375790.609375
13.74,1549375790.625
18.67,1549375790.640625
23.84,1549375790.65625
29.16,1549375790.671875
34.28,1549375790.6875
38.79,1549375790.703125
42.34,1549375790.71875
44.85,1549375790.734375
46.43,1549375790.75
47.39,1549375790.765625
48.05,1549375790.78125
48.61,1549375790.796875
49.15,1549375790.8125
49.6,1549375790.828125
49.86,1549375790.84375
49.77,1549375790.859375
49.22,1549375790.875
48.14,1549375790.890625
46.51,1549375790.90625
44.33,1549375790.921875
41.65,1549375790.9375
38.55,1549375790.953125
35.18,1549375790.96875
31.69,1549375790.984375
28.22,1549375791.0
24.81,1549375791.015625
21.45,1549375791.03125
18.09,1549375791.046875
14.69,1549375791.0625
11.26,1549375791.078125
7.88,1549375791.09375
4.59,1549375791.109375
1.36,1549375791.125
-1.94,1549375791.140625
-5.52,1549375791.15625
-9.56,1549375791.171875
-14.11,1549375791.1875
-19.05,1549375791.203125
-24.12,1549375791.21875
-29.04,1549375791.234375
-33.66,1549375791.25
-38.03,1549375791.265625
-42.44,1549375791.28125
-47.35,1549375791.296875
-53.3,1549375791.3125
-60.67,1549375791.328125
-69.35,1549375791.34375
-78.54,1549375791.359375
-86.7,1549375791.375
-91.88,1549375791.390625
-92.35,1549375791.40625
-87.22,1549375791.421875
-76.87,1549375791.4375
-62.85,1549375791.453125
-47.4,1549375791.46875
-32.62,1549375791.484375
-19.93,1549375791.5
-9.78,1549375791.515625
-1.84,1549375791.53125
4.64,1549375791.546875
10.39,1549375791.5625
15.94,1549375791.578125
21.56,1549375791.59375
27.28,1549375791.609375
32.92,1549375791.625
38.17,1549375791.640625
42.65,1549375791.65625
46.07,1549375791.671875
48.37,1549375791.6875
49.73,1549375791.703125
50.48,1549375791.71875
51.02,1549375791.734375
51.59,1549375791.75
52.25,1549375791.765625
52.89,1549375791.78125
53.35,1549375791.796875
53.46,1549375791.8125
53.13,1549375791.828125
52.27,1549375791.84375
50.82,1549375791.859375
48.74,1549375791.875
46.03,1549375791.890625
42.79,1549375791.90625
39.2,1549375791.921875
35.43,1549375791.9375
31.64,1549375791.953125
27.85,1549375791.96875
24.06,1549375791.984375
20.27,1549375792.0
16.55,1549375792.015625
12.97,1549375792.03125
9.57,1549375792.046875
6.23,1549375792.0625
2.74,1549375792.078125
-1.11,1549375792.09375
-5.42,1549375792.109375
-10.11,1549375792.125
-14.91,1549375792.140625
-19.51,1549375792.15625
-23.75,1549375792.171875
-27.66,1549375792.1875
-31.49,1549375792.203125
-35.71,1549375792.21875
-40.8,1549375792.234375
-47.17,1549375792.25
-54.93,1549375792.265625
-63.69,1549375792.28125
-72.42,1549375792.296875
-79.5,1549375792.3125
-83.03,1549375792.328125
-81.42,1549375792.34375
-73.98,1549375792.359375
-61.21,1549375792.375
-44.77,1549375792.390625
-26.92,1549375792.40625
-9.88,1549375792.421875
4.81,1549375792.4375
16.54,1549375792.453125
25.52,1549375792.46875
32.45,1549375792.484375
38.1,1549375792.5
43.06,1549375792.515625
47.69,1549375792.53125
52.16,1549375792.546875
56.53,1549375792.5625
60.82,1549375792.578125
64.91,1549375792.59375
68.53,1549375792.609375
71.21,1549375792.625
72.38,1549375792.640625
71.51,1549375792.65625
68.37,1549375792.671875
63.1,1549375792.6875
56.24,1549375792.703125
48.56,1549375792.71875
40.83,1549375792.734375
33.63,1549375792.75
27.25,1549375792.765625
21.69,1549375792.78125
16.86,1549375792.796875
12.6,1549375792.8125
8.87,1549375792.828125
5.62,1549375792.84375
2.84,1549375792.859375
0.39,1549375792.875
-1.89,1549375792.890625
-4.19,1549375792.90625
-6.59,1549375792.921875
-9.05,1549375792.9375
-11.41,1549375792.953125
-13.52,1549375792.96875
-15.28,1549375792.984375
-16.8,1549375793.0
-18.37,1549375793.015625
-20.35,1549375793.03125
-23.04,1549375793.046875
-26.57,1549375793.0625
-30.78,1549375793.078125
-35.3,1549375793.09375
-39.74,1549375793.109375
-43.85,1549375793.125
-47.68,1549375793.140625
-51.62,1549375793.15625
-56.32,1549375793.171875
-62.42,1549375793.1875
-70.22,1549375793.203125
-79.37,1549375793.21875
-88.67,1549375793.234375
-96.26,1549375793.25
-100.05,1549375793.265625
-98.41,1549375793.28125
-90.67,1549375793.296875
-77.5,1549375793.3125
-60.65,1549375793.328125
-42.47,1549375793.34375
-25.13,1549375793.359375
-10.11,1549375793.375
2.02,1549375793.390625
11.48,1549375793.40625
18.92,1549375793.421875
25.07,1549375793.4375
30.55,1549375793.453125
35.71,1549375793.46875
40.71,1549375793.484375
45.52,1549375793.5
49.95,1549375793.515625
53.75,1549375793.53125
56.67,1549375793.546875
58.59,1549375793.5625
59.55,1549375793.578125
59.81,1549375793.59375
59.75,1549375793.609375
59.71,1549375793.625
59.96,1549375793.640625
60.49,1549375793.65625
61.1,1549375793.671875
61.42,1549375793.6875
61.08,1549375793.703125
59.79,1549375793.71875
57.46,1549375793.734375
54.2,1549375793.75
50.26,1549375793.765625
45.99,1549375793.78125
41.67,1549375793.796875
37.45,1549375793.8125
33.35,1549375793.828125
29.31,1549375793.84375
25.21,1549375793.859375
21.04,1549375793.875
16.87,1549375793.890625
12.83,1549375793.90625
9.04,1549375793.921875
5.49,1549375793.9375
1.99,1549375793.953125
-1.76,1549375793.96875
-6.07,1549375793.984375
-11.04,1549375794.0
-16.53,1549375794.015625
-22.2,1549375794.03125
-27.66,1549375794.046875
-32.66,1549375794.0625
-37.23,1549375794.078125
-41.66,1549375794.09375
-46.47,1549375794.109375
-52.15,1549375794.125
-59.04,1549375794.140625
-67.15,1549375794.15625
-76.0,1549375794.171875
-84.48,1549375794.1875
-91.03,1549375794.203125
-93.83,1549375794.21875
-91.37,1549375794.234375
-83.02,1549375794.25
-69.39,1549375794.265625
-52.29,1549375794.28125
-34.21,1549375794.296875
-17.54,1549375794.3125
-3.9,1549375794.328125
6.25,1549375794.34375
13.45,1549375794.359375
18.8,1549375794.375
23.36,1549375794.390625
27.74,1549375794.40625
32.02,1549375794.421875
35.95,1549375794.4375
39.2,1549375794.453125
41.65,1549375794.46875
43.47,1549375794.484375
44.94,1549375794.5
46.34,1549375794.515625
47.76,1549375794.53125
49.09,1549375794.546875
50.09,1549375794.5625
50.53,1549375794.578125
50.34,1549375794.59375
49.67,1549375794.609375
48.78,1549375794.625
47.88,1549375794.640625
47.0,1549375794.65625
45.91,1549375794.671875
44.22,1549375794.6875
41.58,1549375794.703125
37.83,1549375794.71875
33.16,1549375794.734375
28.03,1549375794.75
23.03,1549375794.765625
18.65,1549375794.78125
15.08,1549375794.796875
12.14,1549375794.8125
9.43,1549375794.828125
6.5,1549375794.84375
3.0,1549375794.859375
-1.16,1549375794.875
-5.79,1549375794.890625
-10.61,1549375794.90625
-15.28,1549375794.921875
-19.61,1549375794.9375
-23.59,1549375794.953125
-27.4,1549375794.96875
-31.34,1549375794.984375
-35.77,1549375795.0
-41.09,1549375795.015625
-47.62,1549375795.03125
-55.45,1549375795.046875
-64.2,1549375795.0625
-72.88,1549375795.078125
-79.92,1549375795.09375
-83.48,1549375795.109375
-82.04,1549375795.125
-74.96,1549375795.140625
-62.86,1549375795.15625
-47.38,1549375795.171875
-30.79,1549375795.1875
-15.14,1549375795.203125
-1.83,1549375795.21875
8.62,1549375795.234375
16.42,1549375795.25
22.09,1549375795.265625
26.18,1549375795.28125
29.06,1549375795.296875
30.99,1549375795.3125
32.18,1549375795.328125
32.86,1549375795.34375
33.37,1549375795.359375
34.0,1549375795.375
34.98,1549375795.390625
36.36,1549375795.40625
37.96,1549375795.421875
39.51,1549375795.4375
40.7,1549375795.453125
41.4,1549375795.46875
41.64,1549375795.484375
41.59,1549375795.5
41.39,1549375795.515625
41.01,1549375795.53125
40.2,1549375795.546875
38.55,1549375795.5625
35.7,1549375795.578125
31.52,1549375795.59375
26.23,1549375795.609375
20.37,1549375795.625
14.6,1549375795.640625
9.47,1549375795.65625
5.23,1549375795.671875
1.67,1549375795.6875
-1.67,1549375795.703125
-5.38,1549375795.71875
-9.83,1549375795.734375
-15.05,1549375795.75
-20.75,1549375795.765625
-26.47,1549375795.78125
-31.82,1549375795.796875
-36.59,1549375795.8125
-40.87,1549375795.828125
-44.97,1549375795.84375
-49.35,1549375795.859375
-54.56,1549375795.875
-61.15,1549375795.890625
-69.4,1549375795.90625
-79.06,1549375795.921875
-89.1,1549375795.9375
-97.72,1549375795.953125
-102.75,1549375795.96875
-102.29,1549375795.984375
-95.45,1549375796.0
-82.71,1549375796.015625
-65.85,1549375796.03125
-47.37,1549375796.046875
-29.71,1549375796.0625
-14.59,1549375796.078125
-2.67,1549375796.09375
6.35,1549375796.109375
13.41,1549375796.125
19.56,1549375796.140625
25.59,1549375796.15625
31.86,1549375796.171875
38.25,1549375796.1875
44.39,1549375796.203125
49.81,1549375796.21875
54.14,1549375796.234375
57.25,1549375796.25
59.17,1549375796.265625
60.12,1549375796.28125
60.36,1549375796.296875
60.07,1549375796.3125
59.43,1549375796.328125
58.57,1549375796.34375
57.65,1549375796.359375
56.77,1549375796.375
56.01,1549375796.390625
55.23,1549375796.40625
54.16,1549375796.421875
52.4,1549375796.4375
49.64,1549375796.453125
45.76,1549375796.46875
40.96,1549375796.484375
35.68,1549375796.5
30.38,1549375796.515625
25.46,1549375796.53125
21.06,1549375796.546875
17.15,1549375796.5625
13.59,1549375796.578125
10.19,1549375796.59375
6.75,1549375796.609375
3.04,1549375796.625
-1.18,1549375796.640625
-6.08,1549375796.65625
-11.64,1549375796.671875
-17.61,1549375796.6875
-23.57,1549375796.703125
-29.09,1549375796.71875
-34.0,1549375796.734375
-38.48,1549375796.75
-43.08,1549375796.765625
-48.53,1549375796.78125
-55.49,1549375796.796875
-64.24,1549375796.8125
-74.48,1549375796.828125
-85.17,1549375796.84375
-94.66,1549375796.859375
-100.95,1549375796.875
-102.19,1549375796.890625
-97.25,1549375796.90625
-86.16,1549375796.921875
-70.26,1549375796.9375
-51.81,1549375796.953125
-33.38,1549375796.96875
-17.01,1549375796.984375
-3.77,1549375797.0
6.38,1549375797.015625
14.21,1549375797.03125
20.75,1549375797.046875
26.82,1549375797.0625
32.81,1549375797.078125
38.72,1549375797.09375
44.31,1549375797.109375
49.29,1549375797.125
53.39,1549375797.140625
56.42,1549375797.15625
58.34,1549375797.171875
59.25,1549375797.1875
59.4,1549375797.203125
59.14,1549375797.21875
58.88,1549375797.234375
58.9,1549375797.25
59.24,1549375797.265625
59.71,1549375797.28125
59.96,1549375797.296875
59.61,1549375797.3125
58.4,1549375797.328125
56.29,1549375797.34375
53.42,1549375797.359375
50.02,1549375797.375
46.32,1549375797.390625
42.49,1549375797.40625
38.62,1549375797.421875
34.73,1549375797.4375
30.83,1549375797.453125
26.85,1549375797.46875
22.77,1549375797.484375
18.53,1549375797.5
14.16,1549375797.515625
9.78,1549375797.53125
5.49,1549375797.546875
1.3,1549375797.5625
-2.89,1549375797.578125
-7.33,1549375797.59375
-12.26,1549375797.609375
-17.72,1549375797.625
-23.52,1549375797.640625
-29.28,1549375797.65625
-34.61,1549375797.671875
-39.36,1549375797.6875
-43.73,1549375797.703125
-48.26,1549375797.71875
-53.6,1549375797.734375
-60.29,1549375797.75
-68.46,1549375797.765625
-77.62,1549375797.78125
-86.67,1549375797.796875
-93.95,1549375797.8125
-97.67,1549375797.828125
-96.31,1549375797.84375
-89.22,1549375797.859375
-76.86,1549375797.875
-60.76,1549375797.890625
-43.15,1549375797.90625
-26.28,1549375797.921875
-11.85,1549375797.9375
-0.63,1549375797.953125
7.57,1549375797.96875
13.58,1549375797.984375
18.49,1549375798.0
23.12,1549375798.015625
27.85,1549375798.03125
32.59,1549375798.046875
36.91,1549375798.0625
40.42,1549375798.078125
42.96,1549375798.09375
44.65,1549375798.109375
45.81,1549375798.125
46.76,1549375798.140625
47.64,1549375798.15625
48.43,1549375798.171875
49.0,1549375798.1875
49.24,1549375798.203125
49.15,1549375798.21875
48.8,1549375798.234375
48.23,1549375798.25
47.34,1549375798.265625
45.97,1549375798.28125
43.89,1549375798.296875
40.97,1549375798.3125
37.19,1549375798.328125
32.72,1549375798.34375
27.87,1549375798.359375
23.02,1549375798.375
18.54,1549375798.390625
14.66,1549375798.40625
11.4,1549375798.421875
8.52,1549375798.4375
5.62,1549375798.453125
2.28,1549375798.46875
-1.75,1549375798.484375
-6.5,1549375798.5
-11.7,1549375798.515625
-16.99,1549375798.53125
-22.06,1549375798.546875
-26.77,1549375798.5625
-31.24,1549375798.578125
-35.73,1549375798.59375
-40.57,1549375798.609375
-46.13,1549375798.625
-52.73,1549375798.640625
-60.58,1549375798.65625
-69.59,1549375798.671875
-79.16,1549375798.6875
-88.02,1549375798.703125
-94.41,1549375798.71875
-96.46,1549375798.734375
-92.89,1549375798.75
-83.48,1549375798.765625
-69.33,1549375798.78125
-52.5,1549375798.796875
-35.37,1549375798.8125
-19.9,1549375798.828125
-7.15,1549375798.84375
2.76,1549375798.859375
10.42,1549375798.875
16.69,1549375798.890625
22.33,1549375798.90625
27.83,1549375798.921875
33.31,1549375798.9375
38.6,1549375798.953125
43.34,1549375798.96875
47.2,1549375798.984375
49.96,1549375799.0
51.68,1549375799.015625
52.58,1549375799.03125
53.01,1549375799.046875
53.32,1549375799.0625
53.69,1549375799.078125
54.18,1549375799.09375
54.7,1549375799.109375
55.14,1549375799.125
55.28,1549375799.140625
54.94,1549375799.15625
53.87,1549375799.171875
51.91,1549375799.1875
49.02,1549375799.203125
45.34,1549375799.21875
41.15,1549375799.234375
36.76,1549375799.25
32.39,1549375799.265625
28.14,1549375799.28125
23.99,1549375799.296875
19.85,1549375799.3125
15.71,1549375799.328125
11.64,1549375799.34375
7.78,1549375799.359375
4.21,1549375799.375
0.84,1549375799.390625
-2.58,1549375799.40625
-6.42,1549375799.421875
-10.93,1549375799.4375
-16.17,1549375799.453125
-21.91,1549375799.46875
-27.8,1549375799.484375
-33.46,1549375799.5
-38.74,1549375799.515625
-43.73,1549375799.53125
-48.73,1549375799.546875
-54.17,1549375799.5625
-60.48,1549375799.578125
-67.94,1549375799.59375
-76.51,1549375799.609375
-85.59,1549375799.625
-93.97,1549375799.640625
-99.91,1549375799.65625
-101.59,1549375799.671875
-97.63,1549375799.6875
-87.76,1549375799.703125
-72.93,1549375799.71875
-55.18,1549375799.734375
-36.95,1549375799.75
-20.4,1549375799.765625
-6.82,1549375799.78125
3.6,1549375799.796875
11.48,1549375799.8125
17.84,1549375799.828125
23.59,1549375799.84375
29.32,1549375799.859375
35.12,1549375799.875
40.78,1549375799.890625
45.93,1549375799.90625
50.2,1549375799.921875
53.35,1549375799.9375
55.3,1549375799.953125
56.15,1549375799.96875
56.14,1549375799.984375
55.64,1549375800.0
55.03,1549375800.015625
54.6,1549375800.03125
54.48,1549375800.046875
54.55,1549375800.0625
54.55,1549375800.078125
54.14,1549375800.09375
53.03,1549375800.109375
51.05,1549375800.125
48.18,1549375800.140625
44.57,1549375800.15625
40.47,1549375800.171875
36.2,1549375800.1875
32.07,1549375800.203125
28.22,1549375800.21875
24.63,1549375800.234375
21.08,1549375800.25
17.36,1549375800.265625
13.34,1549375800.28125
9.08,1549375800.296875
4.8,1549375800.3125
0.73,1549375800.328125
-3.04,1549375800.34375
-6.64,1549375800.359375
-10.33,1549375800.375
-14.38,1549375800.390625
-18.89,1549375800.40625
-23.75,1549375800.421875
-28.71,1549375800.4375
-33.49,1549375800.453125
-37.98,1549375800.46875
-42.28,1549375800.484375
-46.73,1549375800.5
-51.81,1549375800.515625
-57.97,1549375800.53125
-65.47,1549375800.546875
-74.1,1549375800.5625
-83.04,1549375800.578125
-90.89,1549375800.59375
-95.9,1549375800.609375
-96.38,1549375800.625
-91.34,1549375800.640625
-80.83,1549375800.65625
-66.05,1549375800.671875
-49.08,1549375800.6875
-32.18,1549375800.703125
-17.18,1549375800.71875
-5.01,1549375800.734375
4.34,1549375800.75
11.56,1549375800.765625
17.5,1549375800.78125
22.83,1549375800.796875
27.87,1549375800.8125
32.56,1549375800.828125
36.72,1549375800.84375
40.16,1549375800.859375
42.83,1549375800.875
44.82,1549375800.890625
46.31,1549375800.90625
47.47,1549375800.921875
48.41,1549375800.9375
49.16,1549375800.953125
49.74,1549375800.96875
50.17,1549375800.984375
50.46,1549375801.0
50.6,1549375801.015625
50.51,1549375801.03125
50.02,1549375801.046875
48.93,1549375801.0625
47.03,1549375801.078125
44.27,1549375801.09375
40.71,1549375801.109375
36.57,1549375801.125
32.08,1549375801.140625
27.49,1549375801.15625
22.93,1549375801.171875
18.47,1549375801.1875
14.13,1549375801.203125
9.93,1549375801.21875
5.85,1549375801.234375
1.86,1549375801.25
-2.15,1549375801.265625
-6.34,1549375801.28125
-10.88,1549375801.296875
-15.8,1549375801.3125
-20.99,1549375801.328125
-26.19,1549375801.34375
-31.13,1549375801.359375
-35.68,1549375801.375
-39.93,1549375801.390625
-44.22,1549375801.40625
-49.03,1549375801.421875
-54.84,1549375801.4375
-61.99,1549375801.453125
-70.47,1549375801.46875
-79.78,1549375801.484375
-88.8,1549375801.5
-95.9,1549375801.515625
-99.22,1549375801.53125
-97.24,1549375801.546875
-89.36,1549375801.5625
-76.22,1549375801.578125
-59.53,1549375801.59375
-41.6,1549375801.609375
-24.59,1549375801.625
-9.99,1549375801.640625
1.68,1549375801.65625
10.65,1549375801.671875
17.63,1549375801.6875
23.37,1549375801.703125
28.55,1549375801.71875
33.6,1549375801.734375
38.65,1549375801.75
43.62,1549375801.765625
48.16,1549375801.78125
51.86,1549375801.796875
54.39,1549375801.8125
55.7,1549375801.828125
56.02,1549375801.84375
55.8,1549375801.859375
55.48,1549375801.875
55.36,1549375801.890625
55.47,1549375801.90625
55.71,1549375801.921875
55.86,1549375801.9375
55.67,1549375801.953125
54.92,1549375801.96875
53.41,1549375801.984375
51.0,1549375802.0
47.71,1549375802.015625
43.69,1549375802.03125
39.27,1549375802.046875
34.8,1549375802.0625
30.52,1549375802.078125
26.48,1549375802.09375
22.56,1549375802.109375
18.59,1549375802.125
14.49,1549375802.140625
10.33,1549375802.15625
6.28,1549375802.171875
2.42,1549375802.1875
-1.27,1549375802.203125
-5.0,1549375802.21875
-9.06,1549375802.234375
-13.64,1549375802.25
-18.81,1549375802.265625
-24.38,1549375802.28125
-30.06,1549375802.296875
-35.56,1549375802.3125
-40.66,1549375802.328125
-45.36,1549375802.34375
-49.82,1549375802.359375
-54.45,1549375802.375
-59.75,1549375802.390625
-66.25,1549375802.40625
-74.16,1549375802.421875
-83.09,1549375802.4375
-91.85,1549375802.453125
-98.57,1549375802.46875
-101.14,1549375802.484375
-97.93,1549375802.5
-88.45,1549375802.515625
-73.65,1549375802.53125
-55.69,1549375802.546875
-37.21,1549375802.5625
-20.49,1549375802.578125
-6.85,1549375802.59375
3.52,1549375802.609375
11.3,1549375802.625
17.51,1549375802.640625
23.05,1549375802.65625
28.42,1549375802.671875
33.74,1549375802.6875
38.87,1549375802.703125
43.61,1549375802.71875
47.77,1549375802.734375
51.23,1549375802.75
53.9,1549375802.765625
55.77,1549375802.78125
56.86,1549375802.796875
57.26,1549375802.8125
57.16,1549375802.828125
56.77,1549375802.84375
56.27,1549375802.859375
55.79,1549375802.875
55.31,1549375802.890625
54.69,1549375802.90625
53.69,1549375802.921875
52.06,1549375802.9375
49.61,1549375802.953125
46.31,1549375802.96875
42.3,1549375802.984375
37.96,1549375803.0
33.68,1549375803.015625
29.83,1549375803.03125
26.55,1549375803.046875
23.68,1549375803.0625
20.85,1549375803.078125
17.71,1549375803.09375
14.07,1549375803.109375
10.09,1549375803.125
6.11,1549375803.140625
2.49,1549375803.15625
-0.69,1549375803.171875
-3.65,1549375803.1875
-6.86,1549375803.203125
-10.79,1549375803.21875
-15.59,1549375803.234375
-21.06,1549375803.25
-26.71,1549375803.265625
-32.0,1549375803.28125
-36.56,1549375803.296875
-40.41,1549375803.3125
-43.88,1549375803.328125
-47.57,1549375803.34375
-52.16,1549375803.359375
-58.18,1549375803.375
-65.84,1549375803.390625
-74.69,1549375803.40625
-83.57,1549375803.421875
-90.69,1549375803.4375
-93.99,1549375803.453125
-91.81,1549375803.46875
-83.51,1549375803.484375
-69.86,1549375803.5
-52.85,1549375803.515625
-35.11,1549375803.53125
-19.06,1549375803.546875
-6.16,1549375803.5625
3.32,1549375803.578125
10.09,1549375803.59375
15.29,1549375803.609375
19.87,1549375803.625
24.29,1549375803.640625
28.56,1549375803.65625
32.41,1549375803.671875
35.58,1549375803.6875
38.0,1549375803.703125
39.76,1549375803.71875
41.04,1549375803.734375
42.05,1549375803.75
42.93,1549375803.765625
43.73,1549375803.78125
44.49,1549375803.796875
45.14,1549375803.8125
45.62,1549375803.828125
45.83,1549375803.84375
45.73,1549375803.859375
45.26,1549375803.875
44.37,1549375803.890625
42.93,1549375803.90625
40.77,1549375803.921875
37.69,1549375803.9375
33.62,1549375803.953125
28.68,1549375803.96875
23.28,1549375803.984375
17.92,1549375804.0
13.08,1549375804.015625
9.0,1549375804.03125
5.6,1549375804.046875
2.57,1549375804.0625
-0.53,1549375804.078125
-4.0,1549375804.09375
-7.98,1549375804.109375
-12.4,1549375804.125
-17.1,1549375804.140625
-21.85,1549375804.15625
-26.52,1549375804.171875
-30.99,1549375804.1875
-35.23,1549375804.203125
-39.34,1549375804.21875
-43.58,1549375804.234375
-48.36,1549375804.25
-54.16,1549375804.265625
-61.34,1549375804.28125
-69.83,1549375804.296875
-78.96,1549375804.3125
-87.34,1549375804.328125
-93.19,1549375804.34375
-94.72,1549375804.359375
-90.75,1549375804.375
-81.1,1549375804.390625
-66.83,1549375804.40625
-49.86,1549375804.421875
-32.51,1549375804.4375
-16.78,1549375804.453125
-3.86,1549375804.46875
6.02,1549375804.484375
13.36,1549375804.5
19.05,1549375804.515625
23.91,1549375804.53125
28.46,1549375804.546875
32.9,1549375804.5625
37.16,1549375804.578125
41.05,1549375804.59375
44.38,1549375804.609375
47.0,1549375804.625
48.86,1549375804.640625
50.01,1549375804.65625
50.57,1549375804.671875
50.74,1549375804.6875
50.67,1549375804.703125
50.47,1549375804.71875
50.12,1549375804.734375
49.6,1549375804.75
48.84,1549375804.765625
47.79,1549375804.78125
46.42,1549375804.796875
44.65,1549375804.8125
42.38,1549375804.828125
39.51,1549375804.84375
36.01,1549375804.859375
31.97,1549375804.875
27.61,1549375804.890625
23.17,1549375804.90625
18.84,1549375804.921875
14.74,1549375804.9375
10.84,1549375804.953125
7.09,1549375804.96875
3.43,1549375804.984375
-0.27,1549375805.0
-4.11,1549375805.015625
-8.23,1549375805.03125
-12.64,1549375805.046875
-17.27,1549375805.0625
-21.89,1549375805.078125
-26.3,1549375805.09375
-30.37,1549375805.109375
-34.21,1549375805.125
-38.17,1549375805.140625
-42.73,1549375805.15625
-48.37,1549375805.171875
-55.38,1549375805.1875
-63.68,1549375805.203125
-72.6,1549375805.21875
-80.95,1549375805.234375
-87.06,1549375805.25
-89.22,1549375805.265625
-86.17,1549375805.28125
-77.61,1549375805.296875
-64.39,1549375805.3125
-48.37,1549375805.328125
-31.81,1549375805.34375
-16.75,1549375805.359375
-4.4,1549375805.375
5.0,1549375805.390625
11.96,1549375805.40625
17.4,1549375805.421875
22.16,1549375805.4375
26.74,1549375805.453125
31.25,1549375805.46875
35.54,1549375805.484375
39.35,1549375805.5
42.45,1549375805.515625
44.79,1549375805.53125
46.45,1549375805.546875
47.6,1549375805.5625
48.43,1549375805.578125
49.09,1549375805.59375
49.67,1549375805.609375
50.14,1549375805.625
50.46,1549375805.640625
50.53,1549375805.65625
50.23,1549375805.671875
49.46,1549375805.6875
48.09,1549375805.703125
46.08,1549375805.71875
43.44,1549375805.734375
40.27,1549375805.75
36.69,1549375805.765625
32.87,1549375805.78125
28.93,1549375805.796875
24.94,1549375805.8125
20.95,1549375805.828125
16.99,1549375805.84375
13.12,1549375805.859375
9.44,1549375805.875
5.98,1549375805.890625
2.74,1549375805.90625
-0.42,1549375805.921875
-3.65,1549375805.9375
-7.13,1549375805.953125
-10.95,1549375805.96875
-15.06,1549375805.984375
-19.36,1549375806.0
-23.71,1549375806.015625
-28.02,1549375806.03125
-32.29,1549375806.046875
-36.57,1549375806.0625
-41.0,1549375806.078125
-45.83,1549375806.09375
-51.38,1549375806.109375
-57.96,1549375806.125
-65.59,1549375806.140625
-73.72,1549375806.15625
-81.09,1549375806.171875
-85.92,1549375806.1875
-86.39,1549375806.203125
-81.38,1549375806.21875
-70.93,1549375806.234375
-56.44,1549375806.25
-40.16,1549375806.265625
-24.52,1549375806.28125
-11.29,1549375806.296875
-1.21,1549375806.3125
6.05,1549375806.328125
11.44,1549375806.34375
15.96,1549375806.359375
20.24,1549375806.375
24.39,1549375806.390625
28.11,1549375806.40625
31.02,1549375806.421875
32.95,1549375806.4375
34.05,1549375806.453125
34.75,1549375806.46875
35.52,1549375806.484375
36.57,1549375806.5
37.84,1549375806.515625
38.98,1549375806.53125
39.67,1549375806.546875
39.74,1549375806.5625
39.29,1549375806.578125
38.63,1549375806.59375
37.95,1549375806.609375
37.27,1549375806.625
36.32,1549375806.640625
34.7,1549375806.65625
32.1,1549375806.671875
28.46,1549375806.6875
24.03,1549375806.703125
19.27,1549375806.71875
14.65,1549375806.734375
10.53,1549375806.75
7.03,1549375806.765625
4.02,1549375806.78125
1.2,1549375806.796875
-1.79,1549375806.8125
-5.25,1549375806.828125
-9.32,1549375806.84375
-13.92,1549375806.859375
-18.77,1549375806.875
-23.48,1549375806.890625
-27.73,1549375806.90625
-31.4,1549375806.921875
