bvp,time
36.17,1588332603.703125
37.99,1588332603.71875
39.07,1588332603.734375
39.21,1588332603.75
38.1,1588332603.765625
35.69,1588332603.78125
32.21,1588332603.796875
28.2,1588332603.8125
24.32,1588332603.828125
21.16,1588332603.84375
18.97,1588332603.859375
17.69,1588332603.875
16.93,1588332603.890625
16.27,1588332603.90625
15.41,1588332603.921875
14.24,1588332603.9375
12.83,1588332603.953125
11.21,1588332603.96875
9.34,1588332603.984375
7.08,1588332604.0
4.22,1588332604.015625
0.64,1588332604.03125
-3.69,1588332604.046875
-8.7,1588332604.0625
-14.27,1588332604.078125
-20.22,1588332604.09375
-26.28,1588332604.109375
-32.1,1588332604.125
-37.29,1588332604.140625
-41.56,1588332604.15625
-44.83,1588332604.171875
-47.34,1588332604.1875
-49.59,1588332604.203125
-52.28,1588332604.21875
-56.07,1588332604.234375
-61.31,1588332604.25
-67.79,1588332604.265625
-74.61,1588332604.28125
-80.23,1588332604.296875
-82.86,1588332604.3125
-81.05,1588332604.328125
-74.25,1588332604.34375
-63.08,1588332604.359375
-49.26,1588332604.375
-34.96,1588332604.390625
-22.16,1588332604.40625
-12.08,1588332604.421875
-4.96,1588332604.4375
-0.32,1588332604.453125
2.58,1588332604.46875
4.33,1588332604.484375
5.13,1588332604.5
4.83,1588332604.515625
3.18,1588332604.53125
0.16,1588332604.546875
-3.87,1588332604.5625
-8.15,1588332604.578125
-11.74,1588332604.59375
-13.83,1588332604.609375
-14.1,1588332604.625
-12.77,1588332604.640625
-10.52,1588332604.65625
-8.1,1588332604.671875
-6.08,1588332604.6875
-4.52,1588332604.703125
-3.02,1588332604.71875
-0.95,1588332604.734375
2.39,1588332604.75
7.56,1588332604.765625
14.97,1588332604.78125
24.94,1588332604.796875
37.75,1588332604.8125
53.83,1588332604.828125
73.72,1588332604.84375
97.89,1588332604.859375
126.25,1588332604.875
157.68,1588332604.890625
189.91,1588332604.90625
219.99,1588332604.921875
245.26,1588332604.9375
264.32,1588332604.953125
277.52,1588332604.96875
286.38,1588332604.984375
292.22,1588332605.0
294.98,1588332605.015625
292.5,1588332605.03125
281.3,1588332605.046875
258.03,1588332605.0625
220.89,1588332605.078125
170.02,1588332605.09375
107.12,1588332605.109375
34.79,1588332605.125
-43.28,1588332605.140625
-121.64,1588332605.15625
-192.53,1588332605.171875
-246.78,1588332605.1875
-276.44,1588332605.203125
-277.83,1588332605.21875
-253.68,1588332605.234375
-212.52,1588332605.25
-165.66,1588332605.265625
-122.91,1588332605.28125
-89.73,1588332605.296875
-66.59,1588332605.3125
-50.96,1588332605.328125
-39.98,1588332605.34375
-32.24,1588332605.359375
-27.94,1588332605.375
-27.52,1588332605.390625
-30.39,1588332605.40625
-34.49,1588332605.421875
-37.2,1588332605.4375
-36.54,1588332605.453125
-32.13,1588332605.46875
-25.23,1588332605.484375
-17.95,1588332605.5
-12.18,1588332605.515625
-8.68,1588332605.53125
-7.04,1588332605.546875
-6.06,1588332605.5625
-4.56,1588332605.578125
-2.07,1588332605.59375
1.03,1588332605.609375
3.73,1588332605.625
5.04,1588332605.640625
4.49,1588332605.65625
2.42,1588332605.671875
-0.25,1588332605.6875
-2.38,1588332605.703125
-3.29,1588332605.71875
-2.93,1588332605.734375
-1.92,1588332605.75
-1.18,1588332605.765625
-1.4,1588332605.78125
-2.67,1588332605.796875
-4.41,1588332605.8125
-5.67,1588332605.828125
-5.63,1588332605.84375
-4.0,1588332605.859375
-1.22,1588332605.875
1.71,1588332605.890625
3.62,1588332605.90625
3.61,1588332605.921875
1.43,1588332605.9375
-2.37,1588332605.953125
-6.33,1588332605.96875
-8.45,1588332605.984375
-6.67,1588332606.0
0.41,1588332606.015625
12.87,1588332606.03125
29.24,1588332606.046875
46.86,1588332606.0625
62.83,1588332606.078125
74.98,1588332606.09375
82.6,1588332606.109375
86.46,1588332606.125
88.14,1588332606.140625
89.25,1588332606.15625
90.72,1588332606.171875
92.75,1588332606.1875
95.02,1588332606.203125
97.29,1588332606.21875
99.61,1588332606.234375
102.38,1588332606.25
106.15,1588332606.265625
111.23,1588332606.28125
117.48,1588332606.296875
124.11,1588332606.3125
129.8,1588332606.328125
132.88,1588332606.34375
131.71,1588332606.359375
124.94,1588332606.375
111.86,1588332606.390625
92.54,1588332606.40625
67.91,1588332606.421875
39.82,1588332606.4375
10.79,1588332606.453125
-16.28,1588332606.46875
-38.75,1588332606.484375
-54.88,1588332606.5
-64.32,1588332606.515625
-68.14,1588332606.53125
-68.52,1588332606.546875
-67.95,1588332606.5625
-68.55,1588332606.578125
-71.64,1588332606.59375
-77.62,1588332606.609375
-86.26,1588332606.625
-96.92,1588332606.640625
-108.75,1588332606.65625
-120.83,1588332606.671875
-132.27,1588332606.6875
-142.39,1588332606.703125
-150.96,1588332606.71875
-158.3,1588332606.734375
-165.03,1588332606.75
-171.56,1588332606.765625
-177.31,1588332606.78125
-180.26,1588332606.796875
-177.19,1588332606.8125
-164.73,1588332606.828125
-141.01,1588332606.84375
-106.91,1588332606.859375
-66.31,1588332606.875
-24.98,1588332606.890625
11.38,1588332606.90625
39.03,1588332606.921875
57.14,1588332606.9375
67.21,1588332606.953125
71.65,1588332606.96875
72.23,1588332606.984375
69.47,1588332607.0
62.97,1588332607.015625
52.51,1588332607.03125
38.89,1588332607.046875
24.07,1588332607.0625
10.55,1588332607.078125
0.36,1588332607.09375
-5.72,1588332607.109375
-8.28,1588332607.125
-8.8,1588332607.140625
-9.03,1588332607.15625
-10.2,1588332607.171875
-12.76,1588332607.1875
-16.35,1588332607.203125
-20.16,1588332607.21875
-23.42,1588332607.234375
-25.8,1588332607.25
-27.52,1588332607.265625
-29.37,1588332607.28125
-32.29,1588332607.296875
-36.96,1588332607.3125
-43.47,1588332607.328125
-51.18,1588332607.34375
-58.95,1588332607.359375
-65.53,1588332607.375
-70.0,1588332607.390625
-72.08,1588332607.40625
-72.22,1588332607.421875
-71.41,1588332607.4375
-70.81,1588332607.453125
-71.5,1588332607.46875
-74.33,1588332607.484375
-79.8,1588332607.5
-87.98,1588332607.515625
-98.15,1588332607.53125
-108.41,1588332607.546875
-115.68,1588332607.5625
-116.21,1588332607.578125
-106.89,1588332607.59375
-86.6,1588332607.609375
-57.19,1588332607.625
-23.13,1588332607.640625
9.81,1588332607.65625
36.63,1588332607.671875
54.66,1588332607.6875
64.11,1588332607.703125
67.26,1588332607.71875
67.01,1588332607.734375
65.54,1588332607.75
63.66,1588332607.765625
61.17,1588332607.78125
57.58,1588332607.796875
52.87,1588332607.8125
47.65,1588332607.828125
42.94,1588332607.84375
39.7,1588332607.859375
38.35,1588332607.875
38.68,1588332607.890625
39.95,1588332607.90625
41.29,1588332607.921875
41.92,1588332607.9375
41.37,1588332607.953125
39.47,1588332607.96875
36.28,1588332607.984375
31.94,1588332608.0
26.64,1588332608.015625
20.57,1588332608.03125
13.94,1588332608.046875
6.9,1588332608.0625
-0.46,1588332608.078125
-8.07,1588332608.09375
-15.78,1588332608.109375
-23.33,1588332608.125
-30.33,1588332608.140625
-36.41,1588332608.15625
-41.42,1588332608.171875
-45.45,1588332608.1875
-48.92,1588332608.203125
-52.41,1588332608.21875
-56.54,1588332608.234375
-61.94,1588332608.25
-69.1,1588332608.265625
-78.32,1588332608.28125
-89.18,1588332608.296875
-100.18,1588332608.3125
-108.53,1588332608.328125
-110.7,1588332608.34375
-103.63,1588332608.359375
-86.08,1588332608.375
-59.54,1588332608.390625
-27.98,1588332608.40625
3.48,1588332608.421875
30.37,1588332608.4375
50.29,1588332608.453125
63.14,1588332608.46875
70.46,1588332608.484375
74.21,1588332608.5
75.8,1588332608.515625
75.81,1588332608.53125
74.36,1588332608.546875
71.64,1588332608.5625
68.11,1588332608.578125
64.5,1588332608.59375
61.36,1588332608.609375
58.88,1588332608.625
56.82,1588332608.640625
54.74,1588332608.65625
52.3,1588332608.671875
49.46,1588332608.6875
46.44,1588332608.703125
43.64,1588332608.71875
41.26,1588332608.734375
39.09,1588332608.75
36.58,1588332608.765625
32.93,1588332608.78125
27.5,1588332608.796875
20.25,1588332608.8125
11.79,1588332608.828125
3.24,1588332608.84375
-4.27,1588332608.859375
-10.17,1588332608.875
-14.68,1588332608.890625
-18.69,1588332608.90625
-23.25,1588332608.921875
-28.95,1588332608.9375
-35.6,1588332608.953125
-42.29,1588332608.96875
-47.93,1588332608.984375
-51.76,1588332609.0
-53.77,1588332609.015625
-54.75,1588332609.03125
-55.95,1588332609.046875
-58.76,1588332609.0625
-64.27,1588332609.078125
-72.88,1588332609.09375
-84.0,1588332609.109375
-95.7,1588332609.125
-104.94,1588332609.140625
-108.17,1588332609.15625
-102.47,1588332609.171875
-86.79,1588332609.1875
-62.57,1588332609.203125
-33.37,1588332609.21875
-3.73,1588332609.234375
22.44,1588332609.25
42.99,1588332609.265625
57.71,1588332609.28125
67.73,1588332609.296875
74.48,1588332609.3125
78.88,1588332609.328125
81.22,1588332609.34375
81.48,1588332609.359375
79.88,1588332609.375
77.07,1588332609.390625
74.02,1588332609.40625
71.57,1588332609.421875
70.09,1588332609.4375
69.4,1588332609.453125
68.84,1588332609.46875
67.74,1588332609.484375
65.66,1588332609.5
62.63,1588332609.515625
59.1,1588332609.53125
55.63,1588332609.546875
52.62,1588332609.5625
50.02,1588332609.578125
47.37,1588332609.59375
43.97,1588332609.609375
39.18,1588332609.625
32.8,1588332609.640625
25.21,1588332609.65625
17.33,1588332609.671875
10.31,1588332609.6875
5.07,1588332609.703125
1.88,1588332609.71875
0.18,1588332609.734375
-1.31,1588332609.75
-4.1,1588332609.765625
-9.28,1588332609.78125
-17.02,1588332609.796875
-26.37,1588332609.8125
-35.69,1588332609.828125
-43.23,1588332609.84375
-48.03,1588332609.859375
-50.24,1588332609.875
-51.19,1588332609.890625
-52.75,1588332609.90625
-56.73,1588332609.921875
-64.32,1588332609.9375
-75.72,1588332609.953125
-90.01,1588332609.96875
-105.06,1588332609.984375
-117.7,1588332610.0
-124.26,1588332610.015625
-121.55,1588332610.03125
-107.94,1588332610.046875
-84.29,1588332610.0625
-53.92,1588332610.078125
-21.74,1588332610.09375
7.32,1588332610.109375
29.85,1588332610.125
44.76,1588332610.140625
53.01,1588332610.15625
56.66,1588332610.171875
57.71,1588332610.1875
57.37,1588332610.203125
56.01,1588332610.21875
53.61,1588332610.234375
50.25,1588332610.25
46.39,1588332610.265625
42.77,1588332610.28125
40.08,1588332610.296875
38.69,1588332610.3125
38.48,1588332610.328125
38.94,1588332610.34375
39.46,1588332610.359375
39.63,1588332610.375
39.44,1588332610.390625
39.23,1588332610.40625
39.4,1588332610.421875
40.17,1588332610.4375
41.29,1588332610.453125
42.18,1588332610.46875
42.18,1588332610.484375
40.88,1588332610.5
38.46,1588332610.515625
35.59,1588332610.53125
32.96,1588332610.546875
31.16,1588332610.5625
30.5,1588332610.578125
30.88,1588332610.59375
31.8,1588332610.609375
32.65,1588332610.625
32.81,1588332610.640625
32.1,1588332610.65625
30.92,1588332610.671875
29.73,1588332610.6875
29.0,1588332610.703125
29.07,1588332610.71875
29.81,1588332610.734375
30.44,1588332610.75
29.89,1588332610.765625
26.85,1588332610.78125
20.46,1588332610.796875
10.66,1588332610.8125
-2.33,1588332610.828125
-17.27,1588332610.84375
-31.68,1588332610.859375
-42.11,1588332610.875
-45.14,1588332610.890625
-38.02,1588332610.90625
-20.09,1588332610.921875
7.32,1588332610.9375
41.15,1588332610.953125
75.36,1588332610.96875
104.27,1588332610.984375
124.76,1588332611.0
136.75,1588332611.015625
141.93,1588332611.03125
143.1,1588332611.046875
141.45,1588332611.0625
137.7,1588332611.078125
132.43,1588332611.09375
122.61,1588332611.109375
106.34,1588332611.125
85.12,1588332611.140625
63.24,1588332611.15625
44.73,1588332611.171875
32.82,1588332611.1875
25.87,1588332611.203125
21.19,1588332611.21875
16.49,1588332611.234375
4.5,1588332611.25
-19.7,1588332611.265625
-54.93,1588332611.28125
-95.03,1588332611.296875
-133.48,1588332611.3125
-164.52,1588332611.328125
-189.92,1588332611.34375
-213.52,1588332611.359375
-239.26,1588332611.375
-277.77,1588332611.390625
-336.42,1588332611.40625
-413.5,1588332611.421875
-499.4,1588332611.4375
-583.28,1588332611.453125
-655.05,1588332611.46875
-714.85,1588332611.484375
-766.08,1588332611.5
-764.25,1588332611.515625
-686.04,1588332611.53125
-544.55,1588332611.546875
-380.03,1588332611.5625
-228.76,1588332611.578125
-127.0,1588332611.59375
-59.81,1588332611.609375
-14.79,1588332611.625
14.89,1588332611.640625
32.54,1588332611.65625
39.45,1588332611.671875
33.62,1588332611.6875
18.43,1588332611.703125
2.44,1588332611.71875
-5.82,1588332611.734375
1.55,1588332611.75
23.25,1588332611.765625
55.54,1588332611.78125
94.06,1588332611.796875
128.58,1588332611.8125
150.26,1588332611.828125
157.3,1588332611.84375
154.49,1588332611.859375
148.62,1588332611.875
146.93,1588332611.890625
149.66,1588332611.90625
154.98,1588332611.921875
161.03,1588332611.9375
162.95,1588332611.953125
157.52,1588332611.96875
146.28,1588332611.984375
134.16,1588332612.0
125.98,1588332612.015625
125.52,1588332612.03125
131.49,1588332612.046875
141.05,1588332612.0625
151.03,1588332612.078125
156.4,1588332612.09375
152.54,1588332612.109375
137.72,1588332612.125
113.61,1588332612.140625
84.29,1588332612.15625
55.6,1588332612.171875
31.83,1588332612.1875
15.78,1588332612.203125
8.09,1588332612.21875
6.49,1588332612.234375
7.39,1588332612.25
7.78,1588332612.265625
6.2,1588332612.28125
2.47,1588332612.296875
-2.7,1588332612.3125
-9.0,1588332612.328125
-16.22,1588332612.34375
-24.16,1588332612.359375
-32.57,1588332612.375
-41.09,1588332612.390625
-49.32,1588332612.40625
-56.97,1588332612.421875
-63.88,1588332612.4375
-70.16,1588332612.453125
-76.13,1588332612.46875
-82.1,1588332612.484375
-88.28,1588332612.5
-94.51,1588332612.515625
-100.16,1588332612.53125
-104.26,1588332612.546875
-105.69,1588332612.5625
-103.62,1588332612.578125
-98.02,1588332612.59375
-89.73,1588332612.609375
-80.39,1588332612.625
-71.93,1588332612.640625
-65.89,1588332612.65625
-62.76,1588332612.671875
-61.84,1588332612.6875
-61.49,1588332612.703125
-59.83,1588332612.71875
-55.56,1588332612.734375
-48.5,1588332612.75
-39.74,1588332612.765625
-31.2,1588332612.78125
-24.98,1588332612.796875
-22.6,1588332612.8125
-24.64,1588332612.828125
-30.63,1588332612.84375
-39.4,1588332612.859375
-49.43,1588332612.875
-59.17,1588332612.890625
-67.2,1588332612.90625
-72.41,1588332612.921875
-74.08,1588332612.9375
-71.95,1588332612.953125
-66.3,1588332612.96875
-57.8,1588332612.984375
-47.3,1588332613.0
-35.58,1588332613.015625
-23.16,1588332613.03125
-10.31,1588332613.046875
2.85,1588332613.0625
16.2,1588332613.078125
29.57,1588332613.09375
42.76,1588332613.109375
55.64,1588332613.125
68.15,1588332613.140625
80.3,1588332613.15625
92.12,1588332613.171875
103.69,1588332613.1875
115.08,1588332613.203125
126.32,1588332613.21875
137.41,1588332613.234375
148.31,1588332613.25
158.9,1588332613.265625
169.14,1588332613.28125
179.11,1588332613.296875
189.09,1588332613.3125
199.58,1588332613.328125
211.3,1588332613.34375
225.24,1588332613.359375
242.33,1588332613.375
262.93,1588332613.390625
286.15,1588332613.40625
309.52,1588332613.421875
329.29,1588332613.4375
341.56,1588332613.453125
343.63,1588332613.46875
335.05,1588332613.484375
317.77,1588332613.5
295.22,1588332613.515625
270.87,1588332613.53125
247.16,1588332613.546875
225.01,1588332613.5625
204.33,1588332613.578125
184.75,1588332613.59375
166.24,1588332613.609375
149.1,1588332613.625
133.69,1588332613.640625
119.97,1588332613.65625
107.55,1588332613.671875
95.85,1588332613.6875
84.51,1588332613.703125
73.47,1588332613.71875
62.87,1588332613.734375
52.84,1588332613.75
43.25,1588332613.765625
33.75,1588332613.78125
24.04,1588332613.796875
14.0,1588332613.8125
3.88,1588332613.828125
-5.99,1588332613.84375
-15.36,1588332613.859375
-24.32,1588332613.875
-33.29,1588332613.890625
-42.65,1588332613.90625
-52.47,1588332613.921875
-62.22,1588332613.9375
-70.91,1588332613.953125
-77.61,1588332613.96875
-81.9,1588332613.984375
-84.31,1588332614.0
-86.21,1588332614.015625
-89.48,1588332614.03125
-95.91,1588332614.046875
-106.51,1588332614.0625
-121.11,1588332614.078125
-138.15,1588332614.09375
-154.69,1588332614.109375
-166.82,1588332614.125
-170.42,1588332614.140625
-162.38,1588332614.15625
-141.81,1588332614.171875
-110.67,1588332614.1875
-73.48,1588332614.203125
-35.95,1588332614.21875
-3.11,1588332614.234375
22.26,1588332614.25
40.13,1588332614.265625
52.52,1588332614.28125
62.06,1588332614.296875
70.59,1588332614.3125
78.53,1588332614.328125
85.2,1588332614.34375
89.7,1588332614.359375
91.73,1588332614.375
91.87,1588332614.390625
91.22,1588332614.40625
90.74,1588332614.421875
90.84,1588332614.4375
91.21,1588332614.453125
91.31,1588332614.46875
90.7,1588332614.484375
89.39,1588332614.5
87.77,1588332614.515625
86.19,1588332614.53125
84.58,1588332614.546875
82.33,1588332614.5625
78.59,1588332614.578125
72.77,1588332614.59375
65.04,1588332614.609375
56.46,1588332614.625
48.54,1588332614.640625
42.59,1588332614.65625
39.04,1588332614.671875
37.23,1588332614.6875
35.66,1588332614.703125
32.69,1588332614.71875
27.23,1588332614.734375
19.14,1588332614.75
9.17,1588332614.765625
-1.42,1588332614.78125
-11.56,1588332614.796875
-20.68,1588332614.8125
-28.97,1588332614.828125
-37.21,1588332614.84375
-46.47,1588332614.859375
-57.79,1588332614.875
-71.65,1588332614.890625
-87.51,1588332614.90625
-103.44,1588332614.921875
-116.19,1588332614.9375
-121.98,1588332614.953125
-117.71,1588332614.96875
-102.37,1588332614.984375
-77.79,1588332615.0
-48.16,1588332615.015625
-18.71,1588332615.03125
6.17,1588332615.046875
24.23,1588332615.0625
35.71,1588332615.078125
42.43,1588332615.09375
46.51,1588332615.109375
49.22,1588332615.125
50.78,1588332615.140625
50.77,1588332615.15625
48.92,1588332615.171875
45.62,1588332615.1875
41.96,1588332615.203125
39.25,1588332615.21875
38.43,1588332615.234375
39.68,1588332615.25
42.43,1588332615.265625
45.66,1588332615.28125
48.51,1588332615.296875
50.6,1588332615.3125
52.12,1588332615.328125
53.61,1588332615.34375
55.48,1588332615.359375
57.74,1588332615.375
59.87,1588332615.390625
61.14,1588332615.40625
60.92,1588332615.421875
59.15,1588332615.4375
56.32,1588332615.453125
53.38,1588332615.46875
51.35,1588332615.484375
50.98,1588332615.5
52.52,1588332615.515625
55.76,1588332615.53125
60.14,1588332615.546875
65.05,1588332615.5625
70.03,1588332615.578125
74.81,1588332615.59375
79.09,1588332615.609375
82.36,1588332615.625
83.75,1588332615.640625
82.23,1588332615.65625
77.04,1588332615.671875
68.06,1588332615.6875
56.04,1588332615.703125
42.24,1588332615.71875
27.99,1588332615.734375
14.15,1588332615.75
1.07,1588332615.765625
-11.08,1588332615.78125
-21.79,1588332615.796875
-29.99,1588332615.8125
-34.36,1588332615.828125
-33.94,1588332615.84375
-28.76,1588332615.859375
-20.05,1588332615.875
-9.81,1588332615.890625
-0.19,1588332615.90625
6.97,1588332615.921875
10.29,1588332615.9375
8.68,1588332615.953125
1.24,1588332615.96875
-12.53,1588332615.984375
-32.3,1588332616.0
-56.42,1588332616.015625
-81.9,1588332616.03125
-105.07,1588332616.046875
-122.6,1588332616.0625
-132.78,1588332616.078125
-136.09,1588332616.09375
-135.02,1588332616.109375
-133.03,1588332616.125
-133.07,1588332616.140625
-136.38,1588332616.15625
-142.07,1588332616.171875
-147.77,1588332616.1875
-150.88,1588332616.203125
-149.86,1588332616.21875
-144.89,1588332616.234375
-137.54,1588332616.25
-129.79,1588332616.265625
-123.05,1588332616.28125
-117.63,1588332616.296875
-112.99,1588332616.3125
-108.31,1588332616.328125
-103.2,1588332616.34375
-97.84,1588332616.359375
-92.83,1588332616.375
-88.81,1588332616.390625
-86.15,1588332616.40625
-84.88,1588332616.421875
-84.81,1588332616.4375
-85.59,1588332616.453125
-86.84,1588332616.46875
-88.19,1588332616.484375
-89.22,1588332616.5
-89.62,1588332616.515625
-89.25,1588332616.53125
-88.22,1588332616.546875
-87.01,1588332616.5625
-86.48,1588332616.578125
-87.61,1588332616.59375
-91.14,1588332616.609375
-96.97,1588332616.625
-103.7,1588332616.640625
-108.5,1588332616.65625
-107.66,1588332616.671875
-97.76,1588332616.6875
-77.02,1588332616.703125
-46.32,1588332616.71875
-9.18,1588332616.734375
29.23,1588332616.75
63.81,1588332616.765625
91.13,1588332616.78125
110.22,1588332616.796875
122.18,1588332616.8125
129.08,1588332616.828125
132.52,1588332616.84375
133.03,1588332616.859375
130.25,1588332616.875
123.74,1588332616.890625
113.9,1588332616.90625
102.19,1588332616.921875
90.7,1588332616.9375
81.11,1588332616.953125
73.91,1588332616.96875
68.21,1588332616.984375
62.48,1588332617.0
55.4,1588332617.015625
46.67,1588332617.03125
37.15,1588332617.046875
28.26,1588332617.0625
21.18,1588332617.078125
16.15,1588332617.09375
12.5,1588332617.109375
9.03,1588332617.125
4.71,1588332617.140625
-0.75,1588332617.15625
-6.82,1588332617.171875
-12.5,1588332617.1875
-16.87,1588332617.203125
-19.64,1588332617.21875
-21.26,1588332617.234375
-22.76,1588332617.25
-25.23,1588332617.265625
-29.2,1588332617.28125
-34.5,1588332617.296875
-40.21,1588332617.3125
-45.14,1588332617.328125
-48.41,1588332617.34375
-49.87,1588332617.359375
-50.22,1588332617.375
-50.86,1588332617.390625
-53.36,1588332617.40625
-59.04,1588332617.421875
-68.5,1588332617.4375
-81.27,1588332617.453125
-95.53,1588332617.46875
-108.1,1588332617.484375
-114.94,1588332617.5
-112.23,1588332617.515625
-97.68,1588332617.53125
-71.61,1588332617.546875
-37.16,1588332617.5625
0.59,1588332617.578125
36.25,1588332617.59375
65.78,1588332617.609375
87.49,1588332617.625
101.99,1588332617.640625
111.24,1588332617.65625
117.32,1588332617.671875
121.56,1588332617.6875
124.24,1588332617.703125
124.85,1588332617.71875
122.75,1588332617.734375
117.62,1588332617.75
109.75,1588332617.765625
100.03,1588332617.78125
89.61,1588332617.796875
79.58,1588332617.8125
70.68,1588332617.828125
63.12,1588332617.84375
56.76,1588332617.859375
51.45,1588332617.875
47.08,1588332617.890625
43.64,1588332617.90625
41.02,1588332617.921875
38.84,1588332617.9375
36.43,1588332617.953125
33.05,1588332617.96875
28.26,1588332617.984375
22.18,1588332618.0
15.48,1588332618.015625
9.21,1588332618.03125
4.35,1588332618.046875
1.53,1588332618.0625
0.75,1588332618.078125
1.44,1588332618.09375
2.69,1588332618.109375
3.55,1588332618.125
3.3,1588332618.140625
1.73,1588332618.15625
-0.91,1588332618.171875
-4.0,1588332618.1875
-6.81,1588332618.203125
-8.8,1588332618.21875
-9.86,1588332618.234375
-10.38,1588332618.25
-11.12,1588332618.265625
-13.02,1588332618.28125
-16.88,1588332618.296875
-23.23,1588332618.3125
-32.0,1588332618.328125
-42.35,1588332618.34375
-52.55,1588332618.359375
-60.03,1588332618.375
-61.79,1588332618.390625
-55.04,1588332618.40625
-38.12,1588332618.421875
-11.34,1588332618.4375
22.78,1588332618.453125
59.84,1588332618.46875
94.62,1588332618.484375
122.4,1588332618.5
140.18,1588332618.515625
147.25,1588332618.53125
145.03,1588332618.546875
136.37,1588332618.5625
124.62,1588332618.578125
112.69,1588332618.59375
102.58,1588332618.609375
95.25,1588332618.625
90.63,1588332618.640625
87.8,1588332618.65625
85.09,1588332618.671875
80.34,1588332618.6875
71.21,1588332618.703125
55.79,1588332618.71875
33.32,1588332618.734375
4.71,1588332618.75
-27.41,1588332618.765625
-59.32,1588332618.78125
-87.22,1588332618.796875
-108.52,1588332618.8125
-122.64,1588332618.828125
-130.91,1588332618.84375
-135.84,1588332618.859375
-139.83,1588332618.875
-144.17,1588332618.890625
-148.77,1588332618.90625
-152.57,1588332618.921875
-154.47,1588332618.9375
-154.2,1588332618.953125
-152.56,1588332618.96875
-150.96,1588332618.984375
-150.61,1588332619.0
-151.84,1588332619.015625
-153.9,1588332619.03125
-155.44,1588332619.046875
-155.28,1588332619.0625
-152.9,1588332619.078125
-148.58,1588332619.09375
-142.93,1588332619.109375
-136.43,1588332619.125
-129.09,1588332619.140625
-120.62,1588332619.15625
-110.74,1588332619.171875
-99.54,1588332619.1875
-87.64,1588332619.203125
-76.1,1588332619.21875
-66.41,1588332619.234375
-60.31,1588332619.25
-59.69,1588332619.265625
-66.09,1588332619.28125
-79.73,1588332619.296875
-98.75,1588332619.3125
-118.86,1588332619.328125
-134.04,1588332619.34375
-138.03,1588332619.359375
-126.47,1588332619.375
-98.36,1588332619.390625
-56.65,1588332619.40625
-7.35,1588332619.421875
42.34,1588332619.4375
86.01,1588332619.453125
119.64,1588332619.46875
142.02,1588332619.484375
154.18,1588332619.5
158.35,1588332619.515625
156.77,1588332619.53125
151.08,1588332619.546875
142.34,1588332619.5625
131.46,1588332619.578125
119.53,1588332619.59375
107.85,1588332619.609375
97.66,1588332619.625
89.6,1588332619.640625
83.46,1588332619.65625
78.33,1588332619.671875
73.17,1588332619.6875
67.39,1588332619.703125
61.11,1588332619.71875
55.0,1588332619.734375
49.83,1588332619.75
45.88,1588332619.765625
42.7,1588332619.78125
39.27,1588332619.796875
34.43,1588332619.8125
27.46,1588332619.828125
18.54,1588332619.84375
8.7,1588332619.859375
-0.47,1588332619.875
-7.59,1588332619.890625
-12.02,1588332619.90625
-14.19,1588332619.921875
-15.4,1588332619.9375
-17.19,1588332619.953125
-20.71,1588332619.96875
-26.24,1588332619.984375
-33.19,1588332620.0
-40.42,1588332620.015625
-46.83,1588332620.03125
-51.8,1588332620.046875
-55.43,1588332620.0625
-58.44,1588332620.078125
-61.96,1588332620.09375
-67.16,1588332620.109375
-74.93,1588332620.125
-85.48,1588332620.140625
-97.88,1588332620.15625
-109.9,1588332620.171875
-118.25,1588332620.1875
-119.39,1588332620.203125
-110.76,1588332620.21875
-91.91,1588332620.234375
-64.91,1588332620.25
-33.84,1588332620.265625
-3.34,1588332620.28125
22.88,1588332620.296875
43.08,1588332620.3125
57.52,1588332620.328125
67.75,1588332620.34375
75.47,1588332620.359375
81.77,1588332620.375
86.93,1588332620.390625
90.75,1588332620.40625
93.1,1588332620.421875
94.17,1588332620.4375
94.52,1588332620.453125
94.81,1588332620.46875
95.49,1588332620.484375
96.7,1588332620.5
98.34,1588332620.515625
100.19,1588332620.53125
102.16,1588332620.546875
104.29,1588332620.5625
106.7,1588332620.578125
109.42,1588332620.59375
112.27,1588332620.609375
114.88,1588332620.625
116.77,1588332620.640625
117.58,1588332620.65625
117.2,1588332620.671875
115.84,1588332620.6875
113.91,1588332620.703125
111.94,1588332620.71875
110.39,1588332620.734375
109.56,1588332620.75
109.54,1588332620.765625
110.18,1588332620.78125
111.23,1588332620.796875
112.32,1588332620.8125
113.06,1588332620.828125
112.89,1588332620.84375
111.15,1588332620.859375
107.01,1588332620.875
99.75,1588332620.890625
88.9,1588332620.90625
74.48,1588332620.921875
57.13,1588332620.9375
38.05,1588332620.953125
19.0,1588332620.96875
2.0,1588332620.984375
-10.97,1588332621.0
-18.38,1588332621.015625
-19.72,1588332621.03125
-15.75,1588332621.046875
-8.39,1588332621.0625
-0.22,1588332621.078125
6.28,1588332621.09375
9.59,1588332621.109375
9.44,1588332621.125
6.68,1588332621.140625
2.65,1588332621.15625
-1.5,1588332621.171875
-5.25,1588332621.1875
-8.84,1588332621.203125
-12.86,1588332621.21875
-17.81,1588332621.234375
-23.82,1588332621.25
-30.72,1588332621.265625
-38.41,1588332621.28125
-47.33,1588332621.296875
-58.53,1588332621.3125
-73.21,1588332621.328125
-91.89,1588332621.34375
-113.63,1588332621.359375
-135.99,1588332621.375
-155.83,1588332621.390625
-170.55,1588332621.40625
-179.35,1588332621.421875
-183.27,1588332621.4375
-184.46,1588332621.453125
-184.78,1588332621.46875
-184.79,1588332621.484375
-183.66,1588332621.5
-179.99,1588332621.515625
-172.99,1588332621.53125
-163.14,1588332621.546875
-152.12,1588332621.5625
-142.03,1588332621.578125
-134.48,1588332621.59375
-130.13,1588332621.609375
-128.73,1588332621.625
-129.52,1588332621.640625
-131.76,1588332621.65625
-134.87,1588332621.671875
-138.46,1588332621.6875
-142.15,1588332621.703125
-145.65,1588332621.71875
-148.86,1588332621.734375
-152.11,1588332621.75
-156.32,1588332621.765625
-162.59,1588332621.78125
-171.65,1588332621.796875
-183.05,1588332621.8125
-194.68,1588332621.828125
-202.98,1588332621.84375
-203.9,1588332621.859375
-194.21,1588332621.875
-172.5,1588332621.890625
-139.56,1588332621.90625
-97.96,1588332621.921875
-51.25,1588332621.9375
-3.14,1588332621.953125
42.92,1588332621.96875
83.95,1588332621.984375
117.63,1588332622.0
142.53,1588332622.015625
158.35,1588332622.03125
166.09,1588332622.046875
167.66,1588332622.0625
165.33,1588332622.078125
161.1,1588332622.09375
156.29,1588332622.109375
151.59,1588332622.125
147.25,1588332622.140625
143.32,1588332622.15625
139.73,1588332622.171875
136.31,1588332622.1875
132.83,1588332622.203125
129.06,1588332622.21875
124.9,1588332622.234375
120.42,1588332622.25
115.71,1588332622.265625
110.69,1588332622.28125
105.08,1588332622.296875
98.4,1588332622.3125
90.25,1588332622.328125
80.57,1588332622.34375
69.75,1588332622.359375
58.56,1588332622.375
47.76,1588332622.390625
37.74,1588332622.40625
28.29,1588332622.421875
18.7,1588332622.4375
8.13,1588332622.453125
-3.91,1588332622.46875
-17.24,1588332622.484375
-31.04,1588332622.5
-44.11,1588332622.515625
-55.39,1588332622.53125
-64.3,1588332622.546875
-70.99,1588332622.5625
-76.26,1588332622.578125
-81.37,1588332622.59375
-87.75,1588332622.609375
-96.71,1588332622.625
-108.95,1588332622.640625
-124.01,1588332622.65625
-139.74,1588332622.671875
-152.39,1588332622.6875
-157.4,1588332622.703125
-150.84,1588332622.71875
-131.06,1588332622.734375
-99.6,1588332622.75
-60.93,1588332622.765625
-21.04,1588332622.78125
14.7,1588332622.796875
43.1,1588332622.8125
63.79,1588332622.828125
78.49,1588332622.84375
89.74,1588332622.859375
99.52,1588332622.875
108.67,1588332622.890625
117.02,1588332622.90625
124.06,1588332622.921875
129.41,1588332622.9375
133.18,1588332622.953125
135.78,1588332622.96875
137.64,1588332622.984375
138.93,1588332623.0
139.55,1588332623.015625
139.26,1588332623.03125
137.95,1588332623.046875
135.83,1588332623.0625
133.39,1588332623.078125
131.2,1588332623.09375
129.64,1588332623.109375
128.69,1588332623.125
127.91,1588332623.140625
126.61,1588332623.15625
124.18,1588332623.171875
120.38,1588332623.1875
115.38,1588332623.203125
109.79,1588332623.21875
104.4,1588332623.234375
99.96,1588332623.25
96.97,1588332623.265625
95.57,1588332623.28125
95.47,1588332623.296875
96.09,1588332623.3125
96.65,1588332623.328125
96.4,1588332623.34375
94.88,1588332623.359375
92.06,1588332623.375
88.37,1588332623.390625
84.51,1588332623.40625
81.0,1588332623.421875
77.93,1588332623.4375
74.84,1588332623.453125
70.91,1588332623.46875
65.25,1588332623.484375
57.24,1588332623.5
46.75,1588332623.515625
34.33,1588332623.53125
21.25,1588332623.546875
9.45,1588332623.5625
1.21,1588332623.578125
-1.43,1588332623.59375
2.58,1588332623.609375
12.74,1588332623.625
26.91,1588332623.640625
41.78,1588332623.65625
53.81,1588332623.671875
60.38,1588332623.6875
60.58,1588332623.703125
55.4,1588332623.71875
47.22,1588332623.734375
38.79,1588332623.75
32.2,1588332623.765625
28.23,1588332623.78125
26.26,1588332623.796875
24.81,1588332623.8125
22.36,1588332623.828125
17.91,1588332623.84375
11.19,1588332623.859375
2.39,1588332623.875
-8.39,1588332623.890625
-21.25,1588332623.90625
-36.53,1588332623.921875
-54.33,1588332623.9375
-74.3,1588332623.953125
-95.62,1588332623.96875
-117.27,1588332623.984375
-138.4,1588332624.0
-158.59,1588332624.015625
-177.75,1588332624.03125
-195.92,1588332624.046875
-213.04,1588332624.0625
-228.76,1588332624.078125
-242.4,1588332624.09375
-252.84,1588332624.109375
-258.81,1588332624.125
-259.13,1588332624.140625
-253.23,1588332624.15625
-241.7,1588332624.171875
-226.37,1588332624.1875
-210.01,1588332624.203125
-195.47,1588332624.21875
-184.74,1588332624.234375
-178.31,1588332624.25
-175.21,1588332624.265625
-173.59,1588332624.28125
-171.56,1588332624.296875
-168.05,1588332624.3125
-163.06,1588332624.328125
-157.66,1588332624.34375
-153.49,1588332624.359375
-152.26,1588332624.375
-155.12,1588332624.390625
-162.07,1588332624.40625
-171.62,1588332624.421875
-180.77,1588332624.4375
-185.55,1588332624.453125
-182.06,1588332624.46875
-167.47,1588332624.484375
-140.96,1588332624.5
-103.99,1588332624.515625
-60.05,1588332624.53125
-13.91,1588332624.546875
29.4,1588332624.5625
65.72,1588332624.578125
92.55,1588332624.59375
109.52,1588332624.609375
118.1,1588332624.625
120.83,1588332624.640625
120.18,1588332624.65625
117.81,1588332624.671875
114.29,1588332624.6875
109.53,1588332624.703125
103.45,1588332624.71875
96.43,1588332624.734375
89.36,1588332624.75
83.13,1588332624.765625
78.18,1588332624.78125
74.32,1588332624.796875
71.01,1588332624.8125
67.72,1588332624.828125
64.31,1588332624.84375
60.87,1588332624.859375
57.5,1588332624.875
53.97,1588332624.890625
49.72,1588332624.90625
44.11,1588332624.921875
36.82,1588332624.9375
28.15,1588332624.953125
19.0,1588332624.96875
10.53,1588332624.984375
3.56,1588332625.0
-1.76,1588332625.015625
-6.18,1588332625.03125
-10.93,1588332625.046875
-17.21,1588332625.0625
-25.57,1588332625.078125
-35.64,1588332625.09375
-46.25,1588332625.109375
-55.96,1588332625.125
-63.69,1588332625.140625
-69.28,1588332625.15625
-73.59,1588332625.171875
-78.29,1588332625.1875
-85.4,1588332625.203125
-96.6,1588332625.21875
-112.43,1588332625.234375
-131.77,1588332625.25
-151.53,1588332625.265625
-167.1,1588332625.28125
-173.39,1588332625.296875
-166.45,1588332625.3125
-144.89,1588332625.328125
-110.59,1588332625.34375
-68.25,1588332625.359375
-23.89,1588332625.375
17.03,1588332625.390625
51.15,1588332625.40625
77.65,1588332625.421875
97.69,1588332625.4375
113.22,1588332625.453125
125.85,1588332625.46875
136.25,1588332625.484375
144.37,1588332625.5
149.92,1588332625.515625
152.95,1588332625.53125
153.98,1588332625.546875
153.81,1588332625.5625
153.15,1588332625.578125
152.26,1588332625.59375
150.99,1588332625.609375
149.01,1588332625.625
146.22,1588332625.640625
142.92,1588332625.65625
139.74,1588332625.671875
137.27,1588332625.6875
135.73,1588332625.703125
134.69,1588332625.71875
133.2,1588332625.734375
130.11,1588332625.75
124.62,1588332625.765625
116.62,1588332625.78125
106.8,1588332625.796875
96.41,1588332625.8125
86.77,1588332625.828125
78.69,1588332625.84375
72.11,1588332625.859375
66.15,1588332625.875
59.48,1588332625.890625
50.96,1588332625.90625
40.21,1588332625.921875
27.82,1588332625.9375
15.12,1588332625.953125
3.58,1588332625.96875
-5.87,1588332625.984375
-13.24,1588332626.0
-19.52,1588332626.015625
-26.32,1588332626.03125
-35.35,1588332626.046875
-47.84,1588332626.0625
-64.05,1588332626.078125
-82.94,1588332626.09375
-102.03,1588332626.109375
-117.7,1588332626.125
-125.98,1588332626.140625
-123.61,1588332626.15625
-109.26,1588332626.171875
-84.09,1588332626.1875
-51.67,1588332626.203125
-16.78,1588332626.21875
16.09,1588332626.234375
44.04,1588332626.25
66.35,1588332626.265625
83.99,1588332626.28125
98.67,1588332626.296875
111.79,1588332626.3125
123.85,1588332626.328125
134.63,1588332626.34375
143.55,1588332626.359375
150.28,1588332626.375
154.94,1588332626.390625
157.97,1588332626.40625
159.87,1588332626.421875
160.89,1588332626.4375
161.05,1588332626.453125
160.24,1588332626.46875
158.51,1588332626.484375
156.09,1588332626.5
153.35,1588332626.515625
150.44,1588332626.53125
147.07,1588332626.546875
142.46,1588332626.5625
135.59,1588332626.578125
125.66,1588332626.59375
112.46,1588332626.609375
96.64,1588332626.625
79.5,1588332626.640625
62.58,1588332626.65625
47.28,1588332626.671875
34.46,1588332626.6875
24.22,1588332626.703125
15.96,1588332626.71875
8.6,1588332626.734375
0.92,1588332626.75
-7.91,1588332626.765625
-17.99,1588332626.78125
-28.55,1588332626.796875
-38.06,1588332626.8125
-44.76,1588332626.828125
-47.18,1588332626.84375
-44.82,1588332626.859375
-38.57,1588332626.875
-30.77,1588332626.890625
-24.9,1588332626.90625
-24.74,1588332626.921875
-33.49,1588332626.9375
-53.06,1588332626.953125
-83.82,1588332626.96875
-124.79,1588332626.984375
-173.9,1588332627.0
-228.11,1588332627.015625
-283.42,1588332627.03125
-335.05,1588332627.046875
-378.16,1588332627.0625
-408.96,1588332627.078125
-425.88,1588332627.09375
-429.97,1588332627.109375
-424.13,1588332627.125
-411.59,1588332627.140625
-394.42,1588332627.15625
-372.87,1588332627.171875
-345.96,1588332627.1875
-312.54,1588332627.203125
-272.36,1588332627.21875
-226.33,1588332627.234375
-176.39,1588332627.25
-125.11,1588332627.265625
-75.48,1588332627.28125
-30.83,1588332627.296875
5.5,1588332627.3125
31.01,1588332627.328125
44.89,1588332627.34375
48.43,1588332627.359375
44.78,1588332627.375
37.94,1588332627.390625
31.5,1588332627.40625
27.92,1588332627.421875
28.36,1588332627.4375
33.0,1588332627.453125
41.41,1588332627.46875
52.72,1588332627.484375
65.65,1588332627.5
78.6,1588332627.515625
89.88,1588332627.53125
98.19,1588332627.546875
102.89,1588332627.5625
104.04,1588332627.578125
102.18,1588332627.59375
98.05,1588332627.609375
92.3,1588332627.625
85.53,1588332627.640625
78.22,1588332627.65625
70.92,1588332627.671875
64.02,1588332627.6875
57.68,1588332627.703125
51.74,1588332627.71875
45.69,1588332627.734375
38.98,1588332627.75
31.18,1588332627.765625
22.26,1588332627.78125
12.56,1588332627.796875
2.75,1588332627.8125
-6.54,1588332627.828125
-14.94,1588332627.84375
-22.52,1588332627.859375
-29.84,1588332627.875
-37.8,1588332627.890625
-47.49,1588332627.90625
-59.77,1588332627.921875
-74.77,1588332627.9375
-91.32,1588332627.953125
-106.77,1588332627.96875
-117.38,1588332627.984375
-119.35,1588332628.0
-110.28,1588332628.015625
-90.14,1588332628.03125
-61.58,1588332628.046875
-29.02,1588332628.0625
2.89,1588332628.078125
30.69,1588332628.09375
52.9,1588332628.109375
69.78,1588332628.125
82.53,1588332628.140625
92.33,1588332628.15625
99.89,1588332628.171875
105.37,1588332628.1875
108.76,1588332628.203125
110.23,1588332628.21875
110.2,1588332628.234375
109.24,1588332628.25
107.8,1588332628.265625
106.11,1588332628.28125
104.08,1588332628.296875
101.53,1588332628.3125
98.34,1588332628.328125
94.77,1588332628.34375
91.32,1588332628.359375
88.69,1588332628.375
87.33,1588332628.390625
87.18,1588332628.40625
87.56,1588332628.421875
87.34,1588332628.4375
85.4,1588332628.453125
81.14,1588332628.46875
74.76,1588332628.484375
67.21,1588332628.5
59.89,1588332628.515625
53.95,1588332628.53125
49.92,1588332628.546875
47.45,1588332628.5625
45.51,1588332628.578125
42.87,1588332628.59375
38.68,1588332628.609375
32.88,1588332628.625
26.2,1588332628.640625
19.87,1588332628.65625
15.12,1588332628.671875
12.61,1588332628.6875
12.2,1588332628.703125
12.95,1588332628.71875
13.4,1588332628.734375
12.05,1588332628.75
7.74,1588332628.765625
0.21,1588332628.78125
-9.51,1588332628.796875
-18.92,1588332628.8125
-24.4,1588332628.828125
-22.06,1588332628.84375
-9.09,1588332628.859375
15.13,1588332628.875
48.61,1588332628.890625
87.27,1588332628.90625
126.27,1588332628.921875
161.58,1588332628.9375
191.03,1588332628.953125
214.42,1588332628.96875
232.84,1588332628.984375
247.5,1588332629.0
258.74,1588332629.015625
265.67,1588332629.03125
266.42,1588332629.046875
258.86,1588332629.0625
241.61,1588332629.078125
214.75,1588332629.09375
180.23,1588332629.109375
141.65,1588332629.125
103.4,1588332629.140625
69.46,1588332629.15625
42.41,1588332629.171875
22.77,1588332629.1875
9.3,1588332629.203125
-0.29,1588332629.21875
-8.18,1588332629.234375
-15.75,1588332629.25
-23.28,1588332629.265625
-30.38,1588332629.28125
-36.61,1588332629.296875
-42.0,1588332629.3125
-47.13,1588332629.328125
-52.71,1588332629.34375
-59.04,1588332629.359375
-65.74,1588332629.375
-72.14,1588332629.390625
-77.9,1588332629.40625
-83.43,1588332629.421875
-89.6,1588332629.4375
-96.58,1588332629.453125
-102.85,1588332629.46875
-105.23,1588332629.484375
-100.28,1588332629.5
-86.65,1588332629.515625
-66.77,1588332629.53125
-46.8,1588332629.546875
-34.51,1588332629.5625
-36.34,1588332629.578125
-55.11,1588332629.59375
-89.8,1588332629.609375
-137.02,1588332629.625
-193.05,1588332629.640625
-254.81,1588332629.65625
-319.28,1588332629.671875
-382.06,1588332629.6875
-436.78,1588332629.703125
-476.1,1588332629.71875
-494.08,1588332629.734375
-488.66,1588332629.75
-462.53,1588332629.765625
-421.95,1588332629.78125
-374.2,1588332629.796875
-324.83,1588332629.8125
-276.26,1588332629.828125
-228.02,1588332629.84375
-178.45,1588332629.859375
-126.75,1588332629.875
-74.26,1588332629.890625
-24.45,1588332629.90625
18.39,1588332629.921875
50.89,1588332629.9375
72.09,1588332629.953125
83.78,1588332629.96875
89.64,1588332629.984375
93.53,1588332630.0
97.96,1588332630.015625
103.4,1588332630.03125
108.69,1588332630.046875
112.27,1588332630.0625
113.28,1588332630.078125
112.07,1588332630.09375
109.72,1588332630.109375
107.2,1588332630.125
104.72,1588332630.140625
101.62,1588332630.15625
97.0,1588332630.171875
90.39,1588332630.1875
82.12,1588332630.203125
73.15,1588332630.21875
64.59,1588332630.234375
57.04,1588332630.25
50.41,1588332630.265625
43.97,1588332630.28125
36.9,1588332630.296875
28.74,1588332630.3125
19.6,1588332630.328125
10.09,1588332630.34375
0.96,1588332630.359375
-7.32,1588332630.375
-14.86,1588332630.390625
-22.38,1588332630.40625
-31.08,1588332630.421875
-42.15,1588332630.4375
-56.14,1588332630.453125
-72.29,1588332630.46875
-88.2,1588332630.484375
-100.23,1588332630.5
-104.44,1588332630.515625
-98.11,1588332630.53125
-80.87,1588332630.546875
-55.12,1588332630.5625
-25.23,1588332630.578125
3.97,1588332630.59375
28.76,1588332630.609375
47.54,1588332630.625
60.79,1588332630.640625
70.24,1588332630.65625
77.74,1588332630.671875
84.42,1588332630.6875
90.51,1588332630.703125
95.58,1588332630.71875
99.1,1588332630.734375
100.81,1588332630.75
100.93,1588332630.765625
99.97,1588332630.78125
98.52,1588332630.796875
96.93,1588332630.8125
95.25,1588332630.828125
93.3,1588332630.84375
90.94,1588332630.859375
88.22,1588332630.875
85.51,1588332630.890625
83.33,1588332630.90625
82.01,1588332630.921875
81.4,1588332630.9375
80.86,1588332630.953125
79.4,1588332630.96875
76.19,1588332630.984375
70.93,1588332631.0
64.02,1588332631.015625
56.52,1588332631.03125
49.71,1588332631.046875
44.59,1588332631.0625
41.53,1588332631.078125
40.08,1588332631.09375
39.14,1588332631.109375
37.46,1588332631.125
34.2,1588332631.140625
29.23,1588332631.15625
23.27,1588332631.171875
17.46,1588332631.1875
12.88,1588332631.203125
9.98,1588332631.21875
8.43,1588332631.234375
7.26,1588332631.25
5.18,1588332631.265625
0.97,1588332631.28125
-6.24,1588332631.296875
-16.78,1588332631.3125
-30.11,1588332631.328125
-44.57,1588332631.34375
-57.32,1588332631.359375
-64.93,1588332631.375
-64.28,1588332631.390625
-53.84,1588332631.40625
-34.44,1588332631.421875
-9.13,1588332631.4375
17.91,1588332631.453125
42.87,1588332631.46875
63.5,1588332631.484375
79.5,1588332631.5
91.98,1588332631.515625
102.38,1588332631.53125
111.54,1588332631.546875
119.4,1588332631.5625
125.28,1588332631.578125
128.51,1588332631.59375
128.95,1588332631.609375
127.15,1588332631.625
124.07,1588332631.640625
120.62,1588332631.65625
117.17,1588332631.671875
113.38,1588332631.6875
108.49,1588332631.703125
101.7,1588332631.71875
92.71,1588332631.734375
81.98,1588332631.75
70.55,1588332631.765625
59.53,1588332631.78125
49.53,1588332631.796875
40.33,1588332631.8125
31.06,1588332631.828125
20.84,1588332631.84375
9.24,1588332631.859375
-3.41,1588332631.875
-16.34,1588332631.890625
-28.71,1588332631.90625
-39.7,1588332631.921875
-48.28,1588332631.9375
-52.87,1588332631.953125
-51.76,1588332631.96875
-43.97,1588332631.984375
-30.65,1588332632.0
-15.66,1588332632.015625
-4.94,1588332632.03125
-4.61,1588332632.046875
-18.85,1588332632.0625
-48.74,1588332632.078125
-92.44,1588332632.09375
-146.52,1588332632.109375
-207.19,1588332632.125
-270.59,1588332632.140625
-332.39,1588332632.15625
-387.38,1588332632.171875
-429.88,1588332632.1875
-455.27,1588332632.203125
-461.61,1588332632.21875
-450.4,1588332632.234375
-425.86,1588332632.25
-393.15,1588332632.265625
-356.46,1588332632.28125
-318.04,1588332632.296875
-278.38,1588332632.3125
-236.94,1588332632.328125
-193.1,1588332632.34375
-146.71,1588332632.359375
-98.27,1588332632.375
-49.07,1588332632.390625
-1.14,1588332632.40625
42.98,1588332632.421875
80.77,1588332632.4375
110.47,1588332632.453125
131.54,1588332632.46875
144.78,1588332632.484375
151.82,1588332632.5
154.46,1588332632.515625
154.14,1588332632.53125
151.78,1588332632.546875
148.1,1588332632.5625
143.68,1588332632.578125
139.18,1588332632.59375
135.08,1588332632.609375
131.52,1588332632.625
128.24,1588332632.640625
124.7,1588332632.65625
120.43,1588332632.671875
115.14,1588332632.6875
108.83,1588332632.703125
101.71,1588332632.71875
94.07,1588332632.734375
86.21,1588332632.75
78.43,1588332632.765625
70.9,1588332632.78125
63.66,1588332632.796875
56.56,1588332632.8125
49.31,1588332632.828125
41.61,1588332632.84375
33.34,1588332632.859375
24.62,1588332632.875
15.81,1588332632.890625
7.34,1588332632.90625
-0.42,1588332632.921875
-7.38,1588332632.9375
-13.73,1588332632.953125
-19.88,1588332632.96875
-26.35,1588332632.984375
-33.68,1588332633.0
-42.36,1588332633.015625
-52.67,1588332633.03125
-64.51,1588332633.046875
-76.97,1588332633.0625
-88.25,1588332633.078125
-95.79,1588332633.09375
-96.98,1588332633.109375
-90.09,1588332633.125
-75.05,1588332633.140625
-53.71,1588332633.15625
-29.29,1588332633.171875
-5.32,1588332633.1875
15.47,1588332633.203125
31.85,1588332633.21875
44.05,1588332633.234375
53.12,1588332633.25
60.24,1588332633.265625
66.15,1588332633.28125
70.99,1588332633.296875
74.59,1588332633.3125
76.81,1588332633.328125
77.75,1588332633.34375
77.8,1588332633.359375
77.49,1588332633.375
77.32,1588332633.390625
77.57,1588332633.40625
78.33,1588332633.421875
79.53,1588332633.4375
81.04,1588332633.453125
82.76,1588332633.46875
84.52,1588332633.484375
86.07,1588332633.5
86.98,1588332633.515625
86.74,1588332633.53125
84.95,1588332633.546875
81.54,1588332633.5625
76.95,1588332633.578125
72.08,1588332633.59375
67.86,1588332633.609375
64.92,1588332633.625
63.17,1588332633.640625
61.78,1588332633.65625
59.47,1588332633.671875
55.01,1588332633.6875
47.81,1588332633.703125
38.11,1588332633.71875
26.88,1588332633.734375
15.36,1588332633.75
4.59,1588332633.765625
-5.01,1588332633.78125
-13.89,1588332633.796875
-23.16,1588332633.8125
-34.27,1588332633.828125
-48.35,1588332633.84375
-65.5,1588332633.859375
-84.26,1588332633.875
-101.55,1588332633.890625
-113.36,1588332633.90625
-116.03,1588332633.921875
-107.66,1588332633.9375
-89.01,1588332633.953125
-63.3,1588332633.96875
-35.08,1588332633.984375
-8.57,1588332634.0
13.69,1588332634.015625
31.26,1588332634.03125
45.21,1588332634.046875
57.13,1588332634.0625
68.09,1588332634.078125
78.31,1588332634.09375
87.4,1588332634.109375
94.85,1588332634.125
100.42,1588332634.140625
104.23,1588332634.15625
106.55,1588332634.171875
107.52,1588332634.1875
107.14,1588332634.203125
105.42,1588332634.21875
102.56,1588332634.234375
99.14,1588332634.25
96.06,1588332634.265625
94.29,1588332634.28125
94.38,1588332634.296875
96.1,1588332634.3125
98.27,1588332634.328125
99.08,1588332634.34375
96.63,1588332634.359375
89.65,1588332634.375
78.12,1588332634.390625
63.21,1588332634.40625
46.87,1588332634.421875
31.1,1588332634.4375
17.15,1588332634.453125
5.32,1588332634.46875
-4.89,1588332634.484375
-14.38,1588332634.5
-24.21,1588332634.515625
-35.47,1588332634.53125
-49.14,1588332634.546875
-65.61,1588332634.5625
-83.97,1588332634.578125
-101.66,1588332634.59375
-115.02,1588332634.609375
-121.08,1588332634.625
-119.49,1588332634.640625
-113.72,1588332634.65625
-110.32,1588332634.671875
-116.49,1588332634.6875
-136.97,1588332634.703125
-172.02,1588332634.71875
-217.51,1588332634.734375
-266.7,1588332634.75
-312.74,1588332634.765625
-350.34,1588332634.78125
-376.11,1588332634.796875
-387.99,1588332634.8125
-384.65,1588332634.828125
-365.44,1588332634.84375
-331.04,1588332634.859375
-283.93,1588332634.875
-228.33,1588332634.890625
-169.58,1588332634.90625
-112.89,1588332634.921875
-62.38,1588332634.9375
-20.41,1588332634.953125
12.55,1588332634.96875
37.52,1588332634.984375
56.32,1588332635.0
70.82,1588332635.015625
82.24,1588332635.03125
91.0,1588332635.046875
96.92,1588332635.0625
99.85,1588332635.078125
100.2,1588332635.09375
99.1,1588332635.109375
98.02,1588332635.125
98.15,1588332635.140625
99.83,1588332635.15625
102.44,1588332635.171875
104.82,1588332635.1875
105.78,1588332635.203125
104.66,1588332635.21875
101.44,1588332635.234375
96.66,1588332635.25
91.06,1588332635.265625
85.23,1588332635.28125
79.44,1588332635.296875
73.66,1588332635.3125
67.71,1588332635.328125
61.46,1588332635.34375
55.01,1588332635.359375
48.67,1588332635.375
42.92,1588332635.390625
38.12,1588332635.40625
34.33,1588332635.421875
31.18,1588332635.4375
27.92,1588332635.453125
23.73,1588332635.46875
18.05,1588332635.484375
10.85,1588332635.5
2.7,1588332635.515625
-5.5,1588332635.53125
-12.87,1588332635.546875
-18.97,1588332635.5625
-23.95,1588332635.578125
-28.55,1588332635.59375
-33.88,1588332635.609375
-41.08,1588332635.625
-50.98,1588332635.640625
-63.55,1588332635.65625
-77.65,1588332635.671875
-90.95,1588332635.6875
-100.27,1588332635.703125
-102.41,1588332635.71875
-95.26,1588332635.734375
-78.71,1588332635.75
-54.88,1588332635.765625
-27.49,1588332635.78125
-0.75,1588332635.796875
22.07,1588332635.8125
39.44,1588332635.828125
51.62,1588332635.84375
60.08,1588332635.859375
66.54,1588332635.875
72.21,1588332635.890625
77.47,1588332635.90625
82.01,1588332635.921875
85.32,1588332635.9375
87.12,1588332635.953125
87.52,1588332635.96875
87.07,1588332635.984375
86.38,1588332636.0
85.92,1588332636.015625
85.73,1588332636.03125
85.51,1588332636.046875
84.84,1588332636.0625
83.42,1588332636.078125
81.33,1588332636.09375
78.93,1588332636.109375
76.69,1588332636.125
74.84,1588332636.140625
73.18,1588332636.15625
71.15,1588332636.171875
68.06,1588332636.1875
63.5,1588332636.203125
57.54,1588332636.21875
50.83,1588332636.234375
44.24,1588332636.25
38.59,1588332636.265625
34.17,1588332636.28125
30.65,1588332636.296875
27.25,1588332636.3125
22.91,1588332636.328125
16.89,1588332636.34375
8.94,1588332636.359375
-0.51,1588332636.375
-10.59,1588332636.390625
-20.2,1588332636.40625
-28.53,1588332636.421875
-35.24,1588332636.4375
-40.68,1588332636.453125
-45.74,1588332636.46875
-51.57,1588332636.484375
-59.26,1588332636.5
-69.46,1588332636.515625
-81.96,1588332636.53125
-95.38,1588332636.546875
-107.27,1588332636.5625
-114.46,1588332636.578125
-114.04,1588332636.59375
-104.36,1588332636.609375
-85.75,1588332636.625
-60.61,1588332636.640625
-32.73,1588332636.65625
-5.99,1588332636.671875
16.69,1588332636.6875
34.07,1588332636.703125
46.48,1588332636.71875
55.18,1588332636.734375
61.57,1588332636.75
66.6,1588332636.765625
70.61,1588332636.78125
73.49,1588332636.796875
75.08,1588332636.8125
75.4,1588332636.828125
74.75,1588332636.84375
73.76,1588332636.859375
73.06,1588332636.875
73.13,1588332636.890625
74.06,1588332636.90625
75.52,1588332636.921875
76.93,1588332636.9375
77.7,1588332636.953125
77.59,1588332636.96875
76.67,1588332636.984375
75.41,1588332637.0
74.26,1588332637.015625
73.41,1588332637.03125
72.64,1588332637.046875
71.31,1588332637.0625
68.75,1588332637.078125
64.59,1588332637.09375
59.1,1588332637.109375
53.22,1588332637.125
48.21,1588332637.140625
45.17,1588332637.15625
44.53,1588332637.171875
45.9,1588332637.1875
48.23,1588332637.203125
50.42,1588332637.21875
51.81,1588332637.234375
52.51,1588332637.25
53.19,1588332637.265625
54.68,1588332637.28125
57.5,1588332637.296875
62.02,1588332637.3125
68.64,1588332637.328125
77.91,1588332637.34375
90.13,1588332637.359375
104.64,1588332637.375
119.28,1588332637.390625
130.41,1588332637.40625
134.09,1588332637.421875
127.48,1588332637.4375
110.01,1588332637.453125
83.44,1588332637.46875
50.75,1588332637.484375
14.47,1588332637.5
-24.57,1588332637.515625
-67.18,1588332637.53125
-114.56,1588332637.546875
-166.39,1588332637.5625
-219.65,1588332637.578125
-268.88,1588332637.59375
-307.8,1588332637.609375
-331.61,1588332637.625
-338.72,1588332637.640625
-331.08,1588332637.65625
-312.98,1588332637.671875
-289.07,1588332637.6875
-262.72,1588332637.703125
-235.37,1588332637.71875
-207.21,1588332637.734375
-178.4,1588332637.75
-149.99,1588332637.765625
-123.91,1588332637.78125
-102.2,1588332637.796875
-85.85,1588332637.8125
-74.3,1588332637.828125
-65.71,1588332637.84375
-57.9,1588332637.859375
-49.4,1588332637.875
-40.0,1588332637.890625
-30.76,1588332637.90625
-23.27,1588332637.921875
-18.83,1588332637.9375
-17.78,1588332637.953125
-19.25,1588332637.96875
-21.61,1588332637.984375
-23.1,1588332638.0
-22.68,1588332638.015625
-20.42,1588332638.03125
-17.41,1588332638.046875
-15.32,1588332638.0625
-15.54,1588332638.078125
-18.63,1588332638.09375
-24.03,1588332638.109375
-30.4,1588332638.125
-36.24,1588332638.140625
-40.53,1588332638.15625
-43.18,1588332638.171875
-44.93,1588332638.1875
-47.04,1588332638.203125
-50.81,1588332638.21875
-57.25,1588332638.234375
-66.87,1588332638.25
-79.42,1588332638.265625
-93.63,1588332638.28125
-106.98,1588332638.296875
-115.97,1588332638.3125
-116.86,1588332638.328125
-107.07,1588332638.34375
-86.29,1588332638.359375
-57.01,1588332638.375
-23.8,1588332638.390625
8.32,1588332638.40625
35.49,1588332638.421875
56.11,1588332638.4375
70.78,1588332638.453125
81.29,1588332638.46875
89.45,1588332638.484375
96.25,1588332638.5
101.74,1588332638.515625
105.54,1588332638.53125
107.36,1588332638.546875
107.36,1588332638.5625
106.05,1588332638.578125
104.02,1588332638.59375
101.67,1588332638.609375
99.1,1588332638.625
96.21,1588332638.640625
92.97,1588332638.65625
89.51,1588332638.671875
86.2,1588332638.6875
83.46,1588332638.703125
81.59,1588332638.71875
80.55,1588332638.734375
79.9,1588332638.75
78.92,1588332638.765625
76.85,1588332638.78125
73.11,1588332638.796875
67.53,1588332638.8125
60.46,1588332638.828125
52.66,1588332638.84375
45.16,1588332638.859375
38.91,1588332638.875
34.41,1588332638.890625
31.54,1588332638.90625
29.51,1588332638.921875
27.19,1588332638.9375
23.55,1588332638.953125
18.09,1588332638.96875
11.09,1588332638.984375
3.44,1588332639.0
-3.78,1588332639.015625
-9.77,1588332639.03125
-14.3,1588332639.046875
-17.75,1588332639.0625
-20.94,1588332639.078125
-24.84,1588332639.09375
-30.37,1588332639.109375
-38.24,1588332639.125
-48.63,1588332639.140625
-60.84,1588332639.15625
-72.92,1588332639.171875
-81.76,1588332639.1875
-83.83,1588332639.203125
-76.41,1588332639.21875
-58.78,1588332639.234375
-32.82,1588332639.25
-2.56,1588332639.265625
27.25,1588332639.28125
52.75,1588332639.296875
72.08,1588332639.3125
85.54,1588332639.328125
94.75,1588332639.34375
101.58,1588332639.359375
107.22,1588332639.375
112.0,1588332639.390625
115.73,1588332639.40625
118.28,1588332639.421875
119.91,1588332639.4375
121.13,1588332639.453125
122.49,1588332639.46875
124.17,1588332639.484375
125.92,1588332639.5
127.21,1588332639.515625
127.57,1588332639.53125
126.82,1588332639.546875
125.13,1588332639.5625
122.87,1588332639.578125
120.24,1588332639.59375
117.08,1588332639.609375
112.86,1588332639.625
106.96,1588332639.640625
99.06,1588332639.65625
89.5,1588332639.671875
79.31,1588332639.6875
69.86,1588332639.703125
62.15,1588332639.71875
56.29,1588332639.734375
51.52,1588332639.75
46.77,1588332639.765625
41.57,1588332639.78125
36.42,1588332639.796875
32.44,1588332639.8125
30.2,1588332639.828125
28.76,1588332639.84375
25.33,1588332639.859375
16.2,1588332639.875
-1.76,1588332639.890625
-29.79,1588332639.90625
-67.11,1588332639.921875
-111.9,1588332639.9375
-162.43,1588332639.953125
-217.51,1588332639.96875
-275.7,1588332639.984375
-334.04,1588332640.0
-387.51,1588332640.015625
-429.99,1588332640.03125
-456.51,1588332640.046875
-465.24,1588332640.0625
-458.15,1588332640.078125
-439.72,1588332640.09375
-414.56,1588332640.109375
-385.31,1588332640.125
-352.08,1588332640.140625
-313.39,1588332640.15625
-267.9,1588332640.171875
-215.88,1588332640.1875
-159.47,1588332640.203125
-102.1,1588332640.21875
-47.38,1588332640.234375
1.83,1588332640.25
43.82,1588332640.265625
78.02,1588332640.28125
104.6,1588332640.296875
124.21,1588332640.3125
137.49,1588332640.328125
144.97,1588332640.34375
147.13,1588332640.359375
144.67,1588332640.375
138.8,1588332640.390625
131.32,1588332640.40625
124.17,1588332640.421875
118.86,1588332640.4375
115.87,1588332640.453125
114.54,1588332640.46875
113.58,1588332640.484375
111.74,1588332640.5
108.43,1588332640.515625
103.86,1588332640.53125
98.75,1588332640.546875
93.78,1588332640.5625
89.11,1588332640.578125
84.28,1588332640.59375
78.41,1588332640.609375
70.78,1588332640.625
61.21,1588332640.640625
50.39,1588332640.65625
39.54,1588332640.671875
29.97,1588332640.6875
22.48,1588332640.703125
17.02,1588332640.71875
12.71,1588332640.734375
8.35,1588332640.75
2.97,1588332640.765625
-3.66,1588332640.78125
-11.03,1588332640.796875
-18.16,1588332640.8125
-24.18,1588332640.828125
-28.78,1588332640.84375
-32.35,1588332640.859375
-35.82,1588332640.875
-40.3,1588332640.890625
-46.81,1588332640.90625
-55.94,1588332640.921875
-67.55,1588332640.9375
-80.5,1588332640.953125
-92.47,1588332640.96875
-100.34,1588332640.984375
-100.91,1588332641.0
-92.06,1588332641.015625
-73.73,1588332641.03125
-48.2,1588332641.046875
-19.4,1588332641.0625
8.3,1588332641.078125
31.64,1588332641.09375
49.17,1588332641.109375
61.3,1588332641.125
69.5,1588332641.140625
75.3,1588332641.15625
79.67,1588332641.171875
82.9,1588332641.1875
84.83,1588332641.203125
85.34,1588332641.21875
84.55,1588332641.234375
82.88,1588332641.25
80.84,1588332641.265625
78.9,1588332641.28125
77.33,1588332641.296875
76.26,1588332641.3125
75.71,1588332641.328125
75.63,1588332641.34375
75.94,1588332641.359375
76.43,1588332641.375
76.74,1588332641.390625
76.39,1588332641.40625
74.98,1588332641.421875
72.28,1588332641.4375
68.44,1588332641.453125
63.89,1588332641.46875
59.25,1588332641.484375
54.98,1588332641.5
51.2,1588332641.515625
47.61,1588332641.53125
43.68,1588332641.546875
38.99,1588332641.5625
33.51,1588332641.578125
27.69,1588332641.59375
22.28,1588332641.609375
18.06,1588332641.625
15.38,1588332641.640625
13.99,1588332641.65625
13.1,1588332641.671875
11.6,1588332641.6875
8.56,1588332641.703125
3.52,1588332641.71875
-3.02,1588332641.734375
-9.57,1588332641.75
-13.83,1588332641.765625
-13.35,1588332641.78125
-6.36,1588332641.796875
7.52,1588332641.8125
26.94,1588332641.828125
49.23,1588332641.84375
71.19,1588332641.859375
90.05,1588332641.875
104.11,1588332641.890625
112.91,1588332641.90625
116.97,1588332641.921875
117.44,1588332641.9375
115.72,1588332641.953125
112.97,1588332641.96875
109.75,1588332641.984375
105.68,1588332642.0
99.9,1588332642.015625
91.92,1588332642.03125
82.56,1588332642.046875
74.14,1588332642.0625
69.52,1588332642.078125
70.21,1588332642.09375
74.89,1588332642.109375
79.12,1588332642.125
77.05,1588332642.140625
63.83,1588332642.15625
37.71,1588332642.171875
0.21,1588332642.1875
-45.33,1588332642.203125
-95.71,1588332642.21875
-148.97,1588332642.234375
-203.77,1588332642.25
-257.9,1588332642.265625
-307.25,1588332642.28125
-346.29,1588332642.296875
-370.0,1588332642.3125
-376.13,1588332642.328125
-366.2,1588332642.34375
-344.82,1588332642.359375
-317.78,1588332642.375
-290.02,1588332642.390625
-264.44,1588332642.40625
-242.11,1588332642.421875
-223.19,1588332642.4375
-207.92,1588332642.453125
-196.84,1588332642.46875
-190.29,1588332642.484375
-187.39,1588332642.5
-185.43,1588332642.515625
-180.02,1588332642.53125
-166.3,1588332642.546875
-140.69,1588332642.5625
-102.58,1588332642.578125
-55.04,1588332642.59375
-4.0,1588332642.609375
43.71,1588332642.625
82.66,1588332642.640625
110.41,1588332642.65625
127.71,1588332642.671875
137.4,1588332642.6875
142.59,1588332642.703125
145.32,1588332642.71875
146.12,1588332642.734375
144.56,1588332642.75
140.29,1588332642.765625
133.62,1588332642.78125
125.68,1588332642.796875
117.9,1588332642.8125
111.32,1588332642.828125
106.21,1588332642.84375
102.09,1588332642.859375
98.08,1588332642.875
93.42,1588332642.890625
87.77,1588332642.90625
81.21,1588332642.921875
74.01,1588332642.9375
66.4,1588332642.953125
58.36,1588332642.96875
49.73,1588332642.984375
40.34,1588332643.0
30.31,1588332643.015625
20.05,1588332643.03125
10.18,1588332643.046875
1.21,1588332643.0625
-6.63,1588332643.078125
-13.57,1588332643.09375
-20.11,1588332643.109375
-26.73,1588332643.125
-33.68,1588332643.140625
-40.78,1588332643.15625
-47.59,1588332643.171875
-53.59,1588332643.1875
-58.59,1588332643.203125
-62.89,1588332643.21875
-67.32,1588332643.234375
-72.97,1588332643.25
-80.81,1588332643.265625
-91.04,1588332643.28125
-102.51,1588332643.296875
-112.61,1588332643.3125
-117.74,1588332643.328125
-114.44,1588332643.34375
-100.8,1588332643.359375
-77.45,1588332643.375
-47.6,1588332643.390625
-15.98,1588332643.40625
12.87,1588332643.421875
36.06,1588332643.4375
53.0,1588332643.453125
64.91,1588332643.46875
73.62,1588332643.484375
80.54,1588332643.5
86.08,1588332643.515625
89.96,1588332643.53125
91.8,1588332643.546875
91.71,1588332643.5625
90.38,1588332643.578125
88.69,1588332643.59375
87.28,1588332643.609375
86.22,1588332643.625
85.14,1588332643.640625
83.47,1588332643.65625
80.88,1588332643.671875
77.48,1588332643.6875
73.81,1588332643.703125
70.47,1588332643.71875
67.79,1588332643.734375
65.6,1588332643.75
63.18,1588332643.765625
59.58,1588332643.78125
54.05,1588332643.796875
46.43,1588332643.8125
37.29,1588332643.828125
27.79,1588332643.84375
19.21,1588332643.859375
12.43,1588332643.875
7.57,1588332643.890625
3.93,1588332643.90625
0.31,1588332643.921875
-4.42,1588332643.9375
-10.79,1588332643.953125
-18.44,1588332643.96875
-26.31,1588332643.984375
-33.05,1588332644.0
-37.69,1588332644.015625
-40.04,1588332644.03125
-40.8,1588332644.046875
-41.35,1588332644.0625
-43.21,1588332644.078125
-47.66,1588332644.09375
-55.25,1588332644.109375
-65.62,1588332644.125
-77.18,1588332644.140625
-87.17,1588332644.15625
-92.0,1588332644.171875
-88.21,1588332644.1875
-73.72,1588332644.203125
-48.87,1588332644.21875
-16.66,1588332644.234375
18.06,1588332644.25
50.19,1588332644.265625
76.12,1588332644.28125
94.78,1588332644.296875
107.43,1588332644.3125
116.65,1588332644.328125
124.88,1588332644.34375
133.47,1588332644.359375
142.42,1588332644.375
150.8,1588332644.390625
157.33,1588332644.40625
161.06,1588332644.421875
161.51,1588332644.4375
158.86,1588332644.453125
153.65,1588332644.46875
146.54,1588332644.484375
138.06,1588332644.5
128.46,1588332644.515625
117.93,1588332644.53125
106.94,1588332644.546875
96.52,1588332644.5625
88.06,1588332644.578125
82.65,1588332644.59375
80.37,1588332644.609375
80.01,1588332644.625
79.78,1588332644.640625
78.33,1588332644.65625
75.66,1588332644.671875
72.95,1588332644.6875
71.31,1588332644.703125
70.35,1588332644.71875
67.63,1588332644.734375
59.27,1588332644.75
41.85,1588332644.765625
14.02,1588332644.78125
-23.09,1588332644.796875
-66.96,1588332644.8125
-115.48,1588332644.828125
-167.87,1588332644.84375
-224.15,1588332644.859375
-283.3,1588332644.875
-341.59,1588332644.890625
-392.52,1588332644.90625
-428.72,1588332644.921875
-444.82,1588332644.9375
-439.82,1588332644.953125
-417.51,1588332644.96875
-384.95,1588332644.984375
-349.77,1588332645.0
-317.85,1588332645.015625
-292.22,1588332645.03125
-273.24,1588332645.046875
-259.63,1588332645.0625
-249.11,1588332645.078125
-238.78,1588332645.09375
-225.24,1588332645.109375
-204.97,1588332645.125
-175.41,1588332645.140625
-136.08,1588332645.15625
-89.26,1588332645.171875
-39.54,1588332645.1875
7.59,1588332645.203125
47.55,1588332645.21875
78.1,1588332645.234375
99.58,1588332645.25
114.19,1588332645.265625
124.55,1588332645.28125
132.58,1588332645.296875
139.02,1588332645.3125
143.7,1588332645.328125
146.19,1588332645.34375
146.44,1588332645.359375
144.93,1588332645.375
142.38,1588332645.390625
139.44,1588332645.40625
136.39,1588332645.421875
133.17,1588332645.4375
129.65,1588332645.453125
125.71,1588332645.46875
121.42,1588332645.484375
116.93,1588332645.5
112.27,1588332645.515625
107.33,1588332645.53125
101.86,1588332645.546875
95.55,1588332645.5625
88.15,1588332645.578125
79.54,1588332645.59375
69.74,1588332645.609375
59.0,1588332645.625
47.79,1588332645.640625
36.8,1588332645.65625
26.79,1588332645.671875
18.37,1588332645.6875
11.7,1588332645.703125
6.4,1588332645.71875
1.62,1588332645.734375
-3.62,1588332645.75
-9.95,1588332645.765625
-17.42,1588332645.78125
-25.45,1588332645.796875
-33.12,1588332645.8125
-39.64,1588332645.828125
-44.64,1588332645.84375
-48.36,1588332645.859375
-51.42,1588332645.875
-54.69,1588332645.890625
-58.9,1588332645.90625
-64.67,1588332645.921875
-72.39,1588332645.9375
-81.93,1588332645.953125
-92.38,1588332645.96875
-101.72,1588332645.984375
-106.97,1588332646.0
-104.96,1588332646.015625
-93.58,1588332646.03125
-72.82,1588332646.046875
-45.12,1588332646.0625
-14.69,1588332646.078125
13.92,1588332646.09375
37.38,1588332646.109375
54.38,1588332646.125
65.64,1588332646.140625
72.92,1588332646.15625
77.99,1588332646.171875
81.86,1588332646.1875
84.71,1588332646.203125
86.33,1588332646.21875
86.58,1588332646.234375
85.68,1588332646.25
84.16,1588332646.265625
82.56,1588332646.28125
81.15,1588332646.296875
79.87,1588332646.3125
78.44,1588332646.328125
76.57,1588332646.34375
74.18,1588332646.359375
71.48,1588332646.375
68.83,1588332646.390625
66.5,1588332646.40625
64.44,1588332646.421875
62.21,1588332646.4375
59.07,1588332646.453125
54.27,1588332646.46875
47.47,1588332646.484375
38.87,1588332646.5
29.36,1588332646.515625
20.18,1588332646.53125
12.53,1588332646.546875
7.07,1588332646.5625
3.71,1588332646.578125
1.65,1588332646.59375
-0.26,1588332646.609375
-2.9,1588332646.625
-6.58,1588332646.640625
-10.86,1588332646.65625
-14.86,1588332646.671875
-17.72,1588332646.6875
-19.05,1588332646.703125
-19.07,1588332646.71875
-18.53,1588332646.734375
-18.4,1588332646.75
-19.49,1588332646.765625
-22.28,1588332646.78125
-26.71,1588332646.796875
-32.09,1588332646.8125
-36.94,1588332646.828125
-39.05,1588332646.84375
-35.76,1588332646.859375
-24.69,1588332646.875
-4.58,1588332646.890625
23.93,1588332646.90625
58.1,1588332646.921875
93.67,1588332646.9375
125.98,1588332646.953125
151.25,1588332646.96875
167.53,1588332646.984375
174.86,1588332647.0
174.73,1588332647.015625
169.27,1588332647.03125
160.37,1588332647.046875
149.37,1588332647.0625
137.18,1588332647.078125
124.56,1588332647.09375
112.45,1588332647.109375
101.83,1588332647.125
93.23,1588332647.140625
86.13,1588332647.15625
78.74,1588332647.171875
68.76,1588332647.1875
54.9,1588332647.203125
38.34,1588332647.21875
22.97,1588332647.234375
13.86,1588332647.25
14.58,1588332647.265625
24.59,1588332647.28125
38.57,1588332647.296875
48.22,1588332647.3125
45.55,1588332647.328125
26.05,1588332647.34375
-10.01,1588332647.359375
-58.65,1588332647.375
-114.32,1588332647.390625
-171.9,1588332647.40625
-227.39,1588332647.421875
-277.4,1588332647.4375
-318.54,1588332647.453125
-347.49,1588332647.46875
-361.96,1588332647.484375
-361.76,1588332647.5
-349.2,1588332647.515625
-328.39,1588332647.53125
-303.9,1588332647.546875
-279.56,1588332647.5625
-257.85,1588332647.578125
-240.1,1588332647.59375
-226.84,1588332647.609375
-218.13,1588332647.625
-213.41,1588332647.640625
-211.19,1588332647.65625
-208.88,1588332647.671875
-202.96,1588332647.6875
-189.74,1588332647.703125
-166.37,1588332647.71875
-131.89,1588332647.734375
-88.04,1588332647.75
-39.04,1588332647.765625
9.45,1588332647.78125
51.96,1588332647.796875
84.86,1588332647.8125
107.15,1588332647.828125
120.32,1588332647.84375
127.21,1588332647.859375
130.52,1588332647.875
131.95,1588332647.890625
132.0,1588332647.90625
130.55,1588332647.921875
127.6,1588332647.9375
123.75,1588332647.953125
119.97,1588332647.96875
117.13,1588332647.984375
115.43,1588332648.0
114.33,1588332648.015625
112.88,1588332648.03125
110.3,1588332648.046875
106.41,1588332648.0625
101.68,1588332648.078125
96.85,1588332648.09375
92.45,1588332648.109375
88.42,1588332648.125
84.07,1588332648.140625
78.52,1588332648.15625
71.1,1588332648.171875
61.85,1588332648.1875
51.47,1588332648.203125
41.12,1588332648.21875
31.85,1588332648.234375
24.13,1588332648.25
17.66,1588332648.265625
11.5,1588332648.28125
4.59,1588332648.296875
-3.7,1588332648.3125
-13.29,1588332648.328125
-23.29,1588332648.34375
-32.49,1588332648.359375
-39.86,1588332648.375
-45.12,1588332648.390625
-48.85,1588332648.40625
-52.39,1588332648.421875
-57.37,1588332648.4375
-65.08,1588332648.453125
-75.82,1588332648.46875
-88.58,1588332648.484375
-100.81,1588332648.5
-109.0,1588332648.515625
-109.51,1588332648.53125
-99.99,1588332648.546875
-80.26,1588332648.5625
-52.72,1588332648.578125
-21.63,1588332648.59375
8.29,1588332648.609375
33.38,1588332648.625
52.07,1588332648.640625
64.84,1588332648.65625
73.46,1588332648.671875
79.84,1588332648.6875
85.21,1588332648.703125
89.81,1588332648.71875
93.32,1588332648.734375
95.32,1588332648.75
95.77,1588332648.765625
95.0,1588332648.78125
93.55,1588332648.796875
91.93,1588332648.8125
90.41,1588332648.828125
89.0,1588332648.84375
87.62,1588332648.859375
86.18,1588332648.875
84.71,1588332648.890625
83.29,1588332648.90625
82.02,1588332648.921875
80.83,1588332648.9375
79.44,1588332648.953125
77.36,1588332648.96875
74.03,1588332648.984375
69.05,1588332649.0
62.34,1588332649.015625
54.25,1588332649.03125
45.55,1588332649.046875
37.16,1588332649.0625
29.93,1588332649.078125
24.38,1588332649.09375
20.53,1588332649.109375
18.02,1588332649.125
16.13,1588332649.140625
14.13,1588332649.15625
11.38,1588332649.171875
7.64,1588332649.1875
3.13,1588332649.203125
-1.52,1588332649.21875
-5.41,1588332649.234375
-7.82,1588332649.25
-8.52,1588332649.265625
-7.94,1588332649.28125
-7.05,1588332649.296875
-7.03,1588332649.3125
-8.87,1588332649.328125
-13.12,1588332649.34375
-19.69,1588332649.359375
-27.77,1588332649.375
-35.8,1588332649.390625
-41.55,1588332649.40625
-42.49,1588332649.421875
-36.5,1588332649.4375
-22.78,1588332649.453125
-2.39,1588332649.46875
21.82,1588332649.484375
45.89,1588332649.5
66.16,1588332649.515625
80.25,1588332649.53125
87.65,1588332649.546875
89.53,1588332649.5625
87.92,1588332649.578125
84.86,1588332649.59375
81.66,1588332649.609375
78.67,1588332649.625
75.51,1588332649.640625
71.75,1588332649.65625
67.62,1588332649.671875
64.46,1588332649.6875
64.49,1588332649.703125
69.66,1588332649.71875
80.3,1588332649.734375
94.12,1588332649.75
106.35,1588332649.765625
111.19,1588332649.78125
103.84,1588332649.796875
82.08,1588332649.8125
46.48,1588332649.828125
-0.44,1588332649.84375
-55.48,1588332649.859375
-115.36,1588332649.875
-176.5,1588332649.890625
-234.37,1588332649.90625
-283.49,1588332649.921875
-318.49,1588332649.9375
-335.84,1588332649.953125
-335.33,1588332649.96875
-320.23,1588332649.984375
-296.08,1588332650.0
-268.55,1588332650.015625
-241.69,1588332650.03125
-217.37,1588332650.046875
-195.79,1588332650.0625
-176.62,1588332650.078125
-159.78,1588332650.09375
-145.64,1588332650.109375
-134.52,1588332650.125
-126.17,1588332650.140625
-119.66,1588332650.15625
-113.7,1588332650.171875
-107.28,1588332650.1875
-100.14,1588332650.203125
-93.0,1588332650.21875
-87.21,1588332650.234375
-84.31,1588332650.25
-85.51,1588332650.265625
-91.25,1588332650.28125
-100.72,1588332650.296875
-111.63,1588332650.3125
-120.17,1588332650.328125
-121.8,1588332650.34375
-112.44,1588332650.359375
-90.16,1588332650.375
-56.18,1588332650.390625
-14.91,1588332650.40625
27.48,1588332650.421875
65.11,1588332650.4375
94.32,1588332650.453125
114.46,1588332650.46875
127.27,1588332650.484375
135.44,1588332650.5
141.08,1588332650.515625
144.99,1588332650.53125
146.92,1588332650.546875
146.32,1588332650.5625
143.16,1588332650.578125
138.16,1588332650.59375
132.52,1588332650.609375
127.34,1588332650.625
123.13,1588332650.640625
119.63,1588332650.65625
116.13,1588332650.671875
111.95,1588332650.6875
106.81,1588332650.703125
101.02,1588332650.71875
95.27,1588332650.734375
90.24,1588332650.75
86.12,1588332650.765625
82.5,1588332650.78125
78.45,1588332650.796875
72.97,1588332650.8125
65.52,1588332650.828125
56.24,1588332650.84375
45.97,1588332650.859375
35.92,1588332650.875
27.2,1588332650.890625
20.42,1588332650.90625
15.55,1588332650.921875
11.93,1588332650.9375
8.58,1588332650.953125
4.51,1588332650.96875
-0.95,1588332650.984375
-7.88,1588332651.0
-15.77,1588332651.015625
-23.65,1588332651.03125
-30.46,1588332651.046875
-35.47,1588332651.0625
-38.56,1588332651.078125
-40.3,1588332651.09375
-41.77,1588332651.109375
-44.22,1588332651.125
-48.75,1588332651.140625
-55.99,1588332651.15625
-65.81,1588332651.171875
-77.09,1588332651.1875
-87.54,1588332651.203125
-94.09,1588332651.21875
-93.58,1588332651.234375
-83.84,1588332651.25
-64.65,1588332651.265625
-38.02,1588332651.28125
-7.71,1588332651.296875
22.07,1588332651.3125
47.96,1588332651.328125
68.37,1588332651.34375
83.43,1588332651.359375
94.39,1588332651.375
102.66,1588332651.390625
109.11,1588332651.40625
113.93,1588332651.421875
116.93,1588332651.4375
117.98,1588332651.453125
117.29,1588332651.46875
115.42,1588332651.484375
112.98,1588332651.5
110.44,1588332651.515625
107.9,1588332651.53125
105.23,1588332651.546875
102.24,1588332651.5625
98.88,1588332651.578125
95.3,1588332651.59375
91.69,1588332651.609375
88.0,1588332651.625
83.79,1588332651.640625
78.27,1588332651.65625
70.61,1588332651.671875
60.41,1588332651.6875
48.06,1588332651.703125
34.68,1588332651.71875
21.79,1588332651.734375
10.7,1588332651.75
1.94,1588332651.765625
-4.87,1588332651.78125
-10.83,1588332651.796875
-17.22,1588332651.8125
-24.86,1588332651.828125
-33.75,1588332651.84375
-43.08,1588332651.859375
-51.56,1588332651.875
-58.0,1588332651.890625
-61.8,1588332651.90625
-63.24,1588332651.921875
-63.58,1588332651.9375
-64.79,1588332651.953125
-69.14,1588332651.96875
-78.46,1588332651.984375
-93.39,1588332652.0
-112.68,1588332652.015625
-133.08,1588332652.03125
-149.97,1588332652.046875
-158.69,1588332652.0625
-156.15,1588332652.078125
-142.11,1588332652.09375
-119.37,1588332652.109375
-92.76,1588332652.125
-67.39,1588332652.140625
-46.8,1588332652.15625
-32.01,1588332652.171875
-21.76,1588332652.1875
-13.65,1588332652.203125
-5.57,1588332652.21875
3.32,1588332652.234375
12.52,1588332652.25
20.78,1588332652.265625
27.01,1588332652.28125
30.87,1588332652.296875
33.0,1588332652.3125
34.71,1588332652.328125
37.61,1588332652.34375
43.14,1588332652.359375
52.25,1588332652.375
64.96,1588332652.390625
80.06,1588332652.40625
94.97,1588332652.421875
106.19,1588332652.4375
110.11,1588332652.453125
104.24,1588332652.46875
88.2,1588332652.484375
64.02,1588332652.5
35.62,1588332652.515625
7.66,1588332652.53125
-15.85,1588332652.546875
-32.56,1588332652.5625
-42.06,1588332652.578125
-45.59,1588332652.59375
-45.31,1588332652.609375
-43.52,1588332652.625
-42.15,1588332652.640625
-42.39,1588332652.65625
-44.77,1588332652.671875
-49.22,1588332652.6875
-55.31,1588332652.703125
-62.47,1588332652.71875
-70.16,1588332652.734375
-78.03,1588332652.75
-86.12,1588332652.765625
-94.92,1588332652.78125
-105.07,1588332652.796875
-116.83,1588332652.8125
-129.38,1588332652.828125
-140.41,1588332652.84375
-146.42,1588332652.859375
-143.89,1588332652.875
-130.74,1588332652.890625
-107.48,1588332652.90625
-77.25,1588332652.921875
-44.84,1588332652.9375
-14.92,1588332652.953125
9.47,1588332652.96875
27.52,1588332652.984375
40.34,1588332653.0
49.81,1588332653.015625
57.52,1588332653.03125
64.22,1588332653.046875
69.83,1588332653.0625
73.93,1588332653.078125
76.25,1588332653.09375
76.89,1588332653.109375
76.22,1588332653.125
74.75,1588332653.140625
72.81,1588332653.15625
70.53,1588332653.171875
67.96,1588332653.1875
65.23,1588332653.203125
62.7,1588332653.21875
60.84,1588332653.234375
59.94,1588332653.25
59.82,1588332653.265625
59.7,1588332653.28125
58.48,1588332653.296875
55.14,1588332653.3125
49.25,1588332653.328125
41.23,1588332653.34375
32.21,1588332653.359375
23.51,1588332653.375
16.16,1588332653.390625
10.5,1588332653.40625
6.07,1588332653.421875
1.92,1588332653.4375
-2.98,1588332653.453125
-9.26,1588332653.46875
-16.9,1588332653.484375
-25.25,1588332653.5
-33.3,1588332653.515625
-40.1,1588332653.53125
-45.21,1588332653.546875
-48.95,1588332653.5625
-52.32,1588332653.578125
-56.8,1588332653.59375
-63.82,1588332653.609375
-74.13,1588332653.625
-87.27,1588332653.640625
-101.31,1588332653.65625
-113.09,1588332653.671875
-119.04,1588332653.6875
-116.26,1588332653.703125
-103.69,1588332653.71875
-82.51,1588332653.734375
-55.87,1588332653.75
-27.75,1588332653.765625
-1.68,1588332653.78125
20.28,1588332653.796875
37.76,1588332653.8125
51.6,1588332653.828125
63.01,1588332653.84375
72.87,1588332653.859375
81.52,1588332653.875
88.87,1588332653.890625
94.85,1588332653.90625
99.55,1588332653.921875
103.27,1588332653.9375
106.3,1588332653.953125
108.77,1588332653.96875
110.58,1588332653.984375
111.5,1588332654.0
111.44,1588332654.015625
110.59,1588332654.03125
109.5,1588332654.046875
108.99,1588332654.0625
109.79,1588332654.078125
112.23,1588332654.09375
115.93,1588332654.109375
119.76,1588332654.125
122.21,1588332654.140625
121.9,1588332654.15625
118.18,1588332654.171875
111.4,1588332654.1875
102.78,1588332654.203125
93.82,1588332654.21875
85.64,1588332654.234375
78.55,1588332654.25
71.96,1588332654.265625
64.83,1588332654.28125
56.28,1588332654.296875
46.08,1588332654.3125
34.75,1588332654.328125
23.41,1588332654.34375
13.3,1588332654.359375
5.32,1588332654.375
-0.38,1588332654.390625
-4.48,1588332654.40625
-8.35,1588332654.421875
-13.68,1588332654.4375
-21.83,1588332654.453125
-33.28,1588332654.46875
-47.22,1588332654.484375
-61.62,1588332654.5
-73.66,1588332654.515625
-80.55,1588332654.53125
-80.43,1588332654.546875
-73.0,1588332654.5625
-59.68,1588332654.578125
-43.05,1588332654.59375
-26.07,1588332654.609375
-11.16,1588332654.625
0.37,1588332654.640625
8.39,1588332654.65625
13.55,1588332654.671875
16.57,1588332654.6875
17.6,1588332654.703125
15.93,1588332654.71875
10.4,1588332654.734375
0.37,1588332654.75
-13.08,1588332654.765625
-26.59,1588332654.78125
-34.97,1588332654.796875
-32.96,1588332654.8125
-17.75,1588332654.828125
9.07,1588332654.84375
41.01,1588332654.859375
68.5,1588332654.875
82.24,1588332654.890625
76.75,1588332654.90625
52.44,1588332654.921875
15.07,1588332654.9375
-26.85,1588332654.953125
-65.43,1588332654.96875
-95.84,1588332654.984375
-116.83,1588332655.0
-129.62,1588332655.015625
-136.08,1588332655.03125
-137.47,1588332655.046875
-134.2,1588332655.0625
-126.55,1588332655.078125
-115.45,1588332655.09375
-102.76,1588332655.109375
-90.86,1588332655.125
-81.75,1588332655.140625
-76.39,1588332655.15625
-74.52,1588332655.171875
-75.01,1588332655.1875
-76.51,1588332655.203125
-77.98,1588332655.21875
-79.0,1588332655.234375
-79.72,1588332655.25
-80.6,1588332655.265625
-82.08,1588332655.28125
-84.36,1588332655.296875
-87.34,1588332655.3125
-90.83,1588332655.328125
-94.84,1588332655.34375
-99.78,1588332655.359375
-106.17,1588332655.375
-113.95,1588332655.390625
-121.82,1588332655.40625
-126.98,1588332655.421875
-125.77,1588332655.4375
-115.05,1588332655.453125
-93.69,1588332655.46875
-63.4,1588332655.484375
-28.33,1588332655.5
6.31,1588332655.515625
36.09,1588332655.53125
58.65,1588332655.546875
73.93,1588332655.5625
83.55,1588332655.578125
89.62,1588332655.59375
93.79,1588332655.609375
96.91,1588332655.625
99.12,1588332655.640625
100.37,1588332655.65625
100.75,1588332655.671875
100.59,1588332655.6875
100.29,1588332655.703125
100.16,1588332655.71875
100.14,1588332655.734375
99.87,1588332655.75
98.85,1588332655.765625
96.8,1588332655.78125
93.81,1588332655.796875
90.38,1588332655.8125
87.1,1588332655.828125
84.29,1588332655.84375
81.7,1588332655.859375
78.55,1588332655.875
73.83,1588332655.890625
66.93,1588332655.90625
57.9,1588332655.921875
47.64,1588332655.9375
37.5,1588332655.953125
28.82,1588332655.96875
22.27,1588332655.984375
17.64,1588332656.0
14.0,1588332656.015625
10.07,1588332656.03125
4.88,1588332656.046875
-1.83,1588332656.0625
-9.52,1588332656.078125
-17.21,1588332656.09375
-23.92,1588332656.109375
-29.21,1588332656.125
-33.31,1588332656.140625
-37.05,1588332656.15625
-41.51,1588332656.171875
-47.69,1588332656.1875
-56.24,1588332656.203125
-67.26,1588332656.21875
-79.99,1588332656.234375
-92.6,1588332656.25
-102.31,1588332656.265625
-105.82,1588332656.28125
-100.35,1588332656.296875
-84.74,1588332656.3125
-60.17,1588332656.328125
-29.97,1588332656.34375
1.38,1588332656.359375
29.75,1588332656.375
52.54,1588332656.390625
69.13,1588332656.40625
80.47,1588332656.421875
88.17,1588332656.4375
93.65,1588332656.453125
97.74,1588332656.46875
100.75,1588332656.484375
102.77,1588332656.5
103.93,1588332656.515625
104.45,1588332656.53125
104.49,1588332656.546875
104.16,1588332656.5625
103.47,1588332656.578125
102.56,1588332656.59375
101.75,1588332656.609375
101.58,1588332656.625
102.56,1588332656.640625
104.84,1588332656.65625
108.08,1588332656.671875
111.34,1588332656.6875
113.45,1588332656.703125
113.36,1588332656.71875
110.61,1588332656.734375
105.52,1588332656.75
99.1,1588332656.765625
92.67,1588332656.78125
87.31,1588332656.796875
83.53,1588332656.8125
80.96,1588332656.828125
78.6,1588332656.84375
75.25,1588332656.859375
70.24,1588332656.875
63.76,1588332656.890625
56.91,1588332656.90625
51.23,1588332656.921875
47.83,1588332656.9375
46.73,1588332656.953125
46.69,1588332656.96875
45.51,1588332656.984375
40.56,1588332657.0
29.59,1588332657.015625
11.46,1588332657.03125
-12.99,1588332657.046875
-40.34,1588332657.0625
-64.83,1588332657.078125
-79.65,1588332657.09375
-79.65,1588332657.109375
-63.86,1588332657.125
-36.9,1588332657.140625
-8.06,1588332657.15625
11.79,1588332657.171875
14.08,1588332657.1875
-4.57,1588332657.203125
-41.65,1588332657.21875
-90.36,1588332657.234375
-142.38,1588332657.25
-190.37,1588332657.265625
-229.29,1588332657.28125
-256.48,1588332657.296875
-271.1,1588332657.3125
-273.55,1588332657.328125
-265.16,1588332657.34375
-248.11,1588332657.359375
-225.05,1588332657.375
-198.89,1588332657.390625
-172.34,1588332657.40625
-147.47,1588332657.421875
-125.51,1588332657.4375
-106.72,1588332657.453125
-90.47,1588332657.46875
-75.73,1588332657.484375
-61.61,1588332657.5
-47.93,1588332657.515625
-35.42,1588332657.53125
-25.41,1588332657.546875
-19.19,1588332657.5625
-17.3,1588332657.578125
-19.07,1588332657.59375
-22.76,1588332657.609375
-26.22,1588332657.625
-27.73,1588332657.640625
-26.75,1588332657.65625
-24.11,1588332657.671875
-21.63,1588332657.6875
-21.2,1588332657.703125
-23.95,1588332657.71875
-29.66,1588332657.734375
-36.92,1588332657.75
-43.83,1588332657.765625
-48.88,1588332657.78125
-51.6,1588332657.796875
-52.77,1588332657.8125
-54.01,1588332657.828125
-57.09,1588332657.84375
-63.39,1588332657.859375
-73.52,1588332657.875
-87.02,1588332657.890625
-102.09,1588332657.90625
-115.57,1588332657.921875
-123.28,1588332657.9375
-121.13,1588332657.953125
-106.5,1588332657.96875
-79.61,1588332657.984375
-43.87,1588332658.0
-4.94,1588332658.015625
31.23,1588332658.03125
60.38,1588332658.046875
81.05,1588332658.0625
94.35,1588332658.078125
102.76,1588332658.09375
108.53,1588332658.109375
112.85,1588332658.125
115.8,1588332658.140625
116.99,1588332658.15625
116.27,1588332658.171875
114.03,1588332658.1875
111.01,1588332658.203125
107.83,1588332658.21875
104.71,1588332658.234375
101.41,1588332658.25
97.48,1588332658.265625
92.69,1588332658.28125
87.32,1588332658.296875
82.05,1588332658.3125
77.66,1588332658.328125
74.54,1588332658.34375
72.38,1588332658.359375
70.21,1588332658.375
66.74,1588332658.390625
61.01,1588332658.40625
52.81,1588332658.421875
42.94,1588332658.4375
32.84,1588332658.453125
23.97,1588332658.46875
17.2,1588332658.484375
12.34,1588332658.5
8.33,1588332658.515625
3.7,1588332658.53125
-2.63,1588332658.546875
-10.89,1588332658.5625
-20.31,1588332658.578125
-29.51,1588332658.59375
-37.17,1588332658.609375
-42.58,1588332658.625
-45.99,1588332658.640625
-48.43,1588332658.65625
-51.4,1588332658.671875
-56.42,1588332658.6875
-64.53,1588332658.703125
-75.78,1588332658.71875
-88.8,1588332658.734375
-100.67,1588332658.75
-107.41,1588332658.765625
-105.12,1588332658.78125
-91.41,1588332658.796875
-66.6,1588332658.8125
-33.82,1588332658.828125
1.87,1588332658.84375
35.25,1588332658.859375
62.61,1588332658.875
82.66,1588332658.890625
96.38,1588332658.90625
106.06,1588332658.921875
114.05,1588332658.9375
121.91,1588332658.953125
130.1,1588332658.96875
138.17,1588332658.984375
145.2,1588332659.0
150.3,1588332659.015625
152.87,1588332659.03125
152.8,1588332659.046875
150.46,1588332659.0625
146.55,1588332659.078125
141.92,1588332659.09375
137.32,1588332659.109375
133.24,1588332659.125
129.79,1588332659.140625
126.68,1588332659.15625
123.29,1588332659.171875
118.89,1588332659.1875
112.78,1588332659.203125
104.59,1588332659.21875
94.45,1588332659.234375
83.07,1588332659.25
71.59,1588332659.265625
61.21,1588332659.28125
52.88,1588332659.296875
46.9,1588332659.3125
42.73,1588332659.328125
39.14,1588332659.34375
34.5,1588332659.359375
27.29,1588332659.375
16.63,1588332659.390625
2.55,1588332659.40625
-14.06,1588332659.421875
-31.85,1588332659.4375
-49.55,1588332659.453125
-66.34,1588332659.46875
-81.95,1588332659.484375
-96.37,1588332659.5
-109.52,1588332659.515625
-120.99,1588332659.53125
-130.13,1588332659.546875
-136.43,1588332659.5625
-139.91,1588332659.578125
-141.26,1588332659.59375
-141.63,1588332659.609375
-142.05,1588332659.625
-142.87,1588332659.640625
-143.55,1588332659.65625
-142.86,1588332659.671875
-139.61,1588332659.6875
-133.24,1588332659.703125
-124.23,1588332659.71875
-113.93,1588332659.734375
-104.0,1588332659.75
-95.73,1588332659.765625
-89.63,1588332659.78125
-85.43,1588332659.796875
-82.44,1588332659.8125
-80.04,1588332659.828125
-77.97,1588332659.84375
-76.38,1588332659.859375
-75.52,1588332659.875
-75.46,1588332659.890625
-75.8,1588332659.90625
-75.84,1588332659.921875
-74.87,1588332659.9375
-72.51,1588332659.953125
-68.96,1588332659.96875
-64.92,1588332659.984375
-61.11,1588332660.0
-57.79,1588332660.015625
-54.4,1588332660.03125
-49.78,1588332660.046875
-42.83,1588332660.0625
-33.26,1588332660.078125
-22.1,1588332660.09375
-11.4,1588332660.109375
-3.43,1588332660.125
0.33,1588332660.140625
-0.14,1588332660.15625
-3.51,1588332660.171875
-7.94,1588332660.1875
-11.98,1588332660.203125
-15.13,1588332660.21875
-17.92,1588332660.234375
-21.21,1588332660.25
-25.6,1588332660.265625
-30.93,1588332660.28125
-36.41,1588332660.296875
-41.03,1588332660.3125
-44.05,1588332660.328125
-45.34,1588332660.34375
-45.34,1588332660.359375
-44.88,1588332660.375
-44.9,1588332660.390625
-46.26,1588332660.40625
-49.76,1588332660.421875
-56.05,1588332660.4375
-65.36,1588332660.453125
-77.05,1588332660.46875
-89.22,1588332660.484375
-98.66,1588332660.5
-101.57,1588332660.515625
-94.83,1588332660.53125
-77.26,1588332660.546875
-50.38,1588332660.5625
-17.96,1588332660.578125
15.14,1588332660.59375
44.65,1588332660.609375
68.13,1588332660.625
85.18,1588332660.640625
96.9,1588332660.65625
104.78,1588332660.671875
109.9,1588332660.6875
112.57,1588332660.703125
112.7,1588332660.71875
110.27,1588332660.734375
105.77,1588332660.75
100.16,1588332660.765625
94.57,1588332660.78125
89.88,1588332660.796875
86.45,1588332660.8125
84.03,1588332660.828125
82.07,1588332660.84375
79.94,1588332660.859375
77.25,1588332660.875
73.88,1588332660.890625
69.99,1588332660.90625
65.79,1588332660.921875
61.47,1588332660.9375
57.07,1588332660.953125
52.46,1588332660.96875
47.38,1588332660.984375
41.6,1588332661.0
35.01,1588332661.015625
27.71,1588332661.03125
20.07,1588332661.046875
12.6,1588332661.0625
5.78,1588332661.078125
-0.07,1588332661.09375
-4.93,1588332661.109375
-9.03,1588332661.125
-12.74,1588332661.140625
-16.46,1588332661.15625
-20.67,1588332661.171875
-25.9,1588332661.1875
-32.63,1588332661.203125
-41.0,1588332661.21875
-50.32,1588332661.234375
-58.81,1588332661.25
-63.76,1588332661.265625
-62.25,1588332661.28125
-52.17,1588332661.296875
-33.15,1588332661.3125
-6.94,1588332661.328125
23.09,1588332661.34375
53.04,1588332661.359375
79.78,1588332661.375
101.81,1588332661.390625
119.29,1588332661.40625
133.51,1588332661.421875
145.77,1588332661.4375
156.67,1588332661.453125
165.78,1588332661.46875
172.02,1588332661.484375
174.33,1588332661.5
172.3,1588332661.515625
166.46,1588332661.53125
158.04,1588332661.546875
148.47,1588332661.5625
138.86,1588332661.578125
129.74,1588332661.59375
121.1,1588332661.609375
112.61,1588332661.625
103.83,1588332661.640625
94.5,1588332661.65625
84.64,1588332661.671875
74.73,1588332661.6875
65.64,1588332661.703125
58.43,1588332661.71875
53.77,1588332661.734375
51.6,1588332661.75
50.82,1588332661.765625
49.75,1588332661.78125
46.84,1588332661.796875
41.54,1588332661.8125
34.53,1588332661.828125
27.32,1588332661.84375
21.47,1588332661.859375
17.69,1588332661.875
15.55,1588332661.890625
13.74,1588332661.90625
10.68,1588332661.921875
4.88,1588332661.9375
-5.03,1588332661.953125
-20.16,1588332661.96875
-40.55,1588332661.984375
-63.94,1588332662.0
-85.15,1588332662.015625
-96.97,1588332662.03125
-93.17,1588332662.046875
-71.99,1588332662.0625
-38.4,1588332662.078125
-3.25,1588332662.09375
20.43,1588332662.109375
22.49,1588332662.125
-0.57,1588332662.140625
-44.83,1588332662.15625
-101.23,1588332662.171875
-159.34,1588332662.1875
-210.69,1588332662.203125
-250.31,1588332662.21875
-276.41,1588332662.234375
-289.3,1588332662.25
-290.35,1588332662.265625
-281.57,1588332662.28125
-265.52,1588332662.296875
-244.96,1588332662.3125
-222.55,1588332662.328125
-200.42,1588332662.34375
-179.76,1588332662.359375
-160.76,1588332662.375
-142.7,1588332662.390625
-124.36,1588332662.40625
-104.73,1588332662.421875
-83.6,1588332662.4375
-61.96,1588332662.453125
-41.77,1588332662.46875
-25.22,1588332662.484375
-13.74,1588332662.5
-7.45,1588332662.515625
-5.02,1588332662.53125
-4.26,1588332662.546875
-3.06,1588332662.5625
-0.24,1588332662.578125
4.08,1588332662.59375
8.63,1588332662.609375
11.58,1588332662.625
11.52,1588332662.640625
8.02,1588332662.65625
1.83,1588332662.671875
-5.44,1588332662.6875
-12.06,1588332662.703125
-16.97,1588332662.71875
-20.21,1588332662.734375
-22.92,1588332662.75
-27.02,1588332662.765625
-34.41,1588332662.78125
-46.33,1588332662.796875
-62.58,1588332662.8125
-81.15,1588332662.828125
-98.27,1588332662.84375
-109.21,1588332662.859375
-109.71,1588332662.875
-97.45,1588332662.890625
-73.17,1588332662.90625
-40.55,1588332662.921875
-5.09,1588332662.9375
27.8,1588332662.953125
54.48,1588332662.96875
73.83,1588332662.984375
86.95,1588332663.0
95.9,1588332663.015625
102.55,1588332663.03125
107.86,1588332663.046875
111.9,1588332663.0625
114.34,1588332663.078125
115.04,1588332663.09375
114.25,1588332663.109375
112.5,1588332663.125
110.31,1588332663.140625
107.92,1588332663.15625
105.24,1588332663.171875
102.07,1588332663.1875
98.35,1588332663.203125
94.38,1588332663.21875
90.68,1588332663.234375
87.68,1588332663.25
85.35,1588332663.265625
83.05,1588332663.28125
79.77,1588332663.296875
74.54,1588332663.3125
67.03,1588332663.328125
57.73,1588332663.34375
47.81,1588332663.359375
38.59,1588332663.375
30.96,1588332663.390625
24.97,1588332663.40625
19.93,1588332663.421875
14.69,1588332663.4375
8.27,1588332663.453125
0.19,1588332663.46875
-9.24,1588332663.484375
-19.12,1588332663.5
-28.34,1588332663.515625
-35.96,1588332663.53125
-41.64,1588332663.546875
-45.76,1588332663.5625
-49.38,1588332663.578125
-53.99,1588332663.59375
-61.03,1588332663.609375
-71.36,1588332663.625
-84.57,1588332663.640625
-98.67,1588332663.65625
-110.12,1588332663.671875
-114.8,1588332663.6875
-109.34,1588332663.703125
-92.44,1588332663.71875
-65.59,1588332663.734375
-32.7,1588332663.75
1.28,1588332663.765625
31.97,1588332663.78125
56.78,1588332663.796875
75.22,1588332663.8125
88.32,1588332663.828125
97.65,1588332663.84375
104.52,1588332663.859375
109.57,1588332663.875
112.97,1588332663.890625
114.75,1588332663.90625
115.02,1588332663.921875
114.06,1588332663.9375
112.29,1588332663.953125
110.1,1588332663.96875
107.8,1588332663.984375
105.72,1588332664.0
104.15,1588332664.015625
103.51,1588332664.03125
104.18,1588332664.046875
106.36,1588332664.0625
109.87,1588332664.078125
114.0,1588332664.09375
117.65,1588332664.109375
119.7,1588332664.125
119.49,1588332664.140625
117.12,1588332664.15625
113.4,1588332664.171875
109.43,1588332664.1875
106.04,1588332664.203125
103.44,1588332664.21875
101.31,1588332664.234375
99.01,1588332664.25
95.8,1588332664.265625
90.87,1588332664.28125
83.33,1588332664.296875
72.2,1588332664.3125
56.75,1588332664.328125
36.95,1588332664.34375
13.55,1588332664.359375
-12.09,1588332664.375
-38.68,1588332664.390625
-65.47,1588332664.40625
-92.15,1588332664.421875
-118.1,1588332664.4375
-141.43,1588332664.453125
-158.7,1588332664.46875
-165.72,1588332664.484375
-159.2,1588332664.5
-138.48,1588332664.515625
-106.26,1588332664.53125
-67.94,1588332664.546875
-29.96,1588332664.5625
2.0,1588332664.578125
24.28,1588332664.59375
35.64,1588332664.609375
36.94,1588332664.625
30.4,1588332664.640625
18.83,1588332664.65625
5.02,1588332664.671875
-8.86,1588332664.6875
-21.46,1588332664.703125
-32.33,1588332664.71875
-41.58,1588332664.734375
-49.51,1588332664.75
-56.23,1588332664.765625
-61.63,1588332664.78125
-65.58,1588332664.796875
-68.19,1588332664.8125
-69.88,1588332664.828125
-71.11,1588332664.84375
-72.24,1588332664.859375
-73.25,1588332664.875
-73.88,1588332664.890625
-73.85,1588332664.90625
-73.03,1588332664.921875
-71.5,1588332664.9375
-69.51,1588332664.953125
-67.39,1588332664.96875
-65.51,1588332664.984375
-64.34,1588332665.0
-64.42,1588332665.015625
-66.21,1588332665.03125
-69.89,1588332665.046875
-75.18,1588332665.0625
-81.21,1588332665.078125
-86.94,1588332665.09375
-91.35,1588332665.109375
-94.02,1588332665.125
-95.28,1588332665.140625
-96.15,1588332665.15625
-98.08,1588332665.171875
-102.57,1588332665.1875
-110.8,1588332665.203125
-123.14,1588332665.21875
-138.53,1588332665.234375
-154.1,1588332665.25
-165.27,1588332665.265625
-166.83,1588332665.28125
-154.66,1588332665.296875
-127.54,1588332665.3125
-88.11,1588332665.328125
-42.26,1588332665.34375
2.86,1588332665.359375
41.26,1588332665.375
69.95,1588332665.390625
89.22,1588332665.40625
101.53,1588332665.421875
109.75,1588332665.4375
115.82,1588332665.453125
120.35,1588332665.46875
123.01,1588332665.484375
123.44,1588332665.5
121.65,1588332665.515625
118.15,1588332665.53125
113.63,1588332665.546875
108.62,1588332665.5625
103.42,1588332665.578125
98.17,1588332665.59375
93.0,1588332665.609375
88.08,1588332665.625
83.55,1588332665.640625
79.41,1588332665.65625
75.41,1588332665.671875
71.08,1588332665.6875
65.94,1588332665.703125
59.63,1588332665.71875
52.08,1588332665.734375
43.55,1588332665.75
34.48,1588332665.765625
25.31,1588332665.78125
16.34,1588332665.796875
7.64,1588332665.8125
-0.88,1588332665.828125
-9.33,1588332665.84375
-17.71,1588332665.859375
-25.9,1588332665.875
-33.63,1588332665.890625
-40.65,1588332665.90625
-46.89,1588332665.921875
-52.58,1588332665.9375
-58.32,1588332665.953125
-65.07,1588332665.96875
-73.87,1588332665.984375
-85.36,1588332666.0
-99.08,1588332666.015625
-112.97,1588332666.03125
-123.43,1588332666.046875
-126.2,1588332666.0625
-117.87,1588332666.078125
-97.37,1588332666.09375
-66.68,1588332666.109375
-30.34,1588332666.125
6.11,1588332666.140625
38.07,1588332666.15625
63.16,1588332666.171875
81.36,1588332666.1875
94.28,1588332666.203125
103.8,1588332666.21875
111.17,1588332666.234375
116.74,1588332666.25
120.36,1588332666.265625
122.02,1588332666.28125
122.16,1588332666.296875
121.65,1588332666.3125
121.34,1588332666.328125
121.67,1588332666.34375
122.51,1588332666.359375
123.25,1588332666.375
123.23,1588332666.390625
122.12,1588332666.40625
120.19,1588332666.421875
118.1,1588332666.4375
116.56,1588332666.453125
115.85,1588332666.46875
115.54,1588332666.484375
114.52,1588332666.5
111.33,1588332666.515625
104.84,1588332666.53125
94.6,1588332666.546875
81.26,1588332666.5625
66.29,1588332666.578125
51.55,1588332666.59375
38.73,1588332666.609375
28.58,1588332666.625
20.73,1588332666.640625
13.58,1588332666.65625
4.86,1588332666.671875
-7.62,1588332666.6875
-24.98,1588332666.703125
-46.72,1588332666.71875
-70.65,1588332666.734375
-93.67,1588332666.75
-112.99,1588332666.765625
-127.19,1588332666.78125
-136.75,1588332666.796875
-143.7,1588332666.8125
-150.6,1588332666.828125
-159.44,1588332666.84375
-170.85,1588332666.859375
-183.87,1588332666.875
-196.0,1588332666.890625
-203.83,1588332666.90625
-203.7,1588332666.921875
-192.79,1588332666.9375
-170.05,1588332666.953125
-136.99,1588332666.96875
-97.6,1588332666.984375
-57.32,1588332667.0
-21.43,1588332667.015625
6.55,1588332667.03125
25.7,1588332667.046875
37.28,1588332667.0625
43.62,1588332667.078125
46.84,1588332667.09375
48.2,1588332667.109375
48.11,1588332667.125
46.82,1588332667.140625
44.87,1588332667.15625
43.18,1588332667.171875
42.61,1588332667.1875
43.51,1588332667.203125
45.42,1588332667.21875
47.31,1588332667.234375
48.11,1588332667.25
47.26,1588332667.265625
45.03,1588332667.28125
42.36,1588332667.296875
40.3,1588332667.3125
39.42,1588332667.328125
39.43,1588332667.34375
39.22,1588332667.359375
37.34,1588332667.375
32.68,1588332667.390625
24.97,1588332667.40625
14.98,1588332667.421875
4.26,1588332667.4375
-5.57,1588332667.453125
-13.39,1588332667.46875
-19.1,1588332667.484375
-23.52,1588332667.5
-28.01,1588332667.515625
-33.69,1588332667.53125
-40.96,1588332667.546875
-49.25,1588332667.5625
-57.36,1588332667.578125
-64.03,1588332667.59375
-68.51,1588332667.609375
-70.91,1588332667.625
-72.16,1588332667.640625
-73.67,1588332667.65625
-76.88,1588332667.671875
-82.97,1588332667.6875
-92.52,1588332667.703125
-105.06,1588332667.71875
-118.69,1588332667.734375
-129.96,1588332667.75
-134.42,1588332667.765625
-127.99,1588332667.78125
-108.61,1588332667.796875
-77.5,1588332667.8125
-39.09,1588332667.828125
0.35,1588332667.84375
34.95,1588332667.859375
61.12,1588332667.875
78.41,1588332667.890625
88.72,1588332667.90625
94.81,1588332667.921875
98.77,1588332667.9375
101.37,1588332667.953125
102.36,1588332667.96875
101.25,1588332667.984375
98.06,1588332668.0
93.47,1588332668.015625
88.52,1588332668.03125
84.17,1588332668.046875
80.88,1588332668.0625
78.59,1588332668.078125
76.92,1588332668.09375
75.4,1588332668.109375
73.76,1588332668.125
71.89,1588332668.140625
69.82,1588332668.15625
67.55,1588332668.171875
64.96,1588332668.1875
61.83,1588332668.203125
57.88,1588332668.21875
52.9,1588332668.234375
46.86,1588332668.25
39.89,1588332668.265625
32.23,1588332668.28125
24.17,1588332668.296875
16.04,1588332668.3125
8.23,1588332668.328125
1.16,1588332668.34375
-4.76,1588332668.359375
-9.28,1588332668.375
-12.4,1588332668.390625
-14.45,1588332668.40625
-16.11,1588332668.421875
-18.2,1588332668.4375
-21.57,1588332668.453125
-27.0,1588332668.46875
-34.96,1588332668.484375
-45.2,1588332668.5
-56.3,1588332668.515625
-65.49,1588332668.53125
-68.96,1588332668.546875
-62.99,1588332668.5625
-45.39,1588332668.578125
-16.64,1588332668.59375
19.89,1588332668.609375
58.9,1588332668.625
94.94,1588332668.640625
124.12,1588332668.65625
144.87,1588332668.671875
157.6,1588332668.6875
163.36,1588332668.703125
162.61,1588332668.71875
154.85,1588332668.734375
139.32,1588332668.75
116.19,1588332668.765625
87.34,1588332668.78125
56.2,1588332668.796875
26.58,1588332668.8125
1.23,1588332668.828125
-19.02,1588332668.84375
-35.13,1588332668.859375
-48.79,1588332668.875
-61.19,1588332668.890625
-72.27,1588332668.90625
-80.88,1588332668.921875
-85.68,1588332668.9375
-86.1,1588332668.953125
-82.84,1588332668.96875
-77.73,1588332668.984375
-73.05,1588332669.0
-70.65,1588332669.015625
-71.37,1588332669.03125
-74.94,1588332669.046875
-80.16,1588332669.0625
-85.53,1588332669.078125
-89.72,1588332669.09375
-92.11,1588332669.109375
-92.88,1588332669.125
-92.8,1588332669.140625
-92.94,1588332669.15625
-94.39,1588332669.171875
-97.97,1588332669.1875
-104.14,1588332669.203125
-112.94,1588332669.21875
-123.61,1588332669.234375
-134.33,1588332669.25
-142.19,1588332669.265625
-143.65,1588332669.28125
-135.65,1588332669.296875
-116.8,1588332669.3125
-88.25,1588332669.328125
-53.51,1588332669.34375
-17.43,1588332669.359375
15.39,1588332669.375
41.93,1588332669.390625
61.16,1588332669.40625
73.62,1588332669.421875
80.45,1588332669.4375
82.58,1588332669.453125
80.48,1588332669.46875
74.63,1588332669.484375
65.95,1588332669.5
56.07,1588332669.515625
46.98,1588332669.53125
40.33,1588332669.546875
36.73,1588332669.5625
35.52,1588332669.578125
35.21,1588332669.59375
34.17,1588332669.609375
31.39,1588332669.625
26.85,1588332669.640625
21.34,1588332669.65625
15.92,1588332669.671875
11.25,1588332669.6875
7.27,1588332669.703125
3.18,1588332669.71875
-1.99,1588332669.734375
-8.89,1588332669.75
-17.38,1588332669.765625
-26.46,1588332669.78125
-34.7,1588332669.796875
-40.84,1588332669.8125
-44.42,1588332669.828125
-45.95,1588332669.84375
-46.85,1588332669.859375
-48.87,1588332669.875
-53.51,1588332669.890625
-61.59,1588332669.90625
-72.84,1588332669.921875
-85.71,1588332669.9375
-97.43,1588332669.953125
-104.32,1588332669.96875
-102.71,1588332669.984375
-90.05,1588332670.0
-66.15,1588332670.015625
-33.5,1588332670.03125
3.15,1588332670.046875
38.38,1588332670.0625
67.77,1588332670.078125
89.14,1588332670.09375
102.56,1588332670.109375
109.47,1588332670.125
111.39,1588332670.140625
109.11,1588332670.15625
102.79,1588332670.171875
92.7,1588332670.1875
80.07,1588332670.203125
67.23,1588332670.21875
56.95,1588332670.234375
51.36,1588332670.25
50.94,1588332670.265625
54.28,1588332670.28125
58.82,1588332670.296875
61.97,1588332670.3125
62.25,1588332670.328125
59.75,1588332670.34375
55.77,1588332670.359375
51.9,1588332670.375
49.06,1588332670.390625
47.02,1588332670.40625
44.57,1588332670.421875
40.16,1588332670.4375
32.74,1588332670.453125
22.27,1588332670.46875
9.76,1588332670.484375
-3.09,1588332670.5
-14.55,1588332670.515625
-23.44,1588332670.53125
-29.48,1588332670.546875
-33.46,1588332670.5625
-37.02,1588332670.578125
-42.17,1588332670.59375
-50.69,1588332670.609375
-63.3,1588332670.625
-79.15,1588332670.640625
-95.57,1588332670.65625
-108.48,1588332670.671875
-113.42,1588332670.6875
-106.89,1588332670.703125
-87.69,1588332670.71875
-57.47,1588332670.734375
-20.28,1588332670.75
18.66,1588332670.765625
54.61,1588332670.78125
84.61,1588332670.796875
107.8,1588332670.8125
124.9,1588332670.828125
137.19,1588332670.84375
145.52,1588332670.859375
150.12,1588332670.875
150.9,1588332670.890625
148.17,1588332670.90625
143.08,1588332670.921875
137.46,1588332670.9375
133.08,1588332670.953125
130.84,1588332670.96875
130.11,1588332670.984375
128.81,1588332671.0
124.12,1588332671.015625
113.54,1588332671.03125
96.11,1588332671.046875
73.08,1588332671.0625
47.84,1588332671.078125
25.21,1588332671.09375
10.03,1588332671.109375
5.84,1588332671.125
13.69,1588332671.140625
31.74,1588332671.15625
55.48,1588332671.171875
78.88,1588332671.1875
95.84,1588332671.203125
101.55,1588332671.21875
93.32,1588332671.234375
70.69,1588332671.25
35.12,1588332671.265625
-10.51,1588332671.28125
-62.25,1588332671.296875
-115.27,1588332671.3125
-164.31,1588332671.328125
-204.43,1588332671.34375
-232.16,1588332671.359375
-246.46,1588332671.375
-249.12,1588332671.390625
-244.19,1588332671.40625
-236.59,1588332671.421875
-230.53,1588332671.4375
-228.41,1588332671.453125
-230.42,1588332671.46875
-234.82,1588332671.484375
-238.54,1588332671.5
-237.77,1588332671.515625
-228.76,1588332671.53125
-208.78,1588332671.546875
-177.15,1588332671.5625
-136.02,1588332671.578125
-90.19,1588332671.59375
-45.82,1588332671.609375
-8.45,1588332671.625
18.86,1588332671.640625
36.36,1588332671.65625
46.86,1588332671.671875
54.11,1588332671.6875
60.82,1588332671.703125
67.75,1588332671.71875
73.85,1588332671.734375
77.5,1588332671.75
77.8,1588332671.765625
75.11,1588332671.78125
70.9,1588332671.796875
66.74,1588332671.8125
63.4,1588332671.828125
60.61,1588332671.84375
57.42,1588332671.859375
52.97,1588332671.875
47.17,1588332671.890625
40.86,1588332671.90625
35.28,1588332671.921875
31.4,1588332671.9375
29.19,1588332671.953125
27.54,1588332671.96875
24.79,1588332671.984375
19.52,1588332672.0
11.36,1588332672.015625
1.22,1588332672.03125
-9.12,1588332672.046875
-17.81,1588332672.0625
-23.87,1588332672.078125
-27.63,1588332672.09375
-30.56,1588332672.109375
-34.45,1588332672.125
-40.5,1588332672.140625
-48.75,1588332672.15625
-58.04,1588332672.171875
-66.6,1588332672.1875
-72.96,1588332672.203125
-76.62,1588332672.21875
-78.32,1588332672.234375
-79.74,1588332672.25
-82.91,1588332672.265625
-89.54,1588332672.28125
-100.4,1588332672.296875
-114.89,1588332672.3125
-130.79,1588332672.328125
-144.36,1588332672.34375
-150.96,1588332672.359375
-146.21,1588332672.375
-127.54,1588332672.390625
-95.36,1588332672.40625
-53.36,1588332672.421875
-7.61,1588332672.4375
35.41,1588332672.453125
70.74,1588332672.46875
96.28,1588332672.484375
112.69,1588332672.5
122.29,1588332672.515625
127.51,1588332672.53125
129.81,1588332672.546875
129.47,1588332672.5625
126.22,1588332672.578125
120.1,1588332672.59375
111.96,1588332672.609375
103.34,1588332672.625
95.83,1588332672.640625
90.35,1588332672.65625
86.77,1588332672.671875
84.08,1588332672.6875
81.03,1588332672.703125
76.75,1588332672.71875
71.24,1588332672.734375
65.21,1588332672.75
59.59,1588332672.765625
54.9,1588332672.78125
50.86,1588332672.796875
46.52,1588332672.8125
40.74,1588332672.828125
32.84,1588332672.84375
23.1,1588332672.859375
12.68,1588332672.875
3.19,1588332672.890625
-4.01,1588332672.90625
-8.43,1588332672.921875
-10.71,1588332672.9375
-12.31,1588332672.953125
-14.89,1588332672.96875
-19.59,1588332672.984375
-26.55,1588332673.0
-34.92,1588332673.015625
-43.23,1588332673.03125
-50.13,1588332673.046875
-54.94,1588332673.0625
-57.94,1588332673.078125
-60.34,1588332673.09375
-63.79,1588332673.109375
-69.82,1588332673.125
-79.37,1588332673.140625
-92.35,1588332673.15625
-107.43,1588332673.171875
-121.96,1588332673.1875
-132.24,1588332673.203125
-134.26,1588332673.21875
-124.93,1588332673.234375
-103.31,1588332673.25
-71.35,1588332673.265625
-33.63,1588332673.28125
3.93,1588332673.296875
35.96,1588332673.3125
59.3,1588332673.328125
73.59,1588332673.34375
80.75,1588332673.359375
83.61,1588332673.375
84.4,1588332673.390625
84.06,1588332673.40625
82.3,1588332673.421875
78.47,1588332673.4375
72.29,1588332673.453125
64.4,1588332673.46875
56.1,1588332673.484375
48.78,1588332673.5
43.26,1588332673.515625
39.53,1588332673.53125
36.85,1588332673.546875
34.19,1588332673.5625
30.78,1588332673.578125
26.44,1588332673.59375
21.49,1588332673.609375
16.55,1588332673.625
12.09,1588332673.640625
8.17,1588332673.65625
4.36,1588332673.671875
0.07,1588332673.6875
-5.19,1588332673.703125
-11.45,1588332673.71875
-18.24,1588332673.734375
-24.78,1588332673.75
-30.26,1588332673.765625
-34.22,1588332673.78125
-36.66,1588332673.796875
-38.1,1588332673.8125
-39.31,1588332673.828125
-41.06,1588332673.84375
-43.86,1588332673.859375
-47.75,1588332673.875
-52.34,1588332673.890625
-56.82,1588332673.90625
-60.31,1588332673.921875
-62.11,1588332673.9375
-62.0,1588332673.953125
-60.33,1588332673.96875
-57.97,1588332673.984375
-56.0,1588332674.0
-55.5,1588332674.015625
-57.35,1588332674.03125
-62.05,1588332674.046875
-69.44,1588332674.0625
-78.36,1588332674.078125
-86.39,1588332674.09375
-90.12,1588332674.109375
-86.13,1588332674.125
-72.28,1588332674.140625
-48.87,1588332674.15625
-18.86,1588332674.171875
12.98,1588332674.1875
41.8,1588332674.203125
64.29,1588332674.21875
79.51,1588332674.234375
88.56,1588332674.25
93.49,1588332674.265625
96.06,1588332674.28125
97.16,1588332674.296875
96.86,1588332674.3125
95.04,1588332674.328125
91.9,1588332674.34375
88.16,1588332674.359375
84.69,1588332674.375
82.12,1588332674.390625
80.52,1588332674.40625
79.47,1588332674.421875
78.25,1588332674.4375
76.35,1588332674.453125
73.64,1588332674.46875
70.48,1588332674.484375
67.43,1588332674.5
64.92,1588332674.515625
62.96,1588332674.53125
60.97,1588332674.546875
58.05,1588332674.5625
53.32,1588332674.578125
46.37,1588332674.59375
37.6,1588332674.609375
28.1,1588332674.625
19.32,1588332674.640625
12.43,1588332674.65625
7.84,1588332674.671875
5.01,1588332674.6875
2.63,1588332674.703125
-0.71,1588332674.71875
-5.89,1588332674.734375
-12.93,1588332674.75
-20.97,1588332674.765625
-28.76,1588332674.78125
-35.16,1588332674.796875
-39.67,1588332674.8125
-42.51,1588332674.828125
-44.57,1588332674.84375
-47.01,1588332674.859375
-51.08,1588332674.875
-57.7,1588332674.890625
-67.19,1588332674.90625
-78.79,1588332674.921875
-90.43,1588332674.9375
-98.87,1588332674.953125
-100.57,1588332674.96875
-92.95,1588332674.984375
-75.53,1588332675.0
-50.45,1588332675.015625
-21.9,1588332675.03125
5.4,1588332675.046875
27.75,1588332675.0625
43.55,1588332675.078125
53.33,1588332675.09375
58.86,1588332675.109375
62.01,1588332675.125
63.97,1588332675.140625
65.0,1588332675.15625
64.9,1588332675.171875
63.53,1588332675.1875
61.16,1588332675.203125
58.49,1588332675.21875
56.27,1588332675.234375
55.02,1588332675.25
54.77,1588332675.265625
55.13,1588332675.28125
55.57,1588332675.296875
55.69,1588332675.3125
55.41,1588332675.328125
54.82,1588332675.34375
54.1,1588332675.359375
53.21,1588332675.375
51.93,1588332675.390625
49.96,1588332675.40625
47.11,1588332675.421875
43.5,1588332675.4375
39.38,1588332675.453125
35.06,1588332675.46875
30.67,1588332675.484375
26.22,1588332675.5
21.73,1588332675.515625
17.41,1588332675.53125
13.63,1588332675.546875
10.74,1588332675.5625
8.84,1588332675.578125
7.59,1588332675.59375
6.26,1588332675.609375
4.11,1588332675.625
0.78,1588332675.640625
-3.47,1588332675.65625
-7.81,1588332675.671875
-11.17,1588332675.6875
-12.78,1588332675.703125
-12.45,1588332675.71875
-10.65,1588332675.734375
-8.25,1588332675.75
-6.24,1588332675.765625
-5.3,1588332675.78125
-5.82,1588332675.796875
-7.83,1588332675.8125
-10.98,1588332675.828125
-14.31,1588332675.84375
-16.14,1588332675.859375
-14.26,1588332675.875
-6.52,1588332675.890625
8.18,1588332675.90625
29.06,1588332675.921875
53.35,1588332675.9375
76.98,1588332675.953125
95.9,1588332675.96875
107.42,1588332675.984375
110.92,1588332676.0
107.69,1588332676.015625
100.12,1588332676.03125
90.69,1588332676.046875
81.2,1588332676.0625
72.44,1588332676.078125
64.4,1588332676.09375
56.62,1588332676.109375
48.72,1588332676.125
40.65,1588332676.140625
32.58,1588332676.15625
24.66,1588332676.171875
16.78,1588332676.1875
8.65,1588332676.203125
0.57,1588332676.21875
-5.86,1588332676.234375
-7.55,1588332676.25
-0.94,1588332676.265625
16.02,1588332676.28125
41.98,1588332676.296875
71.51,1588332676.3125
96.46,1588332676.328125
108.74,1588332676.34375
103.17,1588332676.359375
79.06,1588332676.375
39.74,1588332676.390625
-9.13,1588332676.40625
-61.62,1588332676.421875
-112.65,1588332676.4375
-158.27,1588332676.453125
-195.45,1588332676.46875
-222.04,1588332676.484375
-237.21,1588332676.5
-241.89,1588332676.515625
-238.76,1588332676.53125
-231.5,1588332676.546875
-223.59,1588332676.5625
-217.18,1588332676.578125
-212.68,1588332676.59375
-209.13,1588332676.609375
-205.01,1588332676.625
-199.13,1588332676.640625
-191.16,1588332676.65625
-181.79,1588332676.671875
-172.49,1588332676.6875
-165.04,1588332676.703125
-161.01,1588332676.71875
-161.01,1588332676.734375
-164.15,1588332676.75
-167.7,1588332676.765625
-167.4,1588332676.78125
-158.63,1588332676.796875
-138.06,1588332676.8125
-105.23,1588332676.828125
-63.21,1588332676.84375
-17.82,1588332676.859375
24.32,1588332676.875
58.06,1588332676.890625
81.21,1588332676.90625
94.67,1588332676.921875
101.25,1588332676.9375
103.98,1588332676.953125
104.89,1588332676.96875
104.72,1588332676.984375
103.41,1588332677.0
100.96,1588332677.015625
97.84,1588332677.03125
94.87,1588332677.046875
92.7,1588332677.0625
91.43,1588332677.078125
90.49,1588332677.09375
89.03,1588332677.109375
86.39,1588332677.125
82.51,1588332677.140625
77.96,1588332677.15625
73.64,1588332677.171875
70.28,1588332677.1875
67.98,1588332677.203125
66.12,1588332677.21875
63.65,1588332677.234375
59.58,1588332677.25
53.5,1588332677.265625
45.86,1588332677.28125
37.79,1588332677.296875
30.65,1588332677.3125
25.41,1588332677.328125
22.27,1588332677.34375
20.58,1588332677.359375
19.12,1588332677.375
16.69,1588332677.390625
12.6,1588332677.40625
6.95,1588332677.421875
0.49,1588332677.4375
-5.7,1588332677.453125
-10.73,1588332677.46875
-14.22,1588332677.484375
-16.43,1588332677.5
-18.2,1588332677.515625
-20.59,1588332677.53125
-24.62,1588332677.546875
-30.94,1588332677.5625
-39.55,1588332677.578125
-49.44,1588332677.59375
-58.64,1588332677.609375
-64.5,1588332677.625
-64.5,1588332677.640625
-57.24,1588332677.65625
-43.1,1588332677.671875
-24.37,1588332677.6875
-4.43,1588332677.703125
13.38,1588332677.71875
26.9,1588332677.734375
35.64,1588332677.75
40.47,1588332677.765625
42.83,1588332677.78125
43.93,1588332677.796875
44.33,1588332677.8125
44.14,1588332677.828125
43.36,1588332677.84375
42.2,1588332677.859375
41.13,1588332677.875
40.6,1588332677.890625
40.81,1588332677.90625
41.57,1588332677.921875
42.39,1588332677.9375
42.78,1588332677.953125
42.5,1588332677.96875
41.55,1588332677.984375
40.13,1588332678.0
38.42,1588332678.015625
36.4,1588332678.03125
33.86,1588332678.046875
30.39,1588332678.0625
25.66,1588332678.078125
19.48,1588332678.09375
12.03,1588332678.109375
3.84,1588332678.125
-4.22,1588332678.140625
-11.21,1588332678.15625
-16.37,1588332678.171875
-19.46,1588332678.1875
-20.9,1588332678.203125
-21.65,1588332678.21875
-22.88,1588332678.234375
-25.45,1588332678.25
-29.52,1588332678.265625
-34.48,1588332678.28125
-39.21,1588332678.296875
-42.66,1588332678.3125
-44.3,1588332678.328125
-44.35,1588332678.34375
-43.73,1588332678.359375
-43.61,1588332678.375
-45.09,1588332678.390625
-48.85,1588332678.40625
-54.93,1588332678.421875
-62.51,1588332678.4375
-69.92,1588332678.453125
-74.71,1588332678.46875
-74.33,1588332678.484375
-67.05,1588332678.5
-52.78,1588332678.515625
-33.41,1588332678.53125
-12.38,1588332678.546875
6.55,1588332678.5625
20.59,1588332678.578125
28.75,1588332678.59375
31.84,1588332678.609375
31.67,1588332678.625
30.07,1588332678.640625
28.12,1588332678.65625
26.1,1588332678.671875
23.85,1588332678.6875
21.23,1588332678.703125
18.48,1588332678.71875
16.06,1588332678.734375
14.4,1588332678.75
13.6,1588332678.765625
13.34,1588332678.78125
13.1,1588332678.796875
12.38,1588332678.8125
11.04,1588332678.828125
9.35,1588332678.84375
7.79,1588332678.859375
6.75,1588332678.875
6.29,1588332678.890625
6.03,1588332678.90625
5.41,1588332678.921875
3.99,1588332678.9375
1.74,1588332678.953125
-0.92,1588332678.96875
-3.34,1588332678.984375
-4.99,1588332679.0
-5.69,1588332679.015625
-5.71,1588332679.03125
-5.66,1588332679.046875
-6.13,1588332679.0625
-7.49,1588332679.078125
-9.69,1588332679.09375
-12.3,1588332679.109375
-14.74,1588332679.125
-16.57,1588332679.140625
-17.68,1588332679.15625
-18.38,1588332679.171875
-19.33,1588332679.1875
-21.32,1588332679.203125
-25.02,1588332679.21875
-30.7,1588332679.234375
-37.95,1588332679.25
-45.51,1588332679.265625
-51.46,1588332679.28125
-53.62,1588332679.296875
-50.26,1588332679.3125
-40.83,1588332679.328125
-26.27,1588332679.34375
-8.89,1588332679.359375
8.41,1588332679.375
23.0,1588332679.390625
33.39,1588332679.40625
39.47,1588332679.421875
42.18,1588332679.4375
42.92,1588332679.453125
42.86,1588332679.46875
42.58,1588332679.484375
42.06,1588332679.5
41.05,1588332679.515625
39.37,1588332679.53125
37.14,1588332679.546875
34.77,1588332679.5625
32.69,1588332679.578125
31.18,1588332679.59375
30.22,1588332679.609375
29.54,1588332679.625
28.93,1588332679.640625
28.26,1588332679.65625
27.61,1588332679.671875
27.09,1588332679.6875
26.63,1588332679.703125
25.94,1588332679.71875
24.66,1588332679.734375
22.46,1588332679.75
19.33,1588332679.765625
15.55,1588332679.78125
11.55,1588332679.796875
7.72,1588332679.8125
4.25,1588332679.828125
1.16,1588332679.84375
-1.61,1588332679.859375
-4.08,1588332679.875
-6.17,1588332679.890625
-7.75,1588332679.90625
-8.74,1588332679.921875
-9.29,1588332679.9375
-9.75,1588332679.953125
-10.72,1588332679.96875
