PPG GREEN,time
2063489.0,1588332603.694
2065377.0,1588332603.734
2066710.0,1588332603.775
2065991.0,1588332603.815
2064596.0,1588332603.854
2063233.0,1588332603.893
2062354.0,1588332603.934
2062493.0,1588332603.974
2062944.0,1588332604.013
2063875.0,1588332604.055
2064798.0,1588332604.094
2065935.0,1588332604.134
2066907.0,1588332604.176
2068071.0,1588332604.215
2069531.0,1588332604.255
2071051.0,1588332604.294
2072614.0,1588332604.333
2074240.0,1588332604.374
2075940.0,1588332604.415
2077718.0,1588332604.454
2079250.0,1588332604.494
2081300.0,1588332604.535
2083498.0,1588332604.575
2086793.0,1588332604.615
2089842.0,1588332604.654
2091848.0,1588332604.693
2094195.0,1588332604.734
2096959.0,1588332604.776
2099526.0,1588332604.814
2102376.0,1588332604.854
2105088.0,1588332604.896
2107467.0,1588332604.935
2109828.0,1588332604.976
2111871.0,1588332605.015
2114056.0,1588332605.054
2116228.0,1588332605.094
2118087.0,1588332605.135
2120045.0,1588332605.175
2121806.0,1588332605.215
2123326.0,1588332605.256
2124814.0,1588332605.295
2126145.0,1588332605.335
2127145.0,1588332605.377
2128841.0,1588332605.414
2130190.0,1588332605.454
2130464.0,1588332605.495
2130621.0,1588332605.535
2131432.0,1588332605.576
2132370.0,1588332605.616
2133457.0,1588332605.655
2134419.0,1588332605.696
2135308.0,1588332605.737
2136689.0,1588332605.775
2137803.0,1588332605.815
2138871.0,1588332605.856
2139866.0,1588332605.896
2141207.0,1588332605.935
2142994.0,1588332605.977
2144589.0,1588332606.016
2145973.0,1588332606.056
2146862.0,1588332606.097
2147535.0,1588332606.134
2148357.0,1588332606.175
2148619.0,1588332606.216
2147081.0,1588332606.255
2146148.0,1588332606.295
2145816.0,1588332606.337
2145570.0,1588332606.377
2145681.0,1588332606.416
2145900.0,1588332606.457
2146186.0,1588332606.497
2146239.0,1588332606.535
2146227.0,1588332606.577
2146690.0,1588332606.615
2147328.0,1588332606.655
2148053.0,1588332606.697
2148869.0,1588332606.736
2149623.0,1588332606.777
2150054.0,1588332606.818
2150689.0,1588332606.857
2151314.0,1588332606.895
2152277.0,1588332606.936
2152189.0,1588332606.976
2150802.0,1588332607.016
2149147.0,1588332607.057
2147723.0,1588332607.096
2147069.0,1588332607.136
2147419.0,1588332607.178
2147640.0,1588332607.217
2147982.0,1588332607.257
2148046.0,1588332607.296
2148296.0,1588332607.335
2150653.0,1588332607.417
2153022.0,1588332607.496
2151987.0,1588332607.456
2149235.0,1588332607.376
2153963.0,1588332607.538
2154693.0,1588332607.578
2155649.0,1588332607.617
2156040.0,1588332607.658
2156613.0,1588332607.696
2157255.0,1588332607.736
2157837.0,1588332607.778
2157093.0,1588332607.816
2155281.0,1588332607.857
2153924.0,1588332607.898
2153336.0,1588332607.937
2153430.0,1588332607.978
2154144.0,1588332608.019
2155689.0,1588332608.056
2156940.0,1588332608.096
2157779.0,1588332608.137
2158834.0,1588332608.177
2160062.0,1588332608.217
2160867.0,1588332608.258
2162410.0,1588332608.297
2163985.0,1588332608.338
2165965.0,1588332608.38
2168574.0,1588332608.418
2174868.0,1588332608.456
2182063.0,1588332608.497
2187602.0,1588332608.537
2190309.0,1588332608.578
2191485.0,1588332608.618
2192648.0,1588332608.657
2190005.0,1588332608.698
2185234.0,1588332608.739
2180700.0,1588332608.779
2177367.0,1588332608.816
2175388.0,1588332608.858
2174373.0,1588332608.897
2173481.0,1588332608.937
2171692.0,1588332609.018
2172835.0,1588332608.979
2170931.0,1588332609.099
2170751.0,1588332609.138
2171435.0,1588332609.179
2171858.0,1588332609.218
2171160.0,1588332609.058
2172470.0,1588332609.297
2173532.0,1588332609.378
2172253.0,1588332609.257
2172800.0,1588332609.338
2174117.0,1588332609.418
2174655.0,1588332609.459
2175317.0,1588332609.498
2174554.0,1588332609.539
2172822.0,1588332609.581
2170817.0,1588332609.617
2169422.0,1588332609.657
2168151.0,1588332609.7
2167895.0,1588332609.738
2167958.0,1588332609.779
2168009.0,1588332609.82
2167989.0,1588332609.859
2167778.0,1588332609.899
2168249.0,1588332609.938
2168874.0,1588332609.978
2169276.0,1588332610.018
2169966.0,1588332610.059
2171019.0,1588332610.098
2171802.0,1588332610.138
2172770.0,1588332610.18
2173554.0,1588332610.219
2174697.0,1588332610.259
2175832.0,1588332610.301
2177088.0,1588332610.338
2177193.0,1588332610.379
2174838.0,1588332610.419
2172543.0,1588332610.458
2170584.0,1588332610.499
2169359.0,1588332610.54
2168910.0,1588332610.58
2169703.0,1588332610.619
2170253.0,1588332610.661
2170253.0,1588332610.7
2170484.0,1588332610.738
2170373.0,1588332610.78
2170619.0,1588332610.818
2170867.0,1588332610.859
2171393.0,1588332610.9
2171934.0,1588332610.939
2172636.0,1588332610.98
2173312.0,1588332611.021
2174049.0,1588332611.06
2174700.0,1588332611.1
2175530.0,1588332611.139
2175305.0,1588332611.179
2173097.0,1588332611.219
2170329.0,1588332611.26
2168283.0,1588332611.299
2166857.0,1588332611.339
2165933.0,1588332611.381
2165579.0,1588332611.42
2165142.0,1588332611.46
2164525.0,1588332611.501
2164146.0,1588332611.538
2163953.0,1588332611.579
2163756.0,1588332611.62
2163811.0,1588332611.659
2164432.0,1588332611.699
2166294.0,1588332611.741
2169378.0,1588332611.781
2171592.0,1588332611.82
2172980.0,1588332611.862
2174117.0,1588332611.899
2174792.0,1588332611.939
2172912.0,1588332611.981
2170416.0,1588332612.019
2167941.0,1588332612.06
2165076.0,1588332612.101
2162274.0,1588332612.14
2160520.0,1588332612.181
2159860.0,1588332612.222
2158695.0,1588332612.261
2157520.0,1588332612.299
2156519.0,1588332612.34
2156175.0,1588332612.38
2156206.0,1588332612.42
2156525.0,1588332612.461
2156863.0,1588332612.5
2157166.0,1588332612.541
2157745.0,1588332612.583
2158277.0,1588332612.621
2158929.0,1588332612.661
2159727.0,1588332612.7
2160224.0,1588332612.74
2158350.0,1588332612.781
2153992.0,1588332612.821
2149496.0,1588332612.86
2145362.0,1588332612.901
2141552.0,1588332612.942
2138641.0,1588332612.982
2136845.0,1588332613.022
2135489.0,1588332613.061
2133572.0,1588332613.1
2132331.0,1588332613.14
2131366.0,1588332613.182
2130433.0,1588332613.221
2130257.0,1588332613.261
2130150.0,1588332613.302
2130062.0,1588332613.341
2130021.0,1588332613.382
2130297.0,1588332613.421
2130991.0,1588332613.46
2131431.0,1588332613.5
2131927.0,1588332613.542
2131589.0,1588332613.582
2127261.0,1588332613.621
2122033.0,1588332613.662
2117532.0,1588332613.702
2113342.0,1588332613.742
2110118.0,1588332613.784
2107890.0,1588332613.82
2106680.0,1588332613.861
2105478.0,1588332613.902
2104316.0,1588332613.941
2103428.0,1588332613.982
2103206.0,1588332614.023
2103795.0,1588332614.062
2104476.0,1588332614.102
2105378.0,1588332614.143
2106771.0,1588332614.181
2107658.0,1588332614.221
2108447.0,1588332614.262
2109397.0,1588332614.301
2110200.0,1588332614.342
2111176.0,1588332614.384
2112087.0,1588332614.422
2109763.0,1588332614.462
2104698.0,1588332614.504
2100136.0,1588332614.543
2096225.0,1588332614.582
2093049.0,1588332614.622
2090931.0,1588332614.662
2089595.0,1588332614.702
2088394.0,1588332614.743
2087003.0,1588332614.783
2085858.0,1588332614.823
2085135.0,1588332614.864
2084673.0,1588332614.903
2084378.0,1588332614.943
2084128.0,1588332614.985
2084342.0,1588332615.023
2084594.0,1588332615.063
2084899.0,1588332615.104
2085559.0,1588332615.144
2085825.0,1588332615.185
2086670.0,1588332615.226
2087494.0,1588332615.264
2085365.0,1588332615.304
2080179.0,1588332615.346
2074971.0,1588332615.386
2070765.0,1588332615.425
2067167.0,1588332615.466
2064166.0,1588332615.506
2062808.0,1588332615.546
2061458.0,1588332615.588
2060008.0,1588332615.626
2058972.0,1588332615.667
2058567.0,1588332615.706
2058640.0,1588332615.745
2058871.0,1588332615.786
2059194.0,1588332615.827
2059680.0,1588332615.866
2060122.0,1588332615.906
2060813.0,1588332615.947
2061558.0,1588332615.987
2062211.0,1588332616.027
2063218.0,1588332616.066
2064272.0,1588332616.105
2063809.0,1588332616.146
2059736.0,1588332616.187
2055100.0,1588332616.226
2051674.0,1588332616.266
2048450.0,1588332616.308
2045969.0,1588332616.347
2044698.0,1588332616.388
2043933.0,1588332616.426
2043630.0,1588332616.465
2043246.0,1588332616.506
2043490.0,1588332616.547
2043846.0,1588332616.587
2044263.0,1588332616.627
2045016.0,1588332616.668
2046063.0,1588332616.707
2047232.0,1588332616.747
2048659.0,1588332616.789
2050166.0,1588332616.826
2051621.0,1588332616.866
2053465.0,1588332616.907
2055571.0,1588332616.946
2057943.0,1588332616.987
2058791.0,1588332617.028
2056851.0,1588332617.067
2054224.0,1588332617.107
2052248.0,1588332617.149
2050694.0,1588332617.187
2049107.0,1588332617.226
2048628.0,1588332617.267
2048802.0,1588332617.307
2048695.0,1588332617.347
2048718.0,1588332617.389
2048949.0,1588332617.427
2049236.0,1588332617.468
2049855.0,1588332617.509
2050629.0,1588332617.548
2051499.0,1588332617.587
2052472.0,1588332617.627
2053565.0,1588332617.667
2054492.0,1588332617.707
2055412.0,1588332617.748
2056640.0,1588332617.788
2057739.0,1588332617.828
2058887.0,1588332617.869
2060069.0,1588332617.908
2061445.0,1588332617.946
2061424.0,1588332617.988
2059075.0,1588332618.027
2056966.0,1588332618.067
2055105.0,1588332618.108
2053927.0,1588332618.148
2053276.0,1588332618.189
2053309.0,1588332618.229
2053521.0,1588332618.268
2054065.0,1588332618.309
2054233.0,1588332618.348
2054950.0,1588332618.388
2055954.0,1588332618.427
2057141.0,1588332618.468
2058259.0,1588332618.508
2059661.0,1588332618.548
2060795.0,1588332618.59
2062245.0,1588332618.628
2063738.0,1588332618.669
2064949.0,1588332618.71
2066539.0,1588332618.747
2067897.0,1588332618.788
2069002.0,1588332618.829
2068080.0,1588332618.868
2066487.0,1588332618.908
2065621.0,1588332618.949
2064876.0,1588332618.989
2064594.0,1588332619.029
2065341.0,1588332619.07
2066074.0,1588332619.107
2067644.0,1588332619.19
2066897.0,1588332619.148
2068813.0,1588332619.228
2071237.0,1588332619.31
2072603.0,1588332619.349
2069762.0,1588332619.268
2074423.0,1588332619.39
2075828.0,1588332619.43
2077679.0,1588332619.468
2079331.0,1588332619.508
2080669.0,1588332619.549
2082906.0,1588332619.629
2082364.0,1588332619.589
2081543.0,1588332619.67
2079884.0,1588332619.749
2079351.0,1588332619.828
2079780.0,1588332619.868
2080289.0,1588332619.709
2079452.0,1588332619.791
2080362.0,1588332619.909
2081071.0,1588332619.949
2082504.0,1588332620.03
2081629.0,1588332619.99
2083535.0,1588332620.069
2084429.0,1588332620.11
2085550.0,1588332620.151
2086513.0,1588332620.189
2087615.0,1588332620.228
2088766.0,1588332620.27
2089543.0,1588332620.309
2090931.0,1588332620.349
2093083.0,1588332620.43
2091852.0,1588332620.391
2093806.0,1588332620.47
2092712.0,1588332620.511
2091078.0,1588332620.548
2089871.0,1588332620.589
2088751.0,1588332620.63
2088217.0,1588332620.669
2087979.0,1588332620.709
2088304.0,1588332620.751
2088687.0,1588332620.791
2089057.0,1588332620.83
2089484.0,1588332620.872
2090217.0,1588332620.909
2090978.0,1588332620.949
2091993.0,1588332620.991
2092739.0,1588332621.029
2093647.0,1588332621.07
2094574.0,1588332621.111
2095564.0,1588332621.15
2096468.0,1588332621.191
2097366.0,1588332621.232
2098492.0,1588332621.269
2099645.0,1588332621.309
2099502.0,1588332621.35
2097953.0,1588332621.39
2096729.0,1588332621.43
2095529.0,1588332621.471
2094572.0,1588332621.51
2094122.0,1588332621.551
2094129.0,1588332621.593
2094236.0,1588332621.631
2094647.0,1588332621.669
2094945.0,1588332621.711
2095486.0,1588332621.75
2096068.0,1588332621.791
2096977.0,1588332621.832
2097865.0,1588332621.871
2098868.0,1588332621.911
2099570.0,1588332621.952
2100909.0,1588332621.992
2101846.0,1588332622.03
2103235.0,1588332622.071
2104350.0,1588332622.11
2105726.0,1588332622.151
2107014.0,1588332622.192
2106868.0,1588332622.231
2105648.0,1588332622.271
2104452.0,1588332622.312
2104121.0,1588332622.352
2103853.0,1588332622.39
2103949.0,1588332622.431
2104761.0,1588332622.47
2105557.0,1588332622.511
2105917.0,1588332622.552
2106461.0,1588332622.592
2107111.0,1588332622.631
2107931.0,1588332622.673
2108638.0,1588332622.712
2109338.0,1588332622.752
2110059.0,1588332622.792
2110868.0,1588332622.83
2111859.0,1588332622.871
2112283.0,1588332622.912
2113454.0,1588332622.951
2114197.0,1588332622.992
2115191.0,1588332623.033
2115953.0,1588332623.072
2115392.0,1588332623.112
2113559.0,1588332623.152
2111600.0,1588332623.191
2110321.0,1588332623.231
2109128.0,1588332623.272
2108452.0,1588332623.311
2108200.0,1588332623.352
2108207.0,1588332623.394
2107969.0,1588332623.432
2107865.0,1588332623.472
2108126.0,1588332623.512
2108593.0,1588332623.551
2109098.0,1588332623.592
2109437.0,1588332623.632
2110331.0,1588332623.672
2110878.0,1588332623.712
2111711.0,1588332623.753
2112460.0,1588332623.793
2113213.0,1588332623.833
2113910.0,1588332623.872
2114542.0,1588332623.911
2113203.0,1588332623.952
2110847.0,1588332623.993
2108747.0,1588332624.031
2107053.0,1588332624.071
2105405.0,1588332624.113
2104210.0,1588332624.152
2103967.0,1588332624.193
2103811.0,1588332624.233
2103484.0,1588332624.273
2103275.0,1588332624.313
2103128.0,1588332624.354
2103620.0,1588332624.392
2104176.0,1588332624.432
2104688.0,1588332624.473
2105511.0,1588332624.512
2106123.0,1588332624.553
2107106.0,1588332624.594
2107766.0,1588332624.633
2108515.0,1588332624.673
2109679.0,1588332624.714
2110533.0,1588332624.754
2109790.0,1588332624.792
2107353.0,1588332624.833
2104751.0,1588332624.872
2102723.0,1588332624.912
2100673.0,1588332624.954
2099024.0,1588332624.994
2098195.0,1588332625.033
2097933.0,1588332625.074
2097680.0,1588332625.114
2097399.0,1588332625.152
2097422.0,1588332625.194
2097878.0,1588332625.232
2098121.0,1588332625.273
2098928.0,1588332625.314
2099636.0,1588332625.353
2100555.0,1588332625.394
2101506.0,1588332625.435
2102211.0,1588332625.474
2103088.0,1588332625.514
2104049.0,1588332625.553
2104875.0,1588332625.593
2106003.0,1588332625.633
2107040.0,1588332625.674
2106959.0,1588332625.713
2104216.0,1588332625.754
2101113.0,1588332625.795
2098779.0,1588332625.834
2096239.0,1588332625.874
2094388.0,1588332625.913
2093073.0,1588332625.953
2092655.0,1588332625.994
2091934.0,1588332626.034
2091105.0,1588332626.073
2091007.0,1588332626.114
2091223.0,1588332626.155
2091330.0,1588332626.195
2091836.0,1588332626.234
2092227.0,1588332626.274
2092968.0,1588332626.313
2093498.0,1588332626.353
2094100.0,1588332626.395
2094953.0,1588332626.434
2095581.0,1588332626.474
2096431.0,1588332626.515
2097505.0,1588332626.555
2098293.0,1588332626.595
2098280.0,1588332626.634
2095739.0,1588332626.671
2092474.0,1588332626.711
2089786.0,1588332626.753
2087385.0,1588332626.792
2085696.0,1588332626.832
2084604.0,1588332626.873
2084240.0,1588332626.912
2083688.0,1588332626.952
2083043.0,1588332626.994
2082851.0,1588332627.032
2082888.0,1588332627.072
2083213.0,1588332627.113
2083691.0,1588332627.153
2084419.0,1588332627.194
2085241.0,1588332627.235
2085777.0,1588332627.273
2086756.0,1588332627.314
2087552.0,1588332627.355
2088765.0,1588332627.395
2088328.0,1588332627.515
2085157.0,1588332627.555
2089792.0,1588332627.434
2090464.0,1588332627.476
2082467.0,1588332627.597
2078344.0,1588332627.715
2080579.0,1588332627.636
2078878.0,1588332627.674
2078268.0,1588332627.754
2078035.0,1588332627.795
2077619.0,1588332627.836
2077549.0,1588332627.875
2077801.0,1588332627.915
2078416.0,1588332627.957
2079362.0,1588332627.997
2080270.0,1588332628.034
2081857.0,1588332628.115
2080904.0,1588332628.075
2082701.0,1588332628.155
2083557.0,1588332628.197
2084457.0,1588332628.235
2085708.0,1588332628.276
2084957.0,1588332628.317
2081275.0,1588332628.356
2077647.0,1588332628.397
2074689.0,1588332628.435
2072037.0,1588332628.475
2069881.0,1588332628.515
2068640.0,1588332628.556
2067986.0,1588332628.596
2067569.0,1588332628.636
2067115.0,1588332628.677
2066906.0,1588332628.716
2067267.0,1588332628.757
2067712.0,1588332628.798
2068368.0,1588332628.835
2068902.0,1588332628.875
2070529.0,1588332628.956
2069660.0,1588332628.916
2071250.0,1588332628.996
2072103.0,1588332629.037
2073101.0,1588332629.076
2074374.0,1588332629.116
2073746.0,1588332629.158
2070262.0,1588332629.198
2066483.0,1588332629.235
2063314.0,1588332629.276
2060422.0,1588332629.315
2057735.0,1588332629.356
2056382.0,1588332629.398
2055576.0,1588332629.436
2054777.0,1588332629.476
2054139.0,1588332629.518
2053773.0,1588332629.557
2053774.0,1588332629.596
2054143.0,1588332629.636
2054847.0,1588332629.676
2055512.0,1588332629.716
2056263.0,1588332629.757
2057151.0,1588332629.797
2058009.0,1588332629.837
2059216.0,1588332629.878
2060341.0,1588332629.917
2061285.0,1588332629.955
2062672.0,1588332629.997
2061141.0,1588332630.036
2057058.0,1588332630.076
2053631.0,1588332630.118
2050827.0,1588332630.157
2048290.0,1588332630.198
2046399.0,1588332630.238
2045707.0,1588332630.277
2045478.0,1588332630.316
2044831.0,1588332630.357
2044731.0,1588332630.397
2044465.0,1588332630.436
2045254.0,1588332630.478
2045970.0,1588332630.517
2046777.0,1588332630.557
2047556.0,1588332630.599
2048464.0,1588332630.638
2049770.0,1588332630.676
2050783.0,1588332630.717
2052017.0,1588332630.757
2053025.0,1588332630.798
2054429.0,1588332630.838
2055774.0,1588332630.877
2055642.0,1588332630.918
2052013.0,1588332630.959
2048257.0,1588332630.999
2045010.0,1588332631.036
2042340.0,1588332631.078
2040193.0,1588332631.117
2039259.0,1588332631.157
2038653.0,1588332631.199
2038146.0,1588332631.237
2037600.0,1588332631.278
2037950.0,1588332631.319
2038241.0,1588332631.358
2038987.0,1588332631.397
2039715.0,1588332631.438
2040463.0,1588332631.477
2041230.0,1588332631.517
2042203.0,1588332631.559
2043273.0,1588332631.598
2044357.0,1588332631.638
2045751.0,1588332631.679
2046940.0,1588332631.719
2045484.0,1588332631.759
2041354.0,1588332631.799
2037812.0,1588332631.837
2034906.0,1588332631.877
2032477.0,1588332631.919
2031089.0,1588332631.958
2030420.0,1588332631.999
2030403.0,1588332632.039
2029847.0,1588332632.079
2029427.0,1588332632.119
2029733.0,1588332632.158
2030209.0,1588332632.198
2031068.0,1588332632.238
2032100.0,1588332632.279
2033103.0,1588332632.318
2034243.0,1588332632.358
2035556.0,1588332632.4
2036694.0,1588332632.439
2038018.0,1588332632.479
2039450.0,1588332632.518
2038864.0,1588332632.558
2034519.0,1588332632.599
2030268.0,1588332632.639
2026697.0,1588332632.678
2023538.0,1588332632.719
2021090.0,1588332632.76
2019827.0,1588332632.8
2019180.0,1588332632.84
2018549.0,1588332632.879
2018048.0,1588332632.918
2018016.0,1588332632.958
2018522.0,1588332633.0
2019217.0,1588332633.039
2019952.0,1588332633.079
2020954.0,1588332633.12
2022096.0,1588332633.159
2023332.0,1588332633.2
2024435.0,1588332633.239
2025845.0,1588332633.278
2027245.0,1588332633.318
2028544.0,1588332633.36
2030115.0,1588332633.4
2026926.0,1588332633.48
2030653.0,1588332633.439
2018138.0,1588332633.56
2011525.0,1588332633.638
2009566.0,1588332633.679
2014622.0,1588332633.6
2022170.0,1588332633.52
2008620.0,1588332633.72
2007967.0,1588332633.759
2007340.0,1588332633.8
2007006.0,1588332633.841
2007460.0,1588332633.88
2008249.0,1588332633.959
2007663.0,1588332633.92
2009511.0,1588332633.999
2010579.0,1588332634.039
2011643.0,1588332634.08
2012951.0,1588332634.119
2014207.0,1588332634.16
2015671.0,1588332634.202
2017286.0,1588332634.24
2018718.0,1588332634.28
2020405.0,1588332634.32
2020166.0,1588332634.359
2016219.0,1588332634.4
2011791.0,1588332634.441
2008355.0,1588332634.48
2005400.0,1588332634.52
2003215.0,1588332634.561
2002311.0,1588332634.601
2002014.0,1588332634.641
2001600.0,1588332634.68
2001403.0,1588332634.719
2001520.0,1588332634.76
2001982.0,1588332634.802
2003051.0,1588332634.84
2003974.0,1588332634.88
2005143.0,1588332634.922
2006479.0,1588332634.961
2007886.0,1588332635.002
2009309.0,1588332635.04
2010743.0,1588332635.079
2012411.0,1588332635.12
2014315.0,1588332635.161
2016157.0,1588332635.201
2014989.0,1588332635.241
2011082.0,1588332635.282
2007461.0,1588332635.321
2004940.0,1588332635.361
2003034.0,1588332635.403
2001892.0,1588332635.44
2001672.0,1588332635.48
2001967.0,1588332635.521
2001826.0,1588332635.56
2002070.0,1588332635.601
2002624.0,1588332635.642
2003658.0,1588332635.681
2004865.0,1588332635.721
2006288.0,1588332635.763
2007505.0,1588332635.801
2009191.0,1588332635.84
2010662.0,1588332635.882
2012274.0,1588332635.921
2013775.0,1588332635.961
2015691.0,1588332636.003
2017472.0,1588332636.042
2016087.0,1588332636.082
2012337.0,1588332636.123
2009094.0,1588332636.16
2006851.0,1588332636.201
2004699.0,1588332636.242
2003475.0,1588332636.281
2003477.0,1588332636.321
2003626.0,1588332636.362
2003688.0,1588332636.402
2003801.0,1588332636.442
2004536.0,1588332636.483
2005428.0,1588332636.522
2006818.0,1588332636.56
2008237.0,1588332636.602
2009652.0,1588332636.641
2011004.0,1588332636.681
2012794.0,1588332636.723
2014395.0,1588332636.762
2016222.0,1588332636.803
2017875.0,1588332636.843
2019750.0,1588332636.883
2021604.0,1588332636.921
2022317.0,1588332636.962
2019627.0,1588332637.002
2016147.0,1588332637.042
2013576.0,1588332637.083
2011617.0,1588332637.122
2009939.0,1588332637.162
2009352.0,1588332637.204
2009356.0,1588332637.243
2009719.0,1588332637.281
2009843.0,1588332637.322
2010321.0,1588332637.362
2011200.0,1588332637.403
2012227.0,1588332637.443
2013590.0,1588332637.482
2015064.0,1588332637.523
2016711.0,1588332637.564
2018122.0,1588332637.604
2019844.0,1588332637.641
2021563.0,1588332637.683
2023414.0,1588332637.722
2025316.0,1588332637.762
2027202.0,1588332637.804
2027773.0,1588332637.843
2025679.0,1588332637.883
2021830.0,1588332637.963
2023471.0,1588332637.924
2020627.0,1588332638.002
2019915.0,1588332638.043
2020033.0,1588332638.082
2020699.0,1588332638.122
2021393.0,1588332638.164
2022125.0,1588332638.203
2023017.0,1588332638.243
2024238.0,1588332638.284
2025691.0,1588332638.324
2027053.0,1588332638.364
2028620.0,1588332638.404
2030103.0,1588332638.442
2031724.0,1588332638.482
2033266.0,1588332638.524
2035070.0,1588332638.563
2036921.0,1588332638.604
2038740.0,1588332638.644
2040437.0,1588332638.672
2042383.0,1588332638.712
2043276.0,1588332638.754
2041699.0,1588332638.793
2039928.0,1588332638.833
2038595.0,1588332638.874
2037895.0,1588332638.913
2037161.0,1588332638.953
2037380.0,1588332638.995
2037921.0,1588332639.033
2038142.0,1588332639.073
2038996.0,1588332639.114
2039545.0,1588332639.153
2040647.0,1588332639.194
2041838.0,1588332639.235
2043067.0,1588332639.274
2044497.0,1588332639.314
2045709.0,1588332639.356
2047330.0,1588332639.395
2048897.0,1588332639.435
2050408.0,1588332639.476
2052002.0,1588332639.515
2053711.0,1588332639.556
2055506.0,1588332639.596
2055490.0,1588332639.634
2054015.0,1588332639.675
2052846.0,1588332639.716
2052077.0,1588332639.755
2051766.0,1588332639.796
2052108.0,1588332639.837
2052529.0,1588332639.876
2053387.0,1588332639.916
2053785.0,1588332639.955
2054522.0,1588332639.995
2055412.0,1588332640.035
2056161.0,1588332640.076
2057555.0,1588332640.115
2058698.0,1588332640.155
2059948.0,1588332640.197
2061266.0,1588332640.236
2062503.0,1588332640.276
2063975.0,1588332640.315
2065388.0,1588332640.355
2066681.0,1588332640.396
2065707.0,1588332640.436
2064485.0,1588332640.475
2063611.0,1588332640.516
2063198.0,1588332640.557
2063156.0,1588332640.597
2063604.0,1588332640.636
2064484.0,1588332640.676
2064970.0,1588332640.715
2065545.0,1588332640.755
2066257.0,1588332640.797
2067362.0,1588332640.836
2068195.0,1588332640.876
2069446.0,1588332640.917
2070615.0,1588332640.956
2071776.0,1588332640.998
2072668.0,1588332641.036
2074087.0,1588332641.075
2075337.0,1588332641.115
2075797.0,1588332641.157
2074643.0,1588332641.197
2072964.0,1588332641.236
2071609.0,1588332641.277
2070639.0,1588332641.317
2070000.0,1588332641.357
2070162.0,1588332641.399
2070622.0,1588332641.435
2071027.0,1588332641.476
2071301.0,1588332641.517
2071625.0,1588332641.556
2072488.0,1588332641.597
2073596.0,1588332641.638
2074335.0,1588332641.677
2075466.0,1588332641.717
2076404.0,1588332641.758
2077474.0,1588332641.796
2078599.0,1588332641.836
2079627.0,1588332641.877
2080845.0,1588332641.916
2081511.0,1588332641.957
2079915.0,1588332641.999
2077918.0,1588332642.037
2076146.0,1588332642.077
2074949.0,1588332642.119
2073731.0,1588332642.156
2073378.0,1588332642.197
2073397.0,1588332642.237
2073618.0,1588332642.277
2073561.0,1588332642.317
2074033.0,1588332642.358
2074583.0,1588332642.398
2075337.0,1588332642.438
2076087.0,1588332642.479
2077186.0,1588332642.516
2078101.0,1588332642.556
2079011.0,1588332642.598
2080238.0,1588332642.637
2081431.0,1588332642.677
2082392.0,1588332642.718
2083604.0,1588332642.758
2083130.0,1588332642.839
2084464.0,1588332642.799
2081012.0,1588332642.876
2079330.0,1588332642.917
2077771.0,1588332642.958
2076725.0,1588332642.998
2076297.0,1588332643.037
2076577.0,1588332643.079
2076567.0,1588332643.118
2076530.0,1588332643.158
2076763.0,1588332643.2
2077302.0,1588332643.239
2078190.0,1588332643.277
2078815.0,1588332643.318
2079722.0,1588332643.357
2080684.0,1588332643.398
2081612.0,1588332643.439
2082655.0,1588332643.479
2083619.0,1588332643.519
2084710.0,1588332643.56
2086025.0,1588332643.6
2087566.0,1588332643.639
2088405.0,1588332643.68
2089393.0,1588332643.719
2088051.0,1588332643.759
2085875.0,1588332643.801
2084148.0,1588332643.839
2082828.0,1588332643.879
2081487.0,1588332643.921
2081038.0,1588332643.96
2081051.0,1588332644.0
2081320.0,1588332644.041
2081407.0,1588332644.08
2081535.0,1588332644.12
2082058.0,1588332644.161
2082790.0,1588332644.201
2083746.0,1588332644.24
2084622.0,1588332644.281
2085522.0,1588332644.32
2086368.0,1588332644.36
2087665.0,1588332644.402
2088708.0,1588332644.441
2089997.0,1588332644.481
2091193.0,1588332644.522
2092384.0,1588332644.561
2093571.0,1588332644.602
2093961.0,1588332644.642
2092167.0,1588332644.681
2090445.0,1588332644.721
2088835.0,1588332644.762
2087919.0,1588332644.802
2087054.0,1588332644.841
2087048.0,1588332644.883
2087330.0,1588332644.922
2087386.0,1588332644.962
2087437.0,1588332645.003
2087871.0,1588332645.042
2088614.0,1588332645.082
2089409.0,1588332645.123
2090283.0,1588332645.162
2091495.0,1588332645.203
2093538.0,1588332645.282
2095653.0,1588332645.364
2094446.0,1588332645.322
2092681.0,1588332645.243
2096759.0,1588332645.403
2098030.0,1588332645.443
2099009.0,1588332645.484
2097877.0,1588332645.523
2095927.0,1588332645.563
2094540.0,1588332645.605
2093645.0,1588332645.643
2093093.0,1588332645.683
2092984.0,1588332645.724
2093053.0,1588332645.763
2093346.0,1588332645.804
2093460.0,1588332645.845
2093861.0,1588332645.884
2094662.0,1588332645.924
2095293.0,1588332645.965
2096092.0,1588332646.005
2097005.0,1588332646.044
2098144.0,1588332646.085
2098930.0,1588332646.124
2100102.0,1588332646.164
2101085.0,1588332646.206
2102272.0,1588332646.245
2103573.0,1588332646.285
2103763.0,1588332646.326
2102099.0,1588332646.365
2099868.0,1588332646.406
2098146.0,1588332646.446
2096871.0,1588332646.485
2095555.0,1588332646.525
2095053.0,1588332646.566
2095135.0,1588332646.606
2094935.0,1588332646.646
2094885.0,1588332646.687
2095119.0,1588332646.726
2095461.0,1588332646.766
2096182.0,1588332646.808
2096993.0,1588332646.846
2097843.0,1588332646.886
2098722.0,1588332646.927
2099530.0,1588332646.966
2100700.0,1588332647.007
2101606.0,1588332647.048
2102631.0,1588332647.087
2103885.0,1588332647.127
2104062.0,1588332647.168
2101610.0,1588332647.208
2099456.0,1588332647.247
2097238.0,1588332647.288
2095349.0,1588332647.327
2093690.0,1588332647.367
2092870.0,1588332647.409
2092767.0,1588332647.448
2092358.0,1588332647.488
2092233.0,1588332647.529
2092351.0,1588332647.568
2092673.0,1588332647.609
2093159.0,1588332647.649
2093792.0,1588332647.688
2094661.0,1588332647.728
2095580.0,1588332647.769
2096368.0,1588332647.809
2097250.0,1588332647.849
2098224.0,1588332647.887
2099114.0,1588332647.927
2100258.0,1588332647.963
2101599.0,1588332648.002
2102286.0,1588332648.041
2100210.0,1588332648.081
2097450.0,1588332648.122
2095135.0,1588332648.161
2092881.0,1588332648.202
2091031.0,1588332648.243
2089883.0,1588332648.282
2089421.0,1588332648.322
2089106.0,1588332648.362
2088744.0,1588332648.402
2088612.0,1588332648.441
2088752.0,1588332648.482
2088968.0,1588332648.522
2089421.0,1588332648.562
2090136.0,1588332648.604
2090834.0,1588332648.642
2091527.0,1588332648.683
2092339.0,1588332648.722
2093211.0,1588332648.761
2094142.0,1588332648.802
2094961.0,1588332648.843
2096250.0,1588332648.882
2097209.0,1588332648.922
2098061.0,1588332648.964
2096257.0,1588332649.003
2093432.0,1588332649.043
2090712.0,1588332649.082
2088099.0,1588332649.121
2086020.0,1588332649.162
2084573.0,1588332649.204
2084094.0,1588332649.242
2083606.0,1588332649.282
2083142.0,1588332649.324
2082831.0,1588332649.363
2082958.0,1588332649.404
2083295.0,1588332649.443
2083851.0,1588332649.482
2084486.0,1588332649.522
2085066.0,1588332649.563
2086058.0,1588332649.603
2086585.0,1588332649.643
2087314.0,1588332649.684
2088110.0,1588332649.723
2089129.0,1588332649.763
2089984.0,1588332649.803
2090803.0,1588332649.842
2089354.0,1588332649.882
2085926.0,1588332649.924
2082732.0,1588332649.963
2080400.0,1588332650.004
2078041.0,1588332650.044
2076849.0,1588332650.083
2076366.0,1588332650.124
2075992.0,1588332650.163
2075467.0,1588332650.203
2075202.0,1588332650.242
2075571.0,1588332650.284
2075808.0,1588332650.323
2076742.0,1588332650.363
2077695.0,1588332650.405
2078970.0,1588332650.444
2079973.0,1588332650.484
2080957.0,1588332650.523
2081811.0,1588332650.562
2083168.0,1588332650.603
2084433.0,1588332650.644
2084601.0,1588332650.694
2082106.0,1588332650.734
2079006.0,1588332650.775
2076741.0,1588332650.815
2074489.0,1588332650.854
2073111.0,1588332650.895
2072931.0,1588332650.934
2072493.0,1588332650.975
2072243.0,1588332651.016
2071953.0,1588332651.055
2072060.0,1588332651.095
2072358.0,1588332651.136
2073198.0,1588332651.175
2073767.0,1588332651.216
2074509.0,1588332651.256
2075394.0,1588332651.295
2076334.0,1588332651.335
2077352.0,1588332651.376
2078407.0,1588332651.416
2079656.0,1588332651.455
2080485.0,1588332651.497
2078625.0,1588332651.536
2074845.0,1588332651.576
2071573.0,1588332651.617
2069091.0,1588332651.656
2066827.0,1588332651.696
2065275.0,1588332651.737
2064824.0,1588332651.776
2064289.0,1588332651.817
2063582.0,1588332651.857
2063306.0,1588332651.896
2063632.0,1588332651.936
2063851.0,1588332651.978
2064580.0,1588332652.017
2065326.0,1588332652.057
2066251.0,1588332652.098
2067128.0,1588332652.137
2068292.0,1588332652.177
2069354.0,1588332652.219
2070492.0,1588332652.257
2071520.0,1588332652.297
2071360.0,1588332652.338
2068031.0,1588332652.377
2064551.0,1588332652.418
2061395.0,1588332652.459
2058874.0,1588332652.498
2056580.0,1588332652.538
2055181.0,1588332652.579
2054752.0,1588332652.619
2054185.0,1588332652.658
2053525.0,1588332652.699
2053749.0,1588332652.738
2054078.0,1588332652.778
2054615.0,1588332652.82
2055371.0,1588332652.858
2056088.0,1588332652.898
2057212.0,1588332652.94
2058201.0,1588332652.979
2059379.0,1588332653.019
2060406.0,1588332653.06
2061680.0,1588332653.099
2063292.0,1588332653.139
2063291.0,1588332653.18
2060649.0,1588332653.22
2057058.0,1588332653.259
2054240.0,1588332653.3
2051797.0,1588332653.339
2049656.0,1588332653.379
2048305.0,1588332653.421
2048123.0,1588332653.46
2047654.0,1588332653.5
2047361.0,1588332653.541
2047158.0,1588332653.58
2047430.0,1588332653.621
2048233.0,1588332653.661
2048847.0,1588332653.7
2049985.0,1588332653.74
2050924.0,1588332653.781
2051765.0,1588332653.821
2053000.0,1588332653.861
2054230.0,1588332653.902
2055478.0,1588332653.941
2056917.0,1588332653.981
2058368.0,1588332654.023
2059469.0,1588332654.061
2058074.0,1588332654.101
2054656.0,1588332654.142
2051367.0,1588332654.181
2048899.0,1588332654.222
2047022.0,1588332654.262
2045500.0,1588332654.301
2045162.0,1588332654.342
2044762.0,1588332654.383
2044402.0,1588332654.422
2044299.0,1588332654.462
2044769.0,1588332654.503
2045353.0,1588332654.542
2046364.0,1588332654.582
2047143.0,1588332654.624
2048089.0,1588332654.662
2049359.0,1588332654.702
2050577.0,1588332654.743
2051470.0,1588332654.783
2052967.0,1588332654.823
2054416.0,1588332654.864
2055735.0,1588332654.903
2055209.0,1588332654.943
2052140.0,1588332654.984
2049001.0,1588332655.024
2046783.0,1588332655.063
2044950.0,1588332655.104
2043764.0,1588332655.143
2043508.0,1588332655.184
2043757.0,1588332655.225
2043516.0,1588332655.264
2043579.0,1588332655.304
2043694.0,1588332655.345
2044429.0,1588332655.384
2045240.0,1588332655.425
2046284.0,1588332655.465
2047528.0,1588332655.504
2048655.0,1588332655.544
2049998.0,1588332655.586
2050894.0,1588332655.625
2052217.0,1588332655.665
2053776.0,1588332655.706
2053402.0,1588332655.745
2050441.0,1588332655.785
2047095.0,1588332655.827
2044666.0,1588332655.865
2042828.0,1588332655.905
2041522.0,1588332655.947
2041258.0,1588332655.986
2040925.0,1588332656.026
2040783.0,1588332656.067
2040674.0,1588332656.106
2040753.0,1588332656.146
2041406.0,1588332656.187
2042210.0,1588332656.227
2043343.0,1588332656.266
2044282.0,1588332656.308
2045356.0,1588332656.347
2046196.0,1588332656.387
2047381.0,1588332656.429
2048375.0,1588332656.467
2049797.0,1588332656.507
2050927.0,1588332656.548
2051320.0,1588332656.587
2048497.0,1588332656.628
2044750.0,1588332656.669
2041336.0,1588332656.708
2038518.0,1588332656.748
2036223.0,1588332656.789
2034824.0,1588332656.829
2034286.0,1588332656.868
2033924.0,1588332656.909
2033601.0,1588332656.948
2033317.0,1588332656.988
2033804.0,1588332657.03
2034283.0,1588332657.069
2035140.0,1588332657.109
2036073.0,1588332657.15
2037052.0,1588332657.189
2038198.0,1588332657.23
2039331.0,1588332657.27
2040447.0,1588332657.309
2041920.0,1588332657.349
2043209.0,1588332657.39
2043390.0,1588332657.43
2040098.0,1588332657.47
2036433.0,1588332657.511
2033701.0,1588332657.55
2031448.0,1588332657.59
2029722.0,1588332657.632
2028895.0,1588332657.67
2028866.0,1588332657.71
2028626.0,1588332657.751
2028817.0,1588332657.79
2028864.0,1588332657.831
2029654.0,1588332657.872
2030538.0,1588332657.911
2031936.0,1588332657.951
2033780.0,1588332657.992
2035442.0,1588332658.032
2037225.0,1588332658.071
2038796.0,1588332658.112
2041001.0,1588332658.151
2043385.0,1588332658.191
2045938.0,1588332658.233
2049001.0,1588332658.272
2050635.0,1588332658.312
2049641.0,1588332658.353
2049426.0,1588332658.392
2050596.0,1588332658.433
2051615.0,1588332658.473
2055174.0,1588332658.512
2062552.0,1588332658.552
2066646.0,1588332658.593
2069151.0,1588332658.633
2070547.0,1588332658.673
2071685.0,1588332658.714
2072025.0,1588332658.753
2072122.0,1588332658.793
2072042.0,1588332658.835
2072099.0,1588332658.873
2072329.0,1588332658.913
2072714.0,1588332658.954
2073271.0,1588332658.994
2073802.0,1588332659.034
2073866.0,1588332659.075
2074031.0,1588332659.108
2073915.0,1588332659.148
2070750.0,1588332659.185
2065866.0,1588332659.222
2061830.0,1588332659.262
2058702.0,1588332659.303
2056359.0,1588332659.342
2054967.0,1588332659.383
2053964.0,1588332659.425
2053082.0,1588332659.463
2051929.0,1588332659.503
2051390.0,1588332659.545
2050988.0,1588332659.584
2051358.0,1588332659.623
2051917.0,1588332659.663
2052759.0,1588332659.702
2052995.0,1588332659.744
2053584.0,1588332659.784
2054379.0,1588332659.824
2055527.0,1588332659.863
2055859.0,1588332659.905
2053238.0,1588332659.944
2049049.0,1588332659.982
2045351.0,1588332660.024
2042256.0,1588332660.063
2039777.0,1588332660.103
2038236.0,1588332660.144
2037699.0,1588332660.183
2037005.0,1588332660.224
2036392.0,1588332660.265
2036190.0,1588332660.304
2036543.0,1588332660.342
2036861.0,1588332660.384
2037683.0,1588332660.424
2038414.0,1588332660.463
2039457.0,1588332660.504
2040503.0,1588332660.544
2041692.0,1588332660.584
2043083.0,1588332660.626
2043912.0,1588332660.664
2041379.0,1588332660.704
2037220.0,1588332660.746
2030568.0,1588332660.824
2033689.0,1588332660.783
2028149.0,1588332660.864
2026389.0,1588332660.904
2025705.0,1588332660.944
2025247.0,1588332660.985
2024489.0,1588332661.065
2024814.0,1588332661.025
2024871.0,1588332661.106
2025369.0,1588332661.143
2026044.0,1588332661.183
2027069.0,1588332661.225
2028030.0,1588332661.264
2029154.0,1588332661.304
2030170.0,1588332661.345
2031344.0,1588332661.384
2032857.0,1588332661.425
2034167.0,1588332661.466
2031392.0,1588332661.543
2034561.0,1588332661.503
2024117.0,1588332661.625
2027408.0,1588332661.585
2021310.0,1588332661.664
2017540.0,1588332661.745
2018568.0,1588332661.706
2017259.0,1588332661.785
2017011.0,1588332661.827
2016546.0,1588332661.863
2017231.0,1588332661.945
2018094.0,1588332661.984
2016770.0,1588332661.904
2019179.0,1588332662.025
2020208.0,1588332662.066
2021334.0,1588332662.105
2023968.0,1588332662.187
2022501.0,1588332662.145
2025398.0,1588332662.224
2026685.0,1588332662.264
2028329.0,1588332662.305
2027181.0,1588332662.344
2023307.0,1588332662.385
2019779.0,1588332662.427
2017204.0,1588332662.465
2015010.0,1588332662.505
2013831.0,1588332662.547
2013821.0,1588332662.586
2013749.0,1588332662.625
2013820.0,1588332662.665
2013986.0,1588332662.692
2014608.0,1588332662.732
2015381.0,1588332662.774
2016848.0,1588332662.813
2018168.0,1588332662.853
2020024.0,1588332662.894
2022313.0,1588332662.933
2024060.0,1588332662.973
2025752.0,1588332663.015
2027723.0,1588332663.053
2028660.0,1588332663.093
2025911.0,1588332663.134
2022510.0,1588332663.174
2019983.0,1588332663.215
2018243.0,1588332663.256
2017080.0,1588332663.294
2016919.0,1588332663.334
2017266.0,1588332663.376
2017476.0,1588332663.416
2017699.0,1588332663.455
2018140.0,1588332663.496
2019095.0,1588332663.536
2020524.0,1588332663.576
2021947.0,1588332663.618
2023146.0,1588332663.656
2024742.0,1588332663.697
2026217.0,1588332663.736
2027579.0,1588332663.775
2029477.0,1588332663.816
2031102.0,1588332663.857
2032415.0,1588332663.896
2030354.0,1588332663.936
2026742.0,1588332663.978
2024191.0,1588332664.017
2022248.0,1588332664.057
2020637.0,1588332664.096
2019789.0,1588332664.135
2020198.0,1588332664.176
2020489.0,1588332664.218
2020787.0,1588332664.256
2021312.0,1588332664.296
2022180.0,1588332664.338
2023292.0,1588332664.377
2024777.0,1588332664.418
2026445.0,1588332664.456
2027994.0,1588332664.496
2029556.0,1588332664.536
2031248.0,1588332664.577
2032800.0,1588332664.617
2034636.0,1588332664.657
2035148.0,1588332664.698
2032619.0,1588332664.737
2030200.0,1588332664.777
2027850.0,1588332664.817
2026528.0,1588332664.856
2025614.0,1588332664.896
2025464.0,1588332664.937
2025918.0,1588332664.977
2026218.0,1588332665.018
2026739.0,1588332665.058
2027732.0,1588332665.097
2028677.0,1588332665.138
2029904.0,1588332665.177
2031499.0,1588332665.217
2032984.0,1588332665.256
2034450.0,1588332665.298
2036158.0,1588332665.337
2037961.0,1588332665.377
2039605.0,1588332665.419
2041393.0,1588332665.457
2043251.0,1588332665.498
2043925.0,1588332665.539
2042170.0,1588332665.576
2039931.0,1588332665.617
2038122.0,1588332665.658
2036884.0,1588332665.697
2036289.0,1588332665.737
2036264.0,1588332665.778
2036683.0,1588332665.818
2037039.0,1588332665.858
2037795.0,1588332665.899
2038483.0,1588332665.936
2039588.0,1588332665.977
2040948.0,1588332666.019
2042280.0,1588332666.057
2043692.0,1588332666.097
2045274.0,1588332666.139
2046801.0,1588332666.178
2048570.0,1588332666.219
2049977.0,1588332666.259
2051713.0,1588332666.299
2053541.0,1588332666.337
2055249.0,1588332666.378
2054682.0,1588332666.418
2052781.0,1588332666.457
2051315.0,1588332666.499
2050509.0,1588332666.538
2049836.0,1588332666.578
2049772.0,1588332666.62
2050567.0,1588332666.659
2051117.0,1588332666.699
2051812.0,1588332666.738
2052477.0,1588332666.777
2053573.0,1588332666.818
2054800.0,1588332666.859
2056348.0,1588332666.898
2057637.0,1588332666.938
2059133.0,1588332666.98
2060595.0,1588332667.02
2062253.0,1588332667.059
2063724.0,1588332667.098
2065652.0,1588332667.137
2066587.0,1588332667.178
2065671.0,1588332667.22
2064037.0,1588332667.258
2063135.0,1588332667.298
2062582.0,1588332667.34
2062664.0,1588332667.379
2063452.0,1588332667.42
2064067.0,1588332667.459
2064948.0,1588332667.498
2065581.0,1588332667.538
2066418.0,1588332667.579
2067520.0,1588332667.619
2068847.0,1588332667.659
2070329.0,1588332667.7
2071807.0,1588332667.739
2073133.0,1588332667.779
2074684.0,1588332667.82
2076185.0,1588332667.858
2077229.0,1588332667.898
2076432.0,1588332667.94
2075422.0,1588332667.979
2075074.0,1588332668.02
2074944.0,1588332668.06
2075212.0,1588332668.1
2076142.0,1588332668.14
2076951.0,1588332668.179
2077381.0,1588332668.219
2077990.0,1588332668.258
2078685.0,1588332668.3
2079710.0,1588332668.339
2081046.0,1588332668.379
2082238.0,1588332668.421
2083511.0,1588332668.46
2084802.0,1588332668.5
2085939.0,1588332668.541
2087428.0,1588332668.578
2087516.0,1588332668.619
2086342.0,1588332668.66
2085393.0,1588332668.699
2085021.0,1588332668.739
2085189.0,1588332668.781
2085893.0,1588332668.82
2086497.0,1588332668.86
2087203.0,1588332668.902
2087651.0,1588332668.939
2088446.0,1588332668.979
2089357.0,1588332669.021
2090392.0,1588332669.059
2091588.0,1588332669.099
2092706.0,1588332669.141
2093935.0,1588332669.18
2095276.0,1588332669.221
2096753.0,1588332669.262
2097457.0,1588332669.301
2096794.0,1588332669.339
2095598.0,1588332669.38
2094515.0,1588332669.42
2094001.0,1588332669.46
2093747.0,1588332669.501
2093878.0,1588332669.54
2094322.0,1588332669.58
2094991.0,1588332669.622
2095172.0,1588332669.661
2096109.0,1588332669.701
2096724.0,1588332669.74
2097700.0,1588332669.779
2098884.0,1588332669.82
2099948.0,1588332669.861
2100901.0,1588332669.9
2101894.0,1588332669.941
2103215.0,1588332669.982
2104331.0,1588332670.022
2105518.0,1588332670.061
2106668.0,1588332670.1
2107680.0,1588332670.14
2106884.0,1588332670.18
2105161.0,1588332670.222
2103590.0,1588332670.26
2102453.0,1588332670.301
2101387.0,1588332670.342
2101122.0,1588332670.381
2101379.0,1588332670.422
2101478.0,1588332670.461
2101789.0,1588332670.5
2102075.0,1588332670.54
2102691.0,1588332670.581
2103426.0,1588332670.621
2104135.0,1588332670.661
2105019.0,1588332670.702
2105860.0,1588332670.741
2106863.0,1588332670.782
2108040.0,1588332670.822
2108914.0,1588332670.86
2110145.0,1588332670.9
2111324.0,1588332670.942
2111996.0,1588332670.981
2110819.0,1588332671.022
2109333.0,1588332671.063
2106926.0,1588332671.142
2107868.0,1588332671.102
2106221.0,1588332671.181
2105910.0,1588332671.221
2106292.0,1588332671.261
2106559.0,1588332671.302
2106441.0,1588332671.341
2107037.0,1588332671.381
2107529.0,1588332671.423
2108344.0,1588332671.462
2109912.0,1588332671.543
2111921.0,1588332671.621
2111059.0,1588332671.58
2108979.0,1588332671.502
2112976.0,1588332671.662
2115474.0,1588332671.741
2118681.0,1588332671.862
2113966.0,1588332671.701
2117059.0,1588332671.783
2118539.0,1588332671.823
2118645.0,1588332671.904
2117755.0,1588332671.941
2116922.0,1588332671.981
2116886.0,1588332672.023
2117503.0,1588332672.061
2118663.0,1588332672.102
2121383.0,1588332672.143
2124402.0,1588332672.182
2128938.0,1588332672.223
2135384.0,1588332672.264
2139556.0,1588332672.303
2141199.0,1588332672.341
2142591.0,1588332672.382
2143939.0,1588332672.422
2144929.0,1588332672.462
2145688.0,1588332672.503
2146662.0,1588332672.542
2147714.0,1588332672.582
2148839.0,1588332672.624
2149818.0,1588332672.663
2150972.0,1588332672.703
2151203.0,1588332672.742
2149825.0,1588332672.782
2147889.0,1588332672.823
2146634.0,1588332672.863
2145781.0,1588332672.902
2145587.0,1588332672.943
2145381.0,1588332672.984
2145612.0,1588332673.024
2146204.0,1588332673.062
2146445.0,1588332673.103
2147053.0,1588332673.142
2147749.0,1588332673.182
2148233.0,1588332673.224
2148643.0,1588332673.263
2148666.0,1588332673.303
2148991.0,1588332673.344
2149447.0,1588332673.383
2149812.0,1588332673.424
2150517.0,1588332673.463
2151262.0,1588332673.502
2152259.0,1588332673.542
2152929.0,1588332673.584
2152394.0,1588332673.623
2151233.0,1588332673.663
2150209.0,1588332673.704
2149417.0,1588332673.744
2148895.0,1588332673.784
2148608.0,1588332673.824
2149025.0,1588332673.862
2148964.0,1588332673.903
2149037.0,1588332673.944
2149199.0,1588332673.983
2149798.0,1588332674.024
2150361.0,1588332674.065
2151071.0,1588332674.104
2152039.0,1588332674.144
2152723.0,1588332674.183
2153787.0,1588332674.223
2154654.0,1588332674.263
2155414.0,1588332674.304
2156382.0,1588332674.343
2157289.0,1588332674.384
2158046.0,1588332674.426
2159129.0,1588332674.464
2159942.0,1588332674.504
2159243.0,1588332674.546
2158050.0,1588332674.583
2157427.0,1588332674.624
2156855.0,1588332674.664
2156726.0,1588332674.702
2156744.0,1588332674.742
2156851.0,1588332674.784
2156939.0,1588332674.823
2157005.0,1588332674.863
2157463.0,1588332674.904
2158030.0,1588332674.943
2158895.0,1588332675.024
2159951.0,1588332675.103
2161395.0,1588332675.184
2161926.0,1588332675.225
2162980.0,1588332675.265
2159655.0,1588332675.063
2158726.0,1588332674.983
2160907.0,1588332675.144
2163693.0,1588332675.304
2164381.0,1588332675.344
2165336.0,1588332675.426
2165280.0,1588332675.386
2162987.0,1588332675.506
2164114.0,1588332675.465
2162016.0,1588332675.546
2161434.0,1588332675.586
2160450.0,1588332675.666
2160705.0,1588332675.628
2160437.0,1588332675.704
2160254.0,1588332675.746
2160377.0,1588332675.785
2160561.0,1588332675.826
2160658.0,1588332675.867
2161449.0,1588332675.946
2161992.0,1588332675.987
2162364.0,1588332676.027
2163131.0,1588332676.065
2163746.0,1588332676.106
2164272.0,1588332676.145
2165874.0,1588332676.227
2166160.0,1588332676.266
2165084.0,1588332676.306
2161081.0,1588332675.906
2165016.0,1588332676.185
2163514.0,1588332676.347
2161477.0,1588332676.428
2160192.0,1588332676.505
2162242.0,1588332676.387
2160507.0,1588332676.466
2160120.0,1588332676.545
2159920.0,1588332676.587
2159457.0,1588332676.627
2159714.0,1588332676.666
2160345.0,1588332676.707
2160817.0,1588332676.747
2162021.0,1588332676.787
2164366.0,1588332676.827
2166790.0,1588332676.866
2168578.0,1588332676.906
2170452.0,1588332676.947
2172307.0,1588332676.986
2174064.0,1588332677.027
2175851.0,1588332677.068
2176319.0,1588332677.107
2178134.0,1588332677.147
2181862.0,1588332677.187
2183804.0,1588332677.226
2184629.0,1588332677.266
2184590.0,1588332677.307
2184799.0,1588332677.347
2184561.0,1588332677.387
2184059.0,1588332677.429
2183213.0,1588332677.467
2182420.0,1588332677.507
2182467.0,1588332677.549
2182446.0,1588332677.586
2182809.0,1588332677.627
2182930.0,1588332677.667
2183142.0,1588332677.707
2183458.0,1588332677.747
2183596.0,1588332677.788
2183938.0,1588332677.828
2184598.0,1588332677.868
2185100.0,1588332677.907
2184290.0,1588332677.946
2182188.0,1588332677.987
2179915.0,1588332678.029
2178145.0,1588332678.067
2176420.0,1588332678.107
2175178.0,1588332678.149
2174514.0,1588332678.188
2173642.0,1588332678.229
2172831.0,1588332678.267
2172173.0,1588332678.307
2172015.0,1588332678.347
2171944.0,1588332678.388
2172270.0,1588332678.428
2172556.0,1588332678.468
2172903.0,1588332678.509
2173167.0,1588332678.548
2173444.0,1588332678.588
2174013.0,1588332678.628
2174378.0,1588332678.667
2174333.0,1588332678.707
2172046.0,1588332678.748
2168930.0,1588332678.788
2166432.0,1588332678.828
2164241.0,1588332678.869
2162234.0,1588332678.908
2160809.0,1588332678.949
2159923.0,1588332678.988
2159156.0,1588332679.028
2158273.0,1588332679.067
2157485.0,1588332679.109
2157223.0,1588332679.148
2157254.0,1588332679.188
2157281.0,1588332679.23
2157702.0,1588332679.269
2157890.0,1588332679.309
2158371.0,1588332679.35
2158670.0,1588332679.387
2158987.0,1588332679.428
2159565.0,1588332679.469
2160264.0,1588332679.508
2160597.0,1588332679.548
2157946.0,1588332679.589
2154296.0,1588332679.629
2151020.0,1588332679.669
2148067.0,1588332679.71
2145306.0,1588332679.747
2143385.0,1588332679.788
2142099.0,1588332679.83
2140992.0,1588332679.868
2139843.0,1588332679.908
2139283.0,1588332679.95
2138700.0,1588332679.989
2138424.0,1588332680.03
2138409.0,1588332680.071
2138538.0,1588332680.108
2138710.0,1588332680.148
2139018.0,1588332680.189
2139282.0,1588332680.229
2139671.0,1588332680.269
2140159.0,1588332680.31
2140651.0,1588332680.349
2141280.0,1588332680.39
2141969.0,1588332680.431
2139558.0,1588332680.47
2135187.0,1588332680.508
2131445.0,1588332680.549
2128205.0,1588332680.588
2125238.0,1588332680.629
2123162.0,1588332680.67
2121930.0,1588332680.709
2120808.0,1588332680.75
2119474.0,1588332680.791
2118843.0,1588332680.831
2118257.0,1588332680.868
2118217.0,1588332680.91
2118227.0,1588332680.949
2118682.0,1588332680.989
2118848.0,1588332681.031
2119402.0,1588332681.069
2119744.0,1588332681.11
2120550.0,1588332681.151
2121105.0,1588332681.19
2121680.0,1588332681.231
2121113.0,1588332681.27
2117400.0,1588332681.309
2113255.0,1588332681.349
2110204.0,1588332681.39
2107345.0,1588332681.43
2105138.0,1588332681.47
2103780.0,1588332681.511
2103179.0,1588332681.55
2102371.0,1588332681.591
2101747.0,1588332681.631
2101345.0,1588332681.669
2101519.0,1588332681.709
2102054.0,1588332681.751
2102255.0,1588332681.79
2103215.0,1588332681.831
2103898.0,1588332681.872
2104494.0,1588332681.911
2105364.0,1588332681.951
2106127.0,1588332681.99
2106979.0,1588332682.03
2108065.0,1588332682.07
2107906.0,1588332682.111
2104054.0,1588332682.15
2100114.0,1588332682.19
2097240.0,1588332682.232
2094435.0,1588332682.271
2092279.0,1588332682.311
2091473.0,1588332682.352
2090466.0,1588332682.389
2089633.0,1588332682.43
2089202.0,1588332682.471
2088817.0,1588332682.51
2089008.0,1588332682.55
2089437.0,1588332682.592
2090197.0,1588332682.632
2090711.0,1588332682.671
2091423.0,1588332682.712
2092068.0,1588332682.75
2092843.0,1588332682.79
2093745.0,1588332682.832
2094856.0,1588332682.87
2095696.0,1588332682.911
2093228.0,1588332682.952
2089050.0,1588332682.991
2085451.0,1588332683.032
2082800.0,1588332683.073
2080578.0,1588332683.11
2078735.0,1588332683.15
2077982.0,1588332683.191
2077409.0,1588332683.231
2076580.0,1588332683.271
2076110.0,1588332683.312
2076047.0,1588332683.351
2076559.0,1588332683.392
2077137.0,1588332683.434
2077745.0,1588332683.472
2078189.0,1588332683.51
2079231.0,1588332683.551
2079749.0,1588332683.591
2080723.0,1588332683.632
2081743.0,1588332683.672
2082718.0,1588332683.711
2081991.0,1588332683.752
2077689.0,1588332683.793
2073367.0,1588332683.833
2069826.0,1588332683.87
2066763.0,1588332683.912
2064460.0,1588332683.951
2063037.0,1588332683.991
2062297.0,1588332684.033
2061505.0,1588332684.072
2060924.0,1588332684.112
2060685.0,1588332684.153
2060896.0,1588332684.192
2061699.0,1588332684.233
2062271.0,1588332684.272
2063022.0,1588332684.311
2063684.0,1588332684.351
2064692.0,1588332684.392
2065824.0,1588332684.432
2066820.0,1588332684.472
2067916.0,1588332684.513
2069202.0,1588332684.552
2068065.0,1588332684.593
2063652.0,1588332684.635
2059812.0,1588332684.671
2056552.0,1588332684.711
2053658.0,1588332684.753
2051649.0,1588332684.792
2050718.0,1588332684.833
2049840.0,1588332684.874
2049294.0,1588332684.913
2049113.0,1588332684.953
2049029.0,1588332684.992
2049631.0,1588332685.032
2050167.0,1588332685.072
2051138.0,1588332685.113
2056659.0,1588332685.313
2052248.0,1588332685.152
2055699.0,1588332685.273
2054415.0,1588332685.235
2053289.0,1588332685.193
2058134.0,1588332685.354
2058863.0,1588332685.392
2055527.0,1588332685.433
2051238.0,1588332685.473
2047874.0,1588332685.512
2045184.0,1588332685.553
2042913.0,1588332685.594
2041664.0,1588332685.634
2041365.0,1588332685.673
2040926.0,1588332685.715
2040525.0,1588332685.752
2040702.0,1588332685.792
2041067.0,1588332685.834
2041893.0,1588332685.873
2042602.0,1588332685.913
2043702.0,1588332685.954
2044731.0,1588332685.993
2045890.0,1588332686.034
2046945.0,1588332686.075
2048220.0,1588332686.112
2049484.0,1588332686.152
2050882.0,1588332686.194
2052306.0,1588332686.234
2052436.0,1588332686.273
2048674.0,1588332686.314
2044111.0,1588332686.354
2041045.0,1588332686.394
2038643.0,1588332686.436
2036598.0,1588332686.474
2035828.0,1588332686.512
2035606.0,1588332686.554
2035195.0,1588332686.593
2034931.0,1588332686.634
2035116.0,1588332686.674
2035643.0,1588332686.713
2036662.0,1588332686.754
2037457.0,1588332686.795
2038670.0,1588332686.834
2040085.0,1588332686.874
2041062.0,1588332686.915
2042330.0,1588332686.954
2043702.0,1588332686.994
2044949.0,1588332687.036
2043204.0,1588332687.074
2039122.0,1588332687.114
2036065.0,1588332687.155
2034023.0,1588332687.195
2032390.0,1588332687.236
2032135.0,1588332687.276
2032503.0,1588332687.315
2032536.0,1588332687.355
2032728.0,1588332687.397
2033035.0,1588332687.437
2034250.0,1588332687.476
2035747.0,1588332687.517
2037597.0,1588332687.557
2039301.0,1588332687.597
2042552.0,1588332687.637
2046768.0,1588332687.675
2050997.0,1588332687.716
2057265.0,1588332687.757
2064509.0,1588332687.796
2065376.0,1588332687.837
2062704.0,1588332687.878
2060446.0,1588332687.917
2058536.0,1588332687.957
2056457.0,1588332687.997
2055322.0,1588332688.036
2054622.0,1588332688.076
2054171.0,1588332688.117
2053746.0,1588332688.156
2053775.0,1588332688.197
2054486.0,1588332688.239
2055094.0,1588332688.277
2055904.0,1588332688.317
2056935.0,1588332688.359
2057913.0,1588332688.396
2058860.0,1588332688.437
2060255.0,1588332688.477
2061289.0,1588332688.516
2062811.0,1588332688.557
2062243.0,1588332688.598
2058518.0,1588332688.638
2054276.0,1588332688.678
2051242.0,1588332688.719
2049044.0,1588332688.756
2047002.0,1588332688.796
2046062.0,1588332688.838
2045711.0,1588332688.877
2045495.0,1588332688.917
2045010.0,1588332688.958
2045368.0,1588332688.998
2045775.0,1588332689.039
2046704.0,1588332689.079
2047655.0,1588332689.116
2048806.0,1588332689.157
2049937.0,1588332689.198
2051249.0,1588332689.238
2052431.0,1588332689.277
2053814.0,1588332689.319
2053947.0,1588332689.358
2050176.0,1588332689.398
2046190.0,1588332689.44
2043226.0,1588332689.478
2040842.0,1588332689.517
2038858.0,1588332689.558
2038225.0,1588332689.597
2038104.0,1588332689.638
2037751.0,1588332689.679
2037655.0,1588332689.718
2038031.0,1588332689.759
2038743.0,1588332689.799
2039932.0,1588332689.839
2041205.0,1588332689.877
2042350.0,1588332689.918
2046320.0,1588332689.998
2044088.0,1588332689.957
2049002.0,1588332690.04
2051872.0,1588332690.078
2055168.0,1588332690.118
2059380.0,1588332690.16
2062883.0,1588332690.199
2062830.0,1588332690.24
2061029.0,1588332690.278
2059282.0,1588332690.317
2057739.0,1588332690.358
2055889.0,1588332690.399
2055184.0,1588332690.439
2054989.0,1588332690.478
2054498.0,1588332690.52
2054308.0,1588332690.559
2054218.0,1588332690.599
2054620.0,1588332690.641
2055292.0,1588332690.677
2056066.0,1588332690.718
2057045.0,1588332690.759
2057894.0,1588332690.798
2059072.0,1588332690.839
2060018.0,1588332690.88
2061318.0,1588332690.919
2062553.0,1588332690.959
2063517.0,1588332691.001
2061775.0,1588332691.038
2057988.0,1588332691.078
2055081.0,1588332691.119
2052892.0,1588332691.159
2051115.0,1588332691.199
2050440.0,1588332691.241
2050201.0,1588332691.279
2050278.0,1588332691.319
2050224.0,1588332691.361
2050413.0,1588332691.4
2050966.0,1588332691.439
2051925.0,1588332691.479
2052882.0,1588332691.518
2054213.0,1588332691.559
2055582.0,1588332691.6
2056648.0,1588332691.64
2058036.0,1588332691.68
2059513.0,1588332691.721
2061233.0,1588332691.76
2061343.0,1588332691.8
2058585.0,1588332691.84
2055756.0,1588332691.879
2054023.0,1588332691.919
2053642.0,1588332691.96
2053996.0,1588332691.999
2055628.0,1588332692.04
2057634.0,1588332692.081
2060048.0,1588332692.12
2062965.0,1588332692.16
2065918.0,1588332692.2
2068386.0,1588332692.239
2070074.0,1588332692.279
2071745.0,1588332692.32
2073149.0,1588332692.36
2074508.0,1588332692.4
2075870.0,1588332692.442
2077164.0,1588332692.48
2078587.0,1588332692.521
2078987.0,1588332692.562
2076276.0,1588332692.599
2073367.0,1588332692.64
2071057.0,1588332692.68
2069375.0,1588332692.72
2068145.0,1588332692.76
2067799.0,1588332692.801
2067650.0,1588332692.841
2067569.0,1588332692.881
2068126.0,1588332692.922
2068810.0,1588332692.959
2070023.0,1588332692.999
2070985.0,1588332693.041
2071900.0,1588332693.08
2073222.0,1588332693.12
2074267.0,1588332693.161
2075291.0,1588332693.201
2076549.0,1588332693.242
2078008.0,1588332693.282
2075534.0,1588332693.36
2078381.0,1588332693.319
2072024.0,1588332693.401
2069367.0,1588332693.441
2065099.0,1588332693.522
2067049.0,1588332693.48
2064291.0,1588332693.561
2064143.0,1588332693.601
2063676.0,1588332693.643
2063438.0,1588332693.682
2063550.0,1588332693.72
2064304.0,1588332693.761
2065033.0,1588332693.8
2065817.0,1588332693.841
2066965.0,1588332693.882
2068056.0,1588332693.921
2069494.0,1588332693.961
2070676.0,1588332694.003
2072242.0,1588332694.043
2074145.0,1588332694.121
2073724.0,1588332694.08
2071303.0,1588332694.16
2067941.0,1588332694.201
2065608.0,1588332694.243
2063586.0,1588332694.281
2062078.0,1588332694.321
2061671.0,1588332694.363
2061760.0,1588332694.402
2061865.0,1588332694.443
2062091.0,1588332694.481
2062298.0,1588332694.52
2063067.0,1588332694.561
2063964.0,1588332694.602
2065302.0,1588332694.642
2066210.0,1588332694.681
2067352.0,1588332694.723
2068445.0,1588332694.762
2069733.0,1588332694.802
2070923.0,1588332694.844
2072259.0,1588332694.881
2071976.0,1588332694.921
2068780.0,1588332694.962
2065629.0,1588332695.001
2062964.0,1588332695.042
2060992.0,1588332695.083
2059649.0,1588332695.122
2059291.0,1588332695.162
2058951.0,1588332695.204
2058894.0,1588332695.243
2059010.0,1588332695.281
2059490.0,1588332695.322
2060310.0,1588332695.361
2061189.0,1588332695.402
2062529.0,1588332695.444
2063675.0,1588332695.482
2064807.0,1588332695.522
2066078.0,1588332695.564
2067535.0,1588332695.603
2068964.0,1588332695.644
2070086.0,1588332695.682
2068394.0,1588332695.721
2065193.0,1588332695.762
2062772.0,1588332695.803
2061057.0,1588332695.843
2059450.0,1588332695.883
2059043.0,1588332695.924
2059041.0,1588332695.963
2058758.0,1588332696.003
2058761.0,1588332696.043
2059077.0,1588332696.082
2059751.0,1588332696.122
2060541.0,1588332696.163
2061772.0,1588332696.202
2062994.0,1588332696.243
2064366.0,1588332696.284
2067040.0,1588332696.363
2065529.0,1588332696.323
2069684.0,1588332696.443
2067591.0,1588332696.482
2068602.0,1588332696.403
2064551.0,1588332696.523
2062275.0,1588332696.563
2060596.0,1588332696.603
2059546.0,1588332696.645
2059488.0,1588332696.683
2059869.0,1588332696.724
2060022.0,1588332696.765
2060423.0,1588332696.802
2061160.0,1588332696.843
2062275.0,1588332696.884
2063269.0,1588332696.923
2064503.0,1588332696.963
2065689.0,1588332697.004
2066920.0,1588332697.044
2068329.0,1588332697.084
2069778.0,1588332697.125
2071633.0,1588332697.162
2073484.0,1588332697.203
2074019.0,1588332697.244
2071452.0,1588332697.283
2068774.0,1588332697.323
2066559.0,1588332697.364
2064903.0,1588332697.404
2063486.0,1588332697.445
2063173.0,1588332697.485
2063086.0,1588332697.524
2062670.0,1588332697.563
2062984.0,1588332697.604
2063213.0,1588332697.644
2064510.0,1588332697.683
2065708.0,1588332697.725
2066819.0,1588332697.764
2068021.0,1588332697.804
2068990.0,1588332697.846
2070570.0,1588332697.885
2071805.0,1588332697.923
2071883.0,1588332697.964
2068959.0,1588332698.003
2065845.0,1588332698.044
2063575.0,1588332698.085
2061345.0,1588332698.124
2059956.0,1588332698.164
2059606.0,1588332698.206
2059554.0,1588332698.246
2059543.0,1588332698.283
2059443.0,1588332698.324
2059941.0,1588332698.364
2060545.0,1588332698.404
2061508.0,1588332698.446
2062684.0,1588332698.484
2063848.0,1588332698.524
2064997.0,1588332698.566
2066185.0,1588332698.605
2067380.0,1588332698.646
2068825.0,1588332698.684
2069928.0,1588332698.72
2067766.0,1588332698.76
2064689.0,1588332698.802
2062039.0,1588332698.841
2060163.0,1588332698.881
2058385.0,1588332698.922
2058003.0,1588332698.961
2057970.0,1588332699.001
2057377.0,1588332699.043
2057286.0,1588332699.081
2057662.0,1588332699.121
2057964.0,1588332699.163
2058707.0,1588332699.202
2059749.0,1588332699.244
2060798.0,1588332699.285
2062030.0,1588332699.323
2063250.0,1588332699.363
2064434.0,1588332699.404
2066099.0,1588332699.444
2066513.0,1588332699.484
2064178.0,1588332699.525
2060921.0,1588332699.564
2058586.0,1588332699.604
2056678.0,1588332699.646
2055147.0,1588332699.685
2054962.0,1588332699.723
2055111.0,1588332699.764
2054666.0,1588332699.804
2054605.0,1588332699.845
2055156.0,1588332699.885
2055940.0,1588332699.925
2056672.0,1588332699.965
2057699.0,1588332700.006
2058977.0,1588332700.046
2060187.0,1588332700.083
2061628.0,1588332700.125
2063211.0,1588332700.164
2064809.0,1588332700.204
2064307.0,1588332700.246
2061152.0,1588332700.284
2058500.0,1588332700.325
2056555.0,1588332700.366
2055189.0,1588332700.405
2054635.0,1588332700.446
2054361.0,1588332700.485
2054489.0,1588332700.524
2054435.0,1588332700.564
2054770.0,1588332700.605
2055031.0,1588332700.645
2055673.0,1588332700.685
2056694.0,1588332700.726
2057903.0,1588332700.765
2058813.0,1588332700.806
2060098.0,1588332700.848
2061353.0,1588332700.884
2062568.0,1588332700.924
2061838.0,1588332700.966
2058874.0,1588332701.005
2055957.0,1588332701.046
2054059.0,1588332701.086
2052090.0,1588332701.126
2051299.0,1588332701.166
2050997.0,1588332701.207
2050832.0,1588332701.245
2050626.0,1588332701.285
2050697.0,1588332701.326
2051151.0,1588332701.365
2051930.0,1588332701.405
2052976.0,1588332701.447
2054090.0,1588332701.486
2055191.0,1588332701.526
2056395.0,1588332701.567
2057621.0,1588332701.606
2058939.0,1588332701.645
2059514.0,1588332701.686
2056937.0,1588332701.725
2053240.0,1588332701.765
2050430.0,1588332701.807
2048038.0,1588332701.846
2046085.0,1588332701.886
2045313.0,1588332701.927
2045108.0,1588332701.967
2045209.0,1588332702.005
2045021.0,1588332702.047
2045133.0,1588332702.085
2045615.0,1588332702.125
2046693.0,1588332702.167
2047696.0,1588332702.206
2048952.0,1588332702.247
2050192.0,1588332702.288
2051541.0,1588332702.327
2052896.0,1588332702.367
2051948.0,1588332702.406
2049586.0,1588332702.446
2047448.0,1588332702.486
2045723.0,1588332702.527
2044644.0,1588332702.566
2044672.0,1588332702.606
2045299.0,1588332702.648
2045648.0,1588332702.687
2046409.0,1588332702.727
2048947.0,1588332702.768
2053120.0,1588332702.805
2057137.0,1588332702.846
2061141.0,1588332702.887
2064399.0,1588332702.926
2066672.0,1588332702.967
2068422.0,1588332703.008
2069762.0,1588332703.048
2070871.0,1588332703.087
2071106.0,1588332703.129
2072053.0,1588332703.166
2072329.0,1588332703.206
2069378.0,1588332703.248
2065250.0,1588332703.286
2061749.0,1588332703.327
2058929.0,1588332703.368
2056615.0,1588332703.407
2055311.0,1588332703.448
2054742.0,1588332703.489
2054490.0,1588332703.528
2054249.0,1588332703.566
2054150.0,1588332703.607
2054313.0,1588332703.647
2055144.0,1588332703.687
2055821.0,1588332703.728
2056858.0,1588332703.767
2057765.0,1588332703.807
2058812.0,1588332703.849
2059901.0,1588332703.888
2061101.0,1588332703.926
2061906.0,1588332703.968
2060023.0,1588332704.007
2056599.0,1588332704.048
2054169.0,1588332704.088
2052188.0,1588332704.128
2050628.0,1588332704.168
2050208.0,1588332704.209
2050192.0,1588332704.249
2049957.0,1588332704.287
2049878.0,1588332704.328
2050227.0,1588332704.367
2051161.0,1588332704.407
2052020.0,1588332704.449
2053335.0,1588332704.488
2054659.0,1588332704.528
2055992.0,1588332704.569
2057427.0,1588332704.608
2058773.0,1588332704.649
2057906.0,1588332704.688
2055137.0,1588332704.727
2052894.0,1588332704.767
2051369.0,1588332704.809
2050113.0,1588332704.848
2049750.0,1588332704.888
2050156.0,1588332704.929
2050393.0,1588332704.969
2050708.0,1588332705.009
2051084.0,1588332705.049
2052040.0,1588332705.087
2053120.0,1588332705.128
2054170.0,1588332705.169
2055147.0,1588332705.208
2056597.0,1588332705.249
2058131.0,1588332705.29
2059159.0,1588332705.329
2060564.0,1588332705.369
2061725.0,1588332705.41
2060045.0,1588332705.448
2056850.0,1588332705.488
2054393.0,1588332705.529
2052479.0,1588332705.568
2050812.0,1588332705.608
2050335.0,1588332705.65
2050325.0,1588332705.689
2050620.0,1588332705.729
2050681.0,1588332705.77
2051125.0,1588332705.81
2051880.0,1588332705.848
2052788.0,1588332705.889
2053782.0,1588332705.928
2054906.0,1588332705.969
2056168.0,1588332706.01
2057657.0,1588332706.05
2058637.0,1588332706.089
2057385.0,1588332706.131
2054523.0,1588332706.17
2052137.0,1588332706.208
2050385.0,1588332706.25
2048819.0,1588332706.288
2048571.0,1588332706.329
2048678.0,1588332706.37
2049009.0,1588332706.409
2049204.0,1588332706.45
2049707.0,1588332706.491
2050472.0,1588332706.53
2051604.0,1588332706.57
2052818.0,1588332706.609
2054074.0,1588332706.649
2055452.0,1588332706.689
2057003.0,1588332706.73
2057992.0,1588332706.769
2059625.0,1588332706.809
2061097.0,1588332706.851
2061139.0,1588332706.89
2058223.0,1588332706.93
2055556.0,1588332706.97
2053657.0,1588332707.009
2052332.0,1588332707.05
2051514.0,1588332707.09
2051518.0,1588332707.129
2051475.0,1588332707.17
2051551.0,1588332707.211
2051970.0,1588332707.251
2052653.0,1588332707.291
2053466.0,1588332707.332
2054625.0,1588332707.369
2055903.0,1588332707.409
2057045.0,1588332707.451
2058699.0,1588332707.489
2059932.0,1588332707.53
2061102.0,1588332707.571
2062805.0,1588332707.61
2064154.0,1588332707.651
2063264.0,1588332707.692
2060499.0,1588332707.731
2058287.0,1588332707.769
2056601.0,1588332707.81
2055277.0,1588332707.85
2054696.0,1588332707.89
2054948.0,1588332707.931
2054881.0,1588332707.97
2055079.0,1588332708.011
2055443.0,1588332708.053
2056169.0,1588332708.091
2057005.0,1588332708.129
2058201.0,1588332708.171
2059282.0,1588332708.21
2060253.0,1588332708.251
2061531.0,1588332708.291
2062797.0,1588332708.331
2063722.0,1588332708.371
2062119.0,1588332708.412
2059109.0,1588332708.452
2057307.0,1588332708.49
2055852.0,1588332708.531
2055165.0,1588332708.57
2055024.0,1588332708.61
2055127.0,1588332708.652
2055067.0,1588332708.691
2055112.0,1588332708.731
2055812.0,1588332708.772
2056515.0,1588332708.812
2057300.0,1588332708.853
2058340.0,1588332708.891
2059445.0,1588332708.93
2060411.0,1588332708.97
2061430.0,1588332709.012
2062618.0,1588332709.052
2063546.0,1588332709.091
2061945.0,1588332709.132
2058689.0,1588332709.172
2056022.0,1588332709.212
2054375.0,1588332709.252
2052856.0,1588332709.29
2052368.0,1588332709.331
2052182.0,1588332709.372
2052041.0,1588332709.411
2052003.0,1588332709.452
2052326.0,1588332709.493
2053024.0,1588332709.532
2053637.0,1588332709.572
2054703.0,1588332709.612
2055583.0,1588332709.651
2056782.0,1588332709.691
2057705.0,1588332709.732
2058854.0,1588332709.771
2060177.0,1588332709.812
2060706.0,1588332709.854
2058022.0,1588332709.892
2054520.0,1588332709.933
2052142.0,1588332709.972
2049956.0,1588332710.011
2048182.0,1588332710.052
2047726.0,1588332710.093
2047182.0,1588332710.132
2047118.0,1588332710.172
2046894.0,1588332710.213
2047350.0,1588332710.253
2048546.0,1588332710.332
2047742.0,1588332710.293
2049414.0,1588332710.371
2052651.0,1588332710.492
2050550.0,1588332710.411
2051512.0,1588332710.453
2053740.0,1588332710.532
2053626.0,1588332710.573
2050808.0,1588332710.613
2047423.0,1588332710.654
2044764.0,1588332710.694
2042444.0,1588332710.733
2040800.0,1588332710.772
2040394.0,1588332710.811
2040180.0,1588332710.85
2040136.0,1588332710.889
2039713.0,1588332710.928
2040010.0,1588332710.967
2040959.0,1588332711.006
2041632.0,1588332711.045
2042501.0,1588332711.084
2043482.0,1588332711.123
2044607.0,1588332711.162
2045743.0,1588332711.201
2046910.0,1588332711.24
2048343.0,1588332711.279
2049442.0,1588332711.318
2050014.0,1588332711.357
2047175.0,1588332711.396
2043765.0,1588332711.435
2041356.0,1588332711.474
2038905.0,1588332711.513
2037196.0,1588332711.552
2036504.0,1588332711.591
2036332.0,1588332711.63
2036111.0,1588332711.669
2035812.0,1588332711.708
2036099.0,1588332711.747
2036551.0,1588332711.786
2037539.0,1588332711.825
2038434.0,1588332711.864
2039595.0,1588332711.903
2040912.0,1588332711.942
2042030.0,1588332711.981
2043497.0,1588332712.02
2044010.0,1588332712.059
2041882.0,1588332712.098
2038527.0,1588332712.137
2036388.0,1588332712.176
2034695.0,1588332712.215
2034008.0,1588332712.254
2034443.0,1588332712.293
2035202.0,1588332712.332
2036335.0,1588332712.372
2037616.0,1588332712.412
2039246.0,1588332712.452
2041092.0,1588332712.492
2043729.0,1588332712.532
2047123.0,1588332712.572
2050621.0,1588332712.612
2053037.0,1588332712.652
2054836.0,1588332712.692
2056056.0,1588332712.732
2057214.0,1588332712.772
2057663.0,1588332712.812
2055578.0,1588332712.852
2052083.0,1588332712.892
2049015.0,1588332712.932
2046498.0,1588332712.972
2044500.0,1588332713.012
2043647.0,1588332713.052
2043163.0,1588332713.092
2042947.0,1588332713.132
2042759.0,1588332713.172
2042979.0,1588332713.212
2043195.0,1588332713.252
2044072.0,1588332713.292
2044924.0,1588332713.332
2045653.0,1588332713.372
2046703.0,1588332713.412
2047964.0,1588332713.452
2048854.0,1588332713.492
2048175.0,1588332713.532
2045182.0,1588332713.572
2042500.0,1588332713.612
2039881.0,1588332713.652
2038086.0,1588332713.692
2036988.0,1588332713.732
2036927.0,1588332713.772
2036955.0,1588332713.812
2036973.0,1588332713.852
2037078.0,1588332713.892
2037781.0,1588332713.932
2038703.0,1588332713.972
2039979.0,1588332714.012
2040940.0,1588332714.052
2042026.0,1588332714.092
2043499.0,1588332714.132
2044858.0,1588332714.172
2046122.0,1588332714.212
2047450.0,1588332714.252
2046000.0,1588332714.292
2043161.0,1588332714.332
2040758.0,1588332714.372
2038570.0,1588332714.412
2036726.0,1588332714.452
2036147.0,1588332714.492
2036386.0,1588332714.532
2036900.0,1588332714.612
2036714.0,1588332714.572
2037510.0,1588332714.652
2038515.0,1588332714.692
2039731.0,1588332714.732
2040882.0,1588332714.772
2042418.0,1588332714.812
2044081.0,1588332714.852
2045362.0,1588332714.892
2047156.0,1588332714.932
2048645.0,1588332714.972
2050502.0,1588332715.012
2050908.0,1588332715.052
2049051.0,1588332715.092
2047124.0,1588332715.132
2045473.0,1588332715.172
2044250.0,1588332715.212
2043749.0,1588332715.252
2043841.0,1588332715.292
2044198.0,1588332715.332
2044706.0,1588332715.372
2045374.0,1588332715.412
2046351.0,1588332715.452
2047125.0,1588332715.492
2048555.0,1588332715.532
2049966.0,1588332715.572
2051455.0,1588332715.612
2052832.0,1588332715.652
2054405.0,1588332715.692
2056055.0,1588332715.732
2057609.0,1588332715.772
2059338.0,1588332715.812
2061035.0,1588332715.852
2061685.0,1588332715.892
2060211.0,1588332715.932
2058780.0,1588332715.972
2057906.0,1588332716.012
2057221.0,1588332716.052
2056902.0,1588332716.092
2057647.0,1588332716.132
2058419.0,1588332716.172
2058826.0,1588332716.212
2059301.0,1588332716.252
2060362.0,1588332716.292
2061555.0,1588332716.332
2062842.0,1588332716.372
2064106.0,1588332716.412
2065495.0,1588332716.452
2066818.0,1588332716.492
2068139.0,1588332716.532
2069763.0,1588332716.572
2070979.0,1588332716.612
2070704.0,1588332716.652
2069472.0,1588332716.692
2068530.0,1588332716.732
2068147.0,1588332716.772
2068015.0,1588332716.812
2068780.0,1588332716.852
2069307.0,1588332716.892
2070089.0,1588332716.932
2070665.0,1588332716.972
2072005.0,1588332717.012
2072843.0,1588332717.052
2074155.0,1588332717.092
2075577.0,1588332717.132
2077172.0,1588332717.172
2078222.0,1588332717.212
2079856.0,1588332717.252
2081320.0,1588332717.292
2082632.0,1588332717.332
2081538.0,1588332717.372
2080555.0,1588332717.412
2080003.0,1588332717.452
2079416.0,1588332717.492
2079427.0,1588332717.532
2079879.0,1588332717.572
2080765.0,1588332717.612
2081480.0,1588332717.652
2082074.0,1588332717.692
2083261.0,1588332717.732
2084640.0,1588332717.772
2085639.0,1588332717.812
2086979.0,1588332717.852
2088218.0,1588332717.892
2089554.0,1588332717.932
2090914.0,1588332717.972
2092240.0,1588332718.012
2093707.0,1588332718.052
2095011.0,1588332718.092
2094592.0,1588332718.132
2093212.0,1588332718.172
2092396.0,1588332718.212
2092000.0,1588332718.252
2091518.0,1588332718.292
2091860.0,1588332718.332
2092324.0,1588332718.372
2093072.0,1588332718.412
2093678.0,1588332718.452
2094375.0,1588332718.492
2095347.0,1588332718.532
2096385.0,1588332718.572
2097434.0,1588332718.612
2098738.0,1588332718.652
2099919.0,1588332718.692
2101177.0,1588332718.732
2102374.0,1588332718.772
2103670.0,1588332718.812
2104825.0,1588332718.852
2104232.0,1588332718.892
2103007.0,1588332718.932
2102242.0,1588332718.972
2101879.0,1588332719.012
2101656.0,1588332719.052
2101987.0,1588332719.092
2102480.0,1588332719.132
2103171.0,1588332719.172
2103725.0,1588332719.212
2104543.0,1588332719.252
2105291.0,1588332719.292
2106334.0,1588332719.332
2107628.0,1588332719.372
2108791.0,1588332719.412
2109738.0,1588332719.452
2110916.0,1588332719.492
2112118.0,1588332719.532
2113352.0,1588332719.572
2113459.0,1588332719.612
2112232.0,1588332719.652
2111137.0,1588332719.692
2110767.0,1588332719.732
2110232.0,1588332719.772
2110261.0,1588332719.812
2111288.0,1588332719.852
2112838.0,1588332719.972
2113523.0,1588332720.012
2111850.0,1588332719.892
2111831.0,1588332719.932
2114405.0,1588332720.052
2115475.0,1588332720.092
2116479.0,1588332720.132
2117932.0,1588332720.172
2118912.0,1588332720.212
2120072.0,1588332720.252
2121500.0,1588332720.292
2121776.0,1588332720.332
2121092.0,1588332720.372
2119665.0,1588332720.412
2119078.0,1588332720.452
2118548.0,1588332720.492
2118423.0,1588332720.532
2119062.0,1588332720.572
2119679.0,1588332720.612
2119897.0,1588332720.652
2120473.0,1588332720.692
2121390.0,1588332720.732
2122148.0,1588332720.772
2123190.0,1588332720.812
2124013.0,1588332720.852
2125052.0,1588332720.892
2126216.0,1588332720.932
2127297.0,1588332720.972
2128016.0,1588332721.012
2127621.0,1588332721.052
2126097.0,1588332721.092
2124882.0,1588332721.132
2124264.0,1588332721.172
2123829.0,1588332721.212
2123793.0,1588332721.252
2124002.0,1588332721.292
2124348.0,1588332721.332
2124438.0,1588332721.372
2125008.0,1588332721.412
2125550.0,1588332721.452
2126544.0,1588332721.492
2127428.0,1588332721.532
2128209.0,1588332721.572
2128986.0,1588332721.612
2130113.0,1588332721.652
2130640.0,1588332721.692
2129314.0,1588332721.732
2127262.0,1588332721.772
2125774.0,1588332721.812
2124450.0,1588332721.852
2123349.0,1588332721.892
2123031.0,1588332721.972
2122994.0,1588332721.932
2123036.0,1588332722.012
2122638.0,1588332722.052
2123122.0,1588332722.092
2123473.0,1588332722.132
2124114.0,1588332722.172
2125145.0,1588332722.212
2126120.0,1588332722.252
2126734.0,1588332722.292
2127621.0,1588332722.332
2128642.0,1588332722.372
2129215.0,1588332722.412
2125327.0,1588332722.492
2123117.0,1588332722.532
2121466.0,1588332722.572
2127812.0,1588332722.452
2120166.0,1588332722.612
2119249.0,1588332722.652
2119032.0,1588332722.74
2119249.0,1588332722.78
2119468.0,1588332722.821
2120263.0,1588332722.861
2121443.0,1588332722.9
2123321.0,1588332722.941
2124647.0,1588332722.98
2126784.0,1588332723.02
2129884.0,1588332723.062
2134168.0,1588332723.101
2136874.0,1588332723.141
2139012.0,1588332723.182
2139518.0,1588332723.221
2137941.0,1588332723.262
2135300.0,1588332723.302
2132673.0,1588332723.341
2130563.0,1588332723.381
2128508.0,1588332723.422
2127358.0,1588332723.462
2126874.0,1588332723.501
2126127.0,1588332723.543
2125723.0,1588332723.582
2125538.0,1588332723.622
2125581.0,1588332723.663
2125812.0,1588332723.702
2126152.0,1588332723.742
2126835.0,1588332723.783
2126954.0,1588332723.822
2127619.0,1588332723.863
2128289.0,1588332723.903
2128842.0,1588332723.942
2128249.0,1588332723.982
2125531.0,1588332724.023
2122527.0,1588332724.063
2120231.0,1588332724.103
2118215.0,1588332724.144
2116856.0,1588332724.183
2116047.0,1588332724.223
2115633.0,1588332724.265
2115061.0,1588332724.303
2114588.0,1588332724.384
2114660.0,1588332724.343
2115191.0,1588332724.423
2115713.0,1588332724.464
2116472.0,1588332724.544
2115755.0,1588332724.505
2117106.0,1588332724.584
2118049.0,1588332724.625
2118603.0,1588332724.664
2117377.0,1588332724.704
2114669.0,1588332724.745
2112006.0,1588332724.784
2109866.0,1588332724.824
2108210.0,1588332724.866
2108042.0,1588332724.904
2108146.0,1588332724.944
2108622.0,1588332724.986
2108866.0,1588332725.023
2109332.0,1588332725.064
2109948.0,1588332725.104
2110558.0,1588332725.143
2111439.0,1588332725.184
2113316.0,1588332725.265
2114383.0,1588332725.304
2115296.0,1588332725.346
2115054.0,1588332725.385
2112495.0,1588332725.225
2112171.0,1588332725.423
2109405.0,1588332725.465
2107214.0,1588332725.503
2105299.0,1588332725.544
2103876.0,1588332725.585
2103766.0,1588332725.624
2103884.0,1588332725.665
2103677.0,1588332725.706
2103642.0,1588332725.745
2104165.0,1588332725.825
2105154.0,1588332725.904
2103821.0,1588332725.783
2106272.0,1588332725.985
2105723.0,1588332725.945
2104412.0,1588332725.864
2107121.0,1588332726.025
2108035.0,1588332726.067
2105305.0,1588332726.143
2108003.0,1588332726.105
2101682.0,1588332726.185
2098508.0,1588332726.224
2095709.0,1588332726.265
2092296.0,1588332726.345
2091587.0,1588332726.385
2091010.0,1588332726.426
2090496.0,1588332726.466
2090327.0,1588332726.506
2093304.0,1588332726.306
2090461.0,1588332726.545
2090798.0,1588332726.584
2091301.0,1588332726.624
2091846.0,1588332726.666
2093118.0,1588332726.745
2092647.0,1588332726.705
2092082.0,1588332726.786
2088657.0,1588332726.826
2082085.0,1588332726.905
2085239.0,1588332726.867
2079430.0,1588332726.944
2077099.0,1588332727.026
2077778.0,1588332726.985
2076210.0,1588332727.105
2076723.0,1588332727.066
2076089.0,1588332727.147
2076125.0,1588332727.186
2076981.0,1588332727.266
2076314.0,1588332727.226
2077869.0,1588332727.304
2078826.0,1588332727.345
2079640.0,1588332727.386
2080759.0,1588332727.425
2081995.0,1588332727.466
2078365.0,1588332727.546
2081406.0,1588332727.507
2071860.0,1588332727.628
2074900.0,1588332727.586
2069206.0,1588332727.665
2067167.0,1588332727.705
2066693.0,1588332727.746
2066156.0,1588332727.785
2065461.0,1588332727.826
2065168.0,1588332727.868
2065394.0,1588332727.946
2065046.0,1588332727.906
2065967.0,1588332727.988
2067511.0,1588332728.066
2068434.0,1588332728.106
2066672.0,1588332728.025
2069494.0,1588332728.146
2071406.0,1588332728.227
2070262.0,1588332728.186
2070064.0,1588332728.267
2066508.0,1588332728.307
2063331.0,1588332728.348
2060423.0,1588332728.387
2058398.0,1588332728.425
2056796.0,1588332728.506
2057253.0,1588332728.467
2056428.0,1588332728.546
2055869.0,1588332728.587
2055536.0,1588332728.626
2055778.0,1588332728.667
2056244.0,1588332728.708
2056709.0,1588332728.747
2057613.0,1588332728.787
2058439.0,1588332728.826
2059558.0,1588332728.866
2060468.0,1588332728.906
2059181.0,1588332728.947
2055858.0,1588332728.987
2052606.0,1588332729.027
2050224.0,1588332729.069
2048200.0,1588332729.107
2047248.0,1588332729.147
2047202.0,1588332729.187
2046635.0,1588332729.226
2046403.0,1588332729.267
2046434.0,1588332729.307
2046540.0,1588332729.347
2047294.0,1588332729.387
2048213.0,1588332729.428
2049157.0,1588332729.468
2050062.0,1588332729.508
2052193.0,1588332729.586
2050170.0,1588332729.626
2051089.0,1588332729.549
2046543.0,1588332729.668
2043260.0,1588332729.707
2040437.0,1588332729.747
2038011.0,1588332729.788
2036842.0,1588332729.827
2036516.0,1588332729.868
2035988.0,1588332729.946
2036152.0,1588332729.987
2036346.0,1588332729.909
2036700.0,1588332730.028
2037411.0,1588332730.068
2038426.0,1588332730.107
2040767.0,1588332730.188
2041859.0,1588332730.228
2039573.0,1588332730.149
2043387.0,1588332730.27
2044525.0,1588332730.308
2043832.0,1588332730.347
2040294.0,1588332730.388
2036849.0,1588332730.427
2034128.0,1588332730.468
2031227.0,1588332730.509
2029384.0,1588332730.548
2028998.0,1588332730.588
2028943.0,1588332730.629
2028636.0,1588332730.669
2030908.0,1588332730.827
2028805.0,1588332730.709
2032061.0,1588332730.869
2029081.0,1588332730.748
2030075.0,1588332730.787
2034714.0,1588332730.948
2036146.0,1588332730.989
2037436.0,1588332731.029
2033297.0,1588332730.908
2040530.0,1588332731.108
2039054.0,1588332731.07
2035435.0,1588332731.188
2038975.0,1588332731.147
2032386.0,1588332731.229
2029994.0,1588332731.269
2027891.0,1588332731.308
2026773.0,1588332731.389
2026996.0,1588332731.429
2027358.0,1588332731.507
2026876.0,1588332731.35
2026897.0,1588332731.469
2028292.0,1588332731.548
2029161.0,1588332731.589
2031912.0,1588332731.669
2033098.0,1588332731.71
2034545.0,1588332731.749
2036039.0,1588332731.789
2030461.0,1588332731.628
2037692.0,1588332731.831
2039157.0,1588332731.868
2038474.0,1588332731.908
2035857.0,1588332731.949
2033255.0,1588332731.988
2031530.0,1588332732.029
2029718.0,1588332732.109
2029960.0,1588332732.149
2030094.0,1588332732.071
2030608.0,1588332732.228
2031106.0,1588332732.269
2032136.0,1588332732.309
2030330.0,1588332732.191
2034481.0,1588332732.389
2035918.0,1588332732.43
2033295.0,1588332732.349
2037459.0,1588332732.47
2038953.0,1588332732.51
2042266.0,1588332732.59
2040377.0,1588332732.551
2042566.0,1588332732.628
2040524.0,1588332732.67
2038455.0,1588332732.709
2037022.0,1588332732.749
2036097.0,1588332732.829
2036240.0,1588332732.79
2036824.0,1588332732.87
2038413.0,1588332732.988
2037865.0,1588332732.95
2041002.0,1588332733.07
2042291.0,1588332733.109
2037439.0,1588332732.911
2039435.0,1588332733.03
2043809.0,1588332733.15
2047288.0,1588332733.23
2045463.0,1588332733.19
2048734.0,1588332733.272
2050055.0,1588332733.31
2049138.0,1588332733.351
2047362.0,1588332733.39
2045275.0,1588332733.47
2045322.0,1588332733.55
2046120.0,1588332733.429
2044890.0,1588332733.51
2046140.0,1588332733.59
2046965.0,1588332733.631
2047758.0,1588332733.671
2049034.0,1588332733.711
2050751.0,1588332733.752
2053002.0,1588332733.789
2054848.0,1588332733.829
2057087.0,1588332733.871
2059242.0,1588332733.91
2061103.0,1588332733.95
2063412.0,1588332733.991
2065269.0,1588332734.03
2066205.0,1588332734.071
2064826.0,1588332734.112
2062820.0,1588332734.149
2061318.0,1588332734.189
2060074.0,1588332734.231
2058983.0,1588332734.271
2059051.0,1588332734.31
2059380.0,1588332734.351
2059566.0,1588332734.391
2060017.0,1588332734.431
2060529.0,1588332734.473
2061618.0,1588332734.511
2062748.0,1588332734.549
2065038.0,1588332734.63
2063862.0,1588332734.591
2066434.0,1588332734.671
2067450.0,1588332734.712
2068852.0,1588332734.751
2070478.0,1588332734.79
2069571.0,1588332734.868
2071023.0,1588332734.829
2067652.0,1588332734.907
2066448.0,1588332734.946
2065554.0,1588332734.985
2064736.0,1588332735.024
2064594.0,1588332735.063
2065124.0,1588332735.102
2065637.0,1588332735.141
2065796.0,1588332735.18
2066484.0,1588332735.219
2067547.0,1588332735.258
2069617.0,1588332735.336
2068604.0,1588332735.297
2071008.0,1588332735.375
2072047.0,1588332735.414
2073147.0,1588332735.453
2074077.0,1588332735.492
2073104.0,1588332735.531
2071474.0,1588332735.57
2070494.0,1588332735.609
2069768.0,1588332735.648
2069487.0,1588332735.726
2069036.0,1588332735.687
2070141.0,1588332735.765
2070676.0,1588332735.804
2071215.0,1588332735.843
2071860.0,1588332735.882
2072972.0,1588332735.921
2073977.0,1588332735.96
2075246.0,1588332735.999
2076519.0,1588332736.038
2077853.0,1588332736.077
2079124.0,1588332736.116
2080112.0,1588332736.155
2078204.0,1588332736.233
2076792.0,1588332736.273
2076166.0,1588332736.313
2075849.0,1588332736.353
2075947.0,1588332736.393
2076640.0,1588332736.433
2079631.0,1588332736.194
2078322.0,1588332736.553
2076997.0,1588332736.473
2077542.0,1588332736.513
2080245.0,1588332736.633
2079198.0,1588332736.593
2081524.0,1588332736.673
2082806.0,1588332736.713
2083923.0,1588332736.753
2084903.0,1588332736.793
2084464.0,1588332736.833
2083050.0,1588332736.873
2081252.0,1588332736.953
2080743.0,1588332736.993
2081870.0,1588332736.913
2081008.0,1588332737.033
2081488.0,1588332737.073
2081902.0,1588332737.113
2082447.0,1588332737.153
2083341.0,1588332737.193
2085116.0,1588332737.273
2084111.0,1588332737.233
2086085.0,1588332737.313
2087148.0,1588332737.353
2088235.0,1588332737.393
2088854.0,1588332737.433
2087690.0,1588332737.473
2086361.0,1588332737.513
2085405.0,1588332737.553
2084969.0,1588332737.593
2084976.0,1588332737.633
2085306.0,1588332737.673
2085884.0,1588332737.713
2086782.0,1588332737.793
2088575.0,1588332737.873
2087596.0,1588332737.833
2089609.0,1588332737.913
2090467.0,1588332737.953
2091743.0,1588332737.993
2092661.0,1588332738.033
2086342.0,1588332737.753
2091785.0,1588332738.073
2090056.0,1588332738.113
2088770.0,1588332738.153
2088036.0,1588332738.193
2087762.0,1588332738.233
2087935.0,1588332738.273
2088612.0,1588332738.313
2089065.0,1588332738.353
2089405.0,1588332738.393
2090234.0,1588332738.433
2090863.0,1588332738.473
2091968.0,1588332738.513
2093341.0,1588332738.553
2095417.0,1588332738.593
2097521.0,1588332738.633
2098322.0,1588332738.673
2097347.0,1588332738.713
2096452.0,1588332738.753
2095307.0,1588332738.793
2094785.0,1588332738.833
2094039.0,1588332738.873
2094424.0,1588332738.953
2094158.0,1588332738.913
2095174.0,1588332739.033
2095816.0,1588332739.073
2094876.0,1588332738.993
2096277.0,1588332739.113
2096992.0,1588332739.153
2098097.0,1588332739.193
2098644.0,1588332739.233
2099604.0,1588332739.273
2100616.0,1588332739.313
2101506.0,1588332739.353
2100564.0,1588332739.393
2098574.0,1588332739.433
2096917.0,1588332739.473
2095228.0,1588332739.513
2094213.0,1588332739.553
2093906.0,1588332739.593
2093826.0,1588332739.633
2094011.0,1588332739.673
2094558.0,1588332739.753
2094138.0,1588332739.713
2095208.0,1588332739.793
2095787.0,1588332739.833
2096779.0,1588332739.873
2097590.0,1588332739.913
2098562.0,1588332739.953
2099701.0,1588332739.993
2100592.0,1588332740.033
2100521.0,1588332740.073
2098959.0,1588332740.113
2097023.0,1588332740.153
2095666.0,1588332740.193
2094771.0,1588332740.233
2094192.0,1588332740.273
2094374.0,1588332740.313
2094719.0,1588332740.353
2094988.0,1588332740.393
2095185.0,1588332740.433
2095856.0,1588332740.473
2098000.0,1588332740.553
2100519.0,1588332740.633
2099350.0,1588332740.593
2101861.0,1588332740.673
2103100.0,1588332740.713
2096852.0,1588332740.513
2104556.0,1588332740.753
2104133.0,1588332740.793
2102751.0,1588332740.833
2101949.0,1588332740.873
2101671.0,1588332740.913
2102228.0,1588332740.993
2101431.0,1588332740.953
2103134.0,1588332741.033
2103962.0,1588332741.073
2105105.0,1588332741.113
2106469.0,1588332741.153
2107254.0,1588332741.193
2109045.0,1588332741.233
2113264.0,1588332741.273
2118824.0,1588332741.313
2122776.0,1588332741.353
2125080.0,1588332741.393
2127068.0,1588332741.433
2127820.0,1588332741.473
2126299.0,1588332741.513
2124566.0,1588332741.553
2123319.0,1588332741.593
2122341.0,1588332741.633
2121689.0,1588332741.673
2121609.0,1588332741.713
2121510.0,1588332741.753
2121406.0,1588332741.793
2121296.0,1588332741.833
2121679.0,1588332741.873
2121985.0,1588332741.913
2122624.0,1588332741.953
2123435.0,1588332741.993
2124299.0,1588332742.033
2124780.0,1588332742.073
2125599.0,1588332742.113
2124146.0,1588332742.153
2121983.0,1588332742.193
2120375.0,1588332742.233
2118821.0,1588332742.273
2117887.0,1588332742.313
2117509.0,1588332742.353
2117239.0,1588332742.393
2117245.0,1588332742.433
2116984.0,1588332742.473
2117199.0,1588332742.513
2117771.0,1588332742.553
2118215.0,1588332742.593
2118935.0,1588332742.633
2119523.0,1588332742.673
2120401.0,1588332742.713
2121227.0,1588332742.753
2122223.0,1588332742.793
2121646.0,1588332742.833
2119533.0,1588332742.873
2117042.0,1588332742.913
2115174.0,1588332742.953
2113440.0,1588332742.993
2112226.0,1588332743.033
2112296.0,1588332743.073
2112708.0,1588332743.113
2113395.0,1588332743.153
2114295.0,1588332743.193
2114915.0,1588332743.233
2115800.0,1588332743.273
2116459.0,1588332743.313
2117098.0,1588332743.353
2117719.0,1588332743.393
2118404.0,1588332743.433
2119052.0,1588332743.473
2117790.0,1588332743.513
2115239.0,1588332743.553
2112722.0,1588332743.593
2110544.0,1588332743.633
2109125.0,1588332743.673
2108053.0,1588332743.713
2107855.0,1588332743.753
2107469.0,1588332743.793
2107051.0,1588332743.833
2107014.0,1588332743.873
2107206.0,1588332743.913
2107711.0,1588332743.953
2108469.0,1588332743.993
2109272.0,1588332744.033
2110927.0,1588332744.113
2110027.0,1588332744.073
2111728.0,1588332744.153
2112707.0,1588332744.193
2113772.0,1588332744.233
2113660.0,1588332744.273
2111181.0,1588332744.313
2108550.0,1588332744.353
2106240.0,1588332744.393
2104324.0,1588332744.433
2103193.0,1588332744.473
2102663.0,1588332744.513
2102059.0,1588332744.553
2101966.0,1588332744.593
2101713.0,1588332744.633
2101825.0,1588332744.673
2102224.0,1588332744.713
2102944.0,1588332744.753
2103561.0,1588332744.793
2105082.0,1588332744.873
2104296.0,1588332744.833
2106013.0,1588332744.913
2107184.0,1588332744.953
2106749.0,1588332744.993
2104169.0,1588332745.033
2101608.0,1588332745.073
2099648.0,1588332745.113
2098206.0,1588332745.153
2097511.0,1588332745.193
2097359.0,1588332745.233
2097271.0,1588332745.273
2096895.0,1588332745.313
2096919.0,1588332745.353
2097308.0,1588332745.393
2097911.0,1588332745.433
2098830.0,1588332745.473
2099611.0,1588332745.513
2101472.0,1588332745.593
2100399.0,1588332745.553
2102469.0,1588332745.633
2103060.0,1588332745.673
2098226.0,1588332745.753
2100922.0,1588332745.713
2095986.0,1588332745.793
2094143.0,1588332745.833
2093093.0,1588332745.873
2092893.0,1588332745.913
2092909.0,1588332745.953
2092678.0,1588332745.993
2092748.0,1588332746.033
2092901.0,1588332746.073
2093504.0,1588332746.113
2094221.0,1588332746.153
2095185.0,1588332746.193
2096045.0,1588332746.233
2097096.0,1588332746.273
2098058.0,1588332746.313
2099095.0,1588332746.353
2098731.0,1588332746.393
2096295.0,1588332746.433
2093096.0,1588332746.473
2090712.0,1588332746.513
2088560.0,1588332746.553
2087412.0,1588332746.593
2086790.0,1588332746.633
2086440.0,1588332746.673
2086237.0,1588332746.756
2085910.0,1588332746.796
2086236.0,1588332746.837
2086555.0,1588332746.876
2087354.0,1588332746.916
2087977.0,1588332746.957
2088986.0,1588332746.996
2090020.0,1588332747.036
2091000.0,1588332747.078
2092099.0,1588332747.116
2093308.0,1588332747.156
2093259.0,1588332747.198
2090696.0,1588332747.237
2087790.0,1588332747.277
2085094.0,1588332747.318
2082912.0,1588332747.357
2081075.0,1588332747.397
2080274.0,1588332747.438
2079820.0,1588332747.478
2079507.0,1588332747.517
2079429.0,1588332747.558
2079299.0,1588332747.597
2080023.0,1588332747.637
2080512.0,1588332747.679
2081306.0,1588332747.718
2082066.0,1588332747.758
2083115.0,1588332747.799
2084065.0,1588332747.838
2085069.0,1588332747.878
2085665.0,1588332747.919
2083899.0,1588332747.958
2080790.0,1588332747.998
2078380.0,1588332748.039
2076375.0,1588332748.079
2075021.0,1588332748.118
2074198.0,1588332748.159
2074166.0,1588332748.239
2074308.0,1588332748.198
2074137.0,1588332748.28
2074104.0,1588332748.319
2074503.0,1588332748.359
2075386.0,1588332748.4
2076242.0,1588332748.439
2077141.0,1588332748.48
2078079.0,1588332748.52
2078955.0,1588332748.559
2080252.0,1588332748.599
2081381.0,1588332748.64
2082573.0,1588332748.68
2082341.0,1588332748.72
2079995.0,1588332748.761
2076859.0,1588332748.8
2075205.0,1588332748.84
2073619.0,1588332748.882
2072889.0,1588332748.92
2072404.0,1588332748.96
2072419.0,1588332749.04
2072524.0,1588332749.001
2072506.0,1588332749.081
2072821.0,1588332749.122
2073433.0,1588332749.161
2074132.0,1588332749.201
2075364.0,1588332749.242
2076347.0,1588332749.282
2077637.0,1588332749.321
2078767.0,1588332749.362
2079589.0,1588332749.401
2077916.0,1588332749.441
2075313.0,1588332749.483
2073121.0,1588332749.521
2070401.0,1588332749.598
2071602.0,1588332749.562
2070086.0,1588332749.635
2070251.0,1588332749.676
2070188.0,1588332749.716
2070170.0,1588332749.755
2070764.0,1588332749.797
2071345.0,1588332749.837
2072239.0,1588332749.877
2073061.0,1588332749.916
2074387.0,1588332749.958
2075592.0,1588332749.995
2076749.0,1588332750.035
2077646.0,1588332750.077
2078023.0,1588332750.116
2075449.0,1588332750.156
2072073.0,1588332750.197
2069645.0,1588332750.236
2067558.0,1588332750.277
2065640.0,1588332750.318
2064967.0,1588332750.357
2064485.0,1588332750.395
2064011.0,1588332750.436
2063775.0,1588332750.476
2063898.0,1588332750.516
2064307.0,1588332750.557
2064848.0,1588332750.596
2065631.0,1588332750.637
2066538.0,1588332750.679
2067711.0,1588332750.717
2068525.0,1588332750.757
2069600.0,1588332750.797
2070477.0,1588332750.836
2071759.0,1588332750.877
2070780.0,1588332750.917
2067657.0,1588332750.957
2064100.0,1588332750.997
2061205.0,1588332751.038
2058423.0,1588332751.078
2056411.0,1588332751.118
2055453.0,1588332751.157
2054729.0,1588332751.196
2054277.0,1588332751.236
2053782.0,1588332751.278
2053728.0,1588332751.317
2054217.0,1588332751.357
2054588.0,1588332751.398
2055128.0,1588332751.437
2055921.0,1588332751.478
2056533.0,1588332751.517
2057555.0,1588332751.556
2058555.0,1588332751.597
2058806.0,1588332751.638
2056218.0,1588332751.678
2052775.0,1588332751.717
2049287.0,1588332751.759
2046245.0,1588332751.798
2043828.0,1588332751.838
2042624.0,1588332751.88
2042214.0,1588332751.916
2041623.0,1588332751.957
2041208.0,1588332751.998
2041157.0,1588332752.037
2041399.0,1588332752.078
2041990.0,1588332752.119
2043579.0,1588332752.198
2042538.0,1588332752.158
2044636.0,1588332752.239
2045673.0,1588332752.279
2046785.0,1588332752.317
2047680.0,1588332752.358
2048922.0,1588332752.397
2048571.0,1588332752.437
2045308.0,1588332752.479
2041577.0,1588332752.518
2038525.0,1588332752.558
2036232.0,1588332752.599
2034564.0,1588332752.639
2034149.0,1588332752.68
2033847.0,1588332752.718
2033165.0,1588332752.757
2032968.0,1588332752.797
2033024.0,1588332752.839
2033704.0,1588332752.879
2034568.0,1588332752.918
2035305.0,1588332752.96
2036406.0,1588332752.999
2037329.0,1588332753.039
2038257.0,1588332753.079
2039533.0,1588332753.117
2040841.0,1588332753.158
2040811.0,1588332753.199
2037392.0,1588332753.238
2033564.0,1588332753.279
2030793.0,1588332753.32
2028004.0,1588332753.359
2026228.0,1588332753.399
2025528.0,1588332753.44
2025373.0,1588332753.478
2024825.0,1588332753.518
2024569.0,1588332753.559
2024796.0,1588332753.598
2025357.0,1588332753.639
2026196.0,1588332753.681
2027248.0,1588332753.719
2028113.0,1588332753.759
2029113.0,1588332753.801
2030291.0,1588332753.84
2031544.0,1588332753.878
2032718.0,1588332753.919
2033997.0,1588332753.958
2032221.0,1588332753.999
2028067.0,1588332754.04
2024278.0,1588332754.08
2021246.0,1588332754.119
2018518.0,1588332754.161
2017100.0,1588332754.2
2016710.0,1588332754.238
2016363.0,1588332754.28
2016181.0,1588332754.318
2016182.0,1588332754.359
2016474.0,1588332754.4
2017397.0,1588332754.439
2018317.0,1588332754.48
2019526.0,1588332754.521
2020909.0,1588332754.56
2022387.0,1588332754.6
2023530.0,1588332754.639
2025068.0,1588332754.679
2026340.0,1588332754.719
2024669.0,1588332754.76
2020868.0,1588332754.799
2017321.0,1588332754.84
2014487.0,1588332754.882
2012238.0,1588332754.92
2011111.0,1588332754.96
2010898.0,1588332755.0
2010903.0,1588332755.039
2010833.0,1588332755.08
2011160.0,1588332755.12
2011908.0,1588332755.16
2012900.0,1588332755.2
2014352.0,1588332755.241
2015783.0,1588332755.281
2017276.0,1588332755.321
2018937.0,1588332755.362
2020510.0,1588332755.399
2022364.0,1588332755.439
2023981.0,1588332755.481
2025916.0,1588332755.52
2027149.0,1588332755.56
2024859.0,1588332755.601
2021589.0,1588332755.64
2018539.0,1588332755.681
2016706.0,1588332755.722
2015221.0,1588332755.761
2014457.0,1588332755.799
2014735.0,1588332755.84
2015031.0,1588332755.88
2015227.0,1588332755.92
2015914.0,1588332755.961
2016782.0,1588332756.001
2018155.0,1588332756.041
2019548.0,1588332756.083
2021106.0,1588332756.121
2022733.0,1588332756.159
2024292.0,1588332756.201
2026003.0,1588332756.24
2027478.0,1588332756.281
2027128.0,1588332756.322
2024213.0,1588332756.361
2021369.0,1588332756.401
2019579.0,1588332756.442
2018605.0,1588332756.482
2018268.0,1588332756.522
2018639.0,1588332756.561
2019141.0,1588332756.6
2019628.0,1588332756.64
2020316.0,1588332756.682
2021479.0,1588332756.721
2023613.0,1588332756.761
2026054.0,1588332756.802
2029112.0,1588332756.841
2031557.0,1588332756.883
2034982.0,1588332756.921
2038888.0,1588332756.96
2042357.0,1588332757.001
2044479.0,1588332757.042
2043367.0,1588332757.082
2041113.0,1588332757.121
2039407.0,1588332757.163
2037940.0,1588332757.202
2036602.0,1588332757.242
2036421.0,1588332757.284
2036628.0,1588332757.32
2036592.0,1588332757.361
2036714.0,1588332757.402
2037254.0,1588332757.441
2037966.0,1588332757.482
2039223.0,1588332757.523
2040394.0,1588332757.562
2041645.0,1588332757.602
2043068.0,1588332757.643
2044683.0,1588332757.683
2046089.0,1588332757.721
2047948.0,1588332757.762
2047443.0,1588332757.801
2044517.0,1588332757.841
2041756.0,1588332757.883
2039682.0,1588332757.922
2037761.0,1588332757.962
2036821.0,1588332758.004
2037013.0,1588332758.043
2037322.0,1588332758.082
2037493.0,1588332758.122
2037740.0,1588332758.161
2038427.0,1588332758.202
2039438.0,1588332758.243
2040588.0,1588332758.283
2042059.0,1588332758.322
2043293.0,1588332758.364
2044726.0,1588332758.403
2046189.0,1588332758.443
2047705.0,1588332758.483
2049241.0,1588332758.521
2050552.0,1588332758.562
2049504.0,1588332758.603
2046358.0,1588332758.642
2044090.0,1588332758.683
2042215.0,1588332758.724
2040807.0,1588332758.763
2040649.0,1588332758.802
2041102.0,1588332758.841
2042241.0,1588332758.88
2043476.0,1588332758.919
2045720.0,1588332758.958
2049805.0,1588332758.997
2053581.0,1588332759.036
2056304.0,1588332759.075
2058825.0,1588332759.114
2060747.0,1588332759.153
2061813.0,1588332759.192
2063066.0,1588332759.231
2064045.0,1588332759.27
2065170.0,1588332759.309
2063495.0,1588332759.348
2060046.0,1588332759.387
2057748.0,1588332759.426
2055895.0,1588332759.465
2054451.0,1588332759.504
2054015.0,1588332759.543
2053996.0,1588332759.582
2054317.0,1588332759.621
2054374.0,1588332759.66
2055011.0,1588332759.699
2055653.0,1588332759.738
2056538.0,1588332759.777
2057728.0,1588332759.816
2058961.0,1588332759.855
2060069.0,1588332759.894
2061538.0,1588332759.933
2062615.0,1588332759.972
2064096.0,1588332760.011
2064438.0,1588332760.05
2062390.0,1588332760.089
2059912.0,1588332760.128
2058173.0,1588332760.167
2056845.0,1588332760.206
2056190.0,1588332760.245
2056365.0,1588332760.284
2056670.0,1588332760.324
2057042.0,1588332760.364
2057147.0,1588332760.404
2057739.0,1588332760.444
2058793.0,1588332760.484
2059989.0,1588332760.524
2061268.0,1588332760.564
2062680.0,1588332760.604
2064128.0,1588332760.644
2065703.0,1588332760.684
2067259.0,1588332760.724
2066966.0,1588332760.764
2065280.0,1588332760.804
2064338.0,1588332760.844
2063689.0,1588332760.884
2063488.0,1588332760.924
2064652.0,1588332760.964
2066613.0,1588332761.004
2068673.0,1588332761.044
2070344.0,1588332761.084
2071457.0,1588332761.124
2072603.0,1588332761.164
2073517.0,1588332761.204
2074572.0,1588332761.244
2075386.0,1588332761.284
2076268.0,1588332761.324
2077133.0,1588332761.364
2077863.0,1588332761.404
2078660.0,1588332761.444
2079538.0,1588332761.484
2078985.0,1588332761.524
2075856.0,1588332761.564
2072572.0,1588332761.604
2070077.0,1588332761.644
2068283.0,1588332761.684
2066844.0,1588332761.724
2066394.0,1588332761.764
2066410.0,1588332761.804
2066428.0,1588332761.844
2066233.0,1588332761.884
2066488.0,1588332761.924
2067275.0,1588332761.964
2068087.0,1588332762.004
2069215.0,1588332762.044
2070321.0,1588332762.084
2071131.0,1588332762.124
2072197.0,1588332762.164
2073506.0,1588332762.204
2072949.0,1588332762.244
2070068.0,1588332762.284
2067203.0,1588332762.324
2064871.0,1588332762.364
2062751.0,1588332762.404
2061553.0,1588332762.444
2061291.0,1588332762.484
2061407.0,1588332762.524
2061493.0,1588332762.564
2061621.0,1588332762.604
2062170.0,1588332762.644
2062749.0,1588332762.684
2063665.0,1588332762.724
2064521.0,1588332762.764
2065810.0,1588332762.804
2066997.0,1588332762.844
2068230.0,1588332762.884
2069922.0,1588332762.924
2071182.0,1588332762.964
2073097.0,1588332763.004
2074868.0,1588332763.044
2074589.0,1588332763.084
2071905.0,1588332763.124
2068881.0,1588332763.164
2066622.0,1588332763.204
2064803.0,1588332763.244
2063458.0,1588332763.284
2063122.0,1588332763.324
2063304.0,1588332763.364
2063180.0,1588332763.404
2063485.0,1588332763.444
2064009.0,1588332763.484
2064834.0,1588332763.524
2066079.0,1588332763.564
2067342.0,1588332763.604
2068882.0,1588332763.644
2070278.0,1588332763.684
2071710.0,1588332763.724
2073122.0,1588332763.764
2074575.0,1588332763.804
2076081.0,1588332763.844
2077717.0,1588332763.884
2079429.0,1588332763.924
2080465.0,1588332763.964
2079056.0,1588332764.004
2076171.0,1588332764.044
2073634.0,1588332764.084
2071970.0,1588332764.124
2070480.0,1588332764.164
2070070.0,1588332764.204
2070205.0,1588332764.244
2070147.0,1588332764.284
2070131.0,1588332764.324
2070543.0,1588332764.364
2071006.0,1588332764.404
2072166.0,1588332764.444
2072924.0,1588332764.484
2073951.0,1588332764.524
2075241.0,1588332764.564
2076510.0,1588332764.604
2077470.0,1588332764.644
2078794.0,1588332764.684
2080432.0,1588332764.724
2081573.0,1588332764.764
2081149.0,1588332764.804
2078318.0,1588332764.844
2075949.0,1588332764.884
2074063.0,1588332764.924
2073058.0,1588332764.964
2072485.0,1588332765.004
2072890.0,1588332765.044
2073133.0,1588332765.084
2073336.0,1588332765.124
2073516.0,1588332765.164
2074042.0,1588332765.204
2075091.0,1588332765.244
2076284.0,1588332765.284
2077274.0,1588332765.324
2078645.0,1588332765.364
2079676.0,1588332765.404
2081087.0,1588332765.444
2082166.0,1588332765.484
2082169.0,1588332765.524
2079871.0,1588332765.564
2076960.0,1588332765.604
2075438.0,1588332765.644
2074307.0,1588332765.684
2073795.0,1588332765.724
2074190.0,1588332765.764
2074477.0,1588332765.804
2074841.0,1588332765.844
2074764.0,1588332765.884
2075645.0,1588332765.924
2076592.0,1588332765.964
2077589.0,1588332766.004
2078732.0,1588332766.044
2079574.0,1588332766.084
2080695.0,1588332766.124
2081907.0,1588332766.164
2083046.0,1588332766.204
2084117.0,1588332766.244
2082911.0,1588332766.284
2079755.0,1588332766.324
2077188.0,1588332766.364
2074947.0,1588332766.404
2073385.0,1588332766.444
2072416.0,1588332766.484
2072700.0,1588332766.524
2072654.0,1588332766.564
2072508.0,1588332766.604
2072698.0,1588332766.644
2073252.0,1588332766.684
2074102.0,1588332766.724
2074850.0,1588332766.764
2076012.0,1588332766.804
2077005.0,1588332766.844
2077988.0,1588332766.884
2079388.0,1588332766.924
2080530.0,1588332766.964
2081972.0,1588332767.004
2082206.0,1588332767.044
2079305.0,1588332767.084
2075975.0,1588332767.124
2073403.0,1588332767.164
2071269.0,1588332767.204
2069637.0,1588332767.244
2069162.0,1588332767.284
2069206.0,1588332767.324
2068765.0,1588332767.364
2068752.0,1588332767.404
2069221.0,1588332767.444
2069661.0,1588332767.484
2070558.0,1588332767.524
2071469.0,1588332767.564
2072437.0,1588332767.604
2073572.0,1588332767.644
2074768.0,1588332767.684
2076211.0,1588332767.724
2077253.0,1588332767.764
2078238.0,1588332767.804
2079853.0,1588332767.844
2079382.0,1588332767.884
2076248.0,1588332767.924
2072622.0,1588332767.964
2070108.0,1588332768.004
2067855.0,1588332768.044
2066352.0,1588332768.084
2065619.0,1588332768.124
2065718.0,1588332768.164
2065474.0,1588332768.204
2065142.0,1588332768.244
2065506.0,1588332768.284
2066197.0,1588332768.324
2067005.0,1588332768.364
2067916.0,1588332768.404
2068821.0,1588332768.444
2069986.0,1588332768.484
2071147.0,1588332768.524
2072418.0,1588332768.564
2073747.0,1588332768.604
2075120.0,1588332768.644
2076578.0,1588332768.684
2077648.0,1588332768.724
2076079.0,1588332768.764
2072529.0,1588332768.804
2069736.0,1588332768.844
2067395.0,1588332768.884
2065730.0,1588332768.924
2064615.0,1588332768.964
2064566.0,1588332769.004
2064413.0,1588332769.044
2064083.0,1588332769.084
2063971.0,1588332769.124
2064502.0,1588332769.164
2065212.0,1588332769.204
2066111.0,1588332769.244
2067186.0,1588332769.284
2068308.0,1588332769.324
2069414.0,1588332769.364
2070624.0,1588332769.404
2071998.0,1588332769.444
2073170.0,1588332769.484
2074562.0,1588332769.524
2075685.0,1588332769.564
2075613.0,1588332769.604
2071869.0,1588332769.644
2068235.0,1588332769.684
2065883.0,1588332769.724
2063924.0,1588332769.764
2062516.0,1588332769.804
2062296.0,1588332769.844
2061860.0,1588332769.884
2061493.0,1588332769.924
2061443.0,1588332769.964
2061333.0,1588332770.004
2061868.0,1588332770.044
2062897.0,1588332770.084
2063955.0,1588332770.124
2064971.0,1588332770.164
2066098.0,1588332770.204
2067345.0,1588332770.244
2068614.0,1588332770.284
2069752.0,1588332770.324
2070851.0,1588332770.364
2069264.0,1588332770.404
2066106.0,1588332770.444
2063784.0,1588332770.484
2062085.0,1588332770.524
2060810.0,1588332770.564
2060500.0,1588332770.604
2060891.0,1588332770.644
2061314.0,1588332770.684
2061699.0,1588332770.781
2062405.0,1588332770.822
2063911.0,1588332770.863
2065848.0,1588332770.902
2069038.0,1588332770.942
2072315.0,1588332770.983
2076122.0,1588332771.022
2078903.0,1588332771.062
2080852.0,1588332771.104
2082714.0,1588332771.142
2083679.0,1588332771.182
2081309.0,1588332771.223
2076496.0,1588332771.262
2072365.0,1588332771.303
2069180.0,1588332771.343
2065931.0,1588332771.382
2064361.0,1588332771.422
2063182.0,1588332771.464
2062528.0,1588332771.503
2061733.0,1588332771.543
2061043.0,1588332771.584
2060917.0,1588332771.623
2061347.0,1588332771.663
2061888.0,1588332771.705
2061999.0,1588332771.743
2062762.0,1588332771.783
2063439.0,1588332771.824
2064299.0,1588332771.863
2065533.0,1588332771.904
2066333.0,1588332771.945
2064661.0,1588332771.984
2059563.0,1588332772.024
2054926.0,1588332772.065
2051140.0,1588332772.104
2048006.0,1588332772.144
2045298.0,1588332772.185
2044090.0,1588332772.224
2043363.0,1588332772.264
2042287.0,1588332772.306
2041352.0,1588332772.344
2041196.0,1588332772.384
2041433.0,1588332772.425
2041676.0,1588332772.464
2042457.0,1588332772.505
2042993.0,1588332772.546
2044210.0,1588332772.585
2045191.0,1588332772.625
2046268.0,1588332772.666
2047542.0,1588332772.706
2048692.0,1588332772.745
2047774.0,1588332772.786
2043871.0,1588332772.825
2041532.0,1588332772.865
2040896.0,1588332772.907
2040588.0,1588332772.945
2040248.0,1588332772.986
2040691.0,1588332773.027
2040831.0,1588332773.066
2040384.0,1588332773.106
2039899.0,1588332773.147
2039772.0,1588332773.186
2040093.0,1588332773.226
2040340.0,1588332773.267
2040858.0,1588332773.307
2041557.0,1588332773.346
2042500.0,1588332773.387
2043226.0,1588332773.426
2044135.0,1588332773.466
2045331.0,1588332773.508
2046726.0,1588332773.547
2047616.0,1588332773.587
2048536.0,1588332773.628
2046056.0,1588332773.667
2040489.0,1588332773.708
2036355.0,1588332773.748
2032967.0,1588332773.787
2029968.0,1588332773.827
2028354.0,1588332773.868
2027455.0,1588332773.908
2026746.0,1588332773.945
2026149.0,1588332773.986
2025772.0,1588332774.025
2025894.0,1588332774.066
2026514.0,1588332774.108
2027284.0,1588332774.146
2028171.0,1588332774.186
2029084.0,1588332774.228
2030264.0,1588332774.267
2031430.0,1588332774.308
2032760.0,1588332774.346
2034049.0,1588332774.385
2034882.0,1588332774.426
2031963.0,1588332774.467
2027342.0,1588332774.507
2023601.0,1588332774.546
2021172.0,1588332774.588
2019322.0,1588332774.627
2018695.0,1588332774.667
2018264.0,1588332774.707
2017916.0,1588332774.746
2017524.0,1588332774.786
2017668.0,1588332774.827
2018422.0,1588332774.866
2019108.0,1588332774.907
2020202.0,1588332774.948
2021581.0,1588332774.987
2022729.0,1588332775.027
2024077.0,1588332775.067
2025242.0,1588332775.107
2026894.0,1588332775.146
2028418.0,1588332775.187
2028448.0,1588332775.227
2024485.0,1588332775.267
2020300.0,1588332775.309
2017173.0,1588332775.347
2014883.0,1588332775.388
2013371.0,1588332775.427
2012976.0,1588332775.466
2012834.0,1588332775.507
2012602.0,1588332775.548
2012582.0,1588332775.587
2012968.0,1588332775.627
2013719.0,1588332775.668
2014843.0,1588332775.708
2016202.0,1588332775.748
2017412.0,1588332775.789
2018848.0,1588332775.826
2020269.0,1588332775.867
2022051.0,1588332775.908
2023491.0,1588332775.947
2025041.0,1588332775.987
2026100.0,1588332776.029
2022693.0,1588332776.068
2018077.0,1588332776.109
2014706.0,1588332776.149
2011727.0,1588332776.187
2009351.0,1588332776.227
2008481.0,1588332776.268
2008255.0,1588332776.308
2007996.0,1588332776.348
2008092.0,1588332776.389
2008145.0,1588332776.428
2008935.0,1588332776.468
2009816.0,1588332776.51
2011323.0,1588332776.549
2012437.0,1588332776.587
2013785.0,1588332776.628
2015427.0,1588332776.667
2016952.0,1588332776.708
2018679.0,1588332776.749
2020219.0,1588332776.788
2022197.0,1588332776.828
2023156.0,1588332776.87
2020612.0,1588332776.909
2016556.0,1588332776.947
2013347.0,1588332776.988
2010656.0,1588332777.028
2008996.0,1588332777.068
2008035.0,1588332777.11
2007913.0,1588332777.148
2007916.0,1588332777.189
2008053.0,1588332777.23
2008553.0,1588332777.269
2009351.0,1588332777.31
2010502.0,1588332777.348
2011974.0,1588332777.388
2013439.0,1588332777.428
2015027.0,1588332777.469
2016694.0,1588332777.509
2018312.0,1588332777.549
2020006.0,1588332777.59
2021917.0,1588332777.629
2023696.0,1588332777.669
2025803.0,1588332777.711
2027728.0,1588332777.748
2029748.0,1588332777.788
2030791.0,1588332777.829
2028028.0,1588332777.868
2024690.0,1588332777.909
2022064.0,1588332777.95
2020378.0,1588332777.989
2019091.0,1588332778.03
2018585.0,1588332778.071
2018893.0,1588332778.109
2019059.0,1588332778.148
2019360.0,1588332778.189
2020110.0,1588332778.229
2021095.0,1588332778.269
2022386.0,1588332778.311
2025609.0,1588332778.39
2024111.0,1588332778.349
2027429.0,1588332778.431
2029288.0,1588332778.47
2031230.0,1588332778.509
2032710.0,1588332778.55
2034690.0,1588332778.589
2038535.0,1588332778.67
2036655.0,1588332778.629
2038364.0,1588332778.71
2035696.0,1588332778.75
2032067.0,1588332778.83
2033447.0,1588332778.791
2031111.0,1588332778.87
2030872.0,1588332778.91
2031403.0,1588332778.949
2031819.0,1588332778.989
2032349.0,1588332779.03
2032895.0,1588332779.07
2033718.0,1588332779.111
2035125.0,1588332779.151
2036347.0,1588332779.19
2037752.0,1588332779.231
2039475.0,1588332779.27
2040805.0,1588332779.31
2042362.0,1588332779.349
2044203.0,1588332779.391
2045934.0,1588332779.43
2047717.0,1588332779.47
2048972.0,1588332779.512
2047816.0,1588332779.55
2045490.0,1588332779.591
2044181.0,1588332779.632
2043638.0,1588332779.669
2043212.0,1588332779.71
2043703.0,1588332779.751
2044150.0,1588332779.79
2044870.0,1588332779.831
2045236.0,1588332779.871
2046191.0,1588332779.911
2047432.0,1588332779.951
2048572.0,1588332779.992
2050251.0,1588332780.029
2051702.0,1588332780.07
2053189.0,1588332780.112
2054634.0,1588332780.15
2055938.0,1588332780.19
2057577.0,1588332780.232
2059177.0,1588332780.271
2060317.0,1588332780.312
2058921.0,1588332780.352
2056501.0,1588332780.391
2054921.0,1588332780.43
2053992.0,1588332780.471
2053394.0,1588332780.511
2053037.0,1588332780.55
2053632.0,1588332780.592
2054230.0,1588332780.631
2054461.0,1588332780.671
2055144.0,1588332780.713
2056309.0,1588332780.751
2057218.0,1588332780.791
2058672.0,1588332780.833
2060016.0,1588332780.872
2061234.0,1588332780.911
2062705.0,1588332780.951
2064246.0,1588332780.991
2065480.0,1588332781.031
2067390.0,1588332781.072
2068486.0,1588332781.112
2067142.0,1588332781.152
2064971.0,1588332781.193
2063629.0,1588332781.232
2062067.0,1588332781.27
2061135.0,1588332781.312
2060952.0,1588332781.351
2061245.0,1588332781.391
2061758.0,1588332781.432
2061948.0,1588332781.471
2062454.0,1588332781.512
2063344.0,1588332781.553
2064708.0,1588332781.592
2066190.0,1588332781.632
2067644.0,1588332781.672
2068914.0,1588332781.711
2070390.0,1588332781.751
2071859.0,1588332781.792
2073086.0,1588332781.831
2074524.0,1588332781.872
2075942.0,1588332781.914
2076105.0,1588332781.952
2073925.0,1588332781.993
2072055.0,1588332782.032
2070527.0,1588332782.071
2069587.0,1588332782.112
2069038.0,1588332782.153
2069420.0,1588332782.232
2069075.0,1588332782.192
2069803.0,1588332782.273
2070266.0,1588332782.313
2070936.0,1588332782.353
2071804.0,1588332782.394
2073972.0,1588332782.471
2072829.0,1588332782.431
2075305.0,1588332782.513
2077345.0,1588332782.592
2076190.0,1588332782.552
2078472.0,1588332782.633
2079813.0,1588332782.673
2081000.0,1588332782.714
2082401.0,1588332782.754
2083769.0,1588332782.783
2084707.0,1588332782.823
2084511.0,1588332782.864
2082463.0,1588332782.904
2080471.0,1588332782.943
2079317.0,1588332782.985
2078705.0,1588332783.024
2078213.0,1588332783.064
2078686.0,1588332783.105
2078820.0,1588332783.144
2079307.0,1588332783.184
2079381.0,1588332783.225
2080077.0,1588332783.264
2080692.0,1588332783.305
2081675.0,1588332783.346
2082846.0,1588332783.385
2083945.0,1588332783.425
2084679.0,1588332783.466
2085769.0,1588332783.506
2087226.0,1588332783.546
2088300.0,1588332783.585
2088502.0,1588332783.624
2087003.0,1588332783.664
2084903.0,1588332783.706
2083717.0,1588332783.745
2082827.0,1588332783.785
2082464.0,1588332783.826
2082447.0,1588332783.866
2082724.0,1588332783.907
2082983.0,1588332783.945
2083259.0,1588332783.984
2084054.0,1588332784.025
2084743.0,1588332784.066
2085858.0,1588332784.106
2086633.0,1588332784.145
2087792.0,1588332784.187
2088777.0,1588332784.226
2089895.0,1588332784.266
2091189.0,1588332784.308
2092334.0,1588332784.344
2091994.0,1588332784.385
2089571.0,1588332784.426
2087475.0,1588332784.465
2085939.0,1588332784.506
2084711.0,1588332784.547
2084005.0,1588332784.586
2083855.0,1588332784.626
2084217.0,1588332784.668
2084273.0,1588332784.707
2084405.0,1588332784.745
2084957.0,1588332784.786
2085491.0,1588332784.825
2086150.0,1588332784.866
2087102.0,1588332784.908
2088101.0,1588332784.946
2089117.0,1588332784.986
2090006.0,1588332785.028
2091172.0,1588332785.067
2092220.0,1588332785.106
2093539.0,1588332785.146
2093179.0,1588332785.185
2090782.0,1588332785.226
2087960.0,1588332785.267
2085791.0,1588332785.307
2083660.0,1588332785.347
2082270.0,1588332785.388
2081706.0,1588332785.427
2081371.0,1588332785.465
2080976.0,1588332785.507
2081041.0,1588332785.546
2080643.0,1588332785.586
2081287.0,1588332785.627
2081926.0,1588332785.666
2082750.0,1588332785.707
2083597.0,1588332785.748
2084419.0,1588332785.787
2085402.0,1588332785.827
2086158.0,1588332785.867
2087223.0,1588332785.907
2088304.0,1588332785.946
2089026.0,1588332785.987
2087471.0,1588332786.027
2083983.0,1588332786.067
2081071.0,1588332786.109
2078591.0,1588332786.147
2076327.0,1588332786.188
2074861.0,1588332786.227
2074251.0,1588332786.266
2073644.0,1588332786.307
2073221.0,1588332786.348
2072852.0,1588332786.387
2072870.0,1588332786.427
2073292.0,1588332786.468
2074042.0,1588332786.508
2074628.0,1588332786.548
2075183.0,1588332786.589
2076171.0,1588332786.626
2077232.0,1588332786.666
2077985.0,1588332786.708
2078812.0,1588332786.747
2080013.0,1588332786.787
2081252.0,1588332786.828
2082727.0,1588332786.868
2082246.0,1588332786.909
2080588.0,1588332786.949
2079621.0,1588332786.986
2079031.0,1588332787.027
2078488.0,1588332787.068
2078551.0,1588332787.108
2079531.0,1588332787.147
2081126.0,1588332787.189
2080764.0,1588332787.228
2080602.0,1588332787.268
2083689.0,1588332787.31
2089782.0,1588332787.347
2094499.0,1588332787.387
2097437.0,1588332787.428
2099696.0,1588332787.467
2101054.0,1588332787.508
2102297.0,1588332787.549
2103252.0,1588332787.588
2103929.0,1588332787.628
2104351.0,1588332787.67
2104704.0,1588332787.71
2105050.0,1588332787.747
2103160.0,1588332787.788
2099300.0,1588332787.827
2095871.0,1588332787.868
2092989.0,1588332787.91
2090743.0,1588332787.948
2089148.0,1588332787.989
2088623.0,1588332788.03
2088064.0,1588332788.069
2087527.0,1588332788.108
2087214.0,1588332788.149
2087348.0,1588332788.188
2087755.0,1588332788.228
2088510.0,1588332788.269
2089155.0,1588332788.309
2089971.0,1588332788.349
2090676.0,1588332788.39
2091384.0,1588332788.429
2092410.0,1588332788.469
2093450.0,1588332788.509
2093689.0,1588332788.548
2091189.0,1588332788.588
2087626.0,1588332788.629
2084948.0,1588332788.669
2083280.0,1588332788.71
2081676.0,1588332788.75
2081240.0,1588332788.789
2080981.0,1588332788.83
2080379.0,1588332788.871
2080512.0,1588332788.909
2080526.0,1588332788.948
2080691.0,1588332788.99
2081617.0,1588332789.029
2082525.0,1588332789.069
