bvp,time
-23.64,1651396415.53125
-22.89,1651396415.546875
-21.14,1651396415.5625
-18.52,1651396415.578125
-15.38,1651396415.59375
-12.17,1651396415.609375
-9.24,1651396415.625
-6.77,1651396415.640625
-4.62,1651396415.65625
-2.57,1651396415.671875
-0.4,1651396415.6875
1.98,1651396415.703125
4.39,1651396415.71875
6.51,1651396415.734375
8.0,1651396415.75
8.68,1651396415.765625
8.61,1651396415.78125
8.11,1651396415.796875
7.55,1651396415.8125
7.2,1651396415.828125
7.11,1651396415.84375
7.08,1651396415.859375
6.86,1651396415.875
6.2,1651396415.890625
5.09,1651396415.90625
3.67,1651396415.921875
2.19,1651396415.9375
0.8,1651396415.953125
-0.62,1651396415.96875
-2.5,1651396415.984375
-5.42,1651396416.0
-9.91,1651396416.015625
-16.28,1651396416.03125
-24.59,1651396416.046875
-34.82,1651396416.0625
-47.06,1651396416.078125
-61.45,1651396416.09375
-78.0,1651396416.109375
-96.29,1651396416.125
-115.33,1651396416.140625
-133.76,1651396416.15625
-150.43,1651396416.171875
-164.81,1651396416.1875
-177.2,1651396416.203125
-188.43,1651396416.21875
-199.29,1651396416.234375
-210.08,1651396416.25
-220.49,1651396416.265625
-229.94,1651396416.28125
-237.97,1651396416.296875
-244.4,1651396416.3125
-249.23,1651396416.328125
-252.15,1651396416.34375
-252.23,1651396416.359375
-248.11,1651396416.375
-238.54,1651396416.390625
-223.25,1651396416.40625
-203.39,1651396416.421875
-181.35,1651396416.4375
-159.88,1651396416.453125
-140.88,1651396416.46875
-124.41,1651396416.484375
-108.66,1651396416.5
-90.55,1651396416.515625
-67.04,1651396416.53125
-36.19,1651396416.546875
2.48,1651396416.5625
48.38,1651396416.578125
100.43,1651396416.59375
157.48,1651396416.609375
217.82,1651396416.625
278.51,1651396416.640625
335.28,1651396416.65625
383.29,1651396416.671875
418.95,1651396416.6875
441.57,1651396416.703125
453.96,1651396416.71875
461.3,1651396416.734375
468.88,1651396416.75
480.08,1651396416.765625
495.3,1651396416.78125
512.42,1651396416.796875
528.08,1651396416.8125
538.75,1651396416.828125
541.37,1651396416.84375
533.36,1651396416.859375
512.81,1651396416.875
478.88,1651396416.890625
432.29,1651396416.90625
375.49,1651396416.921875
312.09,1651396416.9375
245.57,1651396416.953125
178.15,1651396416.96875
110.61,1651396416.984375
43.02,1651396417.0
-23.88,1651396417.015625
-87.64,1651396417.03125
-144.18,1651396417.046875
-189.06,1651396417.0625
-219.26,1651396417.078125
-234.49,1651396417.09375
-237.42,1651396417.109375
-232.58,1651396417.125
-224.73,1651396417.140625
-217.19,1651396417.15625
-211.2,1651396417.171875
-206.33,1651396417.1875
-201.4,1651396417.203125
-195.65,1651396417.21875
-189.0,1651396417.234375
-181.95,1651396417.25
-174.91,1651396417.265625
-167.81,1651396417.28125
-160.17,1651396417.296875
-151.46,1651396417.3125
-141.62,1651396417.328125
-131.12,1651396417.34375
-120.93,1651396417.359375
-112.02,1651396417.375
-104.89,1651396417.390625
-99.31,1651396417.40625
-94.5,1651396417.421875
-89.42,1651396417.4375
-83.36,1651396417.453125
-76.18,1651396417.46875
-68.49,1651396417.484375
-61.3,1651396417.5
-55.52,1651396417.515625
-51.44,1651396417.53125
-48.42,1651396417.546875
-45.07,1651396417.5625
-39.81,1651396417.578125
-31.65,1651396417.59375
-20.89,1651396417.609375
-9.06,1651396417.625
1.59,1651396417.640625
9.11,1651396417.65625
12.53,1651396417.671875
12.16,1651396417.6875
9.2,1651396417.703125
5.03,1651396417.71875
0.74,1651396417.734375
-3.07,1651396417.75
-6.14,1651396417.765625
-8.38,1651396417.78125
-9.78,1651396417.796875
-10.54,1651396417.8125
-11.13,1651396417.828125
-12.1,1651396417.84375
-13.89,1651396417.859375
-16.44,1651396417.875
-19.28,1651396417.890625
-21.75,1651396417.90625
-23.33,1651396417.921875
-23.97,1651396417.9375
-24.04,1651396417.953125
-24.07,1651396417.96875
-24.48,1651396417.984375
-25.41,1651396418.0
-26.72,1651396418.015625
-28.18,1651396418.03125
-29.51,1651396418.046875
-30.57,1651396418.0625
-31.36,1651396418.078125
-31.97,1651396418.09375
-32.51,1651396418.109375
-33.12,1651396418.125
-33.92,1651396418.140625
-34.97,1651396418.15625
-36.26,1651396418.171875
-37.77,1651396418.1875
-39.32,1651396418.203125
-40.68,1651396418.21875
-41.55,1651396418.234375
-41.61,1651396418.25
-40.69,1651396418.265625
-38.78,1651396418.28125
-36.04,1651396418.296875
-32.74,1651396418.3125
-29.08,1651396418.328125
-25.12,1651396418.34375
-20.83,1651396418.359375
-16.09,1651396418.375
-10.91,1651396418.390625
-5.46,1651396418.40625
-0.07,1651396418.421875
4.83,1651396418.4375
8.85,1651396418.453125
11.77,1651396418.46875
13.57,1651396418.484375
14.39,1651396418.5
14.52,1651396418.515625
14.17,1651396418.53125
13.48,1651396418.546875
12.43,1651396418.5625
10.95,1651396418.578125
8.86,1651396418.59375
6.06,1651396418.609375
2.55,1651396418.625
-1.53,1651396418.640625
-5.91,1651396418.65625
-10.14,1651396418.671875
-13.81,1651396418.6875
-16.58,1651396418.703125
-18.41,1651396418.71875
-19.55,1651396418.734375
-20.44,1651396418.75
-21.47,1651396418.765625
-22.88,1651396418.78125
-24.53,1651396418.796875
-25.95,1651396418.8125
-26.47,1651396418.828125
-25.43,1651396418.84375
-22.34,1651396418.859375
-17.08,1651396418.875
-9.94,1651396418.890625
-1.54,1651396418.90625
7.28,1651396418.921875
15.78,1651396418.9375
23.43,1651396418.953125
30.04,1651396418.96875
35.71,1651396418.984375
40.63,1651396419.0
44.99,1651396419.015625
48.87,1651396419.03125
52.3,1651396419.046875
55.37,1651396419.0625
58.16,1651396419.078125
60.75,1651396419.09375
63.03,1651396419.109375
64.62,1651396419.125
64.97,1651396419.140625
63.58,1651396419.15625
60.3,1651396419.171875
55.49,1651396419.1875
49.99,1651396419.203125
44.78,1651396419.21875
40.63,1651396419.234375
37.89,1651396419.25
36.41,1651396419.265625
35.76,1651396419.28125
35.41,1651396419.296875
34.97,1651396419.3125
34.27,1651396419.328125
33.23,1651396419.34375
31.81,1651396419.359375
29.86,1651396419.375
27.16,1651396419.390625
23.53,1651396419.40625
18.82,1651396419.421875
13.04,1651396419.4375
6.34,1651396419.453125
-0.95,1651396419.46875
-8.4,1651396419.484375
-15.52,1651396419.5
-21.91,1651396419.515625
-27.3,1651396419.53125
-31.67,1651396419.546875
-35.1,1651396419.5625
-37.87,1651396419.578125
-40.39,1651396419.59375
-43.0,1651396419.609375
-45.89,1651396419.625
-48.93,1651396419.640625
-51.72,1651396419.65625
-53.83,1651396419.671875
-54.95,1651396419.6875
-55.06,1651396419.703125
-54.31,1651396419.71875
-52.88,1651396419.734375
-50.76,1651396419.75
-47.84,1651396419.765625
-43.97,1651396419.78125
-39.13,1651396419.796875
-33.53,1651396419.8125
-27.43,1651396419.828125
-21.03,1651396419.84375
-14.27,1651396419.859375
-6.95,1651396419.875
1.1,1651396419.890625
9.74,1651396419.90625
18.48,1651396419.921875
26.6,1651396419.9375
33.44,1651396419.953125
38.63,1651396419.96875
42.17,1651396419.984375
44.36,1651396420.0
45.61,1651396420.015625
46.37,1651396420.03125
47.01,1651396420.046875
47.9,1651396420.0625
49.33,1651396420.078125
51.24,1651396420.09375
53.2,1651396420.109375
54.25,1651396420.125
53.3,1651396420.140625
49.52,1651396420.15625
42.89,1651396420.171875
34.25,1651396420.1875
25.12,1651396420.203125
16.92,1651396420.21875
10.47,1651396420.234375
5.79,1651396420.25
2.37,1651396420.265625
-0.35,1651396420.28125
-2.64,1651396420.296875
-4.48,1651396420.3125
-5.82,1651396420.328125
-6.8,1651396420.34375
-7.83,1651396420.359375
-9.36,1651396420.375
-11.61,1651396420.390625
-14.46,1651396420.40625
-17.49,1651396420.421875
-20.17,1651396420.4375
-22.13,1651396420.453125
-23.3,1651396420.46875
-23.9,1651396420.484375
-24.37,1651396420.5
-25.25,1651396420.515625
-26.95,1651396420.53125
-29.65,1651396420.546875
-33.06,1651396420.5625
-36.48,1651396420.578125
-39.02,1651396420.59375
-39.99,1651396420.609375
-39.22,1651396420.625
-37.14,1651396420.640625
-34.62,1651396420.65625
-32.46,1651396420.671875
-31.04,1651396420.6875
-30.17,1651396420.703125
-29.26,1651396420.71875
-27.77,1651396420.734375
-25.44,1651396420.75
-22.41,1651396420.765625
-18.91,1651396420.78125
-14.97,1651396420.796875
-10.31,1651396420.8125
-4.41,1651396420.828125
3.01,1651396420.84375
11.71,1651396420.859375
20.76,1651396420.875
28.88,1651396420.890625
34.83,1651396420.90625
37.84,1651396420.921875
37.86,1651396420.9375
35.41,1651396420.953125
31.22,1651396420.96875
25.98,1651396420.984375
20.22,1651396421.0
14.35,1651396421.015625
8.85,1651396421.03125
4.26,1651396421.046875
1.07,1651396421.0625
-0.63,1651396421.078125
-1.19,1651396421.09375
-1.44,1651396421.109375
-2.24,1651396421.125
-4.09,1651396421.140625
-6.74,1651396421.15625
-9.33,1651396421.171875
-10.84,1651396421.1875
-10.68,1651396421.203125
-9.15,1651396421.21875
-7.31,1651396421.234375
-6.5,1651396421.25
-7.62,1651396421.265625
-10.65,1651396421.28125
-14.64,1651396421.296875
-18.03,1651396421.3125
-19.39,1651396421.328125
-17.78,1651396421.34375
-13.0,1651396421.359375
-5.45,1651396421.375
4.18,1651396421.390625
15.11,1651396421.40625
26.56,1651396421.421875
37.65,1651396421.4375
47.49,1651396421.453125
55.21,1651396421.46875
60.16,1651396421.484375
62.13,1651396421.5
61.41,1651396421.515625
58.7,1651396421.53125
54.92,1651396421.546875
50.96,1651396421.5625
47.42,1651396421.578125
44.62,1651396421.59375
42.49,1651396421.609375
40.73,1651396421.625
38.98,1651396421.640625
36.96,1651396421.65625
34.56,1651396421.671875
31.89,1651396421.6875
29.17,1651396421.703125
26.56,1651396421.71875
24.18,1651396421.734375
21.97,1651396421.75
19.82,1651396421.765625
17.67,1651396421.78125
15.5,1651396421.796875
13.39,1651396421.8125
11.39,1651396421.828125
9.48,1651396421.84375
7.52,1651396421.859375
5.33,1651396421.875
2.87,1651396421.890625
0.27,1651396421.90625
-2.08,1651396421.921875
-3.83,1651396421.9375
-4.68,1651396421.953125
-4.58,1651396421.96875
-3.67,1651396421.984375
-2.27,1651396422.0
-0.66,1651396422.015625
0.9,1651396422.03125
2.3,1651396422.046875
3.59,1651396422.0625
4.86,1651396422.078125
6.35,1651396422.09375
8.18,1651396422.109375
10.37,1651396422.125
12.72,1651396422.140625
14.86,1651396422.15625
16.3,1651396422.171875
16.61,1651396422.1875
15.66,1651396422.203125
13.63,1651396422.21875
11.07,1651396422.234375
8.57,1651396422.25
6.57,1651396422.265625
5.09,1651396422.28125
3.79,1651396422.296875
2.17,1651396422.3125
-0.19,1651396422.328125
-3.31,1651396422.34375
-6.91,1651396422.359375
-10.5,1651396422.375
-13.69,1651396422.390625
-16.38,1651396422.40625
-18.76,1651396422.421875
-21.25,1651396422.4375
-24.12,1651396422.453125
-27.49,1651396422.46875
-31.31,1651396422.484375
-35.5,1651396422.5
-40.01,1651396422.515625
-44.88,1651396422.53125
-49.99,1651396422.546875
-54.88,1651396422.5625
-58.74,1651396422.578125
-60.68,1651396422.59375
-60.22,1651396422.609375
-57.75,1651396422.625
-54.53,1651396422.640625
-52.06,1651396422.65625
-51.23,1651396422.671875
-51.73,1651396422.6875
-52.25,1651396422.703125
-51.23,1651396422.71875
-47.91,1651396422.734375
-42.89,1651396422.75
-37.81,1651396422.765625
-34.41,1651396422.78125
-33.38,1651396422.796875
-33.97,1651396422.8125
-34.41,1651396422.828125
-32.88,1651396422.84375
-28.53,1651396422.859375
-21.81,1651396422.875
-14.09,1651396422.890625
-6.84,1651396422.90625
-0.94,1651396422.921875
3.58,1651396422.9375
7.35,1651396422.953125
11.06,1651396422.96875
15.07,1651396422.984375
19.22,1651396423.0
23.08,1651396423.015625
26.26,1651396423.03125
28.62,1651396423.046875
30.34,1651396423.0625
31.69,1651396423.078125
32.78,1651396423.09375
33.43,1651396423.109375
33.25,1651396423.125
31.8,1651396423.140625
28.89,1651396423.15625
24.55,1651396423.171875
19.11,1651396423.1875
12.94,1651396423.203125
6.32,1651396423.21875
-0.66,1651396423.234375
-8.1,1651396423.25
-16.0,1651396423.265625
-24.12,1651396423.28125
-31.73,1651396423.296875
-37.44,1651396423.3125
-39.38,1651396423.328125
-35.69,1651396423.34375
-25.19,1651396423.359375
-8.04,1651396423.375
13.93,1651396423.390625
37.56,1651396423.40625
59.26,1651396423.421875
75.94,1651396423.4375
85.85,1651396423.453125
88.7,1651396423.46875
85.32,1651396423.484375
77.03,1651396423.5
65.28,1651396423.515625
51.55,1651396423.53125
37.47,1651396423.546875
24.82,1651396423.5625
15.19,1651396423.578125
9.4,1651396423.59375
7.11,1651396423.609375
6.91,1651396423.625
6.93,1651396423.640625
5.78,1651396423.65625
3.12,1651396423.671875
-0.35,1651396423.6875
-3.39,1651396423.703125
-5.07,1651396423.71875
-5.18,1651396423.734375
-4.29,1651396423.75
-3.28,1651396423.765625
-2.93,1651396423.78125
-3.56,1651396423.796875
-5.19,1651396423.8125
-7.56,1651396423.828125
-10.31,1651396423.84375
-12.87,1651396423.859375
-14.56,1651396423.875
-14.77,1651396423.890625
-13.14,1651396423.90625
-9.84,1651396423.921875
-5.54,1651396423.9375
-1.11,1651396423.953125
2.73,1651396423.96875
5.7,1651396423.984375
7.97,1651396424.0
9.88,1651396424.015625
11.66,1651396424.03125
13.3,1651396424.046875
14.6,1651396424.0625
15.3,1651396424.078125
15.26,1651396424.09375
14.56,1651396424.109375
13.4,1651396424.125
12.06,1651396424.140625
10.74,1651396424.15625
9.5,1651396424.171875
8.34,1651396424.1875
7.17,1651396424.203125
5.95,1651396424.21875
4.63,1651396424.234375
3.15,1651396424.25
1.41,1651396424.265625
-0.72,1651396424.28125
-3.31,1651396424.296875
-6.41,1651396424.3125
-9.95,1651396424.328125
-13.89,1651396424.34375
-18.21,1651396424.359375
-22.93,1651396424.375
-28.11,1651396424.390625
-33.78,1651396424.40625
-39.92,1651396424.421875
-46.41,1651396424.4375
-53.06,1651396424.453125
-59.36,1651396424.46875
-64.51,1651396424.484375
-67.33,1651396424.5
-66.64,1651396424.515625
-61.78,1651396424.53125
-53.0,1651396424.546875
-41.53,1651396424.5625
-29.17,1651396424.578125
-17.63,1651396424.59375
-7.82,1651396424.609375
0.2,1651396424.625
6.86,1651396424.640625
12.68,1651396424.65625
17.76,1651396424.671875
21.87,1651396424.6875
24.74,1651396424.703125
26.38,1651396424.71875
27.13,1651396424.734375
27.48,1651396424.75
27.69,1651396424.765625
27.65,1651396424.78125
27.01,1651396424.796875
25.44,1651396424.8125
22.98,1651396424.828125
20.03,1651396424.84375
17.21,1651396424.859375
15.02,1651396424.875
13.6,1651396424.890625
12.63,1651396424.90625
11.63,1651396424.921875
10.17,1651396424.9375
8.08,1651396424.953125
5.53,1651396424.96875
2.88,1651396424.984375
0.49,1651396425.0
-1.43,1651396425.015625
-2.78,1651396425.03125
-3.65,1651396425.046875
-4.14,1651396425.0625
-4.36,1651396425.078125
-4.41,1651396425.09375
-4.28,1651396425.109375
-3.89,1651396425.125
-3.08,1651396425.140625
-1.64,1651396425.15625
0.44,1651396425.171875
2.83,1651396425.1875
4.75,1651396425.203125
5.2,1651396425.21875
3.32,1651396425.234375
-1.2,1651396425.25
-7.91,1651396425.265625
-15.62,1651396425.28125
-22.92,1651396425.296875
-28.61,1651396425.3125
-32.19,1651396425.328125
-33.77,1651396425.34375
-33.96,1651396425.359375
-33.52,1651396425.375
-32.99,1651396425.390625
-32.59,1651396425.40625
-32.24,1651396425.421875
-31.49,1651396425.4375
-29.79,1651396425.453125
-26.66,1651396425.46875
-21.81,1651396425.484375
-15.36,1651396425.5
-7.72,1651396425.515625
0.6,1651396425.53125
9.19,1651396425.546875
17.73,1651396425.5625
25.89,1651396425.578125
33.28,1651396425.59375
39.48,1651396425.609375
44.3,1651396425.625
48.04,1651396425.640625
51.45,1651396425.65625
55.31,1651396425.671875
59.93,1651396425.6875
64.75,1651396425.703125
68.47,1651396425.71875
69.69,1651396425.734375
67.52,1651396425.75
62.08,1651396425.765625
54.33,1651396425.78125
45.54,1651396425.796875
36.77,1651396425.8125
28.63,1651396425.828125
21.33,1651396425.84375
15.02,1651396425.859375
9.9,1651396425.875
6.28,1651396425.890625
4.25,1651396425.90625
3.57,1651396425.921875
3.64,1651396425.9375
3.67,1651396425.953125
3.01,1651396425.96875
1.38,1651396425.984375
-1.03,1651396426.0
-3.7,1651396426.015625
-6.06,1651396426.03125
-7.71,1651396426.046875
-8.6,1651396426.0625
-9.08,1651396426.078125
-9.7,1651396426.09375
-11.17,1651396426.109375
-14.04,1651396426.125
-18.69,1651396426.140625
-25.14,1651396426.15625
-33.16,1651396426.171875
-42.2,1651396426.1875
-51.58,1651396426.203125
-60.66,1651396426.21875
-68.85,1651396426.234375
-75.7,1651396426.25
-80.97,1651396426.265625
-84.53,1651396426.28125
-86.59,1651396426.296875
-87.61,1651396426.3125
-88.22,1651396426.328125
-88.86,1651396426.34375
-89.33,1651396426.359375
-88.67,1651396426.375
-85.34,1651396426.390625
-77.82,1651396426.40625
-65.34,1651396426.421875
-48.26,1651396426.4375
-28.05,1651396426.453125
-6.79,1651396426.46875
13.66,1651396426.484375
32.16,1651396426.5
48.51,1651396426.515625
63.1,1651396426.53125
76.45,1651396426.546875
88.85,1651396426.5625
100.09,1651396426.578125
109.69,1651396426.59375
117.14,1651396426.609375
122.19,1651396426.625
124.75,1651396426.640625
124.77,1651396426.65625
121.87,1651396426.671875
115.24,1651396426.6875
104.12,1651396426.703125
88.29,1651396426.71875
68.78,1651396426.734375
47.93,1651396426.75
28.9,1651396426.765625
14.58,1651396426.78125
6.53,1651396426.796875
4.41,1651396426.8125
6.3,1651396426.828125
9.57,1651396426.84375
12.0,1651396426.859375
12.41,1651396426.875
10.61,1651396426.890625
6.98,1651396426.90625
1.8,1651396426.921875
-4.86,1651396426.9375
-12.95,1651396426.953125
-22.06,1651396426.96875
-31.33,1651396426.984375
-39.71,1651396427.0
-46.34,1651396427.015625
-51.1,1651396427.03125
-54.59,1651396427.046875
-57.66,1651396427.0625
-60.9,1651396427.078125
-64.24,1651396427.09375
-67.01,1651396427.109375
-68.48,1651396427.125
-68.38,1651396427.140625
-67.14,1651396427.15625
-65.79,1651396427.171875
-65.44,1651396427.1875
-66.72,1651396427.203125
-69.56,1651396427.21875
-73.04,1651396427.234375
-75.71,1651396427.25
-76.04,1651396427.265625
-72.89,1651396427.28125
-65.8,1651396427.296875
-55.18,1651396427.3125
-42.15,1651396427.328125
-28.22,1651396427.34375
-14.91,1651396427.359375
-3.36,1651396427.375
5.82,1651396427.390625
12.65,1651396427.40625
17.48,1651396427.421875
20.94,1651396427.4375
23.65,1651396427.453125
26.08,1651396427.46875
28.57,1651396427.484375
31.22,1651396427.5
33.93,1651396427.515625
36.5,1651396427.53125
38.71,1651396427.546875
40.44,1651396427.5625
41.71,1651396427.578125
42.7,1651396427.59375
43.65,1651396427.609375
44.76,1651396427.625
46.04,1651396427.640625
47.31,1651396427.65625
48.3,1651396427.671875
48.73,1651396427.6875
48.58,1651396427.703125
47.93,1651396427.71875
46.97,1651396427.734375
45.79,1651396427.75
44.35,1651396427.765625
42.48,1651396427.78125
40.07,1651396427.796875
37.16,1651396427.8125
33.97,1651396427.828125
30.81,1651396427.84375
27.88,1651396427.859375
25.26,1651396427.875
22.79,1651396427.890625
20.29,1651396427.90625
17.59,1651396427.921875
14.63,1651396427.9375
11.48,1651396427.953125
8.16,1651396427.96875
4.75,1651396427.984375
1.3,1651396428.0
-2.07,1651396428.015625
-5.27,1651396428.03125
-8.36,1651396428.046875
-11.75,1651396428.0625
-16.2,1651396428.078125
-22.67,1651396428.09375
-31.9,1651396428.109375
-43.81,1651396428.125
-57.26,1651396428.140625
-70.14,1651396428.15625
-79.9,1651396428.171875
-84.37,1651396428.1875
-82.42,1651396428.203125
-74.2,1651396428.21875
-60.99,1651396428.234375
-44.71,1651396428.25
-27.37,1651396428.265625
-10.75,1651396428.28125
3.81,1651396428.296875
15.4,1651396428.3125
23.7,1651396428.328125
28.99,1651396428.34375
31.95,1651396428.359375
33.55,1651396428.375
34.58,1651396428.390625
35.34,1651396428.40625
35.63,1651396428.421875
34.99,1651396428.4375
33.06,1651396428.453125
29.91,1651396428.46875
26.03,1651396428.484375
22.09,1651396428.5
18.56,1651396428.515625
15.56,1651396428.53125
12.94,1651396428.546875
10.5,1651396428.5625
8.17,1651396428.578125
6.09,1651396428.59375
4.44,1651396428.609375
3.24,1651396428.625
2.27,1651396428.640625
1.2,1651396428.65625
-0.18,1651396428.671875
-1.9,1651396428.6875
-3.8,1651396428.703125
-5.64,1651396428.71875
-7.28,1651396428.734375
-8.65,1651396428.75
-9.71,1651396428.765625
-10.29,1651396428.78125
-10.22,1651396428.796875
-9.39,1651396428.8125
-7.95,1651396428.828125
-6.35,1651396428.84375
-5.18,1651396428.859375
-4.98,1651396428.875
-6.01,1651396428.890625
-8.14,1651396428.90625
-10.97,1651396428.921875
-14.05,1651396428.9375
-17.09,1651396428.953125
-20.24,1651396428.96875
-23.9,1651396428.984375
-28.54,1651396429.0
-34.24,1651396429.015625
-40.38,1651396429.03125
-45.63,1651396429.046875
-48.32,1651396429.0625
-47.17,1651396429.078125
-41.74,1651396429.09375
-32.68,1651396429.109375
-21.45,1651396429.125
-9.79,1651396429.140625
0.76,1651396429.15625
9.1,1651396429.171875
14.73,1651396429.1875
17.68,1651396429.203125
18.46,1651396429.21875
18.12,1651396429.234375
17.91,1651396429.25
18.88,1651396429.265625
21.49,1651396429.28125
25.38,1651396429.296875
29.55,1651396429.3125
32.89,1651396429.328125
34.73,1651396429.34375
35.06,1651396429.359375
34.43,1651396429.375
33.46,1651396429.390625
32.49,1651396429.40625
31.55,1651396429.421875
30.46,1651396429.4375
29.11,1651396429.453125
27.52,1651396429.46875
25.8,1651396429.484375
23.94,1651396429.5
21.81,1651396429.515625
19.29,1651396429.53125
16.53,1651396429.546875
14.08,1651396429.5625
12.88,1651396429.578125
13.93,1651396429.59375
17.9,1651396429.609375
24.66,1651396429.625
33.2,1651396429.640625
41.87,1651396429.65625
48.89,1651396429.671875
53.09,1651396429.6875
54.26,1651396429.703125
53.03,1651396429.71875
50.52,1651396429.734375
47.73,1651396429.75
45.08,1651396429.765625
42.4,1651396429.78125
39.18,1651396429.796875
34.87,1651396429.8125
29.1,1651396429.828125
21.63,1651396429.84375
12.23,1651396429.859375
0.69,1651396429.875
-12.95,1651396429.890625
-28.04,1651396429.90625
-43.02,1651396429.921875
-55.58,1651396429.9375
-63.33,1651396429.953125
-64.67,1651396429.96875
-59.4,1651396429.984375
-48.93,1651396430.0
-35.73,1651396430.015625
-22.51,1651396430.03125
-11.22,1651396430.046875
-2.73,1651396430.0625
3.19,1651396430.078125
7.26,1651396430.09375
10.16,1651396430.109375
12.21,1651396430.125
13.39,1651396430.140625
13.59,1651396430.15625
12.87,1651396430.171875
11.49,1651396430.1875
9.88,1651396430.203125
8.37,1651396430.21875
7.16,1651396430.234375
6.28,1651396430.25
5.71,1651396430.265625
5.48,1651396430.28125
5.64,1651396430.296875
6.21,1651396430.3125
7.09,1651396430.328125
8.05,1651396430.34375
8.74,1651396430.359375
8.85,1651396430.375
8.22,1651396430.390625
6.81,1651396430.40625
4.79,1651396430.421875
2.45,1651396430.4375
0.11,1651396430.453125
-1.98,1651396430.46875
-3.69,1651396430.484375
-5.03,1651396430.5
-6.16,1651396430.515625
-7.33,1651396430.53125
-8.76,1651396430.546875
-10.61,1651396430.5625
-12.93,1651396430.578125
-15.65,1651396430.59375
-18.6,1651396430.609375
-21.61,1651396430.625
-24.57,1651396430.640625
-27.43,1651396430.65625
-30.21,1651396430.671875
-33.02,1651396430.6875
-36.04,1651396430.703125
-39.54,1651396430.71875
-43.84,1651396430.734375
-49.11,1651396430.75
-55.24,1651396430.765625
-61.6,1651396430.78125
-67.06,1651396430.796875
-70.16,1651396430.8125
-69.59,1651396430.828125
-64.63,1651396430.84375
-55.51,1651396430.859375
-43.35,1651396430.875
-29.84,1651396430.890625
-16.67,1651396430.90625
-5.07,1651396430.921875
4.44,1651396430.9375
11.94,1651396430.953125
17.85,1651396430.96875
22.69,1651396430.984375
26.89,1651396431.0
30.7,1651396431.015625
34.14,1651396431.03125
37.1,1651396431.046875
39.42,1651396431.0625
40.92,1651396431.078125
41.56,1651396431.09375
41.51,1651396431.109375
41.11,1651396431.125
40.83,1651396431.140625
41.08,1651396431.15625
42.11,1651396431.171875
43.88,1651396431.1875
45.93,1651396431.203125
47.49,1651396431.21875
47.52,1651396431.234375
45.11,1651396431.25
39.76,1651396431.265625
31.8,1651396431.28125
22.36,1651396431.296875
13.26,1651396431.3125
6.42,1651396431.328125
3.25,1651396431.34375
4.21,1651396431.359375
8.63,1651396431.375
15.0,1651396431.390625
21.51,1651396431.40625
26.62,1651396431.421875
29.47,1651396431.4375
29.87,1651396431.453125
28.19,1651396431.46875
24.93,1651396431.484375
20.5,1651396431.5
15.11,1651396431.515625
8.76,1651396431.53125
1.37,1651396431.546875
-7.06,1651396431.5625
-16.42,1651396431.578125
-26.38,1651396431.59375
-36.42,1651396431.609375
-45.77,1651396431.625
-53.48,1651396431.640625
-58.61,1651396431.65625
-60.44,1651396431.671875
-58.59,1651396431.6875
-53.15,1651396431.703125
-44.65,1651396431.71875
-33.98,1651396431.734375
-22.42,1651396431.75
-11.4,1651396431.765625
-2.3,1651396431.78125
3.9,1651396431.796875
6.95,1651396431.8125
7.37,1651396431.828125
6.33,1651396431.84375
5.07,1651396431.859375
4.5,1651396431.875
4.85,1651396431.890625
5.83,1651396431.90625
6.91,1651396431.921875
7.71,1651396431.9375
8.26,1651396431.953125
8.9,1651396431.96875
10.03,1651396431.984375
11.98,1651396432.0
15.05,1651396432.015625
19.56,1651396432.03125
26.0,1651396432.046875
34.78,1651396432.0625
45.79,1651396432.078125
58.13,1651396432.09375
70.06,1651396432.109375
79.55,1651396432.125
84.94,1651396432.140625
85.64,1651396432.15625
82.09,1651396432.171875
75.41,1651396432.1875
66.64,1651396432.203125
56.26,1651396432.21875
44.31,1651396432.234375
30.84,1651396432.25
16.4,1651396432.265625
2.15,1651396432.28125
-10.55,1651396432.296875
-20.86,1651396432.3125
-28.78,1651396432.328125
-35.09,1651396432.34375
-40.76,1651396432.359375
-46.23,1651396432.375
-51.25,1651396432.390625
-55.07,1651396432.40625
-56.99,1651396432.421875
-56.93,1651396432.4375
-55.58,1651396432.453125
-54.19,1651396432.46875
-54.02,1651396432.484375
-55.94,1651396432.5
-60.16,1651396432.515625
-66.23,1651396432.53125
-73.17,1651396432.546875
-79.62,1651396432.5625
-84.08,1651396432.578125
-85.11,1651396432.59375
-81.8,1651396432.609375
-74.05,1651396432.625
-62.68,1651396432.640625
-49.32,1651396432.65625
-35.8,1651396432.671875
-23.71,1651396432.6875
-13.87,1651396432.703125
-6.36,1651396432.71875
-0.6,1651396432.734375
4.18,1651396432.75
8.63,1651396432.765625
13.0,1651396432.78125
17.18,1651396432.796875
20.92,1651396432.8125
23.95,1651396432.828125
26.27,1651396432.84375
28.01,1651396432.859375
29.47,1651396432.875
30.93,1651396432.890625
32.49,1651396432.90625
34.13,1651396432.921875
35.7,1651396432.9375
37.1,1651396432.953125
38.27,1651396432.96875
39.14,1651396432.984375
39.66,1651396433.0
39.68,1651396433.015625
38.97,1651396433.03125
37.38,1651396433.046875
34.94,1651396433.0625
31.83,1651396433.078125
28.41,1651396433.09375
25.01,1651396433.109375
21.88,1651396433.125
19.11,1651396433.140625
16.68,1651396433.15625
14.49,1651396433.171875
12.45,1651396433.1875
10.39,1651396433.203125
8.08,1651396433.21875
5.27,1651396433.234375
1.83,1651396433.25
-2.21,1651396433.265625
-6.61,1651396433.28125
-11.0,1651396433.296875
-15.02,1651396433.3125
-18.48,1651396433.328125
-21.38,1651396433.34375
-23.94,1651396433.359375
-26.49,1651396433.375
-29.4,1651396433.390625
-33.0,1651396433.40625
-37.46,1651396433.421875
-42.71,1651396433.4375
-48.31,1651396433.453125
-53.4,1651396433.46875
-56.8,1651396433.484375
-57.33,1651396433.5
-54.18,1651396433.515625
-47.19,1651396433.53125
-36.98,1651396433.546875
-24.81,1651396433.5625
-12.17,1651396433.578125
-0.5,1651396433.59375
9.17,1651396433.609375
16.39,1651396433.625
21.23,1651396433.640625
24.13,1651396433.65625
25.71,1651396433.671875
26.52,1651396433.6875
26.93,1651396433.703125
27.01,1651396433.71875
26.68,1651396433.734375
25.84,1651396433.75
24.53,1651396433.765625
22.95,1651396433.78125
21.43,1651396433.796875
20.34,1651396433.8125
19.97,1651396433.828125
20.53,1651396433.84375
22.06,1651396433.859375
24.36,1651396433.875
26.86,1651396433.890625
28.48,1651396433.90625
27.86,1651396433.921875
23.8,1651396433.9375
15.85,1651396433.953125
4.73,1651396433.96875
-7.63,1651396433.984375
-18.76,1651396434.0
-26.46,1651396434.015625
-29.67,1651396434.03125
-28.67,1651396434.046875
-24.87,1651396434.0625
-20.08,1651396434.078125
-15.79,1651396434.09375
-12.76,1651396434.109375
-10.93,1651396434.125
-9.81,1651396434.140625
-8.84,1651396434.15625
-7.8,1651396434.171875
-6.92,1651396434.1875
-6.78,1651396434.203125
-8.1,1651396434.21875
-11.48,1651396434.234375
-17.09,1651396434.25
-24.35,1651396434.265625
-31.59,1651396434.28125
-36.1,1651396434.296875
-34.53,1651396434.3125
-23.94,1651396434.328125
-3.07,1651396434.34375
26.8,1651396434.359375
61.86,1651396434.375
96.67,1651396434.390625
125.74,1651396434.40625
144.98,1651396434.421875
152.49,1651396434.4375
148.58,1651396434.453125
135.03,1651396434.46875
114.45,1651396434.484375
89.62,1651396434.5
63.28,1651396434.515625
37.96,1651396434.53125
15.75,1651396434.546875
-2.03,1651396434.5625
-14.88,1651396434.578125
-23.1,1651396434.59375
-27.41,1651396434.609375
-28.59,1651396434.625
-27.32,1651396434.640625
-24.14,1651396434.65625
-19.67,1651396434.671875
-14.62,1651396434.6875
-9.8,1651396434.703125
-5.87,1651396434.71875
-3.19,1651396434.734375
-1.75,1651396434.75
-1.18,1651396434.765625
-0.91,1651396434.78125
-0.55,1651396434.796875
0.05,1651396434.8125
0.75,1651396434.828125
1.24,1651396434.84375
1.37,1651396434.859375
1.22,1651396434.875
1.08,1651396434.890625
1.23,1651396434.90625
1.66,1651396434.921875
2.01,1651396434.9375
1.71,1651396434.953125
0.29,1651396434.96875
-2.3,1651396434.984375
-5.62,1651396435.0
-8.9,1651396435.015625
-11.4,1651396435.03125
-12.79,1651396435.046875
-13.24,1651396435.0625
-13.29,1651396435.078125
-13.61,1651396435.09375
-14.63,1651396435.109375
-16.46,1651396435.125
-18.93,1651396435.140625
-21.71,1651396435.15625
-24.52,1651396435.171875
-27.17,1651396435.1875
-29.62,1651396435.203125
-31.93,1651396435.21875
-34.18,1651396435.234375
-36.52,1651396435.25
-39.18,1651396435.265625
-42.41,1651396435.28125
-46.49,1651396435.296875
-51.47,1651396435.3125
-57.0,1651396435.328125
-62.23,1651396435.34375
-65.95,1651396435.359375
-66.89,1651396435.375
-64.17,1651396435.390625
-57.58,1651396435.40625
-47.74,1651396435.421875
-35.92,1651396435.4375
-23.68,1651396435.453125
-12.39,1651396435.46875
-2.93,1651396435.484375
4.38,1651396435.5
9.8,1651396435.515625
13.84,1651396435.53125
17.04,1651396435.546875
19.72,1651396435.5625
21.95,1651396435.578125
23.61,1651396435.59375
24.63,1651396435.609375
25.08,1651396435.625
25.26,1651396435.640625
25.41,1651396435.65625
25.71,1651396435.671875
26.12,1651396435.6875
26.46,1651396435.703125
26.57,1651396435.71875
26.4,1651396435.734375
25.96,1651396435.75
25.32,1651396435.765625
24.63,1651396435.78125
23.97,1651396435.796875
23.46,1651396435.8125
23.12,1651396435.828125
22.88,1651396435.84375
22.52,1651396435.859375
21.72,1651396435.875
20.24,1651396435.890625
18.08,1651396435.90625
15.55,1651396435.921875
13.11,1651396435.9375
11.1,1651396435.953125
9.55,1651396435.96875
8.14,1651396435.984375
6.42,1651396436.0
4.05,1651396436.015625
1.05,1651396436.03125
-2.14,1651396436.046875
-4.89,1651396436.0625
-6.61,1651396436.078125
-7.12,1651396436.09375
-6.85,1651396436.109375
-6.82,1651396436.125
-8.46,1651396436.140625
-13.2,1651396436.15625
-21.91,1651396436.171875
-34.55,1651396436.1875
-49.89,1651396436.203125
-65.71,1651396436.21875
-79.17,1651396436.234375
-87.43,1651396436.25
-88.38,1651396436.265625
-81.1,1651396436.28125
-66.16,1651396436.296875
-45.56,1651396436.3125
-22.21,1651396436.328125
0.69,1651396436.34375
20.47,1651396436.359375
35.49,1651396436.375
45.32,1651396436.390625
50.52,1651396436.40625
52.24,1651396436.421875
51.71,1651396436.4375
49.95,1651396436.453125
47.69,1651396436.46875
45.42,1651396436.484375
43.46,1651396436.5
41.95,1651396436.515625
40.72,1651396436.53125
39.3,1651396436.546875
37.0,1651396436.5625
33.18,1651396436.578125
27.69,1651396436.59375
20.93,1651396436.609375
13.92,1651396436.625
7.88,1651396436.640625
3.77,1651396436.65625
1.9,1651396436.671875
1.77,1651396436.6875
2.32,1651396436.703125
2.38,1651396436.71875
1.28,1651396436.734375
-0.97,1651396436.75
-3.65,1651396436.765625
-5.79,1651396436.78125
-6.66,1651396436.796875
-6.11,1651396436.8125
-4.6,1651396436.828125
-2.85,1651396436.84375
-1.46,1651396436.859375
-0.66,1651396436.875
-0.36,1651396436.890625
-0.33,1651396436.90625
-0.43,1651396436.921875
-0.74,1651396436.9375
-1.35,1651396436.953125
-2.18,1651396436.96875
-2.9,1651396436.984375
-3.12,1651396437.0
-2.63,1651396437.015625
-1.73,1651396437.03125
-1.19,1651396437.046875
-1.96,1651396437.0625
-4.73,1651396437.078125
-9.49,1651396437.09375
-15.5,1651396437.109375
-21.39,1651396437.125
-25.73,1651396437.140625
-27.41,1651396437.15625
-25.95,1651396437.171875
-21.63,1651396437.1875
-15.29,1651396437.203125
-8.06,1651396437.21875
-1.09,1651396437.234375
4.66,1651396437.25
8.56,1651396437.265625
10.38,1651396437.28125
10.31,1651396437.296875
9.05,1651396437.3125
7.57,1651396437.328125
6.87,1651396437.34375
7.52,1651396437.359375
9.41,1651396437.375
11.73,1651396437.390625
13.33,1651396437.40625
13.29,1651396437.421875
11.34,1651396437.4375
8.03,1651396437.453125
4.29,1651396437.46875
1.03,1651396437.484375
-1.28,1651396437.5
-2.6,1651396437.515625
-3.1,1651396437.53125
-2.83,1651396437.546875
-1.67,1651396437.5625
0.61,1651396437.578125
4.05,1651396437.59375
8.37,1651396437.609375
13.1,1651396437.625
17.79,1651396437.640625
22.18,1651396437.65625
26.32,1651396437.671875
30.33,1651396437.6875
34.28,1651396437.703125
37.98,1651396437.71875
41.01,1651396437.734375
42.81,1651396437.75
42.9,1651396437.765625
41.05,1651396437.78125
37.42,1651396437.796875
32.46,1651396437.8125
26.79,1651396437.828125
20.92,1651396437.84375
15.06,1651396437.859375
9.05,1651396437.875
2.42,1651396437.890625
-5.2,1651396437.90625
-13.96,1651396437.921875
-23.54,1651396437.9375
-33.25,1651396437.953125
-42.35,1651396437.96875
-50.38,1651396437.984375
-57.31,1651396438.0
-63.51,1651396438.015625
-69.45,1651396438.03125
-75.26,1651396438.046875
-80.61,1651396438.0625
-84.68,1651396438.078125
-86.55,1651396438.09375
-85.58,1651396438.109375
-81.61,1651396438.125
-74.96,1651396438.140625
-66.1,1651396438.15625
-55.46,1651396438.171875
-43.39,1651396438.1875
-30.36,1651396438.203125
-17.1,1651396438.21875
-4.62,1651396438.234375
6.08,1651396438.25
14.4,1651396438.265625
20.34,1651396438.28125
24.45,1651396438.296875
27.45,1651396438.3125
29.84,1651396438.328125
31.69,1651396438.34375
32.76,1651396438.359375
32.82,1651396438.375
31.84,1651396438.390625
30.19,1651396438.40625
28.44,1651396438.421875
27.09,1651396438.4375
26.42,1651396438.453125
26.38,1651396438.46875
26.67,1651396438.484375
26.94,1651396438.5
26.93,1651396438.515625
26.59,1651396438.53125
25.96,1651396438.546875
25.16,1651396438.5625
24.23,1651396438.578125
23.09,1651396438.59375
21.57,1651396438.609375
19.49,1651396438.625
16.76,1651396438.640625
13.45,1651396438.65625
9.78,1651396438.671875
6.07,1651396438.6875
2.56,1651396438.703125
-0.68,1651396438.71875
-3.8,1651396438.734375
-7.06,1651396438.75
-10.71,1651396438.765625
-14.84,1651396438.78125
-19.23,1651396438.796875
-23.45,1651396438.8125
-27.12,1651396438.828125
-30.07,1651396438.84375
-32.45,1651396438.859375
-34.64,1651396438.875
-37.02,1651396438.890625
-39.72,1651396438.90625
-42.54,1651396438.921875
-45.11,1651396438.9375
-47.05,1651396438.953125
-48.02,1651396438.96875
-47.7,1651396438.984375
-45.73,1651396439.0
-41.69,1651396439.015625
-35.33,1651396439.03125
-26.88,1651396439.046875
-17.14,1651396439.0625
-7.35,1651396439.078125
1.27,1651396439.09375
7.98,1651396439.109375
12.76,1651396439.125
16.19,1651396439.140625
18.99,1651396439.15625
21.57,1651396439.171875
23.86,1651396439.1875
25.42,1651396439.203125
25.91,1651396439.21875
25.28,1651396439.234375
23.91,1651396439.25
22.39,1651396439.265625
21.22,1651396439.28125
20.7,1651396439.296875
20.87,1651396439.3125
21.61,1651396439.328125
22.76,1651396439.34375
24.22,1651396439.359375
25.83,1651396439.375
27.4,1651396439.390625
28.62,1651396439.40625
29.2,1651396439.421875
29.01,1651396439.4375
28.14,1651396439.453125
26.89,1651396439.46875
25.61,1651396439.484375
24.51,1651396439.5
23.57,1651396439.515625
22.52,1651396439.53125
20.95,1651396439.546875
18.51,1651396439.5625
15.07,1651396439.578125
10.91,1651396439.59375
6.52,1651396439.609375
2.51,1651396439.625
-0.75,1651396439.640625
-3.26,1651396439.65625
-5.38,1651396439.671875
-7.55,1651396439.6875
-10.03,1651396439.703125
-12.72,1651396439.71875
-15.2,1651396439.734375
-16.93,1651396439.75
-17.43,1651396439.765625
-16.64,1651396439.78125
-14.88,1651396439.796875
-12.87,1651396439.8125
-11.56,1651396439.828125
-11.84,1651396439.84375
-14.23,1651396439.859375
-18.56,1651396439.875
-23.91,1651396439.890625
-28.76,1651396439.90625
-31.57,1651396439.921875
-31.33,1651396439.9375
-28.04,1651396439.953125
-22.65,1651396439.96875
-16.65,1651396439.984375
-11.55,1651396440.0
-8.35,1651396440.015625
-7.35,1651396440.03125
-8.17,1651396440.046875
-9.99,1651396440.0625
-11.84,1651396440.078125
-12.73,1651396440.09375
-11.94,1651396440.109375
-9.2,1651396440.125
-4.66,1651396440.140625
1.16,1651396440.15625
7.6,1651396440.171875
14.07,1651396440.1875
20.18,1651396440.203125
25.61,1651396440.21875
29.93,1651396440.234375
32.59,1651396440.25
33.07,1651396440.265625
31.27,1651396440.28125
27.77,1651396440.296875
23.82,1651396440.3125
20.93,1651396440.328125
20.22,1651396440.34375
21.86,1651396440.359375
24.93,1651396440.375
27.8,1651396440.390625
28.84,1651396440.40625
27.09,1651396440.421875
22.59,1651396440.4375
16.34,1651396440.453125
9.78,1651396440.46875
4.18,1651396440.484375
0.26,1651396440.5
-1.98,1651396440.515625
-3.16,1651396440.53125
-4.27,1651396440.546875
-6.48,1651396440.5625
-10.86,1651396440.578125
-17.97,1651396440.59375
-27.31,1651396440.609375
-37.23,1651396440.625
-45.09,1651396440.640625
-48.12,1651396440.65625
-44.6,1651396440.671875
-34.55,1651396440.6875
-19.95,1651396440.703125
-4.11,1651396440.71875
9.49,1651396440.734375
18.22,1651396440.75
20.74,1651396440.765625
17.01,1651396440.78125
7.88,1651396440.796875
-5.35,1651396440.8125
-21.2,1651396440.828125
-37.96,1651396440.84375
-53.66,1651396440.859375
-66.24,1651396440.875
-73.76,1651396440.890625
-74.77,1651396440.90625
-68.65,1651396440.921875
-55.82,1651396440.9375
-37.77,1651396440.953125
-16.86,1651396440.96875
4.15,1651396440.984375
22.74,1651396441.0
37.1,1651396441.015625
46.57,1651396441.03125
51.54,1651396441.046875
53.18,1651396441.0625
53.0,1651396441.078125
52.3,1651396441.09375
51.84,1651396441.109375
51.68,1651396441.125
51.45,1651396441.140625
50.64,1651396441.15625
49.05,1651396441.171875
46.88,1651396441.1875
44.65,1651396441.203125
42.75,1651396441.21875
41.1,1651396441.234375
39.17,1651396441.25
36.25,1651396441.265625
31.94,1651396441.28125
26.46,1651396441.296875
20.63,1651396441.3125
15.46,1651396441.328125
11.61,1651396441.34375
9.09,1651396441.359375
7.33,1651396441.375
5.54,1651396441.390625
3.1,1651396441.40625
-0.19,1651396441.421875
-4.09,1651396441.4375
-8.11,1651396441.453125
-11.72,1651396441.46875
-14.56,1651396441.484375
-16.57,1651396441.5
-17.92,1651396441.515625
-18.93,1651396441.53125
-19.97,1651396441.546875
-21.23,1651396441.5625
-22.75,1651396441.578125
-24.42,1651396441.59375
-26.21,1651396441.609375
-28.16,1651396441.625
-30.46,1651396441.640625
-33.25,1651396441.65625
-36.45,1651396441.671875
-39.57,1651396441.6875
-41.86,1651396441.703125
-42.39,1651396441.71875
-40.42,1651396441.734375
-35.7,1651396441.75
-28.57,1651396441.765625
-19.97,1651396441.78125
-11.19,1651396441.796875
-3.53,1651396441.8125
2.2,1651396441.828125
5.81,1651396441.84375
7.82,1651396441.859375
9.07,1651396441.875
10.34,1651396441.890625
12.07,1651396441.90625
14.16,1651396441.921875
16.28,1651396441.9375
18.08,1651396441.953125
19.46,1651396441.96875
20.57,1651396441.984375
21.67,1651396442.0
22.9,1651396442.015625
24.2,1651396442.03125
25.29,1651396442.046875
25.88,1651396442.0625
25.79,1651396442.078125
25.11,1651396442.09375
24.09,1651396442.109375
23.01,1651396442.125
21.97,1651396442.140625
20.86,1651396442.15625
19.37,1651396442.171875
17.26,1651396442.1875
14.55,1651396442.203125
11.53,1651396442.21875
8.73,1651396442.234375
6.61,1651396442.25
5.41,1651396442.265625
5.02,1651396442.28125
5.14,1651396442.296875
5.36,1651396442.3125
5.41,1651396442.328125
5.19,1651396442.34375
4.75,1651396442.359375
4.25,1651396442.375
3.8,1651396442.390625
3.41,1651396442.40625
2.87,1651396442.421875
1.8,1651396442.4375
-0.34,1651396442.453125
-4.04,1651396442.46875
-9.56,1651396442.484375
-16.74,1651396442.5
-24.97,1651396442.515625
-33.31,1651396442.53125
-40.77,1651396442.546875
-46.49,1651396442.5625
-49.96,1651396442.578125
-51.04,1651396442.59375
-49.81,1651396442.609375
-46.54,1651396442.625
-41.59,1651396442.640625
-35.46,1651396442.65625
-28.74,1651396442.671875
-22.08,1651396442.6875
-15.93,1651396442.703125
-10.26,1651396442.71875
-4.6,1651396442.734375
1.76,1651396442.75
9.22,1651396442.765625
17.33,1651396442.78125
24.7,1651396442.796875
29.42,1651396442.8125
30.03,1651396442.828125
26.23,1651396442.84375
19.22,1651396442.859375
11.24,1651396442.875
4.56,1651396442.890625
0.56,1651396442.90625
-0.67,1651396442.921875
0.02,1651396442.9375
1.48,1651396442.953125
2.99,1651396442.96875
4.46,1651396442.984375
6.16,1651396443.0
8.29,1651396443.015625
10.7,1651396443.03125
12.89,1651396443.046875
14.36,1651396443.0625
14.93,1651396443.078125
14.86,1651396443.09375
14.78,1651396443.109375
15.23,1651396443.125
16.4,1651396443.140625
17.98,1651396443.15625
19.2,1651396443.171875
19.15,1651396443.1875
17.15,1651396443.203125
13.07,1651396443.21875
7.38,1651396443.234375
0.95,1651396443.25
-5.19,1651396443.265625
-10.32,1651396443.28125
-14.19,1651396443.296875
-17.14,1651396443.3125
-19.84,1651396443.328125
-22.93,1651396443.34375
-26.8,1651396443.359375
-31.44,1651396443.375
-36.47,1651396443.390625
-41.42,1651396443.40625
-45.81,1651396443.421875
-49.29,1651396443.4375
-51.57,1651396443.453125
-52.28,1651396443.46875
-51.05,1651396443.484375
-47.67,1651396443.5
-42.24,1651396443.515625
-35.37,1651396443.53125
-27.96,1651396443.546875
-20.93,1651396443.5625
-14.85,1651396443.578125
-9.77,1651396443.59375
-5.36,1651396443.609375
-1.22,1651396443.625
2.85,1651396443.640625
6.77,1651396443.65625
10.24,1651396443.671875
12.97,1651396443.6875
14.87,1651396443.703125
16.02,1651396443.71875
16.63,1651396443.734375
16.93,1651396443.75
17.11,1651396443.765625
17.26,1651396443.78125
17.45,1651396443.796875
17.64,1651396443.8125
17.7,1651396443.828125
17.4,1651396443.84375
16.56,1651396443.859375
15.12,1651396443.875
13.26,1651396443.890625
11.23,1651396443.90625
9.3,1651396443.921875
7.55,1651396443.9375
5.88,1651396443.953125
4.08,1651396443.96875
1.96,1651396443.984375
-0.47,1651396444.0
-3.0,1651396444.015625
-5.25,1651396444.03125
-6.82,1651396444.046875
-7.54,1651396444.0625
-7.56,1651396444.078125
-7.27,1651396444.09375
-7.2,1651396444.109375
-7.77,1651396444.125
-9.12,1651396444.140625
-11.08,1651396444.15625
-13.29,1651396444.171875
-15.44,1651396444.1875
-17.45,1651396444.203125
-19.4,1651396444.21875
-21.49,1651396444.234375
-23.89,1651396444.25
-26.66,1651396444.265625
-29.8,1651396444.28125
-33.29,1651396444.296875
-37.07,1651396444.3125
-40.95,1651396444.328125
-44.36,1651396444.34375
-46.44,1651396444.359375
-46.17,1651396444.375
-42.84,1651396444.390625
-36.38,1651396444.40625
-27.49,1651396444.421875
-17.42,1651396444.4375
-7.53,1651396444.453125
1.19,1651396444.46875
8.38,1651396444.484375
14.26,1651396444.5
19.36,1651396444.515625
24.16,1651396444.53125
29.0,1651396444.546875
34.0,1651396444.5625
39.08,1651396444.578125
44.08,1651396444.59375
48.63,1651396444.609375
52.3,1651396444.625
54.56,1651396444.640625
55.03,1651396444.65625
53.7,1651396444.671875
51.02,1651396444.6875
47.72,1651396444.703125
44.59,1651396444.71875
42.23,1651396444.734375
40.8,1651396444.75
40.08,1651396444.765625
39.55,1651396444.78125
38.57,1651396444.796875
36.62,1651396444.8125
33.38,1651396444.828125
28.87,1651396444.84375
23.48,1651396444.859375
17.87,1651396444.875
12.8,1651396444.890625
8.74,1651396444.90625
5.72,1651396444.921875
3.25,1651396444.9375
0.62,1651396444.953125
-2.79,1651396444.96875
-7.21,1651396444.984375
-12.47,1651396445.0
-18.13,1651396445.015625
-23.75,1651396445.03125
-28.99,1651396445.046875
-33.7,1651396445.0625
-37.78,1651396445.078125
-41.27,1651396445.09375
-44.35,1651396445.109375
-47.35,1651396445.125
-50.7,1651396445.140625
-54.7,1651396445.15625
-59.3,1651396445.171875
-64.01,1651396445.1875
-68.01,1651396445.203125
-70.55,1651396445.21875
-71.09,1651396445.234375
-69.55,1651396445.25
-66.05,1651396445.265625
-60.8,1651396445.28125
-53.87,1651396445.296875
-45.21,1651396445.3125
-34.83,1651396445.328125
-22.97,1651396445.34375
-10.21,1651396445.359375
2.6,1651396445.375
14.58,1651396445.390625
25.04,1651396445.40625
33.6,1651396445.421875
40.26,1651396445.4375
45.23,1651396445.453125
48.86,1651396445.46875
51.54,1651396445.484375
53.69,1651396445.5
55.68,1651396445.515625
57.77,1651396445.53125
60.0,1651396445.546875
62.06,1651396445.5625
63.29,1651396445.578125
62.84,1651396445.59375
60.04,1651396445.609375
54.76,1651396445.625
47.55,1651396445.640625
39.53,1651396445.65625
31.93,1651396445.671875
25.52,1651396445.6875
20.38,1651396445.703125
15.85,1651396445.71875
10.98,1651396445.734375
4.91,1651396445.75
-2.7,1651396445.765625
-11.64,1651396445.78125
-21.3,1651396445.796875
-30.95,1651396445.8125
-39.87,1651396445.828125
-47.48,1651396445.84375
-53.27,1651396445.859375
-56.87,1651396445.875
-58.08,1651396445.890625
-57.03,1651396445.90625
-54.21,1651396445.921875
-50.47,1651396445.9375
-46.74,1651396445.953125
-43.81,1651396445.96875
-42.21,1651396445.984375
-42.07,1651396446.0
-43.23,1651396446.015625
-45.24,1651396446.03125
-47.45,1651396446.046875
-49.11,1651396446.0625
-49.6,1651396446.078125
-48.51,1651396446.09375
-45.78,1651396446.109375
-41.53,1651396446.125
-35.99,1651396446.140625
-29.13,1651396446.15625
-20.73,1651396446.171875
-10.49,1651396446.1875
1.56,1651396446.203125
14.7,1651396446.21875
27.49,1651396446.234375
38.09,1651396446.25
44.88,1651396446.265625
47.1,1651396446.28125
45.21,1651396446.296875
40.65,1651396446.3125
35.36,1651396446.328125
30.94,1651396446.34375
28.1,1651396446.359375
26.59,1651396446.375
25.55,1651396446.390625
24.13,1651396446.40625
21.91,1651396446.421875
19.14,1651396446.4375
16.34,1651396446.453125
13.99,1651396446.46875
12.19,1651396446.484375
10.72,1651396446.5
9.34,1651396446.515625
7.96,1651396446.53125
6.77,1651396446.546875
6.07,1651396446.5625
5.97,1651396446.578125
6.26,1651396446.59375
6.44,1651396446.609375
6.02,1651396446.625
4.73,1651396446.640625
2.7,1651396446.65625
0.32,1651396446.671875
-1.92,1651396446.6875
-3.69,1651396446.703125
-4.8,1651396446.71875
-5.27,1651396446.734375
-5.24,1651396446.75
-4.87,1651396446.765625
-4.39,1651396446.78125
-4.01,1651396446.796875
-3.97,1651396446.8125
-4.32,1651396446.828125
-5.04,1651396446.84375
-5.96,1651396446.859375
-6.93,1651396446.875
-7.87,1651396446.890625
-8.8,1651396446.90625
-9.85,1651396446.921875
-11.11,1651396446.9375
-12.66,1651396446.953125
-14.45,1651396446.96875
-16.39,1651396446.984375
-18.38,1651396447.0
-20.37,1651396447.015625
-22.43,1651396447.03125
-24.54,1651396447.046875
-26.58,1651396447.0625
-28.07,1651396447.078125
-28.33,1651396447.09375
-26.53,1651396447.109375
-22.07,1651396447.125
-14.91,1651396447.140625
-5.74,1651396447.15625
4.19,1651396447.171875
13.44,1651396447.1875
20.83,1651396447.203125
25.86,1651396447.21875
28.65,1651396447.234375
29.73,1651396447.25
29.67,1651396447.265625
28.91,1651396447.28125
27.67,1651396447.296875
26.1,1651396447.3125
24.45,1651396447.328125
23.04,1651396447.34375
22.31,1651396447.359375
22.51,1651396447.375
23.73,1651396447.390625
25.75,1651396447.40625
28.16,1651396447.421875
30.47,1651396447.4375
32.26,1651396447.453125
33.28,1651396447.46875
33.47,1651396447.484375
32.95,1651396447.5
31.93,1651396447.515625
30.64,1651396447.53125
29.3,1651396447.546875
28.04,1651396447.5625
26.94,1651396447.578125
25.96,1651396447.59375
25.01,1651396447.609375
23.96,1651396447.625
22.71,1651396447.640625
21.23,1651396447.65625
19.62,1651396447.671875
18.07,1651396447.6875
16.69,1651396447.703125
15.41,1651396447.71875
13.89,1651396447.734375
11.7,1651396447.75
8.53,1651396447.765625
4.38,1651396447.78125
-0.41,1651396447.796875
-5.33,1651396447.8125
-9.92,1651396447.828125
-14.09,1651396447.84375
-18.04,1651396447.859375
-22.27,1651396447.875
-27.35,1651396447.890625
-33.68,1651396447.90625
-41.33,1651396447.921875
-49.94,1651396447.9375
-58.79,1651396447.953125
-66.88,1651396447.96875
-73.19,1651396447.984375
-76.85,1651396448.0
-77.39,1651396448.015625
-74.71,1651396448.03125
-69.05,1651396448.046875
-60.85,1651396448.0625
-50.62,1651396448.078125
-38.93,1651396448.09375
-26.38,1651396448.109375
-13.67,1651396448.125
-1.53,1651396448.140625
9.28,1651396448.15625
18.09,1651396448.171875
24.42,1651396448.1875
28.09,1651396448.203125
29.25,1651396448.21875
28.48,1651396448.234375
26.59,1651396448.25
24.45,1651396448.265625
22.75,1651396448.28125
21.72,1651396448.296875
21.13,1651396448.3125
20.51,1651396448.328125
19.35,1651396448.34375
17.44,1651396448.359375
14.9,1651396448.375
12.21,1651396448.390625
9.99,1651396448.40625
8.83,1651396448.421875
9.08,1651396448.4375
10.76,1651396448.453125
13.46,1651396448.46875
16.43,1651396448.484375
18.68,1651396448.5
19.42,1651396448.515625
18.2,1651396448.53125
15.19,1651396448.546875
11.08,1651396448.5625
6.75,1651396448.578125
2.97,1651396448.59375
0.08,1651396448.609375
-2.05,1651396448.625
-3.77,1651396448.640625
-5.39,1651396448.65625
-7.04,1651396448.671875
-8.57,1651396448.6875
-9.79,1651396448.703125
-10.72,1651396448.71875
-11.62,1651396448.734375
-12.93,1651396448.75
-14.97,1651396448.765625
-17.68,1651396448.78125
-20.53,1651396448.796875
-22.56,1651396448.8125
-22.59,1651396448.828125
-19.58,1651396448.84375
-12.92,1651396448.859375
-2.58,1651396448.875
10.65,1651396448.890625
25.34,1651396448.90625
39.65,1651396448.921875
51.64,1651396448.9375
59.66,1651396448.953125
62.57,1651396448.96875
60.02,1651396448.984375
52.43,1651396449.0
40.88,1651396449.015625
26.92,1651396449.03125
12.21,1651396449.046875
-1.75,1651396449.0625
-13.78,1651396449.078125
-23.08,1651396449.09375
-29.1,1651396449.109375
-31.49,1651396449.125
-30.17,1651396449.140625
-25.44,1651396449.15625
-18.11,1651396449.171875
-9.44,1651396449.1875
-0.82,1651396449.203125
6.68,1651396449.21875
12.62,1651396449.234375
17.18,1651396449.25
20.81,1651396449.265625
23.79,1651396449.28125
26.03,1651396449.296875
27.05,1651396449.3125
26.36,1651396449.328125
23.77,1651396449.34375
19.48,1651396449.359375
14.08,1651396449.375
8.26,1651396449.390625
2.71,1651396449.40625
-2.02,1651396449.421875
-5.64,1651396449.4375
-8.13,1651396449.453125
-9.83,1651396449.46875
-11.29,1651396449.484375
-13.14,1651396449.5
-15.74,1651396449.515625
-19.09,1651396449.53125
-22.8,1651396449.546875
-26.26,1651396449.5625
-28.98,1651396449.578125
-30.78,1651396449.59375
-31.9,1651396449.609375
-32.85,1651396449.625
-34.21,1651396449.640625
-36.47,1651396449.65625
-39.76,1651396449.671875
-43.86,1651396449.6875
-48.09,1651396449.703125
-51.49,1651396449.71875
-52.98,1651396449.734375
-51.71,1651396449.75
-47.23,1651396449.765625
-39.73,1651396449.78125
-29.96,1651396449.796875
-19.06,1651396449.8125
-8.26,1651396449.828125
1.4,1651396449.84375
9.33,1651396449.859375
15.39,1651396449.875
19.78,1651396449.890625
22.91,1651396449.90625
25.14,1651396449.921875
26.69,1651396449.9375
27.68,1651396449.953125
28.15,1651396449.96875
28.16,1651396449.984375
27.83,1651396450.0
27.27,1651396450.015625
26.57,1651396450.03125
25.76,1651396450.046875
24.86,1651396450.0625
23.95,1651396450.078125
23.23,1651396450.09375
22.84,1651396450.109375
22.8,1651396450.125
22.97,1651396450.140625
23.07,1651396450.15625
22.83,1651396450.171875
22.1,1651396450.1875
20.95,1651396450.203125
19.54,1651396450.21875
18.04,1651396450.234375
16.48,1651396450.25
14.77,1651396450.265625
12.79,1651396450.28125
10.44,1651396450.296875
7.8,1651396450.3125
4.99,1651396450.328125
2.15,1651396450.34375
-0.63,1651396450.359375
-3.33,1651396450.375
-5.95,1651396450.390625
-8.49,1651396450.40625
-10.88,1651396450.421875
-13.05,1651396450.4375
-14.95,1651396450.453125
-16.55,1651396450.46875
-17.91,1651396450.484375
-19.15,1651396450.5
-20.48,1651396450.515625
-22.11,1651396450.53125
-24.27,1651396450.546875
-27.12,1651396450.5625
-30.66,1651396450.578125
-34.67,1651396450.59375
-38.63,1651396450.609375
-41.79,1651396450.625
-43.26,1651396450.640625
-42.26,1651396450.65625
-38.38,1651396450.671875
-31.76,1651396450.6875
-23.09,1651396450.703125
-13.51,1651396450.71875
-4.22,1651396450.734375
3.83,1651396450.75
10.21,1651396450.765625
15.01,1651396450.78125
18.67,1651396450.796875
21.7,1651396450.8125
24.46,1651396450.828125
27.05,1651396450.84375
29.45,1651396450.859375
31.61,1651396450.875
33.6,1651396450.890625
35.57,1651396450.90625
37.61,1651396450.921875
39.68,1651396450.9375
41.49,1651396450.953125
42.64,1651396450.96875
42.8,1651396450.984375
41.93,1651396451.0
40.33,1651396451.015625
38.54,1651396451.03125
37.17,1651396451.046875
36.78,1651396451.0625
37.7,1651396451.078125
40.08,1651396451.09375
43.77,1651396451.109375
48.28,1651396451.125
52.64,1651396451.140625
55.67,1651396451.15625
56.18,1651396451.171875
53.43,1651396451.1875
47.43,1651396451.203125
38.88,1651396451.21875
28.94,1651396451.234375
18.77,1651396451.25
9.22,1651396451.265625
0.76,1651396451.28125
-6.41,1651396451.296875
-12.12,1651396451.3125
-16.24,1651396451.328125
-18.74,1651396451.34375
-19.93,1651396451.359375
-20.42,1651396451.375
-21.04,1651396451.390625
-22.47,1651396451.40625
-24.94,1651396451.421875
-28.19,1651396451.4375
-31.62,1651396451.453125
-34.62,1651396451.46875
-36.88,1651396451.484375
-38.55,1651396451.5
-40.12,1651396451.515625
-42.26,1651396451.53125
-45.55,1651396451.546875
-50.15,1651396451.5625
-55.74,1651396451.578125
-61.46,1651396451.59375
-66.03,1651396451.609375
-68.16,1651396451.625
-66.92,1651396451.640625
-62.02,1651396451.65625
-54.01,1651396451.671875
-44.08,1651396451.6875
-33.58,1651396451.703125
-23.69,1651396451.71875
-15.05,1651396451.734375
-7.81,1651396451.75
-1.78,1651396451.765625
3.21,1651396451.78125
7.27,1651396451.796875
10.36,1651396451.8125
12.42,1651396451.828125
13.57,1651396451.84375
14.03,1651396451.859375
14.12,1651396451.875
14.11,1651396451.890625
14.13,1651396451.90625
14.17,1651396451.921875
14.17,1651396451.9375
14.05,1651396451.953125
13.83,1651396451.96875
13.67,1651396451.984375
13.75,1651396452.0
14.24,1651396452.015625
15.19,1651396452.03125
16.43,1651396452.046875
17.63,1651396452.0625
18.4,1651396452.078125
18.42,1651396452.09375
17.55,1651396452.109375
15.96,1651396452.125
13.88,1651396452.140625
11.62,1651396452.15625
9.39,1651396452.171875
7.3,1651396452.1875
5.36,1651396452.203125
3.68,1651396452.21875
2.3,1651396452.234375
1.27,1651396452.25
0.57,1651396452.265625
0.05,1651396452.28125
-0.46,1651396452.296875
-1.12,1651396452.3125
-2.0,1651396452.328125
-3.09,1651396452.34375
-4.36,1651396452.359375
-5.86,1651396452.375
-7.68,1651396452.390625
-9.94,1651396452.40625
-12.63,1651396452.421875
-15.6,1651396452.4375
-18.56,1651396452.453125
-21.23,1651396452.46875
-23.49,1651396452.484375
-25.44,1651396452.5
-27.45,1651396452.515625
-29.96,1651396452.53125
-33.24,1651396452.546875
-37.11,1651396452.5625
-40.79,1651396452.578125
-43.1,1651396452.59375
-42.86,1651396452.609375
-39.31,1651396452.625
-32.46,1651396452.640625
-23.18,1651396452.65625
-12.89,1651396452.671875
-3.06,1651396452.6875
5.19,1651396452.703125
11.43,1651396452.71875
15.82,1651396452.734375
18.82,1651396452.75
20.88,1651396452.765625
22.24,1651396452.78125
23.06,1651396452.796875
23.46,1651396452.8125
23.77,1651396452.828125
24.39,1651396452.84375
25.61,1651396452.859375
27.4,1651396452.875
29.43,1651396452.890625
31.19,1651396452.90625
32.36,1651396452.921875
32.92,1651396452.9375
33.21,1651396452.953125
33.7,1651396452.96875
34.75,1651396452.984375
36.42,1651396453.0
38.42,1651396453.015625
40.13,1651396453.03125
40.63,1651396453.046875
38.84,1651396453.0625
33.76,1651396453.078125
24.99,1651396453.09375
13.04,1651396453.109375
-0.69,1651396453.125
-14.11,1651396453.140625
-25.22,1651396453.15625
-32.7,1651396453.171875
-36.2,1651396453.1875
-36.31,1651396453.203125
-34.0,1651396453.21875
-30.35,1651396453.234375
-26.29,1651396453.25
-22.66,1651396453.265625
-20.26,1651396453.28125
-19.69,1651396453.296875
-21.25,1651396453.3125
-24.73,1651396453.328125
-29.53,1651396453.34375
-34.89,1651396453.359375
-40.23,1651396453.375
-45.27,1651396453.390625
-50.03,1651396453.40625
-54.69,1651396453.421875
-59.48,1651396453.4375
-64.53,1651396453.453125
-69.88,1651396453.46875
-75.41,1651396453.484375
-80.63,1651396453.5
-84.65,1651396453.515625
-86.2,1651396453.53125
-83.7,1651396453.546875
-75.71,1651396453.5625
-61.44,1651396453.578125
-41.09,1651396453.59375
-16.15,1651396453.609375
10.77,1651396453.625
36.47,1651396453.640625
57.93,1651396453.65625
73.11,1651396453.671875
81.49,1651396453.6875
83.96,1651396453.703125
82.31,1651396453.71875
78.42,1651396453.734375
73.68,1651396453.75
68.69,1651396453.765625
63.68,1651396453.78125
58.85,1651396453.796875
54.71,1651396453.8125
51.99,1651396453.828125
51.31,1651396453.84375
52.69,1651396453.859375
55.52,1651396453.875
58.63,1651396453.890625
60.81,1651396453.90625
61.22,1651396453.921875
59.56,1651396453.9375
56.07,1651396453.953125
51.14,1651396453.96875
45.08,1651396453.984375
38.09,1651396454.0
30.31,1651396454.015625
22.04,1651396454.03125
13.77,1651396454.046875
6.19,1651396454.0625
-0.07,1651396454.078125
-4.61,1651396454.09375
-7.44,1651396454.109375
-9.0,1651396454.125
-9.98,1651396454.140625
-11.15,1651396454.15625
-13.05,1651396454.171875
-15.85,1651396454.1875
-19.39,1651396454.203125
-23.21,1651396454.21875
-26.86,1651396454.234375
-30.03,1651396454.25
-32.69,1651396454.265625
-35.16,1651396454.28125
-37.84,1651396454.296875
-41.12,1651396454.3125
-45.04,1651396454.328125
-49.15,1651396454.34375
-52.57,1651396454.359375
-54.18,1651396454.375
-53.01,1651396454.390625
-48.66,1651396454.40625
-41.37,1651396454.421875
-32.02,1651396454.4375
-21.81,1651396454.453125
-11.82,1651396454.46875
-2.83,1651396454.484375
4.84,1651396454.5
11.1,1651396454.515625
16.01,1651396454.53125
19.68,1651396454.546875
22.22,1651396454.5625
23.84,1651396454.578125
24.71,1651396454.59375
24.99,1651396454.609375
24.68,1651396454.625
23.82,1651396454.640625
22.53,1651396454.65625
21.09,1651396454.671875
19.83,1651396454.6875
18.99,1651396454.703125
18.54,1651396454.71875
18.18,1651396454.734375
17.53,1651396454.75
16.44,1651396454.765625
15.1,1651396454.78125
13.91,1651396454.796875
13.18,1651396454.8125
12.88,1651396454.828125
12.61,1651396454.84375
11.8,1651396454.859375
10.07,1651396454.875
7.43,1651396454.890625
4.25,1651396454.90625
1.05,1651396454.921875
-1.8,1651396454.9375
-4.23,1651396454.953125
-6.4,1651396454.96875
-8.54,1651396454.984375
-10.83,1651396455.0
-13.25,1651396455.015625
-15.78,1651396455.03125
-18.33,1651396455.046875
-20.77,1651396455.0625
-22.99,1651396455.078125
-24.83,1651396455.09375
-26.27,1651396455.109375
-27.51,1651396455.125
-29.02,1651396455.140625
-31.39,1651396455.15625
-34.99,1651396455.171875
-39.61,1651396455.1875
-44.31,1651396455.203125
-47.71,1651396455.21875
-48.32,1651396455.234375
-45.24,1651396455.25
-38.42,1651396455.265625
-28.75,1651396455.28125
-17.75,1651396455.296875
-7.05,1651396455.3125
2.04,1651396455.328125
8.81,1651396455.34375
13.21,1651396455.359375
15.65,1651396455.375
16.81,1651396455.390625
17.37,1651396455.40625
17.79,1651396455.421875
18.15,1651396455.4375
18.05,1651396455.453125
16.59,1651396455.46875
12.72,1651396455.484375
5.53,1651396455.5
-5.17,1651396455.515625
-18.6,1651396455.53125
-33.01,1651396455.546875
-46.12,1651396455.5625
-55.74,1651396455.578125
-60.52,1651396455.59375
-60.21,1651396455.609375
-55.83,1651396455.625
-49.17,1651396455.640625
-42.32,1651396455.65625
-37.12,1651396455.671875
-34.78,1651396455.6875
-35.56,1651396455.703125
-38.95,1651396455.71875
-43.77,1651396455.734375
-48.62,1651396455.75
-52.33,1651396455.765625
-54.25,1651396455.78125
-54.38,1651396455.796875
-53.2,1651396455.8125
-51.34,1651396455.828125
-49.27,1651396455.84375
-47.02,1651396455.859375
-44.11,1651396455.875
-39.53,1651396455.890625
-32.01,1651396455.90625
-20.46,1651396455.921875
-4.49,1651396455.9375
15.11,1651396455.953125
36.21,1651396455.96875
55.73,1651396455.984375
70.44,1651396456.0
78.07,1651396456.015625
77.97,1651396456.03125
71.31,1651396456.046875
60.55,1651396456.0625
48.59,1651396456.078125
37.91,1651396456.09375
30.1,1651396456.109375
25.8,1651396456.125
24.84,1651396456.140625
26.54,1651396456.15625
29.89,1651396456.171875
33.74,1651396456.1875
37.07,1651396456.203125
39.29,1651396456.21875
40.42,1651396456.234375
41.07,1651396456.25
42.14,1651396456.265625
44.31,1651396456.28125
47.73,1651396456.296875
51.89,1651396456.3125
56.01,1651396456.328125
59.35,1651396456.34375
61.63,1651396456.359375
62.95,1651396456.375
63.6,1651396456.390625
63.71,1651396456.40625
62.99,1651396456.421875
60.93,1651396456.4375
57.05,1651396456.453125
51.39,1651396456.46875
44.55,1651396456.484375
37.54,1651396456.5
31.38,1651396456.515625
26.65,1651396456.53125
23.25,1651396456.546875
20.56,1651396456.5625
17.77,1651396456.578125
14.34,1651396456.59375
10.2,1651396456.609375
5.75,1651396456.625
1.63,1651396456.640625
-1.71,1651396456.65625
-4.13,1651396456.671875
-5.91,1651396456.6875
-7.61,1651396456.703125
-9.73,1651396456.71875
-12.52,1651396456.734375
-15.89,1651396456.75
-19.38,1651396456.765625
-22.53,1651396456.78125
-25.1,1651396456.796875
-27.15,1651396456.8125
-29.03,1651396456.828125
-31.14,1651396456.84375
-33.75,1651396456.859375
-36.96,1651396456.875
-40.68,1651396456.890625
-44.78,1651396456.90625
-49.05,1651396456.921875
-53.18,1651396456.9375
-56.56,1651396456.953125
-58.34,1651396456.96875
-57.63,1651396456.984375
-53.81,1651396457.0
-46.93,1651396457.015625
-37.74,1651396457.03125
-27.45,1651396457.046875
-17.39,1651396457.0625
-8.59,1651396457.078125
-1.58,1651396457.09375
3.59,1651396457.109375
7.15,1651396457.125
9.48,1651396457.140625
10.96,1651396457.15625
11.93,1651396457.171875
12.71,1651396457.1875
13.53,1651396457.203125
14.53,1651396457.21875
15.78,1651396457.234375
17.15,1651396457.25
18.49,1651396457.265625
19.6,1651396457.28125
20.31,1651396457.296875
20.48,1651396457.3125
20.11,1651396457.328125
19.33,1651396457.34375
18.37,1651396457.359375
17.52,1651396457.375
16.93,1651396457.390625
16.59,1651396457.40625
16.3,1651396457.421875
15.77,1651396457.4375
14.73,1651396457.453125
13.04,1651396457.46875
10.75,1651396457.484375
8.13,1651396457.5
5.5,1651396457.515625
3.13,1651396457.53125
1.14,1651396457.546875
-0.6,1651396457.5625
-2.44,1651396457.578125
-4.78,1651396457.59375
-7.85,1651396457.609375
-11.58,1651396457.625
-15.56,1651396457.640625
-19.16,1651396457.65625
-21.9,1651396457.671875
-23.67,1651396457.6875
-24.83,1651396457.703125
-26.21,1651396457.71875
-28.72,1651396457.734375
-33.11,1651396457.75
-39.63,1651396457.765625
-47.88,1651396457.78125
-56.74,1651396457.796875
-64.63,1651396457.8125
-69.72,1651396457.828125
-70.42,1651396457.84375
-65.72,1651396457.859375
-55.54,1651396457.875
-40.84,1651396457.890625
-23.37,1651396457.90625
-5.3,1651396457.921875
11.37,1651396457.9375
25.16,1651396457.953125
35.34,1651396457.96875
41.83,1651396457.984375
45.04,1651396458.0
45.51,1651396458.015625
43.8,1651396458.03125
40.35,1651396458.046875
35.6,1651396458.0625
30.08,1651396458.078125
24.49,1651396458.09375
19.63,1651396458.109375
16.18,1651396458.125
14.37,1651396458.140625
13.93,1651396458.15625
14.1,1651396458.171875
14.07,1651396458.1875
13.42,1651396458.203125
12.42,1651396458.21875
11.86,1651396458.234375
12.68,1651396458.25
15.4,1651396458.265625
19.77,1651396458.28125
24.88,1651396458.296875
29.68,1651396458.3125
33.51,1651396458.328125
36.4,1651396458.34375
39.12,1651396458.359375
42.68,1651396458.375
47.91,1651396458.390625
55.13,1651396458.40625
64.1,1651396458.421875
74.02,1651396458.4375
83.62,1651396458.453125
91.17,1651396458.46875
94.64,1651396458.484375
92.34,1651396458.5
83.44,1651396458.515625
68.7,1651396458.53125
50.33,1651396458.546875
31.36,1651396458.5625
14.52,1651396458.578125
1.31,1651396458.59375
-8.38,1651396458.609375
-15.79,1651396458.625
-22.42,1651396458.640625
-29.27,1651396458.65625
-36.51,1651396458.671875
-43.71,1651396458.6875
-50.37,1651396458.703125
-56.27,1651396458.71875
-61.52,1651396458.734375
-66.29,1651396458.75
-70.47,1651396458.765625
-73.55,1651396458.78125
-74.69,1651396458.796875
-73.04,1651396458.8125
-68.13,1651396458.828125
-60.17,1651396458.84375
-50.05,1651396458.859375
-39.17,1651396458.875
-29.05,1651396458.890625
-20.81,1651396458.90625
-14.83,1651396458.921875
-10.74,1651396458.9375
-7.57,1651396458.953125
-4.27,1651396458.96875
-0.22,1651396458.984375
4.63,1651396459.0
9.62,1651396459.015625
13.91,1651396459.03125
16.84,1651396459.046875
18.23,1651396459.0625
18.46,1651396459.078125
18.19,1651396459.09375
18.04,1651396459.109375
18.24,1651396459.125
18.65,1651396459.140625
18.9,1651396459.15625
18.73,1651396459.171875
18.07,1651396459.1875
17.15,1651396459.203125
16.29,1651396459.21875
15.72,1651396459.234375
15.45,1651396459.25
15.3,1651396459.265625
15.02,1651396459.28125
14.39,1651396459.296875
13.39,1651396459.3125
12.17,1651396459.328125
10.92,1651396459.34375
9.75,1651396459.359375
8.58,1651396459.375
7.22,1651396459.390625
5.49,1651396459.40625
3.33,1651396459.421875
0.87,1651396459.4375
-1.69,1651396459.453125
-4.2,1651396459.46875
-6.67,1651396459.484375
-9.21,1651396459.5
-11.98,1651396459.515625
-15.04,1651396459.53125
-18.3,1651396459.546875
-21.54,1651396459.5625
-24.51,1651396459.578125
-27.02,1651396459.59375
-28.98,1651396459.609375
-30.44,1651396459.625
-31.57,1651396459.640625
-32.67,1651396459.65625
-34.12,1651396459.671875
-36.27,1651396459.6875
-39.23,1651396459.703125
-42.65,1651396459.71875
-45.78,1651396459.734375
-47.48,1651396459.75
-46.65,1651396459.765625
-42.62,1651396459.78125
-35.47,1651396459.796875
-26.1,1651396459.8125
-15.89,1651396459.828125
-6.32,1651396459.84375
1.59,1651396459.859375
7.52,1651396459.875
11.72,1651396459.890625
14.74,1651396459.90625
17.14,1651396459.921875
19.18,1651396459.9375
20.93,1651396459.953125
22.31,1651396459.96875
23.28,1651396459.984375
23.9,1651396460.0
24.26,1651396460.015625
24.5,1651396460.03125
24.75,1651396460.046875
25.19,1651396460.0625
25.98,1651396460.078125
27.12,1651396460.09375
28.4,1651396460.109375
29.36,1651396460.125
29.4,1651396460.140625
28.12,1651396460.15625
25.43,1651396460.171875
21.77,1651396460.1875
18.18,1651396460.203125
16.01,1651396460.21875
16.81,1651396460.234375
21.8,1651396460.25
31.45,1651396460.265625
45.13,1651396460.28125
60.99,1651396460.296875
76.35,1651396460.3125
88.44,1651396460.328125
95.25,1651396460.34375
96.1,1651396460.359375
91.74,1651396460.375
83.75,1651396460.390625
73.78,1651396460.40625
62.91,1651396460.421875
51.5,1651396460.4375
39.6,1651396460.453125
27.35,1651396460.46875
15.27,1651396460.484375
4.18,1651396460.5
-5.16,1651396460.515625
-12.36,1651396460.53125
-17.54,1651396460.546875
-21.26,1651396460.5625
-24.21,1651396460.578125
-26.93,1651396460.59375
-29.84,1651396460.609375
-33.17,1651396460.625
-37.06,1651396460.640625
-41.53,1651396460.65625
-46.42,1651396460.671875
-51.34,1651396460.6875
-55.67,1651396460.703125
-58.8,1651396460.71875
-60.22,1651396460.734375
-59.7,1651396460.75
-57.32,1651396460.765625
-53.47,1651396460.78125
-48.69,1651396460.796875
-43.6,1651396460.8125
-38.78,1651396460.828125
-34.6,1651396460.84375
-31.22,1651396460.859375
-28.48,1651396460.875
-26.04,1651396460.890625
-23.44,1651396460.90625
-20.32,1651396460.921875
-16.61,1651396460.9375
-12.55,1651396460.953125
-8.55,1651396460.96875
-5.04,1651396460.984375
-2.24,1651396461.0
-0.07,1651396461.015625
1.71,1651396461.03125
3.42,1651396461.046875
5.21,1651396461.0625
6.99,1651396461.078125
8.55,1651396461.09375
9.64,1651396461.109375
10.18,1651396461.125
10.29,1651396461.140625
10.17,1651396461.15625
10.03,1651396461.171875
9.9,1651396461.1875
9.74,1651396461.203125
9.42,1651396461.21875
8.82,1651396461.234375
7.97,1651396461.25
7.01,1651396461.265625
6.1,1651396461.28125
5.41,1651396461.296875
5.02,1651396461.3125
4.86,1651396461.328125
4.78,1651396461.34375
4.52,1651396461.359375
3.9,1651396461.375
2.81,1651396461.390625
1.29,1651396461.40625
-0.55,1651396461.421875
-2.66,1651396461.4375
-5.03,1651396461.453125
-7.71,1651396461.46875
-10.72,1651396461.484375
-13.93,1651396461.5
-17.12,1651396461.515625
-19.95,1651396461.53125
-22.24,1651396461.546875
-23.92,1651396461.5625
-25.19,1651396461.578125
-26.27,1651396461.59375
-27.44,1651396461.609375
-28.86,1651396461.625
-30.64,1651396461.640625
-32.8,1651396461.65625
-35.33,1651396461.671875
-38.12,1651396461.6875
-40.96,1651396461.703125
-43.44,1651396461.71875
-44.95,1651396461.734375
-44.86,1651396461.75
-42.57,1651396461.765625
-37.82,1651396461.78125
-30.76,1651396461.796875
-21.99,1651396461.8125
-12.43,1651396461.828125
-3.08,1651396461.84375
5.14,1651396461.859375
11.68,1651396461.875
16.4,1651396461.890625
19.52,1651396461.90625
21.56,1651396461.921875
23.09,1651396461.9375
24.59,1651396461.953125
26.4,1651396461.96875
28.58,1651396461.984375
30.96,1651396462.0
33.05,1651396462.015625
34.07,1651396462.03125
33.14,1651396462.046875
29.62,1651396462.0625
23.34,1651396462.078125
15.01,1651396462.09375
6.16,1651396462.109375
-1.19,1651396462.125
-5.18,1651396462.140625
-4.83,1651396462.15625
-0.44,1651396462.171875
6.42,1651396462.1875
13.54,1651396462.203125
18.72,1651396462.21875
20.57,1651396462.234375
18.79,1651396462.25
14.11,1651396462.265625
7.83,1651396462.28125
1.19,1651396462.296875
-5.09,1651396462.3125
-10.98,1651396462.328125
-16.93,1651396462.34375
-23.6,1651396462.359375
-31.4,1651396462.375
-40.36,1651396462.390625
-50.12,1651396462.40625
-59.93,1651396462.421875
-68.89,1651396462.4375
-75.77,1651396462.453125
-79.34,1651396462.46875
-78.4,1651396462.484375
-72.35,1651396462.5
-61.6,1651396462.515625
-47.76,1651396462.53125
-33.39,1651396462.546875
-21.23,1651396462.5625
-13.3,1651396462.578125
-10.26,1651396462.59375
-11.29,1651396462.609375
-14.5,1651396462.625
-17.71,1651396462.640625
-19.18,1651396462.65625
-18.0,1651396462.671875
-14.31,1651396462.6875
-8.91,1651396462.703125
-2.99,1651396462.71875
2.41,1651396462.734375
6.7,1651396462.75
9.93,1651396462.765625
12.67,1651396462.78125
15.68,1651396462.796875
19.42,1651396462.8125
23.78,1651396462.828125
28.14,1651396462.84375
31.72,1651396462.859375
34.02,1651396462.875
35.02,1651396462.890625
35.13,1651396462.90625
34.87,1651396462.921875
34.46,1651396462.9375
33.79,1651396462.953125
32.52,1651396462.96875
30.43,1651396462.984375
27.67,1651396463.0
24.73,1651396463.015625
22.23,1651396463.03125
20.58,1651396463.046875
19.88,1651396463.0625
19.86,1651396463.078125
20.13,1651396463.09375
20.39,1651396463.109375
20.58,1651396463.125
20.77,1651396463.140625
21.11,1651396463.15625
21.65,1651396463.171875
22.26,1651396463.1875
22.74,1651396463.203125
22.83,1651396463.21875
22.34,1651396463.234375
21.2,1651396463.25
19.52,1651396463.265625
17.53,1651396463.28125
15.55,1651396463.296875
13.83,1651396463.3125
12.59,1651396463.328125
11.9,1651396463.34375
11.7,1651396463.359375
11.84,1651396463.375
12.12,1651396463.390625
12.38,1651396463.40625
12.49,1651396463.421875
12.33,1651396463.4375
11.81,1651396463.453125
10.73,1651396463.46875
8.94,1651396463.484375
6.27,1651396463.5
2.78,1651396463.515625
-1.32,1651396463.53125
-5.69,1651396463.546875
-9.98,1651396463.5625
-14.03,1651396463.578125
-17.86,1651396463.59375
-21.68,1651396463.609375
-25.64,1651396463.625
-29.8,1651396463.640625
-33.89,1651396463.65625
-37.41,1651396463.671875
-39.67,1651396463.6875
-39.93,1651396463.703125
-37.66,1651396463.71875
-32.69,1651396463.734375
-25.38,1651396463.75
-16.62,1651396463.765625
-7.55,1651396463.78125
0.66,1651396463.796875
7.16,1651396463.8125
11.52,1651396463.828125
13.8,1651396463.84375
14.37,1651396463.859375
13.78,1651396463.875
12.51,1651396463.890625
10.91,1651396463.90625
9.2,1651396463.921875
7.36,1651396463.9375
5.34,1651396463.953125
3.06,1651396463.96875
0.61,1651396463.984375
-1.79,1651396464.0
-3.81,1651396464.015625
-5.28,1651396464.03125
-6.31,1651396464.046875
-7.28,1651396464.0625
-8.73,1651396464.078125
-10.99,1651396464.09375
-14.11,1651396464.109375
-17.72,1651396464.125
-21.27,1651396464.140625
-24.19,1651396464.15625
-26.2,1651396464.171875
-27.3,1651396464.1875
-27.83,1651396464.203125
-28.44,1651396464.21875
-29.96,1651396464.234375
-33.23,1651396464.25
-38.75,1651396464.265625
-46.33,1651396464.28125
-54.8,1651396464.296875
-62.05,1651396464.3125
-65.55,1651396464.328125
-63.18,1651396464.34375
-54.04,1651396464.359375
-38.82,1651396464.375
-19.59,1651396464.390625
0.85,1651396464.40625
19.78,1651396464.421875
35.19,1651396464.4375
46.11,1651396464.453125
52.53,1651396464.46875
55.1,1651396464.484375
54.88,1651396464.5
52.98,1651396464.515625
50.39,1651396464.53125
47.7,1651396464.546875
44.99,1651396464.5625
41.93,1651396464.578125
37.95,1651396464.59375
32.65,1651396464.609375
26.09,1651396464.625
18.9,1651396464.640625
12.17,1651396464.65625
7.07,1651396464.671875
4.45,1651396464.6875
4.62,1651396464.703125
7.23,1651396464.71875
11.38,1651396464.734375
15.93,1651396464.75
19.7,1651396464.765625
21.83,1651396464.78125
21.92,1651396464.796875
20.12,1651396464.8125
17.14,1651396464.828125
14.0,1651396464.84375
11.72,1651396464.859375
10.98,1651396464.875
11.92,1651396464.890625
14.15,1651396464.90625
16.86,1651396464.921875
19.21,1651396464.9375
20.56,1651396464.953125
20.7,1651396464.96875
19.77,1651396464.984375
18.14,1651396465.0
16.27,1651396465.015625
14.51,1651396465.03125
13.01,1651396465.046875
11.73,1651396465.0625
10.55,1651396465.078125
9.34,1651396465.09375
8.07,1651396465.109375
6.76,1651396465.125
5.44,1651396465.140625
4.06,1651396465.15625
2.45,1651396465.171875
0.4,1651396465.1875
-2.21,1651396465.203125
-5.41,1651396465.21875
-9.07,1651396465.234375
-12.97,1651396465.25
-16.94,1651396465.265625
-20.93,1651396465.28125
-24.98,1651396465.296875
-29.24,1651396465.3125
-33.91,1651396465.328125
-39.16,1651396465.34375
-45.14,1651396465.359375
-51.68,1651396465.375
-58.3,1651396465.390625
-64.05,1651396465.40625
-67.73,1651396465.421875
-68.24,1651396465.4375
-64.96,1651396465.453125
-58.11,1651396465.46875
-48.6,1651396465.484375
-37.89,1651396465.5
-27.36,1651396465.515625
-18.03,1651396465.53125
-10.28,1651396465.546875
-4.0,1651396465.5625
1.16,1651396465.578125
5.59,1651396465.59375
9.51,1651396465.609375
12.97,1651396465.625
15.93,1651396465.640625
18.38,1651396465.65625
20.39,1651396465.671875
22.04,1651396465.6875
23.39,1651396465.703125
24.43,1651396465.71875
25.08,1651396465.734375
25.3,1651396465.75
25.14,1651396465.765625
24.83,1651396465.78125
24.66,1651396465.796875
24.85,1651396465.8125
25.45,1651396465.828125
26.27,1651396465.84375
26.93,1651396465.859375
27.0,1651396465.875
26.17,1651396465.890625
24.27,1651396465.90625
21.33,1651396465.921875
17.57,1651396465.9375
13.29,1651396465.953125
8.92,1651396465.96875
4.9,1651396465.984375
1.56,1651396466.0
-0.96,1651396466.015625
-2.87,1651396466.03125
-4.67,1651396466.046875
-6.94,1651396466.0625
-10.07,1651396466.078125
-14.06,1651396466.09375
-18.33,1651396466.109375
-21.94,1651396466.125
-23.95,1651396466.140625
-23.71,1651396466.15625
-21.25,1651396466.171875
-17.25,1651396466.1875
-12.89,1651396466.203125
-9.56,1651396466.21875
-8.32,1651396466.234375
-9.62,1651396466.25
-13.06,1651396466.265625
-17.46,1651396466.28125
-21.21,1651396466.296875
-22.66,1651396466.3125
-20.77,1651396466.328125
-15.36,1651396466.34375
-7.2,1651396466.359375
2.26,1651396466.375
11.42,1651396466.390625
19.01,1651396466.40625
24.48,1651396466.421875
28.06,1651396466.4375
30.49,1651396466.453125
32.69,1651396466.46875
35.35,1651396466.484375
38.79,1651396466.5
42.85,1651396466.515625
47.02,1651396466.53125
50.58,1651396466.546875
52.79,1651396466.5625
53.17,1651396466.578125
51.57,1651396466.59375
48.33,1651396466.609375
44.23,1651396466.625
40.21,1651396466.640625
37.14,1651396466.65625
35.44,1651396466.671875
35.02,1651396466.6875
35.29,1651396466.703125
35.47,1651396466.71875
34.87,1651396466.734375
33.17,1651396466.75
30.44,1651396466.765625
27.0,1651396466.78125
23.21,1651396466.796875
19.33,1651396466.8125
15.36,1651396466.828125
11.18,1651396466.84375
6.62,1651396466.859375
1.72,1651396466.875
-3.19,1651396466.890625
-7.59,1651396466.90625
-10.97,1651396466.921875
-13.09,1651396466.9375
-14.04,1651396466.953125
-14.29,1651396466.96875
-14.37,1651396466.984375
-14.71,1651396467.0
-15.52,1651396467.015625
-16.73,1651396467.03125
-18.19,1651396467.046875
-19.82,1651396467.0625
-21.53,1651396467.078125
-23.38,1651396467.09375
-25.43,1651396467.109375
-27.74,1651396467.125
-30.44,1651396467.140625
-33.78,1651396467.15625
-38.01,1651396467.171875
-43.3,1651396467.1875
-49.52,1651396467.203125
-56.13,1651396467.21875
-62.11,1651396467.234375
-66.25,1651396467.25
-67.36,1651396467.265625
-64.83,1651396467.28125
-58.77,1651396467.296875
-50.04,1651396467.3125
-40.03,1651396467.328125
-30.16,1651396467.34375
-21.54,1651396467.359375
-14.67,1651396467.375
-9.51,1651396467.390625
-5.61,1651396467.40625
-2.42,1651396467.421875
0.56,1651396467.4375
3.59,1651396467.453125
6.67,1651396467.46875
9.68,1651396467.484375
12.46,1651396467.5
14.91,1651396467.515625
17.04,1651396467.53125
18.94,1651396467.546875
20.67,1651396467.5625
22.2,1651396467.578125
23.44,1651396467.59375
24.29,1651396467.609375
24.76,1651396467.625
24.99,1651396467.640625
25.17,1651396467.65625
25.41,1651396467.671875
25.65,1651396467.6875
25.64,1651396467.703125
25.05,1651396467.71875
23.63,1651396467.734375
21.34,1651396467.75
18.43,1651396467.765625
15.25,1651396467.78125
12.17,1651396467.796875
9.46,1651396467.8125
7.21,1651396467.828125
5.35,1651396467.84375
3.71,1651396467.859375
2.06,1651396467.875
0.17,1651396467.890625
-2.05,1651396467.90625
-4.6,1651396467.921875
-7.33,1651396467.9375
-9.97,1651396467.953125
-12.31,1651396467.96875
-14.24,1651396467.984375
-15.89,1651396468.0
-17.57,1651396468.015625
-19.79,1651396468.03125
-22.95,1651396468.046875
-27.21,1651396468.0625
-32.31,1651396468.078125
-37.48,1651396468.09375
-41.65,1651396468.109375
-43.7,1651396468.125
-42.84,1651396468.140625
-38.89,1651396468.15625
-32.34,1651396468.171875
-24.12,1651396468.1875
-15.35,1651396468.203125
-6.9,1651396468.21875
0.75,1651396468.234375
7.48,1651396468.25
13.39,1651396468.265625
18.5,1651396468.28125
22.77,1651396468.296875
26.05,1651396468.3125
28.24,1651396468.328125
29.35,1651396468.34375
29.59,1651396468.359375
29.24,1651396468.375
28.54,1651396468.390625
27.66,1651396468.40625
26.7,1651396468.421875
25.64,1651396468.4375
24.48,1651396468.453125
23.23,1651396468.46875
21.9,1651396468.484375
20.54,1651396468.5
19.28,1651396468.515625
18.17,1651396468.53125
17.28,1651396468.546875
16.59,1651396468.5625
16.05,1651396468.578125
15.54,1651396468.59375
14.89,1651396468.609375
13.91,1651396468.625
12.47,1651396468.640625
10.56,1651396468.65625
8.22,1651396468.671875
5.66,1651396468.6875
3.02,1651396468.703125
0.45,1651396468.71875
-1.91,1651396468.734375
-4.03,1651396468.75
-5.84,1651396468.765625
-7.37,1651396468.78125
-8.71,1651396468.796875
-9.97,1651396468.8125
-11.3,1651396468.828125
-12.86,1651396468.84375
-14.74,1651396468.859375
-16.87,1651396468.875
-19.05,1651396468.890625
-20.85,1651396468.90625
-21.8,1651396468.921875
-21.44,1651396468.9375
-19.54,1651396468.953125
-16.15,1651396468.96875
-11.58,1651396468.984375
-6.33,1651396469.0
-0.93,1651396469.015625
4.14,1651396469.03125
8.35,1651396469.046875
11.04,1651396469.0625
11.46,1651396469.078125
9.01,1651396469.09375
3.72,1651396469.109375
-3.47,1651396469.125
-10.77,1651396469.140625
-16.09,1651396469.15625
-17.82,1651396469.171875
-15.46,1651396469.1875
-9.78,1651396469.203125
-2.38,1651396469.21875
4.95,1651396469.234375
10.88,1651396469.25
14.63,1651396469.265625
15.84,1651396469.28125
14.2,1651396469.296875
9.54,1651396469.3125
1.88,1651396469.328125
-8.21,1651396469.34375
-19.42,1651396469.359375
-30.06,1651396469.375
-38.53,1651396469.390625
-43.86,1651396469.40625
-45.88,1651396469.421875
-45.1,1651396469.4375
-42.22,1651396469.453125
-37.77,1651396469.46875
-31.98,1651396469.484375
-24.96,1651396469.5
-17.01,1651396469.515625
-8.71,1651396469.53125
-0.75,1651396469.546875
6.44,1651396469.5625
12.92,1651396469.578125
19.28,1651396469.59375
26.29,1651396469.609375
34.38,1651396469.625
43.41,1651396469.640625
52.66,1651396469.65625
61.22,1651396469.671875
68.42,1651396469.6875
74.1,1651396469.703125
78.59,1651396469.71875
82.34,1651396469.734375
85.51,1651396469.75
87.77,1651396469.765625
88.43,1651396469.78125
86.79,1651396469.796875
82.61,1651396469.8125
76.31,1651396469.828125
68.86,1651396469.84375
61.31,1651396469.859375
54.25,1651396469.875
47.56,1651396469.890625
40.5,1651396469.90625
32.27,1651396469.921875
22.43,1651396469.9375
11.24,1651396469.953125
-0.54,1651396469.96875
-12.05,1651396469.984375
-22.81,1651396470.0
-32.8,1651396470.015625
-42.33,1651396470.03125
-51.65,1651396470.046875
-60.63,1651396470.0625
-68.68,1651396470.078125
-74.85,1651396470.09375
-78.15,1651396470.109375
-77.85,1651396470.125
-73.83,1651396470.140625
-66.57,1651396470.15625
-57.17,1651396470.171875
-47.02,1651396470.1875
-37.4,1651396470.203125
-29.13,1651396470.21875
-22.44,1651396470.234375
-17.09,1651396470.25
-12.74,1651396470.265625
-9.16,1651396470.28125
-6.33,1651396470.296875
-4.34,1651396470.3125
-3.16,1651396470.328125
-2.59,1651396470.34375
-2.31,1651396470.359375
-1.99,1651396470.375
-1.46,1651396470.390625
-0.7,1651396470.40625
0.22,1651396470.421875
1.35,1651396470.4375
2.94,1651396470.453125
5.34,1651396470.46875
8.95,1651396470.484375
13.94,1651396470.5
20.13,1651396470.515625
26.95,1651396470.53125
33.54,1651396470.546875
38.98,1651396470.5625
42.6,1651396470.578125
44.27,1651396470.59375
44.47,1651396470.609375
44.09,1651396470.625
44.04,1651396470.640625
44.87,1651396470.65625
46.64,1651396470.671875
48.95,1651396470.6875
51.21,1651396470.703125
52.92,1651396470.71875
53.73,1651396470.734375
53.47,1651396470.75
51.95,1651396470.765625
48.95,1651396470.78125
44.26,1651396470.796875
37.89,1651396470.8125
30.19,1651396470.828125
21.8,1651396470.84375
13.5,1651396470.859375
6.0,1651396470.875
-0.26,1651396470.890625
-5.1,1651396470.90625
-8.6,1651396470.921875
-11.02,1651396470.9375
-12.67,1651396470.953125
-13.85,1651396470.96875
-14.81,1651396470.984375
-15.74,1651396471.0
-16.66,1651396471.015625
-17.54,1651396471.03125
-18.29,1651396471.046875
-18.73,1651396471.0625
-18.7,1651396471.078125
-18.12,1651396471.09375
-16.98,1651396471.109375
-15.42,1651396471.125
-13.61,1651396471.140625
-11.65,1651396471.15625
-9.43,1651396471.171875
-6.72,1651396471.1875
-3.22,1651396471.203125
1.17,1651396471.21875
6.21,1651396471.234375
11.36,1651396471.25
15.99,1651396471.265625
19.67,1651396471.28125
22.33,1651396471.296875
24.2,1651396471.3125
25.62,1651396471.328125
26.83,1651396471.34375
27.83,1651396471.359375
28.49,1651396471.375
28.75,1651396471.390625
28.76,1651396471.40625
28.9,1651396471.421875
29.64,1651396471.4375
31.3,1651396471.453125
33.71,1651396471.46875
36.14,1651396471.484375
37.49,1651396471.5
36.53,1651396471.515625
32.47,1651396471.53125
25.14,1651396471.546875
15.16,1651396471.5625
3.7,1651396471.578125
-7.85,1651396471.59375
-18.25,1651396471.609375
-26.67,1651396471.625
-32.82,1651396471.640625
-36.88,1651396471.65625
-39.36,1651396471.671875
-40.8,1651396471.6875
-41.71,1651396471.703125
-42.49,1651396471.71875
-43.51,1651396471.734375
-45.22,1651396471.75
-48.04,1651396471.765625
-52.23,1651396471.78125
-57.71,1651396471.796875
-63.94,1651396471.8125
-70.17,1651396471.828125
-75.56,1651396471.84375
-79.42,1651396471.859375
-81.32,1651396471.875
-81.0,1651396471.890625
-78.41,1651396471.90625
-73.83,1651396471.921875
-68.05,1651396471.9375
-62.34,1651396471.953125
-58.0,1651396471.96875
-55.78,1651396471.984375
-55.34,1651396472.0
-55.33,1651396472.015625
-53.9,1651396472.03125
-49.69,1651396472.046875
-42.44,1651396472.0625
-33.07,1651396472.078125
-23.08,1651396472.09375
-13.82,1651396472.109375
-5.94,1651396472.125
0.68,1651396472.140625
6.51,1651396472.15625
11.89,1651396472.171875
16.68,1651396472.1875
20.39,1651396472.203125
22.43,1651396472.21875
22.6,1651396472.234375
21.22,1651396472.25
19.18,1651396472.265625
17.55,1651396472.28125
17.19,1651396472.296875
18.32,1651396472.3125
20.44,1651396472.328125
22.57,1651396472.34375
23.6,1651396472.359375
22.84,1651396472.375
20.19,1651396472.390625
16.22,1651396472.40625
11.78,1651396472.421875
7.72,1651396472.4375
4.54,1651396472.453125
2.27,1651396472.46875
0.67,1651396472.484375
-0.69,1651396472.5
-2.12,1651396472.515625
-3.71,1651396472.53125
-5.31,1651396472.546875
-6.74,1651396472.5625
-7.81,1651396472.578125
-8.51,1651396472.59375
-8.91,1651396472.609375
-9.14,1651396472.625
-9.28,1651396472.640625
-9.39,1651396472.65625
-9.55,1651396472.671875
-9.87,1651396472.6875
-10.51,1651396472.703125
-11.58,1651396472.71875
-13.02,1651396472.734375
-14.64,1651396472.75
-16.23,1651396472.765625
-17.75,1651396472.78125
-19.42,1651396472.796875
-21.61,1651396472.8125
-24.66,1651396472.828125
-28.57,1651396472.84375
-32.82,1651396472.859375
-36.54,1651396472.875
-38.7,1651396472.890625
-38.54,1651396472.90625
-35.79,1651396472.921875
-30.76,1651396472.9375
-24.2,1651396472.953125
-17.02,1651396472.96875
-10.08,1651396472.984375
-3.99,1651396473.0
0.87,1651396473.015625
4.37,1651396473.03125
6.57,1651396473.046875
7.68,1651396473.0625
8.01,1651396473.078125
7.92,1651396473.09375
7.79,1651396473.109375
7.93,1651396473.125
8.47,1651396473.140625
9.45,1651396473.15625
10.8,1651396473.171875
12.41,1651396473.1875
14.26,1651396473.203125
16.42,1651396473.21875
18.98,1651396473.234375
21.94,1651396473.25
25.18,1651396473.265625
28.4,1651396473.28125
31.16,1651396473.296875
33.04,1651396473.3125
33.78,1651396473.328125
33.32,1651396473.34375
31.84,1651396473.359375
29.63,1651396473.375
27.05,1651396473.390625
24.37,1651396473.40625
21.8,1651396473.421875
19.45,1651396473.4375
17.38,1651396473.453125
15.61,1651396473.46875
14.1,1651396473.484375
12.79,1651396473.5
11.6,1651396473.515625
10.39,1651396473.53125
9.04,1651396473.546875
7.44,1651396473.5625
5.45,1651396473.578125
3.01,1651396473.59375
0.14,1651396473.609375
-3.08,1651396473.625
-6.48,1651396473.640625
-9.83,1651396473.65625
-12.89,1651396473.671875
-15.44,1651396473.6875
-17.39,1651396473.703125
-18.71,1651396473.71875
-19.43,1651396473.734375
-19.56,1651396473.75
-19.12,1651396473.765625
-18.06,1651396473.78125
-16.4,1651396473.796875
-14.16,1651396473.8125
-11.47,1651396473.828125
-8.46,1651396473.84375
-5.27,1651396473.859375
-2.01,1651396473.875
1.25,1651396473.890625
4.39,1651396473.90625
7.3,1651396473.921875
9.84,1651396473.9375
11.87,1651396473.953125
13.38,1651396473.96875
14.45,1651396473.984375
15.26,1651396474.0
15.92,1651396474.015625
16.53,1651396474.03125
17.02,1651396474.046875
17.33,1651396474.0625
17.35,1651396474.078125
17.0,1651396474.09375
16.26,1651396474.109375
15.16,1651396474.125
13.77,1651396474.140625
12.13,1651396474.15625
10.33,1651396474.171875
8.52,1651396474.1875
6.89,1651396474.203125
5.65,1651396474.21875
4.89,1651396474.234375
4.54,1651396474.25
4.27,1651396474.265625
3.61,1651396474.28125
2.13,1651396474.296875
-0.35,1651396474.3125
-3.62,1651396474.328125
-7.11,1651396474.34375
-10.11,1651396474.359375
-12.06,1651396474.375
-12.87,1651396474.390625
-12.96,1651396474.40625
-13.15,1651396474.421875
-14.19,1651396474.4375
-16.48,1651396474.453125
-19.92,1651396474.46875
-23.84,1651396474.484375
-27.35,1651396474.5
-29.65,1651396474.515625
-30.2,1651396474.53125
-28.98,1651396474.546875
-26.31,1651396474.5625
-22.83,1651396474.578125
-19.14,1651396474.59375
-15.77,1651396474.609375
-13.06,1651396474.625
-11.13,1651396474.640625
-10.03,1651396474.65625
-9.64,1651396474.671875
-9.81,1651396474.6875
-10.24,1651396474.703125
-10.73,1651396474.71875
-11.1,1651396474.734375
-11.33,1651396474.75
-11.51,1651396474.765625
-11.69,1651396474.78125
-11.73,1651396474.796875
-11.21,1651396474.8125
-9.44,1651396474.828125
-5.87,1651396474.84375
-0.34,1651396474.859375
6.61,1651396474.875
13.88,1651396474.890625
20.22,1651396474.90625
24.68,1651396474.921875
27.14,1651396474.9375
28.34,1651396474.953125
29.67,1651396474.96875
32.57,1651396474.984375
38.08,1651396475.0
46.43,1651396475.015625
57.05,1651396475.03125
68.79,1651396475.046875
80.26,1651396475.0625
90.1,1651396475.078125
97.22,1651396475.09375
100.91,1651396475.109375
100.87,1651396475.125
97.27,1651396475.140625
90.67,1651396475.15625
81.91,1651396475.171875
71.91,1651396475.1875
61.52,1651396475.203125
51.41,1651396475.21875
42.03,1651396475.234375
33.64,1651396475.25
26.33,1651396475.265625
19.95,1651396475.28125
14.09,1651396475.296875
8.09,1651396475.3125
1.15,1651396475.328125
-7.35,1651396475.34375
-17.59,1651396475.359375
-29.21,1651396475.375
-41.37,1651396475.390625
-53.0,1651396475.40625
-63.19,1651396475.421875
-71.39,1651396475.4375
-77.46,1651396475.453125
-81.68,1651396475.46875
-84.48,1651396475.484375
-86.24,1651396475.5
-87.23,1651396475.515625
-87.57,1651396475.53125
-87.3,1651396475.546875
-86.29,1651396475.5625
-84.35,1651396475.578125
-81.12,1651396475.59375
-76.19,1651396475.609375
-69.25,1651396475.625
-60.27,1651396475.640625
-49.66,1651396475.65625
-38.25,1651396475.671875
-27.09,1651396475.6875
-17.09,1651396475.703125
-8.79,1651396475.71875
-2.19,1651396475.734375
3.08,1651396475.75
7.57,1651396475.765625
11.61,1651396475.78125
15.34,1651396475.796875
18.67,1651396475.8125
21.53,1651396475.828125
23.95,1651396475.84375
26.09,1651396475.859375
28.12,1651396475.875
30.12,1651396475.890625
31.97,1651396475.90625
33.45,1651396475.921875
34.27,1651396475.9375
34.34,1651396475.953125
33.68,1651396475.96875
32.49,1651396475.984375
31.0,1651396476.0
29.35,1651396476.015625
27.53,1651396476.03125
25.36,1651396476.046875
22.69,1651396476.0625
19.52,1651396476.078125
16.05,1651396476.09375
12.64,1651396476.109375
9.65,1651396476.125
7.23,1651396476.140625
5.25,1651396476.15625
3.38,1651396476.171875
1.22,1651396476.1875
-1.46,1651396476.203125
-4.61,1651396476.21875
-8.02,1651396476.234375
-11.41,1651396476.25
-14.59,1651396476.265625
-17.5,1651396476.28125
-20.18,1651396476.296875
-22.67,1651396476.3125
-25.03,1651396476.328125
-27.38,1651396476.34375
-29.99,1651396476.359375
-33.12,1651396476.375
-36.88,1651396476.390625
-41.08,1651396476.40625
-45.08,1651396476.421875
-47.87,1651396476.4375
-48.44,1651396476.453125
-46.12,1651396476.46875
-40.85,1651396476.484375
-33.35,1651396476.5
-24.75,1651396476.515625
-16.22,1651396476.53125
-8.6,1651396476.546875
-2.22,1651396476.5625
3.04,1651396476.578125
7.43,1651396476.59375
11.19,1651396476.609375
14.37,1651396476.625
16.84,1651396476.640625
18.54,1651396476.65625
19.5,1651396476.671875
19.95,1651396476.6875
20.2,1651396476.703125
20.52,1651396476.71875
21.01,1651396476.734375
21.56,1651396476.75
21.99,1651396476.765625
22.04,1651396476.78125
21.56,1651396476.796875
20.5,1651396476.8125
18.91,1651396476.828125
16.95,1651396476.84375
14.8,1651396476.859375
12.64,1651396476.875
10.67,1651396476.890625
9.06,1651396476.90625
7.99,1651396476.921875
7.61,1651396476.9375
7.97,1651396476.953125
8.88,1651396476.96875
10.04,1651396476.984375
10.97,1651396477.0
11.2,1651396477.015625
10.39,1651396477.03125
8.36,1651396477.046875
5.12,1651396477.0625
0.82,1651396477.078125
-4.2,1651396477.09375
-9.48,1651396477.109375
-14.39,1651396477.125
-18.24,1651396477.140625
-20.46,1651396477.15625
-20.7,1651396477.171875
-19.1,1651396477.1875
-16.2,1651396477.203125
-12.85,1651396477.21875
-9.92,1651396477.234375
-7.96,1651396477.25
-6.99,1651396477.265625
-6.54,1651396477.28125
-5.84,1651396477.296875
-4.06,1651396477.3125
-0.69,1651396477.328125
4.3,1651396477.34375
10.51,1651396477.359375
17.21,1651396477.375
23.63,1651396477.390625
29.06,1651396477.40625
32.98,1651396477.421875
35.05,1651396477.4375
35.09,1651396477.453125
33.04,1651396477.46875
29.07,1651396477.484375
23.53,1651396477.5
16.99,1651396477.515625
10.16,1651396477.53125
3.89,1651396477.546875
-1.12,1651396477.5625
-4.37,1651396477.578125
-5.72,1651396477.59375
-5.42,1651396477.609375
-4.05,1651396477.625
-2.29,1651396477.640625
-0.77,1651396477.65625
0.12,1651396477.671875
0.35,1651396477.6875
0.11,1651396477.703125
-0.29,1651396477.71875
-0.65,1651396477.734375
-0.91,1651396477.75
-1.17,1651396477.765625
-1.54,1651396477.78125
-2.03,1651396477.796875
-2.42,1651396477.8125
-2.42,1651396477.828125
-1.8,1651396477.84375
-0.6,1651396477.859375
0.85,1651396477.875
1.97,1651396477.890625
2.22,1651396477.90625
1.39,1651396477.921875
-0.32,1651396477.9375
-2.38,1651396477.953125
-4.23,1651396477.96875
-5.52,1651396477.984375
-6.24,1651396478.0
-6.61,1651396478.015625
-6.95,1651396478.03125
-7.44,1651396478.046875
-8.1,1651396478.0625
-8.81,1651396478.078125
-9.45,1651396478.09375
-9.97,1651396478.109375
-10.37,1651396478.125
-10.67,1651396478.140625
-10.89,1651396478.15625
-11.06,1651396478.171875
-11.33,1651396478.1875
-11.9,1651396478.203125
-12.91,1651396478.21875
-14.35,1651396478.234375
-16.0,1651396478.25
-17.48,1651396478.265625
-18.55,1651396478.28125
-19.28,1651396478.296875
-20.08,1651396478.3125
-21.49,1651396478.328125
-23.91,1651396478.34375
-27.42,1651396478.359375
-31.61,1651396478.375
-35.77,1651396478.390625
-39.1,1651396478.40625
-40.87,1651396478.421875
-40.6,1651396478.4375
-38.06,1651396478.453125
-33.3,1651396478.46875
-26.68,1651396478.484375
-18.87,1651396478.5
-10.77,1651396478.515625
-3.3,1651396478.53125
2.84,1651396478.546875
7.43,1651396478.5625
10.67,1651396478.578125
13.09,1651396478.59375
15.21,1651396478.609375
17.32,1651396478.625
19.41,1651396478.640625
21.28,1651396478.65625
22.68,1651396478.671875
23.51,1651396478.6875
23.87,1651396478.703125
24.0,1651396478.71875
24.12,1651396478.734375
24.37,1651396478.75
24.7,1651396478.765625
24.98,1651396478.78125
25.07,1651396478.796875
24.92,1651396478.8125
24.54,1651396478.828125
24.03,1651396478.84375
23.42,1651396478.859375
22.63,1651396478.875
21.56,1651396478.890625
20.09,1651396478.90625
18.23,1651396478.921875
16.12,1651396478.9375
14.01,1651396478.953125
12.15,1651396478.96875
10.71,1651396478.984375
9.71,1651396479.0
9.07,1651396479.015625
8.64,1651396479.03125
8.2,1651396479.046875
7.54,1651396479.0625
6.51,1651396479.078125
4.99,1651396479.09375
3.0,1651396479.109375
0.71,1651396479.125
-1.65,1651396479.140625
-3.84,1651396479.15625
-5.72,1651396479.171875
-7.26,1651396479.1875
-8.58,1651396479.203125
-9.83,1651396479.21875
-11.17,1651396479.234375
-12.69,1651396479.25
-14.36,1651396479.265625
-16.05,1651396479.28125
-17.58,1651396479.296875
-18.87,1651396479.3125
-19.96,1651396479.328125
-21.06,1651396479.34375
-22.4,1651396479.359375
-24.16,1651396479.375
-26.34,1651396479.390625
-28.71,1651396479.40625
-30.91,1651396479.421875
-32.44,1651396479.4375
-32.9,1651396479.453125
-31.93,1651396479.46875
-29.38,1651396479.484375
-25.25,1651396479.5
-19.78,1651396479.515625
-13.42,1651396479.53125
-6.78,1651396479.546875
-0.5,1651396479.5625
4.91,1651396479.578125
9.13,1651396479.59375
12.06,1651396479.609375
13.79,1651396479.625
14.53,1651396479.640625
14.49,1651396479.65625
13.91,1651396479.671875
13.0,1651396479.6875
11.94,1651396479.703125
10.95,1651396479.71875
10.19,1651396479.734375
9.83,1651396479.75
9.97,1651396479.765625
10.66,1651396479.78125
11.89,1651396479.796875
13.48,1651396479.8125
15.19,1651396479.828125
16.64,1651396479.84375
17.48,1651396479.859375
17.44,1651396479.875
16.5,1651396479.890625
14.82,1651396479.90625
12.78,1651396479.921875
10.72,1651396479.9375
8.89,1651396479.953125
7.37,1651396479.96875
6.09,1651396479.984375
4.92,1651396480.0
3.79,1651396480.015625
2.73,1651396480.03125
1.8,1651396480.046875
1.05,1651396480.0625
0.41,1651396480.078125
-0.21,1651396480.09375
-0.94,1651396480.109375
-1.85,1651396480.125
-2.94,1651396480.140625
-4.14,1651396480.15625
-5.34,1651396480.171875
-6.44,1651396480.1875
-7.34,1651396480.203125
-7.92,1651396480.21875
-7.95,1651396480.234375
-7.08,1651396480.25
-4.95,1651396480.265625
-1.32,1651396480.28125
3.8,1651396480.296875
9.95,1651396480.3125
16.31,1651396480.328125
21.81,1651396480.34375
25.47,1651396480.359375
26.59,1651396480.375
25.02,1651396480.390625
21.16,1651396480.40625
15.83,1651396480.421875
10.03,1651396480.4375
4.61,1651396480.453125
0.08,1651396480.46875
-3.43,1651396480.484375
-6.12,1651396480.5
-8.25,1651396480.515625
-10.01,1651396480.53125
-11.42,1651396480.546875
-12.46,1651396480.5625
-13.09,1651396480.578125
-13.39,1651396480.59375
-13.52,1651396480.609375
-13.62,1651396480.625
-13.68,1651396480.640625
-13.62,1651396480.65625
-13.34,1651396480.671875
-12.77,1651396480.6875
-11.95,1651396480.703125
-10.98,1651396480.71875
-10.05,1651396480.734375
-9.34,1651396480.75
-8.99,1651396480.765625
-9.1,1651396480.78125
-9.64,1651396480.796875
-10.49,1651396480.8125
-11.4,1651396480.828125
-12.2,1651396480.84375
-12.84,1651396480.859375
-13.53,1651396480.875
-14.67,1651396480.890625
-16.57,1651396480.90625
-19.38,1651396480.921875
-22.93,1651396480.9375
-26.78,1651396480.953125
-30.29,1651396480.96875
-32.79,1651396480.984375
-33.64,1651396481.0
-32.35,1651396481.015625
-28.76,1651396481.03125
-23.06,1651396481.046875
-15.87,1651396481.0625
-8.02,1651396481.078125
-0.39,1651396481.09375
6.34,1651396481.109375
11.85,1651396481.125
16.05,1651396481.140625
19.05,1651396481.15625
20.98,1651396481.171875
21.97,1651396481.1875
22.22,1651396481.203125
22.03,1651396481.21875
21.73,1651396481.234375
21.53,1651396481.25
21.39,1651396481.265625
21.07,1651396481.28125
20.24,1651396481.296875
18.8,1651396481.3125
16.89,1651396481.328125
14.9,1651396481.34375
13.24,1651396481.359375
12.05,1651396481.375
11.18,1651396481.390625
10.27,1651396481.40625
8.98,1651396481.421875
7.21,1651396481.4375
5.05,1651396481.453125
2.8,1651396481.46875
0.67,1651396481.484375
-1.24,1651396481.5
-3.03,1651396481.515625
-4.85,1651396481.53125
-6.84,1651396481.546875
-8.98,1651396481.5625
-11.19,1651396481.578125
-13.31,1651396481.59375
-15.23,1651396481.609375
-16.98,1651396481.625
-18.69,1651396481.640625
-20.6,1651396481.65625
-22.95,1651396481.671875
-25.88,1651396481.6875
-29.45,1651396481.703125
-33.52,1651396481.71875
-37.86,1651396481.734375
-42.0,1651396481.75
-45.31,1651396481.765625
-46.98,1651396481.78125
-46.21,1651396481.796875
-42.46,1651396481.8125
-35.73,1651396481.828125
-26.68,1651396481.84375
-16.48,1651396481.859375
-6.49,1651396481.875
2.18,1651396481.890625
8.95,1651396481.90625
13.9,1651396481.921875
17.51,1651396481.9375
20.41,1651396481.953125
23.03,1651396481.96875
25.53,1651396481.984375
27.76,1651396482.0
29.45,1651396482.015625
30.42,1651396482.03125
30.57,1651396482.046875
30.08,1651396482.0625
29.23,1651396482.078125
28.34,1651396482.09375
27.64,1651396482.109375
27.24,1651396482.125
27.08,1651396482.140625
27.05,1651396482.15625
27.1,1651396482.171875
27.18,1651396482.1875
27.27,1651396482.203125
27.28,1651396482.21875
27.01,1651396482.234375
26.24,1651396482.25
24.82,1651396482.265625
22.77,1651396482.28125
20.32,1651396482.296875
17.78,1651396482.3125
15.45,1651396482.328125
13.36,1651396482.34375
11.4,1651396482.359375
9.33,1651396482.375
6.96,1651396482.390625
4.28,1651396482.40625
1.48,1651396482.421875
-1.18,1651396482.4375
-3.51,1651396482.453125
-5.47,1651396482.46875
-7.28,1651396482.484375
-9.22,1651396482.5
-11.61,1651396482.515625
-14.57,1651396482.53125
-17.95,1651396482.546875
-21.4,1651396482.5625
-24.48,1651396482.578125
-26.88,1651396482.59375
-28.51,1651396482.609375
-29.56,1651396482.625
-30.5,1651396482.640625
-31.93,1651396482.65625
-34.37,1651396482.671875
-38.1,1651396482.6875
-42.85,1651396482.703125
-47.79,1651396482.71875
-51.61,1651396482.734375
-52.93,1651396482.75
-50.7,1651396482.765625
-44.73,1651396482.78125
-35.81,1651396482.796875
-25.48,1651396482.8125
-15.56,1651396482.828125
-7.43,1651396482.84375
-1.7,1651396482.859375
1.99,1651396482.875
4.54,1651396482.890625
6.98,1651396482.90625
9.83,1651396482.921875
13.02,1651396482.9375
15.96,1651396482.953125
18.03,1651396482.96875
18.87,1651396482.984375
18.66,1651396483.0
17.92,1651396483.015625
17.27,1651396483.03125
17.04,1651396483.046875
17.22,1651396483.0625
17.53,1651396483.078125
17.7,1651396483.09375
17.55,1651396483.109375
16.99,1651396483.125
15.94,1651396483.140625
14.35,1651396483.15625
12.41,1651396483.171875
10.73,1651396483.1875
10.49,1651396483.203125
13.12,1651396483.21875
19.7,1651396483.234375
30.38,1651396483.25
44.03,1651396483.265625
58.45,1651396483.28125
71.02,1651396483.296875
79.54,1651396483.3125
82.8,1651396483.328125
80.81,1651396483.34375
74.57,1651396483.359375
65.64,1651396483.375
55.57,1651396483.390625
45.77,1651396483.40625
37.13,1651396483.421875
30.17,1651396483.4375
25.06,1651396483.453125
21.6,1651396483.46875
19.36,1651396483.484375
17.69,1651396483.5
15.78,1651396483.515625
12.82,1651396483.53125
8.22,1651396483.546875
1.8,1651396483.5625
-6.08,1651396483.578125
-14.62,1651396483.59375
-22.79,1651396483.609375
-29.72,1651396483.625
-35.03,1651396483.640625
-38.87,1651396483.65625
-41.84,1651396483.671875
-44.61,1651396483.6875
-47.57,1651396483.703125
-50.55,1651396483.71875
-52.92,1651396483.734375
-53.82,1651396483.75
-52.53,1651396483.765625
-48.78,1651396483.78125
-42.9,1651396483.796875
-35.66,1651396483.8125
-28.02,1651396483.828125
-20.76,1651396483.84375
-14.3,1651396483.859375
-8.68,1651396483.875
-3.72,1651396483.890625
0.78,1651396483.90625
4.87,1651396483.921875
8.44,1651396483.9375
11.3,1651396483.953125
13.34,1651396483.96875
14.65,1651396483.984375
15.48,1651396484.0
16.13,1651396484.015625
16.82,1651396484.03125
17.62,1651396484.046875
18.41,1651396484.0625
19.09,1651396484.078125
19.56,1651396484.09375
19.82,1651396484.109375
19.9,1651396484.125
19.79,1651396484.140625
19.45,1651396484.15625
18.8,1651396484.171875
17.85,1651396484.1875
16.67,1651396484.203125
15.41,1651396484.21875
14.22,1651396484.234375
13.13,1651396484.25
12.07,1651396484.265625
10.9,1651396484.28125
9.48,1651396484.296875
7.73,1651396484.3125
5.71,1651396484.328125
3.57,1651396484.34375
1.54,1651396484.359375
-0.19,1651396484.375
-1.52,1651396484.390625
-2.51,1651396484.40625
-3.33,1651396484.421875
-4.23,1651396484.4375
-5.39,1651396484.453125
-6.9,1651396484.46875
-8.7,1651396484.484375
-10.61,1651396484.5
-12.48,1651396484.515625
-14.2,1651396484.53125
-15.77,1651396484.546875
-17.36,1651396484.5625
-19.18,1651396484.578125
-21.44,1651396484.59375
-24.24,1651396484.609375
-27.46,1651396484.625
-30.69,1651396484.640625
-33.37,1651396484.65625
-34.87,1651396484.671875
-34.67,1651396484.6875
-32.46,1651396484.703125
-28.23,1651396484.71875
-22.26,1651396484.734375
-15.11,1651396484.75
-7.57,1651396484.765625
-0.43,1651396484.78125
5.61,1651396484.796875
10.14,1651396484.8125
13.13,1651396484.828125
14.86,1651396484.84375
15.7,1651396484.859375
16.03,1651396484.875
16.05,1651396484.890625
15.82,1651396484.90625
15.38,1651396484.921875
14.82,1651396484.9375
14.37,1651396484.953125
14.32,1651396484.96875
14.86,1651396484.984375
15.98,1651396485.0
17.42,1651396485.015625
18.75,1651396485.03125
19.52,1651396485.046875
19.51,1651396485.0625
18.76,1651396485.078125
17.54,1651396485.09375
16.18,1651396485.109375
14.9,1651396485.125
13.81,1651396485.140625
12.93,1651396485.15625
12.26,1651396485.171875
11.8,1651396485.1875
11.53,1651396485.203125
11.32,1651396485.21875
10.97,1651396485.234375
10.22,1651396485.25
8.88,1651396485.265625
6.93,1651396485.28125
4.49,1651396485.296875
1.85,1651396485.3125
-0.72,1651396485.328125
-2.99,1651396485.34375
-4.91,1651396485.359375
-6.51,1651396485.375
-7.96,1651396485.390625
-9.43,1651396485.40625
-11.08,1651396485.421875
-12.91,1651396485.4375
-14.82,1651396485.453125
-16.65,1651396485.46875
-18.24,1651396485.484375
-19.64,1651396485.5
-21.0,1651396485.515625
-22.58,1651396485.53125
-24.61,1651396485.546875
-27.14,1651396485.5625
-30.07,1651396485.578125
-33.01,1651396485.59375
-35.41,1651396485.609375
-36.59,1651396485.625
-35.89,1651396485.640625
-32.9,1651396485.65625
-27.58,1651396485.671875
-20.37,1651396485.6875
-12.14,1651396485.703125
-3.97,1651396485.71875
3.2,1651396485.734375
8.77,1651396485.75
12.61,1651396485.765625
14.96,1651396485.78125
16.23,1651396485.796875
16.86,1651396485.8125
17.13,1651396485.828125
17.23,1651396485.84375
17.27,1651396485.859375
17.38,1651396485.875
17.67,1651396485.890625
18.14,1651396485.90625
18.68,1651396485.921875
19.1,1651396485.9375
19.18,1651396485.953125
18.8,1651396485.96875
17.96,1651396485.984375
16.8,1651396486.0
15.55,1651396486.015625
14.43,1651396486.03125
13.6,1651396486.046875
13.15,1651396486.0625
13.05,1651396486.078125
13.25,1651396486.09375
13.56,1651396486.109375
13.75,1651396486.125
13.61,1651396486.140625
12.96,1651396486.15625
11.74,1651396486.171875
10.06,1651396486.1875
8.1,1651396486.203125
6.1,1651396486.21875
4.27,1651396486.234375
2.76,1651396486.25
1.62,1651396486.265625
0.74,1651396486.28125
0.04,1651396486.296875
-0.7,1651396486.3125
-1.62,1651396486.328125
-2.85,1651396486.34375
-4.47,1651396486.359375
-6.4,1651396486.375
-8.46,1651396486.390625
-10.45,1651396486.40625
-12.17,1651396486.421875
-13.51,1651396486.4375
-14.5,1651396486.453125
-15.22,1651396486.46875
-15.75,1651396486.484375
-16.18,1651396486.5
-16.57,1651396486.515625
-17.09,1651396486.53125
-18.01,1651396486.546875
-19.63,1651396486.5625
-22.09,1651396486.578125
-25.12,1651396486.59375
-28.04,1651396486.609375
-29.85,1651396486.625
-29.65,1651396486.640625
-26.95,1651396486.65625
-21.93,1651396486.671875
-15.39,1651396486.6875
-8.43,1651396486.703125
-2.15,1651396486.71875
2.77,1651396486.734375
6.08,1651396486.75
8.02,1651396486.765625
9.04,1651396486.78125
9.69,1651396486.796875
10.36,1651396486.8125
11.28,1651396486.828125
12.46,1651396486.84375
13.72,1651396486.859375
14.84,1651396486.875
15.57,1651396486.890625
15.74,1651396486.90625
15.35,1651396486.921875
14.58,1651396486.9375
13.7,1651396486.953125
12.98,1651396486.96875
12.58,1651396486.984375
12.48,1651396487.0
12.49,1651396487.015625
12.38,1651396487.03125
11.87,1651396487.046875
10.81,1651396487.0625
9.18,1651396487.078125
7.12,1651396487.09375
4.95,1651396487.109375
2.98,1651396487.125
1.43,1651396487.140625
0.36,1651396487.15625
-0.39,1651396487.171875
-1.03,1651396487.1875
-1.68,1651396487.203125
-2.3,1651396487.21875
-2.74,1651396487.234375
-2.87,1651396487.25
-2.8,1651396487.265625
-2.88,1651396487.28125
-3.54,1651396487.296875
-5.04,1651396487.3125
-7.3,1651396487.328125
-9.82,1651396487.34375
-12.05,1651396487.359375
-13.58,1651396487.375
-14.4,1651396487.390625
-14.87,1651396487.40625
-15.47,1651396487.421875
-16.57,1651396487.4375
-18.32,1651396487.453125
-20.66,1651396487.46875
-23.4,1651396487.484375
-26.35,1651396487.5
-29.28,1651396487.515625
-31.82,1651396487.53125
-33.41,1651396487.546875
-33.44,1651396487.5625
-31.44,1651396487.578125
-27.37,1651396487.59375
-21.73,1651396487.609375
-15.4,1651396487.625
-9.34,1651396487.640625
-4.22,1651396487.65625
-0.25,1651396487.671875
2.69,1651396487.6875
4.88,1651396487.703125
6.6,1651396487.71875
8.02,1651396487.734375
9.26,1651396487.75
10.37,1651396487.765625
11.39,1651396487.78125
12.3,1651396487.796875
13.09,1651396487.8125
13.73,1651396487.828125
14.29,1651396487.84375
14.91,1651396487.859375
15.73,1651396487.875
16.84,1651396487.890625
18.19,1651396487.90625
19.61,1651396487.921875
20.99,1651396487.9375
22.22,1651396487.953125
23.3,1651396487.96875
24.3,1651396487.984375
25.24,1651396488.0
26.1,1651396488.015625
26.65,1651396488.03125
26.62,1651396488.046875
25.71,1651396488.0625
23.75,1651396488.078125
20.89,1651396488.09375
17.57,1651396488.109375
14.45,1651396488.125
12.16,1651396488.140625
11.08,1651396488.15625
11.22,1651396488.171875
12.28,1651396488.1875
13.85,1651396488.203125
15.54,1651396488.21875
17.06,1651396488.234375
18.28,1651396488.25
19.01,1651396488.265625
19.04,1651396488.28125
18.13,1651396488.296875
16.13,1651396488.3125
13.06,1651396488.328125
9.17,1651396488.34375
4.9,1651396488.359375
0.8,1651396488.375
-2.71,1651396488.390625
-5.42,1651396488.40625
-7.48,1651396488.421875
-9.23,1651396488.4375
-11.09,1651396488.453125
-13.35,1651396488.46875
-16.02,1651396488.484375
-18.94,1651396488.5
-21.88,1651396488.515625
-24.69,1651396488.53125
-27.26,1651396488.546875
-29.57,1651396488.5625
-31.48,1651396488.578125
-32.75,1651396488.59375
-33.07,1651396488.609375
-32.12,1651396488.625
-29.74,1651396488.640625
-25.97,1651396488.65625
-21.07,1651396488.671875
-15.47,1651396488.6875
-9.69,1651396488.703125
-4.32,1651396488.71875
0.12,1651396488.734375
3.27,1651396488.75
5.12,1651396488.765625
5.91,1651396488.78125
6.17,1651396488.796875
6.4,1651396488.8125
7.0,1651396488.828125
8.01,1651396488.84375
9.25,1651396488.859375
10.38,1651396488.875
11.14,1651396488.890625
11.46,1651396488.90625
11.45,1651396488.921875
11.35,1651396488.9375
11.26,1651396488.953125
11.19,1651396488.96875
11.0,1651396488.984375
10.55,1651396489.0
9.88,1651396489.015625
9.17,1651396489.03125
8.76,1651396489.046875
8.87,1651396489.0625
9.51,1651396489.078125
10.39,1651396489.09375
11.01,1651396489.109375
10.99,1651396489.125
10.12,1651396489.140625
8.49,1651396489.15625
6.36,1651396489.171875
4.05,1651396489.1875
1.77,1651396489.203125
-0.32,1651396489.21875
-2.15,1651396489.234375
-3.65,1651396489.25
-4.82,1651396489.265625
-5.7,1651396489.28125
-6.43,1651396489.296875
-7.23,1651396489.3125
-8.22,1651396489.328125
-9.48,1651396489.34375
-10.89,1651396489.359375
-12.33,1651396489.375
-13.65,1651396489.390625
-14.84,1651396489.40625
-15.92,1651396489.421875
-16.92,1651396489.4375
-17.74,1651396489.453125
-18.21,1651396489.46875
-18.12,1651396489.484375
-17.37,1651396489.5
-16.03,1651396489.515625
-14.39,1651396489.53125
-12.9,1651396489.546875
-12.1,1651396489.5625
-12.32,1651396489.578125
-13.72,1651396489.59375
-16.11,1651396489.609375
-18.96,1651396489.625
-21.56,1651396489.640625
-23.2,1651396489.65625
-23.27,1651396489.671875
-21.54,1651396489.6875
-18.16,1651396489.703125
-13.62,1651396489.71875
-8.58,1651396489.734375
-3.72,1651396489.75
0.45,1651396489.765625
3.63,1651396489.78125
5.81,1651396489.796875
7.13,1651396489.8125
7.8,1651396489.828125
7.96,1651396489.84375
7.73,1651396489.859375
7.14,1651396489.875
6.26,1651396489.890625
5.29,1651396489.90625
4.45,1651396489.921875
3.94,1651396489.9375
3.86,1651396489.953125
4.11,1651396489.96875
4.49,1651396489.984375
4.8,1651396490.0
4.88,1651396490.015625
4.7,1651396490.03125
4.23,1651396490.046875
3.5,1651396490.0625
2.55,1651396490.078125
1.5,1651396490.09375
0.46,1651396490.109375
-0.4,1651396490.125
-1.11,1651396490.140625
-1.85,1651396490.15625
-2.95,1651396490.171875
-4.74,1651396490.1875
-7.33,1651396490.203125
-10.53,1651396490.21875
-13.75,1651396490.234375
-16.33,1651396490.25
-17.65,1651396490.265625
-17.42,1651396490.28125
-15.73,1651396490.296875
-13.05,1651396490.3125
-10.09,1651396490.328125
-7.63,1651396490.34375
-6.27,1651396490.359375
-6.39,1651396490.375
-8.03,1651396490.390625
-10.95,1651396490.40625
-14.71,1651396490.421875
-18.79,1651396490.4375
-22.71,1651396490.453125
-26.16,1651396490.46875
-29.04,1651396490.484375
-31.41,1651396490.5
-33.45,1651396490.515625
-35.26,1651396490.53125
-36.82,1651396490.546875
-37.94,1651396490.5625
-38.33,1651396490.578125
-37.7,1651396490.59375
-35.89,1651396490.609375
-32.92,1651396490.625
-29.04,1651396490.640625
-24.61,1651396490.65625
-19.95,1651396490.671875
-15.1,1651396490.6875
-9.79,1651396490.703125
-3.4,1651396490.71875
4.69,1651396490.734375
14.76,1651396490.75
26.44,1651396490.765625
38.64,1651396490.78125
49.96,1651396490.796875
59.19,1651396490.8125
65.78,1651396490.828125
69.89,1651396490.84375
72.04,1651396490.859375
72.71,1651396490.875
71.97,1651396490.890625
69.6,1651396490.90625
65.31,1651396490.921875
59.19,1651396490.9375
51.8,1651396490.953125
43.95,1651396490.96875
36.46,1651396490.984375
29.87,1651396491.0
24.47,1651396491.015625
20.38,1651396491.03125
17.7,1651396491.046875
16.45,1651396491.0625
16.43,1651396491.078125
16.99,1651396491.09375
17.23,1651396491.109375
16.25,1651396491.125
13.48,1651396491.140625
8.99,1651396491.15625
3.38,1651396491.171875
-2.47,1651396491.1875
-7.8,1651396491.203125
-12.07,1651396491.21875
-15.07,1651396491.234375
-16.79,1651396491.25
-17.36,1651396491.265625
-17.09,1651396491.28125
-16.5,1651396491.296875
-16.26,1651396491.3125
-16.88,1651396491.328125
-18.31,1651396491.34375
-19.8,1651396491.359375
-20.01,1651396491.375
-17.61,1651396491.390625
-11.9,1651396491.40625
-3.34,1651396491.421875
6.59,1651396491.4375
15.82,1651396491.453125
22.54,1651396491.46875
25.78,1651396491.484375
25.69,1651396491.5
23.24,1651396491.515625
19.68,1651396491.53125
15.95,1651396491.546875
12.49,1651396491.5625
9.29,1651396491.578125
6.2,1651396491.59375
3.2,1651396491.609375
0.59,1651396491.625
-1.24,1651396491.640625
-2.04,1651396491.65625
-1.99,1651396491.671875
-1.69,1651396491.6875
-1.88,1651396491.703125
-3.04,1651396491.71875
-5.2,1651396491.734375
-7.92,1651396491.75
-10.54,1651396491.765625
-12.54,1651396491.78125
-13.71,1651396491.796875
-14.14,1651396491.8125
-14.1,1651396491.828125
-13.87,1651396491.84375
-13.64,1651396491.859375
-13.5,1651396491.875
-13.52,1651396491.890625
-13.68,1651396491.90625
-14.03,1651396491.921875
-14.49,1651396491.9375
-14.91,1651396491.953125
-15.06,1651396491.96875
-14.73,1651396491.984375
-13.85,1651396492.0
-12.51,1651396492.015625
-10.95,1651396492.03125
-9.44,1651396492.046875
-8.2,1651396492.0625
-7.28,1651396492.078125
-6.57,1651396492.09375
-5.89,1651396492.109375
-5.04,1651396492.125
-4.0,1651396492.140625
-2.83,1651396492.15625
-1.74,1651396492.171875
-0.95,1651396492.1875
-0.67,1651396492.203125
-0.9,1651396492.21875
-1.55,1651396492.234375
-2.38,1651396492.25
-3.17,1651396492.265625
-3.76,1651396492.28125
-4.17,1651396492.296875
-4.61,1651396492.3125
-5.25,1651396492.328125
-6.19,1651396492.34375
-7.39,1651396492.359375
-8.72,1651396492.375
-10.11,1651396492.390625
-11.52,1651396492.40625
-12.94,1651396492.421875
-14.35,1651396492.4375
-15.68,1651396492.453125
-16.85,1651396492.46875
-17.88,1651396492.484375
-18.86,1651396492.5
-20.03,1651396492.515625
-21.57,1651396492.53125
-23.47,1651396492.546875
-25.49,1651396492.5625
-27.23,1651396492.578125
-28.33,1651396492.59375
-28.53,1651396492.609375
-27.77,1651396492.625
-26.16,1651396492.640625
-23.84,1651396492.65625
-20.97,1651396492.671875
-17.75,1651396492.6875
-14.4,1651396492.703125
-11.18,1651396492.71875
-8.24,1651396492.734375
-5.65,1651396492.75
-3.38,1651396492.765625
-1.34,1651396492.78125
0.51,1651396492.796875
2.17,1651396492.8125
3.63,1651396492.828125
4.87,1651396492.84375
5.96,1651396492.859375
7.02,1651396492.875
8.21,1651396492.890625
9.6,1651396492.90625
11.17,1651396492.921875
12.81,1651396492.9375
14.33,1651396492.953125
15.52,1651396492.96875
16.25,1651396492.984375
16.49,1651396493.0
16.28,1651396493.015625
15.73,1651396493.03125
15.03,1651396493.046875
14.41,1651396493.0625
