PPG GREEN,time
2532549.0,1651396415.533
2542776.0,1651396415.574
2555907.0,1651396415.613
2563663.0,1651396415.654
2571788.0,1651396415.694
2578899.0,1651396415.734
2584782.0,1651396415.774
2589517.0,1651396415.815
2595704.0,1651396415.853
2601393.0,1651396415.893
2607653.0,1651396415.934
2612233.0,1651396415.973
2617059.0,1651396416.013
2622575.0,1651396416.055
2628043.0,1651396416.094
2633397.0,1651396416.134
2639072.0,1651396416.176
2643855.0,1651396416.213
2649841.0,1651396416.254
2655375.0,1651396416.294
2660389.0,1651396416.334
2665444.0,1651396416.374
2670978.0,1651396416.415
2676573.0,1651396416.455
2682641.0,1651396416.495
2688638.0,1651396416.534
2694085.0,1651396416.573
2700837.0,1651396416.613
2706650.0,1651396416.655
2712889.0,1651396416.694
2718736.0,1651396416.734
2724510.0,1651396416.776
2729150.0,1651396416.815
2735416.0,1651396416.856
2741225.0,1651396416.894
2746981.0,1651396416.933
2753276.0,1651396416.974
2758979.0,1651396417.015
2764865.0,1651396417.055
2771055.0,1651396417.094
2776120.0,1651396417.136
2781488.0,1651396417.175
2786800.0,1651396417.215
2791010.0,1651396417.255
2794835.0,1651396417.294
2798807.0,1651396417.334
2803317.0,1651396417.375
2807683.0,1651396417.415
2811680.0,1651396417.456
2816070.0,1651396417.496
2820708.0,1651396417.535
2824519.0,1651396417.576
2826279.0,1651396417.615
2828399.0,1651396417.655
2829593.0,1651396417.694
2832174.0,1651396417.735
2834435.0,1651396417.775
2836945.0,1651396417.815
2840300.0,1651396417.857
2842888.0,1651396417.895
2845609.0,1651396417.936
2848126.0,1651396417.977
2850838.0,1651396418.014
2854210.0,1651396418.055
2856715.0,1651396418.095
2859171.0,1651396418.134
2861939.0,1651396418.174
2864317.0,1651396418.215
2866236.0,1651396418.255
2868010.0,1651396418.294
2870978.0,1651396418.336
2873640.0,1651396418.375
2875940.0,1651396418.415
2879520.0,1651396418.456
2880728.0,1651396418.495
2881626.0,1651396418.535
2881990.0,1651396418.576
2883405.0,1651396418.616
2884806.0,1651396418.656
2886872.0,1651396418.697
2888736.0,1651396418.736
2890204.0,1651396418.775
2892058.0,1651396418.816
2893247.0,1651396418.856
2894838.0,1651396418.895
2896875.0,1651396418.937
2898254.0,1651396418.976
2899113.0,1651396419.016
2898625.0,1651396419.058
2895285.0,1651396419.096
2891526.0,1651396419.137
2878438.0,1651396419.176
2873726.0,1651396419.215
2872035.0,1651396419.256
2872796.0,1651396419.297
2874089.0,1651396419.336
2873140.0,1651396419.376
2873128.0,1651396419.417
2872638.0,1651396419.457
2873214.0,1651396419.497
2876696.0,1651396419.536
2876831.0,1651396419.575
2855554.0,1651396419.616
2871139.0,1651396419.658
2864594.0,1651396419.696
2866387.0,1651396419.736
2868797.0,1651396419.778
2872120.0,1651396419.817
2874588.0,1651396419.858
2875620.0,1651396419.896
2878467.0,1651396419.936
2882213.0,1651396419.976
2884799.0,1651396420.017
2887692.0,1651396420.057
2890411.0,1651396420.097
2893875.0,1651396420.138
2897617.0,1651396420.177
2898229.0,1651396420.217
2896789.0,1651396420.257
2894749.0,1651396420.296
2894523.0,1651396420.336
2895069.0,1651396420.377
2896549.0,1651396420.417
2898891.0,1651396420.458
2899375.0,1651396420.498
2899886.0,1651396420.537
2902924.0,1651396420.578
2904587.0,1651396420.617
2904129.0,1651396420.657
2905947.0,1651396420.696
2906606.0,1651396420.737
2908837.0,1651396420.777
2911866.0,1651396420.817
2913062.0,1651396420.859
2914412.0,1651396420.897
2915760.0,1651396420.937
2915749.0,1651396420.979
2914536.0,1651396421.018
2912956.0,1651396421.057
2911589.0,1651396421.098
2910407.0,1651396421.137
2910262.0,1651396421.177
2909671.0,1651396421.218
2909475.0,1651396421.258
2910216.0,1651396421.298
2910437.0,1651396421.339
2910763.0,1651396421.376
2910982.0,1651396421.417
2911965.0,1651396421.459
2912870.0,1651396421.497
2912870.0,1651396421.537
2913200.0,1651396421.579
2914451.0,1651396421.618
2916754.0,1651396421.659
2918660.0,1651396421.699
2917287.0,1651396421.737
2915353.0,1651396421.777
2913801.0,1651396421.818
2912253.0,1651396421.858
2910279.0,1651396421.898
2908803.0,1651396421.939
2907299.0,1651396421.978
2906252.0,1651396422.018
2905260.0,1651396422.061
2904331.0,1651396422.097
2904111.0,1651396422.137
2902897.0,1651396422.178
2902794.0,1651396422.218
2903001.0,1651396422.259
2901329.0,1651396422.299
2899002.0,1651396422.339
2898741.0,1651396422.379
2900867.0,1651396422.418
2901644.0,1651396422.458
2902582.0,1651396422.498
2905165.0,1651396422.539
2906604.0,1651396422.578
2907188.0,1651396422.618
2909610.0,1651396422.66
2908471.0,1651396422.699
2906574.0,1651396422.739
2905636.0,1651396422.778
2904852.0,1651396422.818
2903077.0,1651396422.859
2902950.0,1651396422.899
2902737.0,1651396422.938
2902715.0,1651396422.979
2902938.0,1651396423.02
2904383.0,1651396423.06
2904852.0,1651396423.099
2905827.0,1651396423.139
2906975.0,1651396423.178
2907378.0,1651396423.218
2908936.0,1651396423.261
2909035.0,1651396423.297
2910963.0,1651396423.337
2911662.0,1651396423.379
2911938.0,1651396423.418
2912625.0,1651396423.459
2913365.0,1651396423.499
2914789.0,1651396423.538
2911343.0,1651396423.579
2921238.0,1651396423.62
2921029.0,1651396423.66
2914478.0,1651396423.699
2910052.0,1651396423.741
2893394.0,1651396423.78
2893925.0,1651396423.82
2892704.0,1651396423.86
2890436.0,1651396423.898
2905575.0,1651396423.939
2917971.0,1651396423.98
2928916.0,1651396424.019
2931140.0,1651396424.06
2931225.0,1651396424.101
2933644.0,1651396424.14
2930600.0,1651396424.18
2926077.0,1651396424.22
2922883.0,1651396424.259
2922067.0,1651396424.299
2930768.0,1651396424.34
2933937.0,1651396424.379
2933473.0,1651396424.42
2926827.0,1651396424.462
2914550.0,1651396424.5
2904309.0,1651396424.54
2893611.0,1651396424.582
2878293.0,1651396424.619
2858766.0,1651396424.66
2842461.0,1651396424.7
2833953.0,1651396424.74
2828874.0,1651396424.78
2824336.0,1651396424.821
2820511.0,1651396424.861
2816041.0,1651396424.901
2812036.0,1651396424.942
2809039.0,1651396424.979
2805963.0,1651396425.019
2803604.0,1651396425.061
2802884.0,1651396425.1
2801735.0,1651396425.14
2799908.0,1651396425.181
2798976.0,1651396425.221
2797768.0,1651396425.262
2796261.0,1651396425.302
2794058.0,1651396425.339
2791368.0,1651396425.38
2790776.0,1651396425.421
2789718.0,1651396425.461
2787957.0,1651396425.5
2782182.0,1651396425.542
2750499.0,1651396425.581
2705225.0,1651396425.621
2713829.0,1651396425.663
2729994.0,1651396425.701
2725844.0,1651396425.74
2708973.0,1651396425.781
2705571.0,1651396425.823
2704276.0,1651396425.86
2701864.0,1651396425.9
2700460.0,1651396425.94
2698440.0,1651396425.98
2694944.0,1651396426.021
2690296.0,1651396426.061
2685782.0,1651396426.1
2681746.0,1651396426.142
2677413.0,1651396426.181
2673631.0,1651396426.221
2670790.0,1651396426.263
2667009.0,1651396426.302
2663296.0,1651396426.342
2659416.0,1651396426.381
2656089.0,1651396426.42
2653236.0,1651396426.461
2651032.0,1651396426.502
2648659.0,1651396426.541
2644579.0,1651396426.581
2638636.0,1651396426.623
2642542.0,1651396426.663
2657385.0,1651396426.702
2664920.0,1651396426.741
2671033.0,1651396426.781
2676194.0,1651396426.821
2680706.0,1651396426.863
2682924.0,1651396426.901
2683583.0,1651396426.942
2684566.0,1651396426.983
2684813.0,1651396427.022
2683817.0,1651396427.063
2682339.0,1651396427.102
2682210.0,1651396427.141
2678360.0,1651396427.181
2672194.0,1651396427.222
2667985.0,1651396427.262
2665527.0,1651396427.302
2666529.0,1651396427.343
2665837.0,1651396427.382
2664612.0,1651396427.423
2661422.0,1651396427.463
2657752.0,1651396427.501
2655634.0,1651396427.541
2653709.0,1651396427.583
2651490.0,1651396427.622
2649905.0,1651396427.663
2649422.0,1651396427.703
2649084.0,1651396427.743
2648050.0,1651396427.783
2648088.0,1651396427.822
2648972.0,1651396427.862
2657290.0,1651396427.943
2658604.0,1651396427.982
2652847.0,1651396427.902
2659964.0,1651396428.022
2661664.0,1651396428.064
2664569.0,1651396428.103
2667838.0,1651396428.143
2670269.0,1651396428.184
2671699.0,1651396428.221
2674020.0,1651396428.262
2680432.0,1651396428.303
2689725.0,1651396428.342
2696959.0,1651396428.38
2700644.0,1651396428.422
2702749.0,1651396428.461
2702742.0,1651396428.501
2703355.0,1651396428.543
2700712.0,1651396428.582
2698192.0,1651396428.622
2696441.0,1651396428.664
2693440.0,1651396428.702
2687539.0,1651396428.742
2673177.0,1651396428.784
2664026.0,1651396428.823
2658372.0,1651396428.864
2658814.0,1651396428.904
2665240.0,1651396428.944
2670073.0,1651396428.982
2681297.0,1651396429.023
2685921.0,1651396429.063
2690248.0,1651396429.103
2699147.0,1651396429.144
2711091.0,1651396429.183
2716284.0,1651396429.223
2718230.0,1651396429.266
2720722.0,1651396429.304
2721709.0,1651396429.342
2721560.0,1651396429.384
2720377.0,1651396429.423
2719350.0,1651396429.464
2716239.0,1651396429.504
2714305.0,1651396429.544
2712283.0,1651396429.584
2708749.0,1651396429.625
2704680.0,1651396429.665
2700414.0,1651396429.702
2695490.0,1651396429.744
2691510.0,1651396429.783
2689692.0,1651396429.823
2687396.0,1651396429.865
2687550.0,1651396429.904
2689346.0,1651396429.944
2691845.0,1651396429.985
2694802.0,1651396430.024
2697654.0,1651396430.063
2700598.0,1651396430.102
2701438.0,1651396430.141
2701289.0,1651396430.18
2699223.0,1651396430.219
2696233.0,1651396430.258
2693559.0,1651396430.297
2691596.0,1651396430.336
2689944.0,1651396430.375
2688273.0,1651396430.414
2687146.0,1651396430.453
2686324.0,1651396430.492
2684806.0,1651396430.531
2683312.0,1651396430.57
2682187.0,1651396430.609
2681869.0,1651396430.648
2681659.0,1651396430.687
2680518.0,1651396430.726
2680130.0,1651396430.765
2680393.0,1651396430.805
2680334.0,1651396430.845
2680732.0,1651396430.885
2681045.0,1651396430.925
2681465.0,1651396430.965
2681505.0,1651396431.005
2682522.0,1651396431.045
2684176.0,1651396431.085
2683492.0,1651396431.125
2682920.0,1651396431.165
2682715.0,1651396431.205
2681044.0,1651396431.245
2677869.0,1651396431.285
2672502.0,1651396431.325
2668053.0,1651396431.365
2664504.0,1651396431.405
2660734.0,1651396431.445
2657670.0,1651396431.485
2655523.0,1651396431.525
2653200.0,1651396431.565
2650924.0,1651396431.605
2647506.0,1651396431.645
2643347.0,1651396431.685
2637341.0,1651396431.765
2640054.0,1651396431.725
2634431.0,1651396431.805
2631381.0,1651396431.845
2627711.0,1651396431.925
2629037.0,1651396431.885
2622347.0,1651396432.005
2625079.0,1651396431.965
2617227.0,1651396432.085
2618928.0,1651396432.045
2614472.0,1651396432.125
2609511.0,1651396432.205
2612213.0,1651396432.165
2607050.0,1651396432.245
2604318.0,1651396432.285
2602124.0,1651396432.325
2600209.0,1651396432.365
2599373.0,1651396432.405
2598632.0,1651396432.445
2597860.0,1651396432.485
2598266.0,1651396432.525
2598609.0,1651396432.565
2599672.0,1651396432.605
2600304.0,1651396432.645
2600067.0,1651396432.685
2600158.0,1651396432.725
2598901.0,1651396432.765
2598602.0,1651396432.805
2596440.0,1651396432.845
2593071.0,1651396432.885
2589370.0,1651396432.925
2588283.0,1651396432.965
2586254.0,1651396433.005
2584772.0,1651396433.045
2583691.0,1651396433.085
2582328.0,1651396433.125
2582243.0,1651396433.165
2581600.0,1651396433.205
2581218.0,1651396433.245
2581119.0,1651396433.285
2580815.0,1651396433.325
2580736.0,1651396433.365
2580570.0,1651396433.405
2580262.0,1651396433.445
2579719.0,1651396433.485
2579569.0,1651396433.525
2579930.0,1651396433.565
2579840.0,1651396433.605
2580162.0,1651396433.645
2580959.0,1651396433.685
2581343.0,1651396433.725
2579796.0,1651396433.765
2577031.0,1651396433.805
2574097.0,1651396433.845
2572472.0,1651396433.885
2571229.0,1651396433.925
2569907.0,1651396433.965
2569235.0,1651396434.005
2568956.0,1651396434.045
2568858.0,1651396434.085
2569534.0,1651396434.125
2570494.0,1651396434.165
2571883.0,1651396434.205
2577762.0,1651396434.245
2589497.0,1651396434.285
2596579.0,1651396434.325
2603550.0,1651396434.365
2611915.0,1651396434.405
2620050.0,1651396434.445
2627297.0,1651396434.485
2630836.0,1651396434.525
2631002.0,1651396434.565
2627673.0,1651396434.605
2623998.0,1651396434.645
2620592.0,1651396434.685
2616834.0,1651396434.725
2613583.0,1651396434.765
2609905.0,1651396434.805
2607066.0,1651396434.845
2604941.0,1651396434.885
2603285.0,1651396434.925
2601597.0,1651396434.965
2601376.0,1651396435.005
2600908.0,1651396435.045
2601074.0,1651396435.085
2601399.0,1651396435.125
2601879.0,1651396435.165
2602398.0,1651396435.205
2603171.0,1651396435.245
2603690.0,1651396435.285
2604133.0,1651396435.325
2604368.0,1651396435.365
2604774.0,1651396435.405
2605768.0,1651396435.445
2606715.0,1651396435.485
2605411.0,1651396435.525
2603504.0,1651396435.565
2601957.0,1651396435.605
2600685.0,1651396435.645
2600205.0,1651396435.685
2599351.0,1651396435.725
2599466.0,1651396435.765
2599524.0,1651396435.805
2599245.0,1651396435.845
2599812.0,1651396435.885
2599738.0,1651396435.925
2601097.0,1651396435.965
2602344.0,1651396436.005
2603885.0,1651396436.045
2605126.0,1651396436.085
2607150.0,1651396436.125
2608244.0,1651396436.165
2609770.0,1651396436.205
2611702.0,1651396436.245
2613159.0,1651396436.285
2614790.0,1651396436.325
2616496.0,1651396436.365
2617848.0,1651396436.405
2616215.0,1651396436.445
2613884.0,1651396436.485
2611097.0,1651396436.525
2609417.0,1651396436.565
2606964.0,1651396436.605
2605696.0,1651396436.645
2605702.0,1651396436.685
2605713.0,1651396436.725
2605910.0,1651396436.765
2606360.0,1651396436.805
2607053.0,1651396436.845
2608040.0,1651396436.885
2608830.0,1651396436.925
2609953.0,1651396436.965
2611654.0,1651396437.005
2612951.0,1651396437.045
2614100.0,1651396437.085
2615150.0,1651396437.125
2616182.0,1651396437.165
2616820.0,1651396437.205
2617743.0,1651396437.245
2618698.0,1651396437.285
2619599.0,1651396437.325
2618004.0,1651396437.365
2615073.0,1651396437.405
2612731.0,1651396437.445
2610299.0,1651396437.485
2608989.0,1651396437.525
2608177.0,1651396437.565
2607734.0,1651396437.605
2607352.0,1651396437.645
2607035.0,1651396437.685
2607104.0,1651396437.725
2607169.0,1651396437.765
2607692.0,1651396437.805
2608359.0,1651396437.845
2609508.0,1651396437.885
2609964.0,1651396437.925
2611093.0,1651396437.965
2611176.0,1651396438.005
2612514.0,1651396438.045
2613444.0,1651396438.085
2614187.0,1651396438.125
2615151.0,1651396438.165
2616512.0,1651396438.205
2617666.0,1651396438.245
2618329.0,1651396438.285
2617095.0,1651396438.325
2615633.0,1651396438.365
2614898.0,1651396438.405
2613991.0,1651396438.445
2613660.0,1651396438.485
2613415.0,1651396438.525
2613725.0,1651396438.565
2613789.0,1651396438.605
2614133.0,1651396438.645
2614251.0,1651396438.685
2614564.0,1651396438.725
2615134.0,1651396438.765
2615253.0,1651396438.805
2616709.0,1651396438.885
2618535.0,1651396438.965
2617490.0,1651396438.925
2616113.0,1651396438.845
2618750.0,1651396439.005
2619385.0,1651396439.045
2620356.0,1651396439.085
2621006.0,1651396439.125
2621371.0,1651396439.165
2620182.0,1651396439.205
2619278.0,1651396439.245
2619549.0,1651396439.285
2620905.0,1651396439.325
2624589.0,1651396439.365
2629337.0,1651396439.405
2631911.0,1651396439.445
2637105.0,1651396439.485
2640959.0,1651396439.525
2644759.0,1651396439.565
2647478.0,1651396439.605
2650302.0,1651396439.645
2652532.0,1651396439.685
2653844.0,1651396439.725
2654125.0,1651396439.765
2654507.0,1651396439.805
2655308.0,1651396439.845
2656462.0,1651396439.885
2658137.0,1651396439.925
2660386.0,1651396439.965
2662370.0,1651396440.005
2664579.0,1651396440.045
2664128.0,1651396440.085
2662857.0,1651396440.125
2662286.0,1651396440.165
2661833.0,1651396440.205
2661701.0,1651396440.245
2661640.0,1651396440.285
2661985.0,1651396440.325
2662803.0,1651396440.365
2664216.0,1651396440.405
2665025.0,1651396440.445
2666096.0,1651396440.485
2665802.0,1651396440.525
2665985.0,1651396440.565
2666251.0,1651396440.605
2666751.0,1651396440.645
2667454.0,1651396440.685
2668148.0,1651396440.725
2669011.0,1651396440.765
2669916.0,1651396440.805
2671460.0,1651396440.845
2672756.0,1651396440.885
2674481.0,1651396440.925
2676334.0,1651396440.965
2676718.0,1651396441.005
2675937.0,1651396441.045
2675303.0,1651396441.085
2675078.0,1651396441.125
2674802.0,1651396441.165
2674750.0,1651396441.205
2675123.0,1651396441.245
2675737.0,1651396441.285
2678058.0,1651396441.325
2683133.0,1651396441.365
2690121.0,1651396441.405
2695614.0,1651396441.445
2698586.0,1651396441.485
2703012.0,1651396441.525
2706293.0,1651396441.565
2708533.0,1651396441.605
2711033.0,1651396441.645
2712501.0,1651396441.685
2713104.0,1651396441.725
2711647.0,1651396441.765
2706444.0,1651396441.805
2699867.0,1651396441.845
2693409.0,1651396441.885
2684998.0,1651396441.925
2678591.0,1651396441.965
2677597.0,1651396442.005
2678204.0,1651396442.042
2677373.0,1651396442.082
2675778.0,1651396442.121
2675862.0,1651396442.162
2674997.0,1651396442.203
2675818.0,1651396442.242
2676852.0,1651396442.282
2677754.0,1651396442.323
2678945.0,1651396442.362
2680048.0,1651396442.402
2682676.0,1651396442.444
2684722.0,1651396442.482
2687122.0,1651396442.522
2690048.0,1651396442.563
2692122.0,1651396442.602
2695249.0,1651396442.643
2697855.0,1651396442.683
2701329.0,1651396442.723
2705457.0,1651396442.763
2708056.0,1651396442.804
2707470.0,1651396442.843
2705189.0,1651396442.883
2700973.0,1651396442.924
2697691.0,1651396442.963
2695126.0,1651396443.003
2692462.0,1651396443.045
2688969.0,1651396443.083
2685988.0,1651396443.123
2683531.0,1651396443.164
2680950.0,1651396443.203
2679726.0,1651396443.244
2678443.0,1651396443.284
2676833.0,1651396443.323
2675820.0,1651396443.363
2674940.0,1651396443.405
2674044.0,1651396443.444
2672541.0,1651396443.484
2671702.0,1651396443.525
2671617.0,1651396443.564
2670799.0,1651396443.604
2670900.0,1651396443.646
2671121.0,1651396443.684
2671495.0,1651396443.724
2670356.0,1651396443.765
2667719.0,1651396443.804
2664365.0,1651396443.845
2661675.0,1651396443.885
2659875.0,1651396443.924
2658150.0,1651396443.964
2656118.0,1651396444.005
2654900.0,1651396444.045
2653428.0,1651396444.085
2651863.0,1651396444.126
2650615.0,1651396444.165
2649906.0,1651396444.205
2649272.0,1651396444.247
2648789.0,1651396444.285
2648670.0,1651396444.325
2648579.0,1651396444.366
2648243.0,1651396444.405
2648403.0,1651396444.446
2648450.0,1651396444.486
2648218.0,1651396444.525
2648234.0,1651396444.565
2647857.0,1651396444.607
2645477.0,1651396444.646
2642552.0,1651396444.686
2640375.0,1651396444.727
2637589.0,1651396444.766
2635790.0,1651396444.806
2632214.0,1651396444.886
2630622.0,1651396444.926
2633364.0,1651396444.848
2629390.0,1651396444.967
2627955.0,1651396445.006
2627078.0,1651396445.047
2626384.0,1651396445.087
2626262.0,1651396445.126
2625581.0,1651396445.166
2625277.0,1651396445.207
2625386.0,1651396445.247
2625286.0,1651396445.287
2625128.0,1651396445.328
2625511.0,1651396445.367
2625764.0,1651396445.407
2625919.0,1651396445.448
2626176.0,1651396445.487
2625810.0,1651396445.527
2623121.0,1651396445.568
2620130.0,1651396445.607
2617889.0,1651396445.648
2615642.0,1651396445.688
2614110.0,1651396445.727
2612764.0,1651396445.767
2612134.0,1651396445.808
2610712.0,1651396445.848
2609798.0,1651396445.888
2609023.0,1651396445.929
2608385.0,1651396445.968
2608052.0,1651396446.008
2608073.0,1651396446.05
2608060.0,1651396446.088
2607764.0,1651396446.128
2607843.0,1651396446.169
2607909.0,1651396446.208
2608714.0,1651396446.249
2609193.0,1651396446.289
2609322.0,1651396446.328
2609649.0,1651396446.369
2606907.0,1651396446.41
2604525.0,1651396446.449
2602452.0,1651396446.489
2600442.0,1651396446.53
2598717.0,1651396446.569
2597278.0,1651396446.609
2596126.0,1651396446.651
2594958.0,1651396446.689
2594184.0,1651396446.729
2593114.0,1651396446.77
2592946.0,1651396446.809
2592494.0,1651396446.85
2592313.0,1651396446.891
2592203.0,1651396446.93
2592362.0,1651396446.97
2592554.0,1651396447.011
2592861.0,1651396447.05
2593250.0,1651396447.09
2593828.0,1651396447.131
2594553.0,1651396447.17
2594822.0,1651396447.21
2595905.0,1651396447.252
2594497.0,1651396447.29
2592398.0,1651396447.33
2590649.0,1651396447.371
2588428.0,1651396447.41
2587050.0,1651396447.451
2585552.0,1651396447.492
2585191.0,1651396447.531
2584502.0,1651396447.571
2583732.0,1651396447.612
2583216.0,1651396447.652
2583332.0,1651396447.691
2583357.0,1651396447.732
2584576.0,1651396447.771
2585090.0,1651396447.811
2586213.0,1651396447.853
2586075.0,1651396447.891
2586414.0,1651396447.931
2586686.0,1651396447.973
2587044.0,1651396448.012
2587547.0,1651396448.052
2589005.0,1651396448.093
2589569.0,1651396448.132
2590152.0,1651396448.172
2587835.0,1651396448.213
2585714.0,1651396448.253
2583085.0,1651396448.292
2580978.0,1651396448.333
2579282.0,1651396448.372
2578058.0,1651396448.412
2577570.0,1651396448.454
2577053.0,1651396448.493
2575387.0,1651396448.533
2574350.0,1651396448.574
2573353.0,1651396448.613
2573074.0,1651396448.654
2573188.0,1651396448.694
2573382.0,1651396448.733
2573834.0,1651396448.773
2574370.0,1651396448.814
2574802.0,1651396448.854
2575010.0,1651396448.893
2575549.0,1651396448.934
2576019.0,1651396448.974
2575840.0,1651396449.014
2575300.0,1651396449.055
2572809.0,1651396449.094
2569260.0,1651396449.134
2566121.0,1651396449.175
2563663.0,1651396449.214
2560858.0,1651396449.255
2558457.0,1651396449.295
2557428.0,1651396449.334
2556590.0,1651396449.374
2556532.0,1651396449.415
2556370.0,1651396449.455
2556618.0,1651396449.495
2557478.0,1651396449.536
2558458.0,1651396449.575
2559762.0,1651396449.615
2560592.0,1651396449.657
2562412.0,1651396449.695
2564343.0,1651396449.735
2566503.0,1651396449.776
2568673.0,1651396449.815
2570231.0,1651396449.856
2571945.0,1651396449.897
2573320.0,1651396449.936
2575015.0,1651396449.976
2574467.0,1651396450.017
2572645.0,1651396450.056
2570553.0,1651396450.096
2568950.0,1651396450.137
2568111.0,1651396450.176
2567218.0,1651396450.216
2566931.0,1651396450.258
2566028.0,1651396450.296
2565577.0,1651396450.336
2564711.0,1651396450.378
2564126.0,1651396450.417
2563728.0,1651396450.457
2563849.0,1651396450.498
2563990.0,1651396450.537
2563917.0,1651396450.577
2563824.0,1651396450.618
2563586.0,1651396450.658
2563800.0,1651396450.697
2564268.0,1651396450.777
2563997.0,1651396450.738
2564775.0,1651396450.817
2565249.0,1651396450.859
2564104.0,1651396450.898
2559087.0,1651396450.979
2561488.0,1651396450.938
2556882.0,1651396451.059
2557613.0,1651396451.018
2555900.0,1651396451.138
2556247.0,1651396451.099
2555170.0,1651396451.178
2553835.0,1651396451.219
2552472.0,1651396451.259
2551531.0,1651396451.299
2550614.0,1651396451.34
2552624.0,1651396451.379
2556097.0,1651396451.419
2558668.0,1651396451.461
2560240.0,1651396451.499
2561106.0,1651396451.539
2562346.0,1651396451.58
2563353.0,1651396451.619
2564257.0,1651396451.66
2565307.0,1651396451.701
2564502.0,1651396451.74
2562305.0,1651396451.78
2559220.0,1651396451.821
2556628.0,1651396451.861
2554414.0,1651396451.9
2552800.0,1651396451.941
2551724.0,1651396451.98
2550450.0,1651396452.02
2549432.0,1651396452.062
2548177.0,1651396452.1
2547481.0,1651396452.141
2546911.0,1651396452.182
2546692.0,1651396452.221
2546803.0,1651396452.261
2546740.0,1651396452.302
2546884.0,1651396452.341
2547191.0,1651396452.381
2547879.0,1651396452.422
2547706.0,1651396452.462
2548144.0,1651396452.501
2548806.0,1651396452.542
2549995.0,1651396452.581
2551231.0,1651396452.621
2550709.0,1651396452.663
2549483.0,1651396452.702
2548025.0,1651396452.742
2546877.0,1651396452.783
2546872.0,1651396452.822
2547886.0,1651396452.863
2548164.0,1651396452.903
2548717.0,1651396452.942
2549661.0,1651396452.982
2549952.0,1651396453.023
2550845.0,1651396453.063
2551435.0,1651396453.103
2552199.0,1651396453.144
2553059.0,1651396453.183
2553751.0,1651396453.223
2554708.0,1651396453.265
2555451.0,1651396453.303
2556633.0,1651396453.343
2558149.0,1651396453.384
2558962.0,1651396453.423
2560834.0,1651396453.464
2561217.0,1651396453.505
2562450.0,1651396453.544
2561874.0,1651396453.584
2560289.0,1651396453.625
2558805.0,1651396453.664
2558214.0,1651396453.704
2557160.0,1651396453.745
2556994.0,1651396453.784
2556239.0,1651396453.824
2556221.0,1651396453.866
2556421.0,1651396453.904
2556269.0,1651396453.944
2556743.0,1651396453.986
2556353.0,1651396454.025
2557078.0,1651396454.109
2557371.0,1651396454.15
2558847.0,1651396454.189
2560057.0,1651396454.229
2560723.0,1651396454.27
2561635.0,1651396454.31
2562559.0,1651396454.349
2563582.0,1651396454.39
2564491.0,1651396454.429
2565394.0,1651396454.47
2566434.0,1651396454.511
2567861.0,1651396454.55
2567962.0,1651396454.59
2566586.0,1651396454.631
2565307.0,1651396454.67
2564500.0,1651396454.711
2564495.0,1651396454.751
2564179.0,1651396454.79
2564302.0,1651396454.831
2564439.0,1651396454.872
2565185.0,1651396454.907
2565055.0,1651396454.947
2565794.0,1651396454.98
2566273.0,1651396455.019
2566696.0,1651396455.057
2567980.0,1651396455.099
2569045.0,1651396455.137
2570338.0,1651396455.178
2571954.0,1651396455.219
2573036.0,1651396455.258
2574349.0,1651396455.299
2575596.0,1651396455.34
2576789.0,1651396455.379
2578260.0,1651396455.419
2579555.0,1651396455.459
2582088.0,1651396455.538
2581060.0,1651396455.498
2581781.0,1651396455.58
2580052.0,1651396455.618
2579405.0,1651396455.659
2579485.0,1651396455.701
2579031.0,1651396455.739
2581573.0,1651396455.819
2579943.0,1651396455.777
2582132.0,1651396455.899
2582396.0,1651396455.858
2583257.0,1651396455.979
2584603.0,1651396456.019
2582302.0,1651396455.94
2584698.0,1651396456.1
2584945.0,1651396456.179
2584871.0,1651396456.14
2584865.0,1651396456.061
2586896.0,1651396456.258
2585819.0,1651396456.218
2587480.0,1651396456.3
2587180.0,1651396456.379
2587616.0,1651396456.339
2587256.0,1651396456.42
2586544.0,1651396456.459
2584714.0,1651396456.5
2583061.0,1651396456.54
2580531.0,1651396456.62
2581545.0,1651396456.579
2579743.0,1651396456.659
2578114.0,1651396456.738
2578654.0,1651396456.699
2577233.0,1651396456.78
2576879.0,1651396456.819
2576887.0,1651396456.859
2577666.0,1651396456.902
2578225.0,1651396456.94
2578868.0,1651396456.98
2579616.0,1651396457.022
2579866.0,1651396457.058
2580533.0,1651396457.099
2581770.0,1651396457.14
2582330.0,1651396457.179
2583416.0,1651396457.219
2584349.0,1651396457.261
2585495.0,1651396457.3
2585441.0,1651396457.34
2583950.0,1651396457.382
2582246.0,1651396457.418
2581277.0,1651396457.459
2580651.0,1651396457.501
2579808.0,1651396457.539
2579696.0,1651396457.58
2579395.0,1651396457.621
2579770.0,1651396457.66
2579371.0,1651396457.701
2579829.0,1651396457.742
2579932.0,1651396457.779
2581002.0,1651396457.819
2581575.0,1651396457.861
2582205.0,1651396457.9
2583360.0,1651396457.94
2584249.0,1651396457.981
2584970.0,1651396458.02
2585848.0,1651396458.06
2586604.0,1651396458.103
2587337.0,1651396458.141
2587843.0,1651396458.179
2586311.0,1651396458.221
2584329.0,1651396458.259
2582801.0,1651396458.3
2581093.0,1651396458.341
2580485.0,1651396458.38
2580029.0,1651396458.42
2579411.0,1651396458.462
2578758.0,1651396458.502
2577610.0,1651396458.541
2577445.0,1651396458.581
2577700.0,1651396458.619
2577590.0,1651396458.66
2578103.0,1651396458.702
2578309.0,1651396458.74
2578671.0,1651396458.78
2578874.0,1651396458.822
2579887.0,1651396458.861
2580478.0,1651396458.902
2580769.0,1651396458.943
2581625.0,1651396458.98
2581519.0,1651396459.02
2579368.0,1651396459.061
2575879.0,1651396459.1
2572288.0,1651396459.139
2569354.0,1651396459.181
2566935.0,1651396459.22
2564074.0,1651396459.26
2562621.0,1651396459.303
2561481.0,1651396459.341
2560880.0,1651396459.381
2560642.0,1651396459.423
2560831.0,1651396459.462
2561022.0,1651396459.501
2561839.0,1651396459.542
2562433.0,1651396459.581
2563139.0,1651396459.621
2563819.0,1651396459.662
2564160.0,1651396459.702
2565481.0,1651396459.741
2565915.0,1651396459.783
2566946.0,1651396459.82
2567509.0,1651396459.86
2568068.0,1651396459.903
2567061.0,1651396459.941
2564461.0,1651396459.981
2562456.0,1651396460.023
2560408.0,1651396460.061
2559200.0,1651396460.102
2557779.0,1651396460.143
2556646.0,1651396460.182
2556142.0,1651396460.22
2555636.0,1651396460.262
2555006.0,1651396460.301
2554719.0,1651396460.341
2554566.0,1651396460.383
2554456.0,1651396460.421
2554629.0,1651396460.462
2554670.0,1651396460.504
2555407.0,1651396460.542
2555647.0,1651396460.583
2556051.0,1651396460.622
2557154.0,1651396460.661
2557951.0,1651396460.702
2558567.0,1651396460.743
2558572.0,1651396460.782
2556665.0,1651396460.822
2553700.0,1651396460.863
2552153.0,1651396460.903
2550735.0,1651396460.943
2549422.0,1651396460.984
2548653.0,1651396461.021
2547869.0,1651396461.061
2546457.0,1651396461.103
2545304.0,1651396461.141
2544760.0,1651396461.182
2544251.0,1651396461.223
2543869.0,1651396461.262
2544090.0,1651396461.303
2543958.0,1651396461.344
2544172.0,1651396461.383
2544305.0,1651396461.421
2544897.0,1651396461.463
2545728.0,1651396461.502
2546887.0,1651396461.542
2548033.0,1651396461.584
2548966.0,1651396461.622
2550058.0,1651396461.662
2551181.0,1651396461.701
2551666.0,1651396461.74
2549874.0,1651396461.781
2548049.0,1651396461.822
2546205.0,1651396461.861
2545178.0,1651396461.902
2543927.0,1651396461.943
2542992.0,1651396461.982
2542305.0,1651396462.022
2541615.0,1651396462.064
2540715.0,1651396462.103
2540465.0,1651396462.143
2540009.0,1651396462.185
2540216.0,1651396462.223
2540297.0,1651396462.262
2540742.0,1651396462.304
2541169.0,1651396462.342
2541782.0,1651396462.382
2542662.0,1651396462.424
2543527.0,1651396462.463
2544491.0,1651396462.504
2545524.0,1651396462.545
2546767.0,1651396462.582
2547842.0,1651396462.622
2549196.0,1651396462.664
2550086.0,1651396462.703
2548928.0,1651396462.743
2547604.0,1651396462.785
2546282.0,1651396462.823
2545429.0,1651396462.863
2544937.0,1651396462.906
2544371.0,1651396462.944
2544349.0,1651396462.982
2544575.0,1651396463.024
2544316.0,1651396463.063
2544385.0,1651396463.103
2544941.0,1651396463.144
2545169.0,1651396463.183
2545685.0,1651396463.224
2546122.0,1651396463.265
2546995.0,1651396463.305
2547707.0,1651396463.342
2548729.0,1651396463.384
2549710.0,1651396463.423
2550861.0,1651396463.463
2552317.0,1651396463.505
2553371.0,1651396463.544
2554893.0,1651396463.584
2555340.0,1651396463.626
2554674.0,1651396463.664
2552612.0,1651396463.703
2550637.0,1651396463.744
2549703.0,1651396463.783
2548253.0,1651396463.823
2547280.0,1651396463.865
2546937.0,1651396463.904
2546626.0,1651396463.944
2546292.0,1651396463.986
2546072.0,1651396464.025
2546272.0,1651396464.063
2546590.0,1651396464.105
2547315.0,1651396464.143
2547857.0,1651396464.183
2548422.0,1651396464.224
2549358.0,1651396464.264
2549994.0,1651396464.305
2550692.0,1651396464.346
2551737.0,1651396464.384
2552867.0,1651396464.425
2554134.0,1651396464.466
2555483.0,1651396464.504
2556766.0,1651396464.543
2559153.0,1651396464.624
2558006.0,1651396464.585
2561221.0,1651396464.707
2559696.0,1651396464.745
2560988.0,1651396464.664
2558220.0,1651396464.785
2557100.0,1651396464.827
2556692.0,1651396464.863
2556356.0,1651396464.904
2556444.0,1651396464.984
2556318.0,1651396464.945
2556522.0,1651396465.066
2556633.0,1651396465.024
2556260.0,1651396465.105
2556710.0,1651396465.145
2558171.0,1651396465.187
2559130.0,1651396465.223
2559982.0,1651396465.264
2560510.0,1651396465.306
2560501.0,1651396465.344
2560797.0,1651396465.426
2561438.0,1651396465.465
2559969.0,1651396465.384
2562176.0,1651396465.506
2563209.0,1651396465.547
2564754.0,1651396465.584
2565930.0,1651396465.624
2567409.0,1651396465.666
2566947.0,1651396465.705
2565653.0,1651396465.745
2563669.0,1651396465.786
2562554.0,1651396465.825
2561770.0,1651396465.865
2560973.0,1651396465.908
2560590.0,1651396466.026
2560913.0,1651396466.065
2560730.0,1651396465.946
2560613.0,1651396465.984
2560894.0,1651396466.104
2561051.0,1651396466.143
2563292.0,1651396466.221
2561960.0,1651396466.182
2564198.0,1651396466.26
2565250.0,1651396466.299
2566294.0,1651396466.338
2567750.0,1651396466.377
2569387.0,1651396466.416
2570556.0,1651396466.455
2572165.0,1651396466.494
2573905.0,1651396466.533
2574732.0,1651396466.572
2576353.0,1651396466.611
2576710.0,1651396466.65
2574357.0,1651396466.689
2572344.0,1651396466.728
2571035.0,1651396466.767
2569834.0,1651396466.806
2568881.0,1651396466.845
2568464.0,1651396466.884
2568101.0,1651396466.923
2567855.0,1651396466.962
2567737.0,1651396467.001
2567375.0,1651396467.04
2567713.0,1651396467.079
2568168.0,1651396467.118
2568903.0,1651396467.157
2569480.0,1651396467.196
2569874.0,1651396467.235
2570563.0,1651396467.274
2571495.0,1651396467.313
2572715.0,1651396467.352
2574347.0,1651396467.391
2576072.0,1651396467.43
2576273.0,1651396467.469
2574937.0,1651396467.508
2572809.0,1651396467.547
2571547.0,1651396467.586
2570343.0,1651396467.625
2569389.0,1651396467.664
2568746.0,1651396467.703
2568250.0,1651396467.742
2567779.0,1651396467.781
2567544.0,1651396467.821
2567600.0,1651396467.861
2567575.0,1651396467.901
2567709.0,1651396467.941
2567938.0,1651396467.981
2568254.0,1651396468.021
2568870.0,1651396468.061
2568866.0,1651396468.101
2569276.0,1651396468.141
2569576.0,1651396468.181
2570415.0,1651396468.221
2571136.0,1651396468.261
2572415.0,1651396468.301
2572539.0,1651396468.341
2570567.0,1651396468.381
2568191.0,1651396468.421
2566164.0,1651396468.461
2564620.0,1651396468.501
2563120.0,1651396468.541
2562864.0,1651396468.581
2562351.0,1651396468.621
2562191.0,1651396468.661
2561417.0,1651396468.701
2561784.0,1651396468.741
2562364.0,1651396468.781
2562853.0,1651396468.821
2563105.0,1651396468.861
2564375.0,1651396468.901
2564858.0,1651396468.941
2565824.0,1651396468.981
2566814.0,1651396469.021
2567878.0,1651396469.061
2568950.0,1651396469.101
2569907.0,1651396469.141
2571392.0,1651396469.181
2570647.0,1651396469.221
2568084.0,1651396469.261
2565933.0,1651396469.301
2564854.0,1651396469.341
2563206.0,1651396469.381
2562350.0,1651396469.421
2561996.0,1651396469.461
2561818.0,1651396469.501
2561950.0,1651396469.541
2562057.0,1651396469.581
2562559.0,1651396469.621
2562620.0,1651396469.661
2563295.0,1651396469.701
2564616.0,1651396469.741
2565612.0,1651396469.781
2566645.0,1651396469.821
2567368.0,1651396469.861
2568049.0,1651396469.901
2569388.0,1651396469.941
2570406.0,1651396469.981
2572064.0,1651396470.021
2573452.0,1651396470.061
2574877.0,1651396470.101
2576198.0,1651396470.141
2575155.0,1651396470.181
2573437.0,1651396470.221
2572153.0,1651396470.261
2571315.0,1651396470.301
2570273.0,1651396470.341
2570014.0,1651396470.381
2570174.0,1651396470.421
2570645.0,1651396470.461
2570814.0,1651396470.501
2571138.0,1651396470.541
2571671.0,1651396470.581
2572416.0,1651396470.621
2573094.0,1651396470.661
2574151.0,1651396470.701
2574881.0,1651396470.741
2576312.0,1651396470.781
2577257.0,1651396470.821
2579321.0,1651396470.861
2582024.0,1651396470.901
2585227.0,1651396470.941
2590748.0,1651396470.981
2594178.0,1651396471.021
2594843.0,1651396471.061
2593808.0,1651396471.101
2593877.0,1651396471.181
2593235.0,1651396471.141
2595210.0,1651396471.221
2596634.0,1651396471.261
2597823.0,1651396471.301
2599543.0,1651396471.341
2597511.0,1651396471.381
2593880.0,1651396471.421
2598489.0,1651396471.461
2566027.0,1651396471.501
2568828.0,1651396471.541
2570711.0,1651396471.581
2583547.0,1651396471.661
2576884.0,1651396471.621
2584566.0,1651396471.701
2636786.0,1651396471.741
2666352.0,1651396471.781
2685055.0,1651396471.821
2711439.0,1651396471.861
2735303.0,1651396471.901
2749599.0,1651396471.941
2761358.0,1651396471.981
2769151.0,1651396472.021
2783491.0,1651396472.061
2800172.0,1651396472.101
2811283.0,1651396472.141
2818135.0,1651396472.181
2821651.0,1651396472.221
2821684.0,1651396472.261
2821445.0,1651396472.301
2817918.0,1651396472.341
2813716.0,1651396472.381
2809609.0,1651396472.421
2802969.0,1651396472.461
2798767.0,1651396472.501
2797197.0,1651396472.541
2798671.0,1651396472.581
2800946.0,1651396472.621
2803358.0,1651396472.661
2803452.0,1651396472.701
2801423.0,1651396472.741
2800135.0,1651396472.781
2799604.0,1651396472.821
2801157.0,1651396472.861
2806757.0,1651396472.901
2812938.0,1651396472.941
2816673.0,1651396472.981
2816710.0,1651396473.021
2814567.0,1651396473.061
2812176.0,1651396473.101
2810480.0,1651396473.141
2810212.0,1651396473.181
2809059.0,1651396473.221
2807967.0,1651396473.261
2806339.0,1651396473.301
2804918.0,1651396473.341
2802563.0,1651396473.381
2801839.0,1651396473.421
2802600.0,1651396473.461
2803400.0,1651396473.501
2801951.0,1651396473.541
2802461.0,1651396473.581
2802591.0,1651396473.621
2801134.0,1651396473.661
2800082.0,1651396473.701
2799392.0,1651396473.741
2797770.0,1651396473.781
2795985.0,1651396473.821
2795917.0,1651396473.861
2795773.0,1651396473.901
2795063.0,1651396473.941
2793271.0,1651396473.981
2788501.0,1651396474.021
2782816.0,1651396474.061
2775223.0,1651396474.101
2770826.0,1651396474.141
2768752.0,1651396474.181
2766581.0,1651396474.221
2764783.0,1651396474.261
2763128.0,1651396474.301
2762020.0,1651396474.341
2760452.0,1651396474.381
2757375.0,1651396474.421
2753797.0,1651396474.461
2750351.0,1651396474.501
2750704.0,1651396474.541
2751117.0,1651396474.581
2749226.0,1651396474.621
2745323.0,1651396474.661
2742590.0,1651396474.701
2740192.0,1651396474.741
2738980.0,1651396474.781
2738321.0,1651396474.821
2738725.0,1651396474.861
2740012.0,1651396474.901
2744181.0,1651396474.941
2748258.0,1651396474.981
2752338.0,1651396475.021
2759861.0,1651396475.061
2762970.0,1651396475.101
2773277.0,1651396475.181
2766385.0,1651396475.141
2785251.0,1651396475.221
2792204.0,1651396475.261
2799792.0,1651396475.301
2807953.0,1651396475.341
2815683.0,1651396475.381
2823744.0,1651396475.421
2831005.0,1651396475.461
2838925.0,1651396475.501
2854257.0,1651396475.541
2882469.0,1651396475.581
2902775.0,1651396475.621
2914998.0,1651396475.661
2923908.0,1651396475.701
2933791.0,1651396475.741
2938525.0,1651396475.781
2938553.0,1651396475.821
2936163.0,1651396475.861
2933562.0,1651396475.901
2930735.0,1651396475.941
2930182.0,1651396475.981
2929804.0,1651396476.021
2928059.0,1651396476.061
2925181.0,1651396476.101
2921940.0,1651396476.141
2918674.0,1651396476.181
2916923.0,1651396476.221
2915476.0,1651396476.261
2913771.0,1651396476.301
2912096.0,1651396476.341
2909032.0,1651396476.381
2908038.0,1651396476.421
2906759.0,1651396476.461
2905438.0,1651396476.501
2903516.0,1651396476.541
2901082.0,1651396476.581
2898215.0,1651396476.621
2895554.0,1651396476.661
2891256.0,1651396476.701
2886665.0,1651396476.741
2883397.0,1651396476.781
2880634.0,1651396476.821
2877537.0,1651396476.861
2874447.0,1651396476.901
2872765.0,1651396476.941
2870934.0,1651396476.981
2868806.0,1651396477.021
2867711.0,1651396477.061
2866279.0,1651396477.101
2865420.0,1651396477.141
2864853.0,1651396477.181
2864431.0,1651396477.221
2864465.0,1651396477.261
2863867.0,1651396477.301
2863327.0,1651396477.341
2863170.0,1651396477.381
2863283.0,1651396477.421
2863410.0,1651396477.461
2863808.0,1651396477.501
2865215.0,1651396477.541
2866651.0,1651396477.581
2864687.0,1651396477.621
2862565.0,1651396477.661
2859525.0,1651396477.701
2859450.0,1651396477.741
2861155.0,1651396477.781
2858449.0,1651396477.821
2857766.0,1651396477.861
2856570.0,1651396477.901
2854176.0,1651396477.941
2851954.0,1651396477.981
2850665.0,1651396478.021
2849096.0,1651396478.114
2848797.0,1651396478.154
2848425.0,1651396478.193
2849898.0,1651396478.233
2849786.0,1651396478.275
2850292.0,1651396478.314
2851635.0,1651396478.354
2852457.0,1651396478.395
2851645.0,1651396478.434
2850440.0,1651396478.474
2852344.0,1651396478.516
2847290.0,1651396478.554
2843694.0,1651396478.594
2846281.0,1651396478.635
2852684.0,1651396478.674
2856287.0,1651396478.715
2859388.0,1651396478.755
2861557.0,1651396478.794
2865265.0,1651396478.834
2868294.0,1651396478.875
2869430.0,1651396478.915
2869106.0,1651396478.954
2867446.0,1651396478.996
2865666.0,1651396479.035
2864293.0,1651396479.075
2863319.0,1651396479.116
2862336.0,1651396479.155
2861981.0,1651396479.195
2861310.0,1651396479.236
2861716.0,1651396479.275
2861278.0,1651396479.316
2861204.0,1651396479.356
2860454.0,1651396479.395
2857549.0,1651396479.435
2854497.0,1651396479.476
2850808.0,1651396479.516
2846878.0,1651396479.555
2844169.0,1651396479.597
2841927.0,1651396479.636
2839678.0,1651396479.676
2838096.0,1651396479.717
2837040.0,1651396479.756
2836192.0,1651396479.796
2835394.0,1651396479.837
2835060.0,1651396479.876
2834569.0,1651396479.917
2834377.0,1651396479.957
2835035.0,1651396479.996
2837516.0,1651396480.036
2839651.0,1651396480.077
2841266.0,1651396480.117
2842109.0,1651396480.157
2843000.0,1651396480.198
2843077.0,1651396480.237
2843119.0,1651396480.277
2842689.0,1651396480.319
2841872.0,1651396480.357
2839420.0,1651396480.397
2838052.0,1651396480.438
2837217.0,1651396480.477
2838383.0,1651396480.518
2840223.0,1651396480.558
2841915.0,1651396480.597
2847743.0,1651396480.637
2851720.0,1651396480.679
2853026.0,1651396480.718
2855574.0,1651396480.758
2858892.0,1651396480.799
2861483.0,1651396480.838
2863967.0,1651396480.878
2881179.0,1651396480.92
2901098.0,1651396480.958
2914542.0,1651396480.999
2924136.0,1651396481.04
2932283.0,1651396481.079
2940161.0,1651396481.118
2945751.0,1651396481.159
2947930.0,1651396481.198
2950755.0,1651396481.238
2953293.0,1651396481.28
2954543.0,1651396481.319
2955290.0,1651396481.359
2951497.0,1651396481.401
2947954.0,1651396481.439
2944675.0,1651396481.478
2942125.0,1651396481.52
2938120.0,1651396481.558
2933937.0,1651396481.599
2931355.0,1651396481.64
2928517.0,1651396481.679
2926038.0,1651396481.72
2923313.0,1651396481.761
2920658.0,1651396481.798
2917533.0,1651396481.838
2916103.0,1651396481.88
2913440.0,1651396481.919
2911150.0,1651396481.959
2908856.0,1651396482.001
2905078.0,1651396482.039
2901467.0,1651396482.08
2897764.0,1651396482.122
2895227.0,1651396482.157
2894865.0,1651396482.198
2894133.0,1651396482.239
2897697.0,1651396482.278
2900866.0,1651396482.319
2903009.0,1651396482.36
2905743.0,1651396482.399
2906308.0,1651396482.439
2905341.0,1651396482.481
2905429.0,1651396482.521
2905904.0,1651396482.56
2905146.0,1651396482.602
2904787.0,1651396482.638
2902348.0,1651396482.679
2900179.0,1651396482.721
2899450.0,1651396482.759
2898150.0,1651396482.8
2897278.0,1651396482.841
2896395.0,1651396482.88
2894828.0,1651396482.921
2894047.0,1651396482.962
2892090.0,1651396482.999
2889595.0,1651396483.039
2886843.0,1651396483.081
2884292.0,1651396483.12
2883029.0,1651396483.16
2882155.0,1651396483.201
2881472.0,1651396483.24
2879473.0,1651396483.28
2878394.0,1651396483.323
2877834.0,1651396483.359
2876840.0,1651396483.399
2878016.0,1651396483.441
2879448.0,1651396483.48
2880293.0,1651396483.521
2880238.0,1651396483.562
2881721.0,1651396483.601
2884506.0,1651396483.641
2888681.0,1651396483.68
2909914.0,1651396483.72
2925986.0,1651396483.76
2934061.0,1651396483.801
2937408.0,1651396483.84
2937023.0,1651396483.88
2934224.0,1651396483.923
2929822.0,1651396483.961
2922501.0,1651396484.001
2914727.0,1651396484.041
2907535.0,1651396484.08
2901778.0,1651396484.121
2897518.0,1651396484.161
2894116.0,1651396484.2
2891660.0,1651396484.241
2888670.0,1651396484.282
2886392.0,1651396484.322
2883648.0,1651396484.361
2881943.0,1651396484.401
2880466.0,1651396484.44
2878407.0,1651396484.48
2876790.0,1651396484.522
2875097.0,1651396484.561
2873121.0,1651396484.601
2871423.0,1651396484.643
2870581.0,1651396484.682
2868908.0,1651396484.723
2864601.0,1651396484.761
2858268.0,1651396484.8
2851975.0,1651396484.84
2845377.0,1651396484.882
2839412.0,1651396484.921
2833743.0,1651396484.961
2828814.0,1651396485.002
2824101.0,1651396485.041
2819569.0,1651396485.081
2815240.0,1651396485.124
2811078.0,1651396485.162
2807885.0,1651396485.2
2804897.0,1651396485.242
2802225.0,1651396485.281
2799462.0,1651396485.322
2804859.0,1651396485.363
2809989.0,1651396485.402
2813512.0,1651396485.442
2817305.0,1651396485.483
2819047.0,1651396485.523
2818253.0,1651396485.563
2816241.0,1651396485.602
2815540.0,1651396485.641
2814223.0,1651396485.681
2809694.0,1651396485.723
2804762.0,1651396485.761
2800468.0,1651396485.802
2798687.0,1651396485.843
2796155.0,1651396485.882
2793101.0,1651396485.923
2789073.0,1651396485.962
2784445.0,1651396486.001
2781371.0,1651396486.041
2781460.0,1651396486.083
2784116.0,1651396486.122
2785592.0,1651396486.162
2786191.0,1651396486.204
2784982.0,1651396486.243
2784645.0,1651396486.283
2783825.0,1651396486.323
2782230.0,1651396486.361
2780759.0,1651396486.401
2779288.0,1651396486.443
2779169.0,1651396486.482
2779673.0,1651396486.523
2779824.0,1651396486.564
2780151.0,1651396486.603
2779971.0,1651396486.641
2779178.0,1651396486.683
2776160.0,1651396486.722
2772552.0,1651396486.762
2769960.0,1651396486.804
2767662.0,1651396486.842
2765659.0,1651396486.883
2764294.0,1651396486.925
2763842.0,1651396486.963
2763295.0,1651396487.001
2763425.0,1651396487.043
2763429.0,1651396487.082
2763964.0,1651396487.123
2764996.0,1651396487.164
2766420.0,1651396487.203
2767526.0,1651396487.243
2768504.0,1651396487.281
2769872.0,1651396487.32
2771077.0,1651396487.36
2772648.0,1651396487.402
2774106.0,1651396487.441
2775929.0,1651396487.481
2777578.0,1651396487.524
2779647.0,1651396487.562
2780841.0,1651396487.602
2781962.0,1651396487.644
2781097.0,1651396487.683
2780791.0,1651396487.724
2781522.0,1651396487.765
2782069.0,1651396487.804
2783229.0,1651396487.842
2784120.0,1651396487.884
2785199.0,1651396487.923
2786472.0,1651396487.963
2789728.0,1651396488.004
2793314.0,1651396488.043
2797043.0,1651396488.083
2800074.0,1651396488.126
2802807.0,1651396488.164
2803976.0,1651396488.202
2806384.0,1651396488.244
2809953.0,1651396488.283
2812501.0,1651396488.324
2815436.0,1651396488.365
2817022.0,1651396488.404
2818307.0,1651396488.444
2820536.0,1651396488.485
2823053.0,1651396488.525
2822972.0,1651396488.565
2822106.0,1651396488.604
2823018.0,1651396488.643
2826650.0,1651396488.683
2829804.0,1651396488.725
2835499.0,1651396488.763
2847454.0,1651396488.804
2861028.0,1651396488.845
2870661.0,1651396488.884
2876164.0,1651396488.925
2879411.0,1651396488.964
2881820.0,1651396489.003
2884425.0,1651396489.043
2886485.0,1651396489.085
2887548.0,1651396489.124
2888526.0,1651396489.164
2890094.0,1651396489.206
2891065.0,1651396489.245
2892541.0,1651396489.285
2893450.0,1651396489.325
2895526.0,1651396489.363
2897329.0,1651396489.404
2899495.0,1651396489.445
2901226.0,1651396489.484
2902863.0,1651396489.525
2904094.0,1651396489.566
2904399.0,1651396489.605
2904810.0,1651396489.643
2904985.0,1651396489.685
2905568.0,1651396489.724
2906331.0,1651396489.764
2906539.0,1651396489.805
2907972.0,1651396489.844
2908871.0,1651396489.884
2909378.0,1651396489.927
2909999.0,1651396489.963
2910103.0,1651396490.004
2911459.0,1651396490.045
2912759.0,1651396490.084
2913579.0,1651396490.127
2914938.0,1651396490.168
2915552.0,1651396490.207
2915641.0,1651396490.247
2915808.0,1651396490.288
2916681.0,1651396490.328
2919022.0,1651396490.367
2920078.0,1651396490.408
2921660.0,1651396490.447
2924365.0,1651396490.487
2924387.0,1651396490.529
2922868.0,1651396490.567
2921498.0,1651396490.608
2919181.0,1651396490.65
2917382.0,1651396490.689
2914429.0,1651396490.728
2911943.0,1651396490.768
2910604.0,1651396490.807
2913699.0,1651396490.848
2917263.0,1651396490.889
2922195.0,1651396490.929
2927445.0,1651396490.968
2933248.0,1651396491.01
2943770.0,1651396491.049
2951973.0,1651396491.087
2959464.0,1651396491.129
2965302.0,1651396491.168
2967993.0,1651396491.208
2969662.0,1651396491.249
2970134.0,1651396491.288
3000741.0,1651396491.329
3021531.0,1651396491.37
3027638.0,1651396491.409
3029815.0,1651396491.447
3032647.0,1651396491.489
3034347.0,1651396491.529
3033172.0,1651396491.568
3030298.0,1651396491.61
3027145.0,1651396491.649
3024851.0,1651396491.689
3022350.0,1651396491.73
3020898.0,1651396491.768
3020975.0,1651396491.85
3020463.0,1651396491.808
3021272.0,1651396491.889
3020791.0,1651396491.93
3019687.0,1651396491.97
3019112.0,1651396492.009
3018387.0,1651396492.05
3018084.0,1651396492.089
3016429.0,1651396492.168
3017002.0,1651396492.129
3015894.0,1651396492.21
3015918.0,1651396492.249
3016558.0,1651396492.289
3017326.0,1651396492.331
3018023.0,1651396492.37
3018581.0,1651396492.409
3019113.0,1651396492.45
3018671.0,1651396492.487
3018946.0,1651396492.528
3018735.0,1651396492.569
3018665.0,1651396492.608
3017237.0,1651396492.649
3015417.0,1651396492.69
3013122.0,1651396492.73
3010671.0,1651396492.769
3009448.0,1651396492.811
3007424.0,1651396492.85
3006975.0,1651396492.89
3006423.0,1651396492.93
3005306.0,1651396492.969
3004769.0,1651396493.009
3003556.0,1651396493.05
3008201.0,1651396493.089
3011894.0,1651396493.13
3013006.0,1651396493.171
3012841.0,1651396493.21
3011332.0,1651396493.25
3010547.0,1651396493.29
3009495.0,1651396493.33
3010268.0,1651396493.369
3009187.0,1651396493.411
3007290.0,1651396493.45
3007093.0,1651396493.49
3006981.0,1651396493.532
3007574.0,1651396493.57
3008979.0,1651396493.609
3009765.0,1651396493.65
3007772.0,1651396493.689
3004947.0,1651396493.73
3003483.0,1651396493.771
3002249.0,1651396493.81
2999903.0,1651396493.85
2997923.0,1651396493.892
2997469.0,1651396493.932
2996474.0,1651396493.969
2995242.0,1651396494.011
2991577.0,1651396494.09
2990029.0,1651396494.132
2988603.0,1651396494.17
2993487.0,1651396494.05
2987148.0,1651396494.211
2985497.0,1651396494.252
2983151.0,1651396494.291
2981278.0,1651396494.33
2978645.0,1651396494.41
2976274.0,1651396494.492
2975513.0,1651396494.531
2975068.0,1651396494.571
2976798.0,1651396494.45
2979388.0,1651396494.371
2973216.0,1651396494.611
2969183.0,1651396494.65
2964701.0,1651396494.69
2960289.0,1651396494.732
2950004.0,1651396494.852
2956584.0,1651396494.77
2953364.0,1651396494.811
2944194.0,1651396494.932
2946923.0,1651396494.891
2940868.0,1651396494.969
2938504.0,1651396495.008
2933990.0,1651396495.091
2936162.0,1651396495.048
2932464.0,1651396495.13
2931820.0,1651396495.17
2931738.0,1651396495.212
2932396.0,1651396495.25
2932963.0,1651396495.291
2933042.0,1651396495.333
2933357.0,1651396495.371
2932905.0,1651396495.411
2932350.0,1651396495.453
2933364.0,1651396495.492
2932620.0,1651396495.531
2932156.0,1651396495.572
2928996.0,1651396495.611
2924414.0,1651396495.651
2920311.0,1651396495.693
2916448.0,1651396495.732
2912822.0,1651396495.772
2909183.0,1651396495.814
2906421.0,1651396495.85
2904276.0,1651396495.89
2902120.0,1651396495.933
2900425.0,1651396495.971
2898666.0,1651396496.011
2897131.0,1651396496.053
2895235.0,1651396496.092
2893794.0,1651396496.133
2891977.0,1651396496.174
2890380.0,1651396496.211
2888937.0,1651396496.251
2888005.0,1651396496.292
2886742.0,1651396496.332
2886453.0,1651396496.372
2887018.0,1651396496.413
2889030.0,1651396496.452
2889010.0,1651396496.492
2885982.0,1651396496.535
2881740.0,1651396496.573
2877755.0,1651396496.611
2873492.0,1651396496.652
2868620.0,1651396496.691
2869543.0,1651396496.732
2869764.0,1651396496.773
2867927.0,1651396496.812
2867051.0,1651396496.852
2862333.0,1651396496.894
2866981.0,1651396496.934
2881589.0,1651396496.971
2888824.0,1651396497.013
2891231.0,1651396497.052
2891433.0,1651396497.092
2890454.0,1651396497.134
2888662.0,1651396497.172
2886707.0,1651396497.213
2885754.0,1651396497.254
2884833.0,1651396497.293
2883354.0,1651396497.332
2880366.0,1651396497.373
2873006.0,1651396497.412
2864996.0,1651396497.452
2858111.0,1651396497.494
2852221.0,1651396497.53
2846386.0,1651396497.57
2840478.0,1651396497.612
2835571.0,1651396497.651
2830403.0,1651396497.691
2825303.0,1651396497.734
2821020.0,1651396497.772
2816804.0,1651396497.812
2813785.0,1651396497.854
2811045.0,1651396497.893
2807942.0,1651396497.934
2804206.0,1651396497.975
2800878.0,1651396498.014
2797915.0,1651396498.052
2795188.0,1651396498.093
2792654.0,1651396498.133
2790385.0,1651396498.173
2788430.0,1651396498.214
2787048.0,1651396498.253
2783076.0,1651396498.293
2776746.0,1651396498.336
2769463.0,1651396498.374
2763043.0,1651396498.412
2758027.0,1651396498.454
2753076.0,1651396498.493
2748505.0,1651396498.534
2745091.0,1651396498.575
2745629.0,1651396498.614
2745170.0,1651396498.654
2743355.0,1651396498.695
2740210.0,1651396498.733
2736180.0,1651396498.772
2732455.0,1651396498.814
2744799.0,1651396498.853
2754048.0,1651396498.893
2757720.0,1651396498.936
2759055.0,1651396498.974
2758653.0,1651396499.014
2756937.0,1651396499.056
2756220.0,1651396499.092
2754925.0,1651396499.133
2750707.0,1651396499.174
2743924.0,1651396499.213
2736950.0,1651396499.253
2730809.0,1651396499.295
2725213.0,1651396499.335
2720021.0,1651396499.374
2714816.0,1651396499.416
2710605.0,1651396499.453
2706827.0,1651396499.493
2702899.0,1651396499.535
2699178.0,1651396499.574
2696281.0,1651396499.614
2693864.0,1651396499.656
2691401.0,1651396499.694
2689987.0,1651396499.736
2688484.0,1651396499.774
2687115.0,1651396499.813
2685844.0,1651396499.853
2685745.0,1651396499.894
2684481.0,1651396499.934
2683972.0,1651396499.973
2683442.0,1651396500.014
2683026.0,1651396500.053
2680833.0,1651396500.093
2675289.0,1651396500.135
2669053.0,1651396500.173
2662951.0,1651396500.213
2658960.0,1651396500.254
2655769.0,1651396500.293
2652245.0,1651396500.334
2650358.0,1651396500.374
2647917.0,1651396500.414
2645831.0,1651396500.454
2643892.0,1651396500.495
2641863.0,1651396500.535
2640520.0,1651396500.575
2638614.0,1651396500.617
2637356.0,1651396500.656
2636391.0,1651396500.694
2636591.0,1651396500.736
2636554.0,1651396500.774
2636418.0,1651396500.814
2636597.0,1651396500.856
2637108.0,1651396500.895
2638095.0,1651396500.936
2639185.0,1651396500.977
2638657.0,1651396501.016
2635032.0,1651396501.054
2630732.0,1651396501.095
2627324.0,1651396501.135
2624603.0,1651396501.175
2621395.0,1651396501.216
2618816.0,1651396501.255
2617130.0,1651396501.295
2615020.0,1651396501.338
2612787.0,1651396501.376
2611789.0,1651396501.414
2610948.0,1651396501.456
2610409.0,1651396501.495
2609694.0,1651396501.536
2609461.0,1651396501.577
2609233.0,1651396501.616
2609076.0,1651396501.656
2609585.0,1651396501.698
2609650.0,1651396501.735
2610394.0,1651396501.775
2611559.0,1651396501.816
2613209.0,1651396501.855
2614818.0,1651396501.895
2616240.0,1651396501.938
2618179.0,1651396501.976
2620180.0,1651396502.016
2619430.0,1651396502.058
2616643.0,1651396502.094
2613482.0,1651396502.126
2610947.0,1651396502.166
2607092.0,1651396502.245
2605085.0,1651396502.326
2606505.0,1651396502.286
2608998.0,1651396502.205
2604628.0,1651396502.365
2605321.0,1651396502.446
2609087.0,1651396502.527
2607163.0,1651396502.486
2604056.0,1651396502.407
2610825.0,1651396502.566
2612806.0,1651396502.647
2614981.0,1651396502.728
2613940.0,1651396502.687
2616053.0,1651396502.769
2617134.0,1651396502.808
2611381.0,1651396502.607
2617482.0,1651396502.848
2618855.0,1651396502.887
2619686.0,1651396502.927
2621942.0,1651396502.967
2621563.0,1651396503.008
2619117.0,1651396503.047
2616339.0,1651396503.087
2613993.0,1651396503.13
2612846.0,1651396503.168
2611413.0,1651396503.208
2611559.0,1651396503.248
2611701.0,1651396503.287
2611742.0,1651396503.328
2611608.0,1651396503.368
2612400.0,1651396503.407
2613461.0,1651396503.448
2614135.0,1651396503.489
2615513.0,1651396503.529
2616958.0,1651396503.568
2618375.0,1651396503.608
2619706.0,1651396503.647
2621274.0,1651396503.687
2623139.0,1651396503.729
2624919.0,1651396503.768
2627245.0,1651396503.808
2629380.0,1651396503.85
2631504.0,1651396503.888
2633427.0,1651396503.929
2636046.0,1651396504.007
2635343.0,1651396503.968
2633423.0,1651396504.047
2630114.0,1651396504.089
2628108.0,1651396504.129
2626816.0,1651396504.168
2627491.0,1651396504.21
2629137.0,1651396504.249
2631513.0,1651396504.289
2633418.0,1651396504.329
2634746.0,1651396504.367
2634835.0,1651396504.408
2635537.0,1651396504.449
2636788.0,1651396504.488
2640258.0,1651396504.529
2643223.0,1651396504.57
2644712.0,1651396504.609
2645621.0,1651396504.647
2645839.0,1651396504.689
2646621.0,1651396504.729
2647936.0,1651396504.768
2649521.0,1651396504.81
2651705.0,1651396504.849
2653968.0,1651396504.889
2656133.0,1651396504.931
2656467.0,1651396504.969
2654458.0,1651396505.008
2652647.0,1651396505.049
2650441.0,1651396505.088
2649722.0,1651396505.129
2649387.0,1651396505.172
2649321.0,1651396505.206
2649984.0,1651396505.247
2649471.0,1651396505.289
2649433.0,1651396505.329
2648536.0,1651396505.368
2648357.0,1651396505.41
2648276.0,1651396505.449
2648743.0,1651396505.489
2649465.0,1651396505.531
2650091.0,1651396505.57
2650290.0,1651396505.61
2651254.0,1651396505.649
2652509.0,1651396505.688
2653924.0,1651396505.729
2655105.0,1651396505.77
2655850.0,1651396505.809
2654015.0,1651396505.849
2649978.0,1651396505.891
2646403.0,1651396505.931
2643682.0,1651396505.97
2641084.0,1651396506.01
2638437.0,1651396506.048
2637221.0,1651396506.089
2636473.0,1651396506.131
2635880.0,1651396506.169
2635323.0,1651396506.21
2635096.0,1651396506.251
2635032.0,1651396506.29
2635120.0,1651396506.331
2634918.0,1651396506.37
2635782.0,1651396506.409
2636537.0,1651396506.449
2637527.0,1651396506.491
2638383.0,1651396506.53
2639207.0,1651396506.57
2640383.0,1651396506.612
2640848.0,1651396506.649
2641839.0,1651396506.689
2641152.0,1651396506.731
2639314.0,1651396506.769
2636211.0,1651396506.81
2635591.0,1651396506.851
2635739.0,1651396506.89
2635778.0,1651396506.931
2635838.0,1651396506.972
2638323.0,1651396507.009
2647412.0,1651396507.049
2655255.0,1651396507.091
2663079.0,1651396507.13
2668337.0,1651396507.17
2670067.0,1651396507.212
2673530.0,1651396507.25
2675998.0,1651396507.291
2669275.0,1651396507.333
2663860.0,1651396507.369
2678786.0,1651396507.409
2701537.0,1651396507.451
2715443.0,1651396507.49
2725338.0,1651396507.531
2730892.0,1651396507.572
2733764.0,1651396507.611
2735268.0,1651396507.651
2732927.0,1651396507.691
2726947.0,1651396507.73
2721401.0,1651396507.769
2715620.0,1651396507.81
2710194.0,1651396507.85
2708107.0,1651396507.89
2705991.0,1651396507.932
2706275.0,1651396507.97
2705728.0,1651396508.011
2704086.0,1651396508.052
2701712.0,1651396508.091
2698607.0,1651396508.132
2695187.0,1651396508.171
2691988.0,1651396508.21
2689588.0,1651396508.25
2686663.0,1651396508.292
2683977.0,1651396508.331
2681361.0,1651396508.371
2678931.0,1651396508.413
2676878.0,1651396508.451
2674993.0,1651396508.492
2671845.0,1651396508.532
2666090.0,1651396508.57
2660260.0,1651396508.611
2655995.0,1651396508.652
2651900.0,1651396508.691
2647873.0,1651396508.732
2644953.0,1651396508.773
2641969.0,1651396508.812
2639122.0,1651396508.85
2636758.0,1651396508.892
2634682.0,1651396508.931
2633678.0,1651396508.971
2634104.0,1651396509.013
2634987.0,1651396509.051
2635316.0,1651396509.092
2636079.0,1651396509.134
2636284.0,1651396509.172
2636902.0,1651396509.21
2637000.0,1651396509.252
2637951.0,1651396509.291
2638498.0,1651396509.332
2638768.0,1651396509.373
2638491.0,1651396509.412
2636434.0,1651396509.452
2633095.0,1651396509.494
2631180.0,1651396509.533
2636028.0,1651396509.573
2640455.0,1651396509.612
2641729.0,1651396509.651
2641205.0,1651396509.691
2640800.0,1651396509.734
2639442.0,1651396509.772
2638302.0,1651396509.812
2637444.0,1651396509.854
2636688.0,1651396509.892
2636218.0,1651396509.933
2636161.0,1651396509.972
2636328.0,1651396510.011
2636342.0,1651396510.051
2636390.0,1651396510.093
2637977.0,1651396510.133
2638768.0,1651396510.172
2640565.0,1651396510.214
2641774.0,1651396510.253
2643174.0,1651396510.293
2644640.0,1651396510.331
2645982.0,1651396510.371
2644222.0,1651396510.411
2641380.0,1651396510.453
2637887.0,1651396510.491
2635907.0,1651396510.532
2634324.0,1651396510.574
2633080.0,1651396510.613
2632384.0,1651396510.653
2631920.0,1651396510.694
2631302.0,1651396510.734
2630685.0,1651396510.771
2630487.0,1651396510.813
2630693.0,1651396510.852
2630546.0,1651396510.892
2630654.0,1651396510.935
2631525.0,1651396510.973
2632443.0,1651396511.013
2633538.0,1651396511.055
2634329.0,1651396511.093
2635882.0,1651396511.132
2637451.0,1651396511.173
2639694.0,1651396511.212
2641321.0,1651396511.252
2642706.0,1651396511.294
2641085.0,1651396511.334
2638612.0,1651396511.373
2636438.0,1651396511.415
2635041.0,1651396511.454
2634304.0,1651396511.492
2633925.0,1651396511.534
2633927.0,1651396511.573
2634209.0,1651396511.613
2637542.0,1651396511.655
2641493.0,1651396511.693
2644728.0,1651396511.734
2647843.0,1651396511.775
2649662.0,1651396511.812
2651652.0,1651396511.852
2652916.0,1651396511.894
2654139.0,1651396511.934
2655232.0,1651396511.973
2656854.0,1651396512.015
2658085.0,1651396512.054
2659769.0,1651396512.094
2661688.0,1651396512.136
2663945.0,1651396512.172
2665838.0,1651396512.213
2668498.0,1651396512.254
2667862.0,1651396512.293
2666563.0,1651396512.334
2665512.0,1651396512.375
2664667.0,1651396512.414
2664243.0,1651396512.454
2663495.0,1651396512.496
2662967.0,1651396512.533
2662948.0,1651396512.573
2662984.0,1651396512.615
2663520.0,1651396512.654
2664067.0,1651396512.694
2665200.0,1651396512.736
2666868.0,1651396512.774
2667824.0,1651396512.815
2668800.0,1651396512.855
2670263.0,1651396512.891
2671540.0,1651396512.932
2673231.0,1651396512.974
2675379.0,1651396513.013
2676610.0,1651396513.053
2678522.0,1651396513.095
2680612.0,1651396513.134
2682279.0,1651396513.174
2680726.0,1651396513.215
2678987.0,1651396513.254
2677887.0,1651396513.294
2677234.0,1651396513.337
2676554.0,1651396513.375
2676034.0,1651396513.413
2676242.0,1651396513.455
2677236.0,1651396513.535
2676359.0,1651396513.494
2678859.0,1651396513.615
2677969.0,1651396513.576
2680341.0,1651396513.655
2681363.0,1651396513.697
2683241.0,1651396513.734
2684863.0,1651396513.774
2686029.0,1651396513.815
2687159.0,1651396513.854
2688158.0,1651396513.895
2688588.0,1651396513.937
2689124.0,1651396513.975
2690288.0,1651396514.015
2691930.0,1651396514.057
2694539.0,1651396514.094
2696225.0,1651396514.135
2694103.0,1651396514.214
2693044.0,1651396514.254
2695438.0,1651396514.175
2690843.0,1651396514.335
2691753.0,1651396514.296
2690273.0,1651396514.375
2688991.0,1651396514.416
2688402.0,1651396514.455
2687158.0,1651396514.495
2686655.0,1651396514.537
2685945.0,1651396514.575
2686081.0,1651396514.616
2685839.0,1651396514.657
2686026.0,1651396514.696
2686454.0,1651396514.737
2686756.0,1651396514.778
2687533.0,1651396514.817
2688505.0,1651396514.855
2690744.0,1651396514.937
2689347.0,1651396514.897
2693756.0,1651396515.018
2692794.0,1651396514.976
2692616.0,1651396515.057
2689899.0,1651396515.097
2688172.0,1651396515.139
2686310.0,1651396515.177
2685073.0,1651396515.215
2684499.0,1651396515.257
2683869.0,1651396515.337
2683819.0,1651396515.416
2684195.0,1651396515.296
2683852.0,1651396515.378
2684104.0,1651396515.454
2684446.0,1651396515.495
2684777.0,1651396515.535
2685209.0,1651396515.575
2687182.0,1651396515.617
2689894.0,1651396515.696
2693218.0,1651396515.776
2693980.0,1651396515.816
2691701.0,1651396515.738
2688609.0,1651396515.655
2695259.0,1651396515.858
2696710.0,1651396515.897
2697425.0,1651396515.938
2692579.0,1651396516.018
2695283.0,1651396515.979
2689043.0,1651396516.099
2690442.0,1651396516.058
2687893.0,1651396516.137
2686714.0,1651396516.176
2686238.0,1651396516.218
2685139.0,1651396516.257
2684134.0,1651396516.297
2683536.0,1651396516.339
2683464.0,1651396516.377
2684081.0,1651396516.418
2684388.0,1651396516.459
2685261.0,1651396516.498
2685666.0,1651396516.537
2687017.0,1651396516.578
2687796.0,1651396516.617
2688770.0,1651396516.657
2690402.0,1651396516.699
2691642.0,1651396516.739
2693928.0,1651396516.778
2696169.0,1651396516.82
2699038.0,1651396516.857
2698857.0,1651396516.897
2697646.0,1651396516.939
2696838.0,1651396516.977
2696494.0,1651396517.017
2696658.0,1651396517.059
2696572.0,1651396517.098
2697179.0,1651396517.139
2696466.0,1651396517.18
2696950.0,1651396517.219
2697027.0,1651396517.257
2697033.0,1651396517.298
2697809.0,1651396517.338
2698732.0,1651396517.377
2699356.0,1651396517.419
2700222.0,1651396517.458
2701091.0,1651396517.498
2701899.0,1651396517.541
2703124.0,1651396517.579
2704586.0,1651396517.619
2705863.0,1651396517.659
2707372.0,1651396517.697
2708933.0,1651396517.738
2710113.0,1651396517.779
2710537.0,1651396517.818
2707690.0,1651396517.858
2705130.0,1651396517.9
2702845.0,1651396517.94
2700719.0,1651396517.978
2699171.0,1651396518.019
2698240.0,1651396518.058
2697479.0,1651396518.099
2696895.0,1651396518.141
2696290.0,1651396518.178
2695976.0,1651396518.218
2695168.0,1651396518.259
2695291.0,1651396518.298
2695384.0,1651396518.339
2695466.0,1651396518.38
2696213.0,1651396518.419
2697449.0,1651396518.459
2697856.0,1651396518.501
2698435.0,1651396518.54
2699247.0,1651396518.58
2700499.0,1651396518.619
2701119.0,1651396518.658
2702020.0,1651396518.698
2703396.0,1651396518.741
2702579.0,1651396518.779
2700042.0,1651396518.819
2697450.0,1651396518.861
2695768.0,1651396518.9
2694677.0,1651396518.94
2693027.0,1651396518.981
2691856.0,1651396519.018
2690998.0,1651396519.058
2690194.0,1651396519.1
2689789.0,1651396519.14
2689370.0,1651396519.179
2689375.0,1651396519.221
2690011.0,1651396519.259
2690767.0,1651396519.3
2691637.0,1651396519.342
2692673.0,1651396519.38
2693424.0,1651396519.418
2694268.0,1651396519.46
2695662.0,1651396519.499
2696758.0,1651396519.54
2698212.0,1651396519.581
2699547.0,1651396519.62
2701146.0,1651396519.66
2701999.0,1651396519.702
2700612.0,1651396519.741
2698255.0,1651396519.779
2696561.0,1651396519.82
2695548.0,1651396519.859
2694870.0,1651396519.899
2695077.0,1651396519.942
2699630.0,1651396519.98
2703131.0,1651396520.02
2705479.0,1651396520.062
2707256.0,1651396520.101
2709709.0,1651396520.141
2711975.0,1651396520.18
2717432.0,1651396520.219
2722288.0,1651396520.259
2726289.0,1651396520.301
2731119.0,1651396520.341
2734916.0,1651396520.38
2737004.0,1651396520.422
2738678.0,1651396520.461
2740733.0,1651396520.501
2742478.0,1651396520.542
2745469.0,1651396520.581
2749159.0,1651396520.621
2748565.0,1651396520.661
2745561.0,1651396520.7
2756365.0,1651396520.741
2776598.0,1651396520.781
2790574.0,1651396520.82
2801868.0,1651396520.861
2809206.0,1651396520.902
2815032.0,1651396520.942
2819432.0,1651396520.981
2823191.0,1651396521.021
2827689.0,1651396521.06
2832587.0,1651396521.142
2829930.0,1651396521.1
2835189.0,1651396521.181
2837331.0,1651396521.221
2839003.0,1651396521.262
2840790.0,1651396521.301
2842606.0,1651396521.342
2844344.0,1651396521.381
2845535.0,1651396521.42
2846375.0,1651396521.46
2847426.0,1651396521.502
2847861.0,1651396521.542
2846458.0,1651396521.581
2842033.0,1651396521.623
2837857.0,1651396521.662
2835641.0,1651396521.7
2835070.0,1651396521.742
2833631.0,1651396521.781
2831629.0,1651396521.821
2830063.0,1651396521.862
2828264.0,1651396521.901
2826135.0,1651396521.942
2825260.0,1651396521.983
2824700.0,1651396522.022
2823876.0,1651396522.06
2823305.0,1651396522.102
2821684.0,1651396522.142
2818958.0,1651396522.181
2816080.0,1651396522.223
2814745.0,1651396522.262
2815454.0,1651396522.302
2816144.0,1651396522.344
2818092.0,1651396522.382
2820833.0,1651396522.421
2820985.0,1651396522.462
2818486.0,1651396522.501
2815338.0,1651396522.542
2812330.0,1651396522.583
2810262.0,1651396522.622
2809111.0,1651396522.662
2808897.0,1651396522.704
2808639.0,1651396522.742
2810088.0,1651396522.781
2809431.0,1651396522.823
2808656.0,1651396522.862
2806911.0,1651396522.902
2808451.0,1651396522.944
2817959.0,1651396522.982
2831183.0,1651396523.023
2837389.0,1651396523.064
2840860.0,1651396523.1
2842737.0,1651396523.142
2842710.0,1651396523.183
2842110.0,1651396523.222
2839912.0,1651396523.262
2839374.0,1651396523.303
2838535.0,1651396523.343
2834967.0,1651396523.383
2830080.0,1651396523.424
2824796.0,1651396523.463
2820552.0,1651396523.501
2816083.0,1651396523.544
2811756.0,1651396523.582
2807593.0,1651396523.622
2804389.0,1651396523.664
2800932.0,1651396523.703
2797510.0,1651396523.744
2794148.0,1651396523.785
2791681.0,1651396523.822
2789223.0,1651396523.862
2787508.0,1651396523.903
2785915.0,1651396523.943
2784523.0,1651396523.983
2782711.0,1651396524.024
2781868.0,1651396524.063
2780963.0,1651396524.103
2780394.0,1651396524.146
2780150.0,1651396524.182
2779395.0,1651396524.222
2779771.0,1651396524.264
2777959.0,1651396524.303
2773871.0,1651396524.344
2768788.0,1651396524.384
2764713.0,1651396524.423
2761445.0,1651396524.464
2758058.0,1651396524.505
2755386.0,1651396524.543
2753413.0,1651396524.582
2751112.0,1651396524.624
2749037.0,1651396524.663
2747253.0,1651396524.703
2746336.0,1651396524.746
2746087.0,1651396524.784
2746041.0,1651396524.824
2744631.0,1651396524.864
2743227.0,1651396524.903
2741459.0,1651396524.944
2739530.0,1651396524.984
2738212.0,1651396525.023
2736752.0,1651396525.063
2735563.0,1651396525.105
2733951.0,1651396525.145
2730174.0,1651396525.184
2726504.0,1651396525.224
2722838.0,1651396525.263
2718859.0,1651396525.303
2715369.0,1651396525.345
2712149.0,1651396525.384
2709897.0,1651396525.424
2707134.0,1651396525.465
2706121.0,1651396525.504
2705732.0,1651396525.545
2705968.0,1651396525.586
2706995.0,1651396525.623
2708164.0,1651396525.662
2709531.0,1651396525.705
2713311.0,1651396525.745
2716841.0,1651396525.784
2720327.0,1651396525.826
2723269.0,1651396525.865
2725352.0,1651396525.905
2726408.0,1651396525.945
2726844.0,1651396525.983
2726484.0,1651396526.024
2725809.0,1651396526.065
2722553.0,1651396526.104
2718671.0,1651396526.146
2714551.0,1651396526.187
2711100.0,1651396526.226
2708108.0,1651396526.266
2705445.0,1651396526.307
2704250.0,1651396526.347
2703013.0,1651396526.386
2701923.0,1651396526.427
2700108.0,1651396526.466
2699449.0,1651396526.506
2699034.0,1651396526.548
2698201.0,1651396526.586
2698638.0,1651396526.627
2698610.0,1651396526.667
2698809.0,1651396526.706
2699266.0,1651396526.747
2699641.0,1651396526.788
2700134.0,1651396526.827
2700142.0,1651396526.867
2700374.0,1651396526.908
2701042.0,1651396526.948
2700941.0,1651396526.987
2698585.0,1651396527.027
2694968.0,1651396527.066
2691796.0,1651396527.106
2689322.0,1651396527.149
2687419.0,1651396527.187
2686535.0,1651396527.227
2687021.0,1651396527.269
2686767.0,1651396527.308
2686645.0,1651396527.349
2686800.0,1651396527.387
2686745.0,1651396527.426
2687692.0,1651396527.467
2689218.0,1651396527.508
2690232.0,1651396527.548
2691674.0,1651396527.588
2693298.0,1651396527.629
2694764.0,1651396527.666
2696529.0,1651396527.706
2698945.0,1651396527.749
2701017.0,1651396527.787
2703464.0,1651396527.827
2706368.0,1651396527.869
2709591.0,1651396527.908
2712662.0,1651396527.949
2715138.0,1651396527.99
2714146.0,1651396528.027
2712611.0,1651396528.067
2713254.0,1651396528.108
2713658.0,1651396528.148
2713311.0,1651396528.188
2712756.0,1651396528.228
2714582.0,1651396528.266
2717316.0,1651396528.306
2718872.0,1651396528.349
2719587.0,1651396528.387
2719196.0,1651396528.427
2718751.0,1651396528.469
2718642.0,1651396528.507
2719002.0,1651396528.548
2719678.0,1651396528.59
2720179.0,1651396528.629
2721281.0,1651396528.669
2723790.0,1651396528.71
2726521.0,1651396528.748
2730684.0,1651396528.787
2733506.0,1651396528.829
2736910.0,1651396528.868
2741518.0,1651396528.908
2743140.0,1651396528.95
2751491.0,1651396528.989
2764045.0,1651396529.029
2770962.0,1651396529.07
2775818.0,1651396529.107
2777460.0,1651396529.148
2779255.0,1651396529.189
2780604.0,1651396529.228
2781926.0,1651396529.268
2783103.0,1651396529.31
2783905.0,1651396529.349
2783413.0,1651396529.389
2781874.0,1651396529.431
2781636.0,1651396529.467
2781357.0,1651396529.508
2780673.0,1651396529.55
2779259.0,1651396529.588
2779970.0,1651396529.629
2780963.0,1651396529.67
2782351.0,1651396529.709
2784147.0,1651396529.75
2785442.0,1651396529.791
2786108.0,1651396529.828
2785703.0,1651396529.868
2783335.0,1651396529.91
2780570.0,1651396529.949
2777888.0,1651396529.989
2775250.0,1651396530.031
2772011.0,1651396530.069
2769221.0,1651396530.109
2766416.0,1651396530.152
2764256.0,1651396530.188
2761668.0,1651396530.228
2759204.0,1651396530.27
2757386.0,1651396530.309
2755510.0,1651396530.35
2753399.0,1651396530.391
2750872.0,1651396530.43
2748160.0,1651396530.47
2746143.0,1651396530.511
2745005.0,1651396530.549
2745314.0,1651396530.589
2746254.0,1651396530.63
2747350.0,1651396530.669
2747536.0,1651396530.709
2745520.0,1651396530.752
2742288.0,1651396530.787
2739479.0,1651396530.827
2737776.0,1651396530.869
2740123.0,1651396530.908
2742021.0,1651396530.949
2742027.0,1651396530.99
2742532.0,1651396531.029
2742386.0,1651396531.069
2742884.0,1651396531.111
2743897.0,1651396531.15
2745440.0,1651396531.19
2746925.0,1651396531.232
2748895.0,1651396531.27
2750827.0,1651396531.311
2752836.0,1651396531.351
2753291.0,1651396531.389
2754691.0,1651396531.429
2755130.0,1651396531.471
2755867.0,1651396531.51
2757061.0,1651396531.551
2757887.0,1651396531.592
2759792.0,1651396531.631
2758978.0,1651396531.669
2756911.0,1651396531.711
2754053.0,1651396531.75
2751359.0,1651396531.79
2750193.0,1651396531.832
2748359.0,1651396531.87
2747118.0,1651396531.911
2747224.0,1651396531.953
2746572.0,1651396531.991
2745818.0,1651396532.029
2745474.0,1651396532.071
2745341.0,1651396532.11
2745498.0,1651396532.151
2745832.0,1651396532.192
2746303.0,1651396532.231
2746784.0,1651396532.271
2747230.0,1651396532.312
2747434.0,1651396532.352
2747043.0,1651396532.39
2746604.0,1651396532.431
2747092.0,1651396532.47
2748305.0,1651396532.51
2750381.0,1651396532.553
2750740.0,1651396532.591
2748747.0,1651396532.631
2745727.0,1651396532.673
2742984.0,1651396532.71
2741037.0,1651396532.751
2738724.0,1651396532.792
2737342.0,1651396532.831
2736316.0,1651396532.871
2735258.0,1651396532.912
2733616.0,1651396532.952
2733190.0,1651396532.992
2732643.0,1651396533.033
2732787.0,1651396533.07
2733229.0,1651396533.11
2733460.0,1651396533.153
2733611.0,1651396533.191
2734348.0,1651396533.231
2735155.0,1651396533.273
2736017.0,1651396533.312
2736259.0,1651396533.352
2736959.0,1651396533.391
2737927.0,1651396533.43
2739751.0,1651396533.47
2744763.0,1651396533.512
2744746.0,1651396533.551
2741629.0,1651396533.591
2737593.0,1651396533.633
2735704.0,1651396533.671
2734892.0,1651396533.712
2736884.0,1651396533.754
2737399.0,1651396533.792
2735442.0,1651396533.831
2733190.0,1651396533.872
2732123.0,1651396533.911
2740982.0,1651396533.952
2761914.0,1651396533.993
2772071.0,1651396534.032
2777115.0,1651396534.072
2779812.0,1651396534.114
2779534.0,1651396534.191
2804330.0,1651396534.312
2785490.0,1651396534.271
2775243.0,1651396534.233
2780662.0,1651396534.153
2816074.0,1651396534.354
2821269.0,1651396534.392
2820331.0,1651396534.432
2816907.0,1651396534.474
2815346.0,1651396534.513
2812029.0,1651396534.552
2807995.0,1651396534.593
2804641.0,1651396534.632
2803852.0,1651396534.672
2802720.0,1651396534.714
2802396.0,1651396534.753
2800142.0,1651396534.793
2800225.0,1651396534.835
2801431.0,1651396534.871
2802380.0,1651396534.954
2801911.0,1651396534.992
2802167.0,1651396534.911
2800922.0,1651396535.032
2799400.0,1651396535.113
2800120.0,1651396535.074
2798044.0,1651396535.154
2796646.0,1651396535.195
2792998.0,1651396535.232
2788991.0,1651396535.272
2785512.0,1651396535.313
2782205.0,1651396535.353
2779239.0,1651396535.393
2776930.0,1651396535.434
2774838.0,1651396535.473
2772220.0,1651396535.513
2771033.0,1651396535.556
2769116.0,1651396535.594
2768025.0,1651396535.632
2766810.0,1651396535.673
2767138.0,1651396535.712
2766208.0,1651396535.753
2766202.0,1651396535.794
2766037.0,1651396535.833
2766852.0,1651396535.873
2768647.0,1651396535.914
2770373.0,1651396535.951
2771233.0,1651396535.99
2772166.0,1651396536.032
2770632.0,1651396536.071
2767827.0,1651396536.112
2766099.0,1651396536.154
2764453.0,1651396536.192
2763650.0,1651396536.233
2762270.0,1651396536.274
2761603.0,1651396536.313
2760464.0,1651396536.354
2759827.0,1651396536.395
2759285.0,1651396536.434
2758627.0,1651396536.474
2758260.0,1651396536.516
2758664.0,1651396536.593
2760419.0,1651396536.714
2761860.0,1651396536.794
2760579.0,1651396536.756
2759594.0,1651396536.673
2758503.0,1651396536.553
2759482.0,1651396536.635
2762673.0,1651396536.835
2762531.0,1651396536.874
2759130.0,1651396536.954
2760662.0,1651396536.913
2758536.0,1651396536.995
2761617.0,1651396537.034
2766228.0,1651396537.074
2769794.0,1651396537.116
2772163.0,1651396537.155
2772789.0,1651396537.195
2773152.0,1651396537.234
2772998.0,1651396537.273
2772286.0,1651396537.313
2772545.0,1651396537.356
2772427.0,1651396537.394
2772049.0,1651396537.434
2772187.0,1651396537.476
2772679.0,1651396537.515
2773282.0,1651396537.556
2774144.0,1651396537.597
2776131.0,1651396537.633
2777843.0,1651396537.673
2779737.0,1651396537.715
2779749.0,1651396537.755
2778202.0,1651396537.794
2777009.0,1651396537.836
2775850.0,1651396537.875
2775832.0,1651396537.915
2775150.0,1651396537.957
2776260.0,1651396537.993
2777555.0,1651396538.034
2778273.0,1651396538.075
2779109.0,1651396538.114
2780398.0,1651396538.156
2781973.0,1651396538.197
2783198.0,1651396538.236
2783903.0,1651396538.276
2783773.0,1651396538.317
2784016.0,1651396538.357
2784263.0,1651396538.396
2784195.0,1651396538.437
2783465.0,1651396538.476
2783952.0,1651396538.516
2784762.0,1651396538.558
2783444.0,1651396538.597
2780886.0,1651396538.637
2778112.0,1651396538.679
2775603.0,1651396538.716
2773848.0,1651396538.757
2773543.0,1651396538.798
2776632.0,1651396538.837
2777423.0,1651396538.877
2779186.0,1651396538.919
2782515.0,1651396538.958
2783768.0,1651396538.998
2784413.0,1651396539.039
2784410.0,1651396539.076
2785078.0,1651396539.116
2785526.0,1651396539.159
2785572.0,1651396539.197
2788943.0,1651396539.237
2793942.0,1651396539.279
2798252.0,1651396539.318
2801773.0,1651396539.359
2804452.0,1651396539.4
2806517.0,1651396539.437
2809068.0,1651396539.477
2812194.0,1651396539.518
2814540.0,1651396539.558
2813833.0,1651396539.598
2812381.0,1651396539.639
2810960.0,1651396539.678
2809702.0,1651396539.718
2808207.0,1651396539.759
2806483.0,1651396539.797
2805376.0,1651396539.837
2805131.0,1651396539.879
2807070.0,1651396539.918
2810411.0,1651396539.959
2812389.0,1651396540.0
2813537.0,1651396540.039
2814228.0,1651396540.079
2814882.0,1651396540.118
2815444.0,1651396540.158
2815433.0,1651396540.197
2815634.0,1651396540.239
2815670.0,1651396540.278
2816521.0,1651396540.318
2817674.0,1651396540.361
2818823.0,1651396540.399
2820393.0,1651396540.439
2820654.0,1651396540.478
2818290.0,1651396540.517
2816229.0,1651396540.558
2814638.0,1651396540.599
2813539.0,1651396540.638
2811958.0,1651396540.679
2810551.0,1651396540.72
2809748.0,1651396540.76
2809631.0,1651396540.797
2809204.0,1651396540.839
2809352.0,1651396540.878
2808626.0,1651396540.918
2809567.0,1651396540.96
2810039.0,1651396540.999
2810169.0,1651396541.036
2811681.0,1651396541.117
2811024.0,1651396541.078
2813218.0,1651396541.199
2813926.0,1651396541.238
2812245.0,1651396541.158
2814667.0,1651396541.278
2816520.0,1651396541.359
2817288.0,1651396541.399
2815758.0,1651396541.32
2818692.0,1651396541.441
2818968.0,1651396541.479
2816276.0,1651396541.52
2814221.0,1651396541.56
2811381.0,1651396541.639
2812728.0,1651396541.598
2810386.0,1651396541.68
2810156.0,1651396541.719
2810283.0,1651396541.76
2809651.0,1651396541.801
2810718.0,1651396541.84
2811410.0,1651396541.878
2812418.0,1651396541.92
2813139.0,1651396541.959
2813622.0,1651396541.999
2814577.0,1651396542.079
2815766.0,1651396542.119
2814107.0,1651396542.04
2817133.0,1651396542.162
2817779.0,1651396542.2
2819048.0,1651396542.24
2822427.0,1651396542.318
2820176.0,1651396542.28
2823375.0,1651396542.359
2821085.0,1651396542.439
2821956.0,1651396542.4
2820000.0,1651396542.479
2819588.0,1651396542.521
2820961.0,1651396542.561
2822728.0,1651396542.6
2824911.0,1651396542.679
2826255.0,1651396542.719
2823807.0,1651396542.642
2826997.0,1651396542.761
2827829.0,1651396542.799
2828915.0,1651396542.839
2828081.0,1651396542.881
2833627.0,1651396542.92
2854576.0,1651396542.961
2869493.0,1651396543.002
2879415.0,1651396543.041
2885553.0,1651396543.079
2890328.0,1651396543.12
2894577.0,1651396543.16
2897039.0,1651396543.199
2898043.0,1651396543.241
2895410.0,1651396543.28
2892385.0,1651396543.32
2890155.0,1651396543.362
2888564.0,1651396543.4
2885623.0,1651396543.441
2882349.0,1651396543.482
2879433.0,1651396543.519
2878506.0,1651396543.56
2874291.0,1651396543.639
2876634.0,1651396543.603
2871458.0,1651396543.721
2872685.0,1651396543.679
2871410.0,1651396543.76
2871752.0,1651396543.8
2870804.0,1651396543.841
2870120.0,1651396543.88
2869648.0,1651396543.92
2869204.0,1651396543.963
2868891.0,1651396544.001
2867751.0,1651396544.041
2866478.0,1651396544.083
2864624.0,1651396544.119
2860139.0,1651396544.16
2856211.0,1651396544.201
2853001.0,1651396544.24
2850219.0,1651396544.28
2847806.0,1651396544.322
2845704.0,1651396544.362
2844366.0,1651396544.401
2842482.0,1651396544.443
2840669.0,1651396544.48
2839456.0,1651396544.52
2838758.0,1651396544.562
2837774.0,1651396544.641
2838445.0,1651396544.601
2837049.0,1651396544.683
2837164.0,1651396544.721
2837578.0,1651396544.762
2837953.0,1651396544.803
2838598.0,1651396544.88
2838546.0,1651396544.922
2838941.0,1651396544.84
2838774.0,1651396544.961
2836730.0,1651396545.001
2833706.0,1651396545.043
2830326.0,1651396545.081
2827756.0,1651396545.122
2825936.0,1651396545.164
2823535.0,1651396545.202
2821232.0,1651396545.24
2821223.0,1651396545.282
2818774.0,1651396545.321
2815549.0,1651396545.362
2815325.0,1651396545.403
2831393.0,1651396545.442
2843359.0,1651396545.482
2848255.0,1651396545.523
2851256.0,1651396545.563
2851983.0,1651396545.602
2849794.0,1651396545.642
2846969.0,1651396545.681
2845546.0,1651396545.721
2844237.0,1651396545.763
2843591.0,1651396545.802
2840321.0,1651396545.842
2834899.0,1651396545.883
2830691.0,1651396545.922
2826571.0,1651396545.963
2823214.0,1651396546.004
2820496.0,1651396546.041
2817046.0,1651396546.081
2813444.0,1651396546.123
2810061.0,1651396546.161
2807755.0,1651396546.201
2805815.0,1651396546.242
2805255.0,1651396546.282
2804322.0,1651396546.322
2803657.0,1651396546.364
2802547.0,1651396546.402
2802175.0,1651396546.443
2801596.0,1651396546.484
2800899.0,1651396546.523
2801026.0,1651396546.562
2801296.0,1651396546.603
2801113.0,1651396546.642
2798824.0,1651396546.682
2793886.0,1651396546.724
2789058.0,1651396546.763
2785116.0,1651396546.803
2780960.0,1651396546.845
2777322.0,1651396546.883
2773259.0,1651396546.921
2770925.0,1651396546.964
2768309.0,1651396547.002
2765783.0,1651396547.042
2764650.0,1651396547.084
2763015.0,1651396547.123
2761932.0,1651396547.164
2761381.0,1651396547.205
2760896.0,1651396547.243
2760596.0,1651396547.284
2760994.0,1651396547.323
2761289.0,1651396547.363
2762005.0,1651396547.402
2762991.0,1651396547.444
2764351.0,1651396547.483
2766006.0,1651396547.523
2766388.0,1651396547.565
2764321.0,1651396547.604
2761211.0,1651396547.644
2758234.0,1651396547.683
2755515.0,1651396547.722
2753098.0,1651396547.763
2751124.0,1651396547.804
2749520.0,1651396547.843
2748039.0,1651396547.883
2746585.0,1651396547.925
2745523.0,1651396547.964
2744941.0,1651396548.004
2744865.0,1651396548.044
2744737.0,1651396548.083
2745199.0,1651396548.123
2745284.0,1651396548.165
2745890.0,1651396548.203
2746021.0,1651396548.244
2746816.0,1651396548.285
2748006.0,1651396548.324
2748384.0,1651396548.365
2746781.0,1651396548.406
2743420.0,1651396548.443
2740180.0,1651396548.483
2737378.0,1651396548.524
2735273.0,1651396548.564
2733217.0,1651396548.604
2732125.0,1651396548.646
2730618.0,1651396548.684
2729280.0,1651396548.722
2727709.0,1651396548.764
2727610.0,1651396548.803
2727151.0,1651396548.843
2727271.0,1651396548.884
2727368.0,1651396548.923
2727532.0,1651396548.964
2727578.0,1651396549.005
2728091.0,1651396549.044
2729064.0,1651396549.084
2730146.0,1651396549.126
2731204.0,1651396549.165
2732675.0,1651396549.205
2734211.0,1651396549.245
2732638.0,1651396549.283
2729371.0,1651396549.324
2726679.0,1651396549.366
2724696.0,1651396549.404
2723945.0,1651396549.444
2725116.0,1651396549.486
2725213.0,1651396549.525
2725715.0,1651396549.566
2725718.0,1651396549.607
2726674.0,1651396549.643
2728055.0,1651396549.684
2728962.0,1651396549.725
2729480.0,1651396549.765
2729845.0,1651396549.804
2729733.0,1651396549.846
2729730.0,1651396549.885
2730469.0,1651396549.925
2731032.0,1651396549.967
2732049.0,1651396550.006
2733089.0,1651396550.044
2734190.0,1651396550.085
2734420.0,1651396550.124
2732027.0,1651396550.164
2729419.0,1651396550.205
2727639.0,1651396550.244
2726365.0,1651396550.284
2724817.0,1651396550.325
2724306.0,1651396550.365
2723833.0,1651396550.404
2723164.0,1651396550.445
2722836.0,1651396550.484
2722497.0,1651396550.524
2722226.0,1651396550.566
2722670.0,1651396550.604
2722955.0,1651396550.645
2722760.0,1651396550.686
2723371.0,1651396550.725
2723335.0,1651396550.765
2723627.0,1651396550.806
2725087.0,1651396550.845
2726316.0,1651396550.886
2727246.0,1651396550.927
2728815.0,1651396550.967
2728103.0,1651396551.004
2726011.0,1651396551.046
2723741.0,1651396551.085
2722448.0,1651396551.125
2720893.0,1651396551.167
2718701.0,1651396551.206
2716287.0,1651396551.246
2712534.0,1651396551.284
2708775.0,1651396551.324
2705229.0,1651396551.365
2702005.0,1651396551.406
2700042.0,1651396551.445
2699086.0,1651396551.485
2697705.0,1651396551.527
2697952.0,1651396551.566
2698117.0,1651396551.606
2697792.0,1651396551.648
2698083.0,1651396551.686
2697903.0,1651396551.727
2697585.0,1651396551.769
2697869.0,1651396551.805
2698995.0,1651396551.845
2698207.0,1651396551.887
2695908.0,1651396551.926
2693654.0,1651396551.967
2692315.0,1651396552.008
2691279.0,1651396552.046
2690684.0,1651396552.087
2691168.0,1651396552.128
2691083.0,1651396552.168
2691288.0,1651396552.205
2691096.0,1651396552.247
2691184.0,1651396552.286
2692353.0,1651396552.326
2693481.0,1651396552.368
2694457.0,1651396552.406
2696182.0,1651396552.447
2697462.0,1651396552.488
2697859.0,1651396552.527
2699971.0,1651396552.568
2701324.0,1651396552.609
2703071.0,1651396552.646
2705037.0,1651396552.686
2705221.0,1651396552.727
2704458.0,1651396552.767
2703953.0,1651396552.806
2703456.0,1651396552.848
2702544.0,1651396552.887
2700748.0,1651396552.927
2699830.0,1651396552.97
2699764.0,1651396553.008
2699754.0,1651396553.046
2700374.0,1651396553.088
2701494.0,1651396553.126
2702608.0,1651396553.167
2704019.0,1651396553.208
2704724.0,1651396553.247
2704932.0,1651396553.287
2705577.0,1651396553.329
2706471.0,1651396553.369
2708687.0,1651396553.406
2710271.0,1651396553.448
2712031.0,1651396553.487
2713701.0,1651396553.527
2715647.0,1651396553.569
2718129.0,1651396553.607
2722557.0,1651396553.648
2726452.0,1651396553.689
2730544.0,1651396553.728
2734232.0,1651396553.767
2735303.0,1651396553.808
2735230.0,1651396553.846
2734154.0,1651396553.887
2733769.0,1651396553.929
2733818.0,1651396553.968
2733937.0,1651396554.008
2733473.0,1651396554.049
2733222.0,1651396554.088
2733528.0,1651396554.128
2733802.0,1651396554.171
2733789.0,1651396554.207
2734360.0,1651396554.247
2735430.0,1651396554.289
2736167.0,1651396554.327
2737499.0,1651396554.368
2738848.0,1651396554.409
2740388.0,1651396554.448
2741904.0,1651396554.488
2743450.0,1651396554.53
2742717.0,1651396554.57
2740573.0,1651396554.609
2738746.0,1651396554.649
2737671.0,1651396554.687
2736678.0,1651396554.727
2735794.0,1651396554.77
2735872.0,1651396554.808
2735376.0,1651396554.848
2735994.0,1651396554.89
2735474.0,1651396554.929
2735741.0,1651396554.97
2735597.0,1651396555.009
2734892.0,1651396555.129
2735300.0,1651396555.169
2735056.0,1651396555.048
2735087.0,1651396555.088
2735981.0,1651396555.208
2735937.0,1651396555.25
2736571.0,1651396555.289
2738678.0,1651396555.372
2737934.0,1651396555.329
2737552.0,1651396555.408
2735658.0,1651396555.448
2732060.0,1651396555.528
2733234.0,1651396555.489
2728659.0,1651396555.61
2730352.0,1651396555.569
2728287.0,1651396555.649
2728367.0,1651396555.731
2728636.0,1651396555.689
2728467.0,1651396555.808
2728267.0,1651396555.85
2728053.0,1651396555.769
2728777.0,1651396555.929
2729503.0,1651396555.971
2730784.0,1651396556.009
2728668.0,1651396555.889
2731533.0,1651396556.05
2732451.0,1651396556.091
2733109.0,1651396556.13
2731387.0,1651396556.169
2727646.0,1651396556.249
2729218.0,1651396556.21
2726688.0,1651396556.289
2725794.0,1651396556.33
2725630.0,1651396556.37
2725280.0,1651396556.407
2724818.0,1651396556.448
2724628.0,1651396556.487
2724550.0,1651396556.527
2724854.0,1651396556.57
2725174.0,1651396556.608
2725162.0,1651396556.648
2725448.0,1651396556.69
2726657.0,1651396556.729
2727222.0,1651396556.77
2727346.0,1651396556.811
2727185.0,1651396556.849
2724719.0,1651396556.89
2721847.0,1651396556.931
2719733.0,1651396556.971
2717923.0,1651396557.01
2716332.0,1651396557.052
2714687.0,1651396557.089
2714668.0,1651396557.129
2714823.0,1651396557.171
2714989.0,1651396557.209
2715580.0,1651396557.25
2716379.0,1651396557.291
2717607.0,1651396557.33
2718648.0,1651396557.371
2719963.0,1651396557.412
2721154.0,1651396557.451
2722617.0,1651396557.489
2727557.0,1651396557.531
2738926.0,1651396557.57
2744104.0,1651396557.61
2744075.0,1651396557.652
2742537.0,1651396557.69
2741045.0,1651396557.731
2739967.0,1651396557.773
2739054.0,1651396557.811
2739339.0,1651396557.849
2738926.0,1651396557.891
2738114.0,1651396557.93
2737308.0,1651396557.971
2736686.0,1651396558.012
2737074.0,1651396558.051
2737570.0,1651396558.091
2738806.0,1651396558.132
2739853.0,1651396558.172
2740438.0,1651396558.211
2741939.0,1651396558.251
2743049.0,1651396558.29
2744478.0,1651396558.33
2745781.0,1651396558.372
2747597.0,1651396558.41
2749610.0,1651396558.451
2751397.0,1651396558.492
2751971.0,1651396558.531
2749959.0,1651396558.572
2747882.0,1651396558.613
2746439.0,1651396558.65
2744852.0,1651396558.69
2743893.0,1651396558.732
2743553.0,1651396558.771
2743460.0,1651396558.811
2743077.0,1651396558.853
2742762.0,1651396558.891
2742880.0,1651396558.934
2743121.0,1651396558.971
2743888.0,1651396559.01
2744162.0,1651396559.05
2744575.0,1651396559.092
2745290.0,1651396559.13
2746374.0,1651396559.171
2746797.0,1651396559.212
2748529.0,1651396559.251
2749488.0,1651396559.291
2751234.0,1651396559.333
2753002.0,1651396559.373
2754500.0,1651396559.412
2756541.0,1651396559.454
2757941.0,1651396559.49
2756741.0,1651396559.531
2755022.0,1651396559.573
2753516.0,1651396559.611
2752970.0,1651396559.652
2752595.0,1651396559.693
2752259.0,1651396559.732
2752150.0,1651396559.773
2752559.0,1651396559.851
2752237.0,1651396559.814
2752522.0,1651396559.891
2752989.0,1651396559.933
2753876.0,1651396559.972
2754874.0,1651396560.012
2755618.0,1651396560.053
2756459.0,1651396560.092
2757499.0,1651396560.132
2758520.0,1651396560.175
2759486.0,1651396560.213
2760631.0,1651396560.25
2762089.0,1651396560.291
2763608.0,1651396560.331
2763414.0,1651396560.372
2761853.0,1651396560.413
2759755.0,1651396560.452
2758496.0,1651396560.492
2757606.0,1651396560.534
2756856.0,1651396560.573
2756586.0,1651396560.613
2756336.0,1651396560.655
2755597.0,1651396560.691
2755223.0,1651396560.731
2755332.0,1651396560.774
2755503.0,1651396560.812
2755765.0,1651396560.852
2756044.0,1651396560.894
2756693.0,1651396560.933
2757413.0,1651396560.974
2758301.0,1651396561.015
2759033.0,1651396561.054
2759947.0,1651396561.092
2761267.0,1651396561.133
2762470.0,1651396561.173
2763643.0,1651396561.212
2764851.0,1651396561.254
2764251.0,1651396561.293
2761614.0,1651396561.333
2759075.0,1651396561.375
2757404.0,1651396561.413
2755828.0,1651396561.454
2754130.0,1651396561.493
2753045.0,1651396561.531
2753009.0,1651396561.573
2753194.0,1651396561.614
2755352.0,1651396561.653
2758932.0,1651396561.693
2761433.0,1651396561.735
2764141.0,1651396561.774
2765253.0,1651396561.814
2766702.0,1651396561.854
2769006.0,1651396561.892
2771595.0,1651396561.933
2777863.0,1651396561.975
2799003.0,1651396562.013
2816450.0,1651396562.054
2827763.0,1651396562.095
2835750.0,1651396562.134
2841585.0,1651396562.177
2845567.0,1651396562.218
2847417.0,1651396562.257
2845920.0,1651396562.297
2842787.0,1651396562.338
2839598.0,1651396562.377
2836990.0,1651396562.417
2834414.0,1651396562.458
2832009.0,1651396562.497
2829115.0,1651396562.537
2825540.0,1651396562.579
2822165.0,1651396562.617
2818619.0,1651396562.656
2814992.0,1651396562.697
2812178.0,1651396562.736
2808740.0,1651396562.777
2805710.0,1651396562.818
2803074.0,1651396562.857
2799379.0,1651396562.897
2795965.0,1651396562.939
2792230.0,1651396562.979
2790110.0,1651396563.016
2788789.0,1651396563.058
2786435.0,1651396563.097
2781242.0,1651396563.137
2775828.0,1651396563.179
2771394.0,1651396563.217
2766743.0,1651396563.258
2763474.0,1651396563.299
2760438.0,1651396563.338
2757507.0,1651396563.377
2754958.0,1651396563.418
2752413.0,1651396563.457
2750608.0,1651396563.497
2749104.0,1651396563.539
2750335.0,1651396563.578
2753452.0,1651396563.618
2754233.0,1651396563.66
2754033.0,1651396563.696
2756817.0,1651396563.737
2760674.0,1651396563.779
2762059.0,1651396563.817
2763112.0,1651396563.858
2764670.0,1651396563.899
2766044.0,1651396563.938
2767052.0,1651396563.979
2773109.0,1651396564.02
2781240.0,1651396564.058
2783353.0,1651396564.098
2783140.0,1651396564.14
2781843.0,1651396564.178
2779077.0,1651396564.217
2787295.0,1651396564.259
2797114.0,1651396564.298
2800179.0,1651396564.338
2800388.0,1651396564.38
2797912.0,1651396564.418
2794204.0,1651396564.459
2790439.0,1651396564.5
2787050.0,1651396564.537
2785308.0,1651396564.578
2783186.0,1651396564.619
2781254.0,1651396564.658
2779716.0,1651396564.698
2778256.0,1651396564.74
2776958.0,1651396564.78
2776631.0,1651396564.819
2776986.0,1651396564.859
2776669.0,1651396564.898
2773836.0,1651396564.938
2768750.0,1651396564.98
2764033.0,1651396565.018
2759691.0,1651396565.059
2753483.0,1651396565.139
2756448.0,1651396565.1
2750708.0,1651396565.18
2748691.0,1651396565.219
2746327.0,1651396565.258
2744249.0,1651396565.298
2742170.0,1651396565.34
2741014.0,1651396565.379
2739734.0,1651396565.419
2738337.0,1651396565.461
2737386.0,1651396565.499
2736161.0,1651396565.54
2735028.0,1651396565.58
2734851.0,1651396565.618
2734460.0,1651396565.659
2734646.0,1651396565.7
2734678.0,1651396565.739
2734707.0,1651396565.78
2732392.0,1651396565.821
2728173.0,1651396565.86
2723958.0,1651396565.898
2719708.0,1651396565.94
2715999.0,1651396565.979
2711493.0,1651396566.019
2708345.0,1651396566.061
2705914.0,1651396566.099
2703050.0,1651396566.14
2700874.0,1651396566.182
2698414.0,1651396566.22
2697328.0,1651396566.258
2696320.0,1651396566.3
2695344.0,1651396566.339
2694386.0,1651396566.38
2693238.0,1651396566.421
2692468.0,1651396566.46
2691944.0,1651396566.5
2690801.0,1651396566.541
2690349.0,1651396566.581
2690021.0,1651396566.622
2690285.0,1651396566.658
2690665.0,1651396566.698
2690976.0,1651396566.738
2688228.0,1651396566.781
2684189.0,1651396566.819
2680893.0,1651396566.859
2677941.0,1651396566.901
2674830.0,1651396566.94
2671984.0,1651396566.981
2670216.0,1651396567.022
2667731.0,1651396567.061
2665546.0,1651396567.101
2663122.0,1651396567.14
2661425.0,1651396567.18
2660556.0,1651396567.22
2660195.0,1651396567.261
2659244.0,1651396567.3
2659123.0,1651396567.34
2659120.0,1651396567.383
2659058.0,1651396567.421
2659370.0,1651396567.461
2659801.0,1651396567.501
2660229.0,1651396567.539
2660843.0,1651396567.58
2661914.0,1651396567.622
2662806.0,1651396567.661
2664058.0,1651396567.701
2663140.0,1651396567.742
2660339.0,1651396567.782
2657076.0,1651396567.819
2654318.0,1651396567.861
2651929.0,1651396567.9
2649487.0,1651396567.94
2647295.0,1651396567.983
2645469.0,1651396568.021
2644533.0,1651396568.061
2643545.0,1651396568.103
2643543.0,1651396568.142
2643132.0,1651396568.18
2643910.0,1651396568.221
2643772.0,1651396568.26
2644422.0,1651396568.3
2644942.0,1651396568.342
2646035.0,1651396568.382
2646620.0,1651396568.421
2649081.0,1651396568.463
2651472.0,1651396568.502
2653168.0,1651396568.54
2659508.0,1651396568.582
2665935.0,1651396568.621
2671331.0,1651396568.661
2676925.0,1651396568.703
2680310.0,1651396568.741
2680269.0,1651396568.782
2676876.0,1651396568.823
2672818.0,1651396568.86
2669380.0,1651396568.9
2667189.0,1651396568.942
2664826.0,1651396568.982
2664162.0,1651396569.021
2664354.0,1651396569.063
2664209.0,1651396569.102
2664297.0,1651396569.142
2664765.0,1651396569.183
2665436.0,1651396569.222
2666134.0,1651396569.262
2666754.0,1651396569.304
2667623.0,1651396569.341
2668600.0,1651396569.382
2669421.0,1651396569.422
2670565.0,1651396569.461
2671910.0,1651396569.502
2674307.0,1651396569.543
2676181.0,1651396569.583
2677925.0,1651396569.622
2678931.0,1651396569.664
2680694.0,1651396569.701
2682278.0,1651396569.741
2683049.0,1651396569.783
2682266.0,1651396569.822
2680643.0,1651396569.862
2678687.0,1651396569.903
2677277.0,1651396569.942
2676280.0,1651396569.983
2676407.0,1651396570.024
2676605.0,1651396570.061
2676602.0,1651396570.101
2676101.0,1651396570.143
2676316.0,1651396570.183
2676053.0,1651396570.222
2676354.0,1651396570.264
2677177.0,1651396570.303
2677546.0,1651396570.343
2678031.0,1651396570.385
2679193.0,1651396570.421
2679391.0,1651396570.462
2680214.0,1651396570.503
2681064.0,1651396570.542
2681378.0,1651396570.583
2679148.0,1651396570.624
2676131.0,1651396570.663
2673770.0,1651396570.703
2671577.0,1651396570.745
2669449.0,1651396570.782
2667672.0,1651396570.822
2666542.0,1651396570.864
2665235.0,1651396570.902
2663633.0,1651396570.943
2662463.0,1651396570.985
2662051.0,1651396571.023
2662324.0,1651396571.063
2662452.0,1651396571.105
2663129.0,1651396571.142
2664126.0,1651396571.183
2668158.0,1651396571.224
2677041.0,1651396571.263
2681380.0,1651396571.303
2684432.0,1651396571.344
2684418.0,1651396571.384
2689673.0,1651396571.424
2707908.0,1651396571.465
2714951.0,1651396571.502
2717078.0,1651396571.542
2717432.0,1651396571.585
2716554.0,1651396571.623
2713681.0,1651396571.663
2711249.0,1651396571.705
2710235.0,1651396571.743
2708359.0,1651396571.782
2707698.0,1651396571.823
2706776.0,1651396571.862
2706040.0,1651396571.902
2705796.0,1651396571.944
2705982.0,1651396571.983
2706942.0,1651396572.023
2708287.0,1651396572.065
2708546.0,1651396572.103
2708921.0,1651396572.144
2709567.0,1651396572.186
2709716.0,1651396572.224
2710046.0,1651396572.265
2710718.0,1651396572.304
2711543.0,1651396572.343
2711820.0,1651396572.384
2708068.0,1651396572.425
2703491.0,1651396572.464
2699051.0,1651396572.504
2695520.0,1651396572.546
2692685.0,1651396572.585
2689857.0,1651396572.625
2687129.0,1651396572.664
2684937.0,1651396572.703
2681507.0,1651396572.743
2678493.0,1651396572.786
2675320.0,1651396572.824
2673766.0,1651396572.864
2673265.0,1651396572.906
2673839.0,1651396572.945
2674675.0,1651396572.986
2675307.0,1651396573.025
2675512.0,1651396573.064
2674977.0,1651396573.104
2675191.0,1651396573.145
2680663.0,1651396573.185
2706915.0,1651396573.225
2725708.0,1651396573.266
2734780.0,1651396573.305
2739731.0,1651396573.345
2738995.0,1651396573.386
2735730.0,1651396573.424
2732382.0,1651396573.464
2730380.0,1651396573.506
2729132.0,1651396573.544
2728281.0,1651396573.586
2727402.0,1651396573.627
2726156.0,1651396573.666
2725142.0,1651396573.704
2723434.0,1651396573.745
2722832.0,1651396573.785
2723311.0,1651396573.824
2723472.0,1651396573.866
2723767.0,1651396573.905
2725194.0,1651396573.945
2725535.0,1651396573.988
2726768.0,1651396574.026
2728227.0,1651396574.064
2729498.0,1651396574.106
2731924.0,1651396574.144
2733576.0,1651396574.183
2734925.0,1651396574.222
2735117.0,1651396574.261
2732294.0,1651396574.3
2730340.0,1651396574.339
2728528.0,1651396574.378
2727519.0,1651396574.417
2726358.0,1651396574.456
2725838.0,1651396574.495
2725304.0,1651396574.534
2725223.0,1651396574.573
2724877.0,1651396574.612
2724991.0,1651396574.651
2725610.0,1651396574.69
2726105.0,1651396574.729
2727656.0,1651396574.768
2728895.0,1651396574.807
2729758.0,1651396574.846
2731158.0,1651396574.885
2732858.0,1651396574.924
2735822.0,1651396574.963
2738492.0,1651396575.002
2741107.0,1651396575.041
2743301.0,1651396575.08
2745870.0,1651396575.119
2748241.0,1651396575.158
2747299.0,1651396575.197
2745961.0,1651396575.236
2745327.0,1651396575.275
2743638.0,1651396575.314
2742905.0,1651396575.353
2742156.0,1651396575.392
2741954.0,1651396575.431
2741500.0,1651396575.47
2741036.0,1651396575.509
2741366.0,1651396575.548
2741536.0,1651396575.587
2742479.0,1651396575.626
2743304.0,1651396575.665
2744298.0,1651396575.705
2745438.0,1651396575.745
2746241.0,1651396575.785
2748004.0,1651396575.825
2749245.0,1651396575.865
2751092.0,1651396575.905
2752466.0,1651396575.945
2754088.0,1651396575.985
2755942.0,1651396576.025
2756027.0,1651396576.065
2754639.0,1651396576.105
2752506.0,1651396576.145
2752076.0,1651396576.185
2751439.0,1651396576.225
2751108.0,1651396576.265
2751238.0,1651396576.305
2751378.0,1651396576.345
2751562.0,1651396576.385
2751442.0,1651396576.425
2752134.0,1651396576.465
2752665.0,1651396576.505
2753725.0,1651396576.545
2754745.0,1651396576.585
2755232.0,1651396576.625
2756235.0,1651396576.665
2757309.0,1651396576.705
2758227.0,1651396576.745
2759541.0,1651396576.785
2760989.0,1651396576.825
2762360.0,1651396576.865
2764768.0,1651396576.905
2769494.0,1651396576.945
2771583.0,1651396576.985
2773238.0,1651396577.025
2776112.0,1651396577.065
2777412.0,1651396577.105
2778738.0,1651396577.145
2777931.0,1651396577.185
2780328.0,1651396577.225
2792297.0,1651396577.265
2808283.0,1651396577.305
2816499.0,1651396577.345
2820524.0,1651396577.385
2821929.0,1651396577.425
2823024.0,1651396577.465
2822900.0,1651396577.505
2821757.0,1651396577.545
2818545.0,1651396577.585
2814499.0,1651396577.625
2809978.0,1651396577.665
2806154.0,1651396577.705
2804814.0,1651396577.745
2804329.0,1651396577.785
2803763.0,1651396577.825
2800080.0,1651396577.865
2796535.0,1651396577.905
2793624.0,1651396577.945
2791362.0,1651396577.985
2788615.0,1651396578.025
2786249.0,1651396578.065
2783598.0,1651396578.105
2780875.0,1651396578.145
2778284.0,1651396578.185
2776466.0,1651396578.225
2774738.0,1651396578.265
2773783.0,1651396578.305
2772254.0,1651396578.345
2771581.0,1651396578.385
2770859.0,1651396578.425
2770475.0,1651396578.465
2769648.0,1651396578.505
2769687.0,1651396578.545
2769059.0,1651396578.585
2769907.0,1651396578.625
2770183.0,1651396578.665
2770922.0,1651396578.705
2771040.0,1651396578.745
2768775.0,1651396578.785
2765847.0,1651396578.825
2762923.0,1651396578.865
2760013.0,1651396578.905
2759065.0,1651396578.945
2758851.0,1651396578.985
2758377.0,1651396579.025
2757713.0,1651396579.065
2756321.0,1651396579.105
2755446.0,1651396579.145
2755013.0,1651396579.185
2754936.0,1651396579.225
2754729.0,1651396579.265
2753683.0,1651396579.305
2753898.0,1651396579.345
2759350.0,1651396579.385
2772282.0,1651396579.425
2785254.0,1651396579.465
2792420.0,1651396579.505
2796458.0,1651396579.545
2800426.0,1651396579.585
2801946.0,1651396579.625
2801168.0,1651396579.665
2797998.0,1651396579.705
2793120.0,1651396579.745
2789016.0,1651396579.785
2785692.0,1651396579.825
2782439.0,1651396579.865
2779176.0,1651396579.905
2778010.0,1651396579.945
2776259.0,1651396579.985
2774205.0,1651396580.025
2772678.0,1651396580.065
2771532.0,1651396580.105
2771270.0,1651396580.145
2770857.0,1651396580.185
2770899.0,1651396580.225
2770481.0,1651396580.265
2771024.0,1651396580.305
2771241.0,1651396580.345
2771840.0,1651396580.385
2772707.0,1651396580.425
2773245.0,1651396580.465
2774299.0,1651396580.505
2775081.0,1651396580.545
2776106.0,1651396580.585
2776792.0,1651396580.625
2774592.0,1651396580.665
2770898.0,1651396580.705
2767936.0,1651396580.745
2765090.0,1651396580.785
2762364.0,1651396580.825
2760412.0,1651396580.865
2759373.0,1651396580.905
2758416.0,1651396580.945
2757076.0,1651396580.985
2755662.0,1651396581.025
2755612.0,1651396581.065
2756112.0,1651396581.105
2756645.0,1651396581.145
2767596.0,1651396581.185
2780396.0,1651396581.225
2787235.0,1651396581.265
2791637.0,1651396581.305
2793098.0,1651396581.345
2793731.0,1651396581.385
2794102.0,1651396581.425
2794390.0,1651396581.465
2794787.0,1651396581.505
2794679.0,1651396581.545
2794732.0,1651396581.585
2793597.0,1651396581.625
2789860.0,1651396581.665
2787517.0,1651396581.705
2784486.0,1651396581.745
2782112.0,1651396581.785
2780637.0,1651396581.825
2778369.0,1651396581.865
2777091.0,1651396581.905
2776125.0,1651396581.945
2774992.0,1651396581.985
2773886.0,1651396582.025
2773415.0,1651396582.065
2773356.0,1651396582.105
2772188.0,1651396582.145
2771579.0,1651396582.185
2770484.0,1651396582.225
2769890.0,1651396582.265
2769511.0,1651396582.305
2769597.0,1651396582.345
2770683.0,1651396582.385
2771525.0,1651396582.425
2772723.0,1651396582.465
2773420.0,1651396582.505
2771171.0,1651396582.545
2766663.0,1651396582.585
2762741.0,1651396582.625
2759209.0,1651396582.665
2756217.0,1651396582.705
2754297.0,1651396582.745
2754722.0,1651396582.785
2755245.0,1651396582.825
2755261.0,1651396582.865
2755321.0,1651396582.905
2761987.0,1651396582.945
2777567.0,1651396582.985
2786410.0,1651396583.025
2790536.0,1651396583.065
2791479.0,1651396583.105
2790751.0,1651396583.145
2789997.0,1651396583.185
2789415.0,1651396583.225
2789214.0,1651396583.265
2788878.0,1651396583.305
2788306.0,1651396583.345
2787431.0,1651396583.385
2786110.0,1651396583.425
2785680.0,1651396583.465
2784786.0,1651396583.505
2782666.0,1651396583.545
2777219.0,1651396583.585
2770304.0,1651396583.625
2764268.0,1651396583.665
2759842.0,1651396583.705
2755051.0,1651396583.745
2749767.0,1651396583.785
2745522.0,1651396583.825
2741082.0,1651396583.865
2736348.0,1651396583.905
2732891.0,1651396583.945
2729855.0,1651396583.985
2726970.0,1651396584.025
2723828.0,1651396584.065
2722307.0,1651396584.105
2720914.0,1651396584.145
2720046.0,1651396584.185
2719445.0,1651396584.225
2719555.0,1651396584.265
2719173.0,1651396584.305
2719559.0,1651396584.345
2719396.0,1651396584.385
2719457.0,1651396584.425
2719863.0,1651396584.465
2719732.0,1651396584.505
2718653.0,1651396584.545
2718150.0,1651396584.585
2718553.0,1651396584.625
2715918.0,1651396584.665
2714790.0,1651396584.705
2722751.0,1651396584.745
2735877.0,1651396584.785
2743547.0,1651396584.825
2746868.0,1651396584.865
2747626.0,1651396584.905
2747748.0,1651396584.945
2747369.0,1651396584.985
2746125.0,1651396585.025
2744594.0,1651396585.065
2743776.0,1651396585.105
2742807.0,1651396585.145
2741085.0,1651396585.185
2739732.0,1651396585.225
2738690.0,1651396585.265
2738341.0,1651396585.305
2737498.0,1651396585.345
2737380.0,1651396585.385
2737323.0,1651396585.425
2737504.0,1651396585.465
2734744.0,1651396585.505
2730598.0,1651396585.545
2726489.0,1651396585.585
2723199.0,1651396585.625
2719505.0,1651396585.665
2716072.0,1651396585.705
2713283.0,1651396585.745
2711174.0,1651396585.785
2708953.0,1651396585.825
2706996.0,1651396585.865
2705087.0,1651396585.905
2704469.0,1651396585.945
2703769.0,1651396585.985
2704070.0,1651396586.025
2704744.0,1651396586.065
2705025.0,1651396586.105
2704439.0,1651396586.194
2704793.0,1651396586.235
2705157.0,1651396586.274
2705316.0,1651396586.314
2706204.0,1651396586.355
2706544.0,1651396586.395
2707588.0,1651396586.434
2706594.0,1651396586.475
2703313.0,1651396586.514
2699067.0,1651396586.554
2696421.0,1651396586.596
2693558.0,1651396586.635
2690218.0,1651396586.675
2688022.0,1651396586.716
2684888.0,1651396586.755
2681993.0,1651396586.796
2680159.0,1651396586.836
2679473.0,1651396586.875
2679341.0,1651396586.915
2678718.0,1651396586.956
2678244.0,1651396586.996
2677902.0,1651396587.035
2676528.0,1651396587.076
2675346.0,1651396587.115
2673691.0,1651396587.156
2671667.0,1651396587.197
2670178.0,1651396587.236
2668474.0,1651396587.276
2667376.0,1651396587.317
2666620.0,1651396587.356
2663520.0,1651396587.397
2658274.0,1651396587.437
2653634.0,1651396587.476
2649893.0,1651396587.516
2646213.0,1651396587.557
2642589.0,1651396587.597
2639609.0,1651396587.636
2636900.0,1651396587.678
2634760.0,1651396587.717
2632293.0,1651396587.757
2630106.0,1651396587.799
2628658.0,1651396587.837
2627570.0,1651396587.877
2626534.0,1651396587.918
2625342.0,1651396587.957
2624520.0,1651396587.998
2623640.0,1651396588.038
2622964.0,1651396588.077
2622957.0,1651396588.117
2622686.0,1651396588.158
2622120.0,1651396588.198
2622711.0,1651396588.237
2622757.0,1651396588.278
2620732.0,1651396588.318
2616943.0,1651396588.358
2612707.0,1651396588.399
2609836.0,1651396588.438
2606525.0,1651396588.478
2604075.0,1651396588.519
2601943.0,1651396588.558
2600125.0,1651396588.599
2598007.0,1651396588.639
2596993.0,1651396588.678
2596124.0,1651396588.718
2595668.0,1651396588.759
2595970.0,1651396588.799
2596892.0,1651396588.839
2598520.0,1651396588.88
2599185.0,1651396588.919
2600228.0,1651396588.959
2600558.0,1651396589.001
2600788.0,1651396589.039
2600801.0,1651396589.079
2601122.0,1651396589.12
2602008.0,1651396589.159
2602526.0,1651396589.2
2598589.0,1651396589.241
2597879.0,1651396589.28
2617179.0,1651396589.32
2632954.0,1651396589.361
2642402.0,1651396589.401
2647845.0,1651396589.44
2653386.0,1651396589.481
2656904.0,1651396589.52
2658956.0,1651396589.56
2659909.0,1651396589.602
2659635.0,1651396589.64
2659890.0,1651396589.68
2660143.0,1651396589.722
2659830.0,1651396589.761
2659480.0,1651396589.801
2658014.0,1651396589.842
2656305.0,1651396589.881
2653970.0,1651396589.921
2651641.0,1651396589.962
2650559.0,1651396590.002
2650573.0,1651396590.041
2648700.0,1651396590.082
2643119.0,1651396590.121
2636703.0,1651396590.161
2631739.0,1651396590.203
2627640.0,1651396590.242
2624060.0,1651396590.282
2621765.0,1651396590.323
2620070.0,1651396590.362
2618745.0,1651396590.403
2617701.0,1651396590.443
2617069.0,1651396590.482
2616246.0,1651396590.522
2616809.0,1651396590.563
2616884.0,1651396590.603
2617518.0,1651396590.643
2617975.0,1651396590.684
2618926.0,1651396590.723
2620416.0,1651396590.763
2621816.0,1651396590.805
2623819.0,1651396590.843
2628992.0,1651396590.924
2626458.0,1651396590.883
2631363.0,1651396590.963
2634323.0,1651396591.004
2634511.0,1651396591.045
2632955.0,1651396591.084
2631495.0,1651396591.124
2630364.0,1651396591.165
2629151.0,1651396591.205
2629252.0,1651396591.244
2629047.0,1651396591.285
2628353.0,1651396591.324
2627826.0,1651396591.364
2638889.0,1651396591.406
2650389.0,1651396591.444
2659856.0,1651396591.484
2667870.0,1651396591.526
2673034.0,1651396591.565
2676966.0,1651396591.605
2678104.0,1651396591.646
2678110.0,1651396591.685
2676870.0,1651396591.725
2675077.0,1651396591.766
2674145.0,1651396591.806
2673543.0,1651396591.845
2672639.0,1651396591.887
2672911.0,1651396591.926
2670700.0,1651396591.966
2666634.0,1651396592.007
2662431.0,1651396592.046
2659168.0,1651396592.086
2656624.0,1651396592.127
2653888.0,1651396592.166
2652315.0,1651396592.207
2650080.0,1651396592.247
2648302.0,1651396592.286
2646744.0,1651396592.326
2645548.0,1651396592.367
2644824.0,1651396592.407
2645581.0,1651396592.488
2645028.0,1651396592.447
2645584.0,1651396592.527
2647558.0,1651396592.567
2649243.0,1651396592.609
2650722.0,1651396592.647
2651892.0,1651396592.687
2653650.0,1651396592.728
2656022.0,1651396592.767
2657928.0,1651396592.808
2656785.0,1651396592.849
2653371.0,1651396592.888
2650007.0,1651396592.928
2647855.0,1651396592.969
2646789.0,1651396593.009
2644960.0,1651396593.048
2643773.0,1651396593.09
2644106.0,1651396593.129
2646130.0,1651396593.162
2647907.0,1651396593.201
2648249.0,1651396593.24
2648442.0,1651396593.28
2648240.0,1651396593.322
2648349.0,1651396593.36
2648463.0,1651396593.401
2650317.0,1651396593.442
2651712.0,1651396593.481
2652676.0,1651396593.521
2653669.0,1651396593.561
2654518.0,1651396593.601
2655549.0,1651396593.64
2657499.0,1651396593.682
2659284.0,1651396593.721
2660475.0,1651396593.761
2662295.0,1651396593.804
2661733.0,1651396593.842
2658916.0,1651396593.88
2656219.0,1651396593.921
2654178.0,1651396593.96
2651442.0,1651396594.001
2649942.0,1651396594.042
2665572.0,1651396594.081
2682510.0,1651396594.121
2691565.0,1651396594.163
2696702.0,1651396594.203
2699612.0,1651396594.24
2703420.0,1651396594.282
2705584.0,1651396594.321
2706244.0,1651396594.361
2705713.0,1651396594.403
2703709.0,1651396594.441
2702253.0,1651396594.482
2700688.0,1651396594.523
2698610.0,1651396594.562
2695991.0,1651396594.601
2693683.0,1651396594.642
2693054.0,1651396594.681
2692768.0,1651396594.721
2692498.0,1651396594.763
2692234.0,1651396594.799
2689471.0,1651396594.839
2684562.0,1651396594.88
2679461.0,1651396594.919
2675622.0,1651396594.959
2672082.0,1651396595.002
2669109.0,1651396595.04
2666554.0,1651396595.08
2664446.0,1651396595.122
2662943.0,1651396595.161
2660566.0,1651396595.202
2659071.0,1651396595.243
2657891.0,1651396595.282
2656808.0,1651396595.322
2655836.0,1651396595.364
2654329.0,1651396595.403
2653089.0,1651396595.443
2650771.0,1651396595.482
2648439.0,1651396595.521
2645716.0,1651396595.561
2643856.0,1651396595.604
2642464.0,1651396595.642
2642194.0,1651396595.683
2642147.0,1651396595.724
2641739.0,1651396595.763
2640349.0,1651396595.802
2639517.0,1651396595.843
2636759.0,1651396595.882
2635658.0,1651396595.922
2633902.0,1651396595.964
2630405.0,1651396596.003
2626090.0,1651396596.043
2622356.0,1651396596.084
2619246.0,1651396596.123
2616596.0,1651396596.161
2614640.0,1651396596.204
2612885.0,1651396596.242
2611234.0,1651396596.282
2610767.0,1651396596.324
2611104.0,1651396596.363
2610743.0,1651396596.404
2610243.0,1651396596.445
2611201.0,1651396596.483
2612002.0,1651396596.521
2612229.0,1651396596.563
2613725.0,1651396596.603
2616057.0,1651396596.642
2623617.0,1651396596.684
2651585.0,1651396596.723
2661435.0,1651396596.763
2664722.0,1651396596.806
2665724.0,1651396596.842
2663888.0,1651396596.882
2661361.0,1651396596.924
2658080.0,1651396596.963
2658398.0,1651396597.004
2657927.0,1651396597.044
2656224.0,1651396597.083
2653595.0,1651396597.123
2648967.0,1651396597.165
2643498.0,1651396597.203
2638011.0,1651396597.242
2632711.0,1651396597.284
2627396.0,1651396597.323
2623023.0,1651396597.362
2619418.0,1651396597.402
2616343.0,1651396597.44
2614908.0,1651396597.48
2614824.0,1651396597.523
2614519.0,1651396597.562
2613389.0,1651396597.603
2609199.0,1651396597.644
2604051.0,1651396597.683
2598486.0,1651396597.723
2593057.0,1651396597.765
2587452.0,1651396597.804
2582734.0,1651396597.844
2579492.0,1651396597.885
2577036.0,1651396597.924
2574897.0,1651396597.963
2572531.0,1651396598.005
2571254.0,1651396598.043
2570204.0,1651396598.083
2569388.0,1651396598.125
2569222.0,1651396598.164
2569102.0,1651396598.199
2568775.0,1651396598.239
2569363.0,1651396598.279
2572531.0,1651396598.319
2575858.0,1651396598.36
2577705.0,1651396598.399
2579706.0,1651396598.439
2580710.0,1651396598.48
2580740.0,1651396598.519
2578240.0,1651396598.559
2575727.0,1651396598.601
2573876.0,1651396598.639
2570530.0,1651396598.679
2568209.0,1651396598.72
2583982.0,1651396598.759
2600423.0,1651396598.8
2610800.0,1651396598.841
2615589.0,1651396598.88
2618306.0,1651396598.918
2621511.0,1651396598.96
2623798.0,1651396598.999
2625396.0,1651396599.039
2625646.0,1651396599.081
2626217.0,1651396599.12
2627820.0,1651396599.16
2628431.0,1651396599.202
2628375.0,1651396599.24
2628334.0,1651396599.279
2627924.0,1651396599.32
2626310.0,1651396599.359
2621744.0,1651396599.4
2616573.0,1651396599.441
2613456.0,1651396599.48
2610894.0,1651396599.52
2608369.0,1651396599.562
2605935.0,1651396599.601
2604996.0,1651396599.641
2604036.0,1651396599.68
2603175.0,1651396599.719
2601611.0,1651396599.759
2600508.0,1651396599.802
2600051.0,1651396599.84
2600532.0,1651396599.88
2601623.0,1651396599.918
2602357.0,1651396599.957
2603493.0,1651396599.998
2604823.0,1651396600.039
2606002.0,1651396600.119
2606992.0,1651396600.2
2606920.0,1651396600.239
2603341.0,1651396600.281
2606749.0,1651396600.16
2605374.0,1651396600.078
2599812.0,1651396600.32
2596189.0,1651396600.36
2593113.0,1651396600.403
2591276.0,1651396600.441
2589314.0,1651396600.521
2589673.0,1651396600.481
2588691.0,1651396600.6
2588534.0,1651396600.642
2589823.0,1651396600.681
2589066.0,1651396600.559
2592146.0,1651396600.721
2592927.0,1651396600.762
2597035.0,1651396600.839
2601222.0,1651396600.881
2593908.0,1651396600.802
2604659.0,1651396600.92
2609467.0,1651396601.003
