bvp,time
1.52,1551188781.421875
-0.46,1551188781.4375
-3.06,1551188781.453125
-6.04,1551188781.46875
-9.06,1551188781.484375
-11.8,1551188781.5
-14.18,1551188781.515625
-16.34,1551188781.53125
-18.62,1551188781.546875
-21.34,1551188781.5625
-24.62,1551188781.578125
-28.17,1551188781.59375
-31.36,1551188781.609375
-33.38,1551188781.625
-33.52,1551188781.640625
-31.48,1551188781.65625
-27.5,1551188781.671875
-22.3,1551188781.6875
-16.78,1551188781.703125
-11.82,1551188781.71875
-7.88,1551188781.734375
-5.11,1551188781.75
-3.44,1551188781.765625
-2.71,1551188781.78125
-2.85,1551188781.796875
-3.81,1551188781.8125
-5.48,1551188781.828125
-7.69,1551188781.84375
-10.17,1551188781.859375
-12.58,1551188781.875
-14.62,1551188781.890625
-16.07,1551188781.90625
-16.85,1551188781.921875
-17.06,1551188781.9375
-17.02,1551188781.953125
-17.12,1551188781.96875
-17.73,1551188781.984375
-18.92,1551188782.0
-20.48,1551188782.015625
-21.88,1551188782.03125
-22.6,1551188782.046875
-22.28,1551188782.0625
-20.98,1551188782.078125
-19.07,1551188782.09375
-17.1,1551188782.109375
-15.61,1551188782.125
-14.89,1551188782.140625
-14.95,1551188782.15625
-15.66,1551188782.171875
-16.87,1551188782.1875
-18.53,1551188782.203125
-20.79,1551188782.21875
-23.77,1551188782.234375
-27.37,1551188782.25
-31.08,1551188782.265625
-33.99,1551188782.28125
-35.14,1551188782.296875
-33.87,1551188782.3125
-30.17,1551188782.328125
-24.57,1551188782.34375
-17.88,1551188782.359375
-10.74,1551188782.375
-3.38,1551188782.390625
4.13,1551188782.40625
11.59,1551188782.421875
18.43,1551188782.4375
23.83,1551188782.453125
27.11,1551188782.46875
28.23,1551188782.484375
27.97,1551188782.5
27.8,1551188782.515625
29.31,1551188782.53125
33.63,1551188782.546875
41.14,1551188782.5625
51.42,1551188782.578125
63.48,1551188782.59375
76.15,1551188782.609375
88.5,1551188782.625
100.05,1551188782.640625
110.94,1551188782.65625
121.69,1551188782.671875
132.93,1551188782.6875
144.91,1551188782.703125
157.33,1551188782.71875
169.3,1551188782.734375
179.53,1551188782.75
186.43,1551188782.765625
188.17,1551188782.78125
182.83,1551188782.796875
168.62,1551188782.8125
144.79,1551188782.828125
112.3,1551188782.84375
74.3,1551188782.859375
35.46,1551188782.875
0.65,1551188782.890625
-26.74,1551188782.90625
-45.78,1551188782.921875
-57.87,1551188782.9375
-65.58,1551188782.953125
-71.23,1551188782.96875
-76.05,1551188782.984375
-80.25,1551188783.0
-83.65,1551188783.015625
-86.31,1551188783.03125
-88.58,1551188783.046875
-90.74,1551188783.0625
-92.54,1551188783.078125
-93.06,1551188783.09375
-91.21,1551188783.109375
-86.28,1551188783.125
-78.44,1551188783.140625
-68.7,1551188783.15625
-58.48,1551188783.171875
-49.04,1551188783.1875
-41.1,1551188783.203125
-34.73,1551188783.21875
-29.55,1551188783.234375
-25.05,1551188783.25
-20.8,1551188783.265625
-16.62,1551188783.28125
-12.52,1551188783.296875
-8.63,1551188783.3125
-5.04,1551188783.328125
-1.81,1551188783.34375
1.1,1551188783.359375
3.68,1551188783.375
5.85,1551188783.390625
7.38,1551188783.40625
8.03,1551188783.421875
7.54,1551188783.4375
5.6,1551188783.453125
1.95,1551188783.46875
-3.71,1551188783.484375
-11.47,1551188783.5
-21.1,1551188783.515625
-31.99,1551188783.53125
-43.22,1551188783.546875
-53.81,1551188783.5625
-63.05,1551188783.578125
-70.61,1551188783.59375
-76.51,1551188783.609375
-80.97,1551188783.625
-84.26,1551188783.640625
-86.47,1551188783.65625
-87.65,1551188783.671875
-87.79,1551188783.6875
-86.89,1551188783.703125
-84.92,1551188783.71875
-81.98,1551188783.734375
-78.3,1551188783.75
-74.33,1551188783.765625
-70.71,1551188783.78125
-68.05,1551188783.796875
-66.68,1551188783.8125
-66.48,1551188783.828125
-66.89,1551188783.84375
-67.15,1551188783.859375
-66.71,1551188783.875
-65.43,1551188783.890625
-63.56,1551188783.90625
-61.68,1551188783.921875
-60.25,1551188783.9375
-59.46,1551188783.953125
-59.08,1551188783.96875
-58.61,1551188783.984375
-57.58,1551188784.0
-55.76,1551188784.015625
-53.21,1551188784.03125
-50.23,1551188784.046875
-47.19,1551188784.0625
-44.33,1551188784.078125
-41.7,1551188784.09375
-39.28,1551188784.109375
-37.02,1551188784.125
-34.97,1551188784.140625
-33.33,1551188784.15625
-32.32,1551188784.171875
-32.21,1551188784.1875
-33.22,1551188784.203125
-35.43,1551188784.21875
-38.8,1551188784.234375
-43.02,1551188784.25
-47.39,1551188784.265625
-50.81,1551188784.28125
-51.95,1551188784.296875
-49.65,1551188784.3125
-43.28,1551188784.328125
-33.1,1551188784.34375
-20.17,1551188784.359375
-6.03,1551188784.375
7.81,1551188784.390625
20.31,1551188784.40625
31.17,1551188784.421875
40.62,1551188784.4375
49.12,1551188784.453125
56.98,1551188784.46875
64.21,1551188784.484375
70.53,1551188784.5
75.54,1551188784.515625
78.89,1551188784.53125
80.52,1551188784.546875
80.68,1551188784.5625
79.86,1551188784.578125
78.7,1551188784.59375
77.71,1551188784.609375
77.27,1551188784.625
77.53,1551188784.640625
78.51,1551188784.65625
80.23,1551188784.671875
82.63,1551188784.6875
85.57,1551188784.703125
88.72,1551188784.71875
91.49,1551188784.734375
93.26,1551188784.75
93.57,1551188784.765625
92.36,1551188784.78125
90.01,1551188784.796875
87.22,1551188784.8125
84.62,1551188784.828125
82.46,1551188784.84375
80.52,1551188784.859375
78.14,1551188784.875
74.63,1551188784.890625
69.51,1551188784.90625
62.74,1551188784.921875
54.77,1551188784.9375
46.26,1551188784.953125
37.86,1551188784.96875
29.92,1551188784.984375
22.41,1551188785.0
15.04,1551188785.015625
7.38,1551188785.03125
-0.86,1551188785.046875
-9.8,1551188785.0625
-19.33,1551188785.078125
-29.16,1551188785.09375
-38.92,1551188785.109375
-48.11,1551188785.125
-56.22,1551188785.140625
-62.74,1551188785.15625
-67.3,1551188785.171875
-69.79,1551188785.1875
-70.5,1551188785.203125
-70.02,1551188785.21875
-69.1,1551188785.234375
-68.38,1551188785.25
-68.1,1551188785.265625
-68.13,1551188785.28125
-68.0,1551188785.296875
-67.2,1551188785.3125
-65.33,1551188785.328125
-62.31,1551188785.34375
-58.24,1551188785.359375
-53.41,1551188785.375
-48.11,1551188785.390625
-42.56,1551188785.40625
-36.96,1551188785.421875
-31.49,1551188785.4375
-26.32,1551188785.453125
-21.58,1551188785.46875
-17.34,1551188785.484375
-13.52,1551188785.5
-9.97,1551188785.515625
-6.42,1551188785.53125
-2.67,1551188785.546875
1.31,1551188785.5625
5.32,1551188785.578125
8.91,1551188785.59375
11.55,1551188785.609375
12.88,1551188785.625
12.87,1551188785.640625
11.91,1551188785.65625
10.7,1551188785.671875
9.96,1551188785.6875
10.13,1551188785.703125
11.2,1551188785.71875
12.76,1551188785.734375
14.18,1551188785.75
14.88,1551188785.765625
14.59,1551188785.78125
13.32,1551188785.796875
11.25,1551188785.8125
8.53,1551188785.828125
5.07,1551188785.84375
0.58,1551188785.859375
-5.41,1551188785.875
-13.32,1551188785.890625
-23.33,1551188785.90625
-35.22,1551188785.921875
-48.18,1551188785.9375
-60.9,1551188785.953125
-71.64,1551188785.96875
-78.59,1551188785.984375
-80.35,1551188786.0
-76.41,1551188786.015625
-67.34,1551188786.03125
-54.75,1551188786.046875
-40.72,1551188786.0625
-27.17,1551188786.078125
-15.31,1551188786.09375
-5.44,1551188786.109375
2.96,1551188786.125
10.76,1551188786.140625
18.77,1551188786.15625
27.42,1551188786.171875
36.6,1551188786.1875
45.69,1551188786.203125
53.75,1551188786.21875
59.85,1551188786.234375
63.42,1551188786.25
64.44,1551188786.265625
63.49,1551188786.28125
61.55,1551188786.296875
59.6,1551188786.3125
58.36,1551188786.328125
58.14,1551188786.34375
58.88,1551188786.359375
60.3,1551188786.375
62.03,1551188786.390625
63.66,1551188786.40625
64.7,1551188786.421875
64.62,1551188786.4375
62.94,1551188786.453125
59.44,1551188786.46875
54.24,1551188786.484375
47.87,1551188786.5
41.14,1551188786.515625
34.83,1551188786.53125
29.48,1551188786.546875
25.18,1551188786.5625
21.63,1551188786.578125
18.23,1551188786.59375
14.43,1551188786.609375
9.93,1551188786.625
4.86,1551188786.640625
-0.34,1551188786.65625
-5.11,1551188786.671875
-9.13,1551188786.6875
-12.48,1551188786.703125
-15.76,1551188786.71875
-19.86,1551188786.734375
-25.68,1551188786.75
-33.83,1551188786.765625
-44.2,1551188786.78125
-55.85,1551188786.796875
-66.97,1551188786.8125
-75.24,1551188786.828125
-78.42,1551188786.84375
-75.02,1551188786.859375
-64.89,1551188786.875
-49.37,1551188786.890625
-30.92,1551188786.90625
-12.36,1551188786.921875
3.99,1551188786.9375
16.91,1551188786.953125
26.44,1551188786.96875
33.61,1551188786.984375
39.85,1551188787.0
46.42,1551188787.015625
54.11,1551188787.03125
63.01,1551188787.046875
72.68,1551188787.0625
82.33,1551188787.078125
91.22,1551188787.09375
98.77,1551188787.109375
104.79,1551188787.125
109.34,1551188787.140625
112.6,1551188787.15625
114.7,1551188787.171875
115.66,1551188787.1875
115.54,1551188787.203125
114.48,1551188787.21875
112.86,1551188787.234375
111.11,1551188787.25
109.51,1551188787.265625
107.99,1551188787.28125
106.14,1551188787.296875
103.39,1551188787.3125
99.31,1551188787.328125
93.88,1551188787.34375
87.49,1551188787.359375
80.68,1551188787.375
73.92,1551188787.390625
67.36,1551188787.40625
60.89,1551188787.421875
54.23,1551188787.4375
47.22,1551188787.453125
39.93,1551188787.46875
32.7,1551188787.484375
26.0,1551188787.5
20.27,1551188787.515625
15.75,1551188787.53125
12.28,1551188787.546875
9.35,1551188787.5625
6.14,1551188787.578125
1.7,1551188787.59375
-4.73,1551188787.609375
-13.41,1551188787.625
-23.76,1551188787.640625
-34.35,1551188787.65625
-43.03,1551188787.671875
-47.48,1551188787.6875
-45.86,1551188787.703125
-37.44,1551188787.71875
-22.96,1551188787.734375
-4.59,1551188787.75
14.59,1551188787.765625
31.35,1551188787.78125
43.25,1551188787.796875
49.15,1551188787.8125
49.47,1551188787.828125
45.69,1551188787.84375
39.77,1551188787.859375
33.35,1551188787.875
27.36,1551188787.890625
22.05,1551188787.90625
17.32,1551188787.921875
13.18,1551188787.9375
9.84,1551188787.953125
7.69,1551188787.96875
6.93,1551188787.984375
7.35,1551188788.0
8.31,1551188788.015625
9.09,1551188788.03125
9.18,1551188788.046875
8.57,1551188788.0625
7.61,1551188788.078125
6.68,1551188788.09375
5.86,1551188788.109375
4.8,1551188788.125
2.8,1551188788.140625
-0.7,1551188788.15625
-5.89,1551188788.171875
-12.33,1551188788.1875
-19.12,1551188788.203125
-25.22,1551188788.21875
-29.86,1551188788.234375
-32.81,1551188788.25
-34.44,1551188788.265625
-35.55,1551188788.28125
-36.98,1551188788.296875
-39.33,1551188788.3125
-42.66,1551188788.328125
-46.55,1551188788.34375
-50.38,1551188788.359375
-53.55,1551188788.375
-55.86,1551188788.390625
-57.55,1551188788.40625
-59.23,1551188788.421875
-61.67,1551188788.4375
-65.51,1551188788.453125
-70.98,1551188788.46875
-77.77,1551188788.484375
-84.95,1551188788.5
-91.09,1551188788.515625
-94.52,1551188788.53125
-93.74,1551188788.546875
-87.89,1551188788.5625
-77.11,1551188788.578125
-62.56,1551188788.59375
-46.14,1551188788.609375
-29.9,1551188788.625
-15.46,1551188788.640625
-3.58,1551188788.65625
5.89,1551188788.671875
13.66,1551188788.6875
20.54,1551188788.703125
26.99,1551188788.71875
32.98,1551188788.734375
38.03,1551188788.75
41.6,1551188788.765625
43.41,1551188788.78125
43.58,1551188788.796875
42.64,1551188788.8125
41.29,1551188788.828125
40.16,1551188788.84375
39.57,1551188788.859375
39.53,1551188788.875
39.83,1551188788.890625
40.22,1551188788.90625
40.51,1551188788.921875
40.63,1551188788.9375
40.61,1551188788.953125
40.45,1551188788.96875
40.12,1551188788.984375
39.46,1551188789.0
38.27,1551188789.015625
36.4,1551188789.03125
33.79,1551188789.046875
30.61,1551188789.0625
27.2,1551188789.078125
23.96,1551188789.09375
21.18,1551188789.109375
18.88,1551188789.125
16.8,1551188789.140625
14.48,1551188789.15625
11.51,1551188789.171875
7.69,1551188789.1875
3.22,1551188789.203125
-1.44,1551188789.21875
-5.73,1551188789.234375
-9.22,1551188789.25
-11.88,1551188789.265625
-14.06,1551188789.28125
-16.38,1551188789.296875
-19.5,1551188789.3125
-23.89,1551188789.328125
-29.76,1551188789.34375
-36.95,1551188789.359375
-44.98,1551188789.375
-53.04,1551188789.390625
-60.03,1551188789.40625
-64.75,1551188789.421875
-66.15,1551188789.4375
-63.65,1551188789.453125
-57.37,1551188789.46875
-48.25,1551188789.484375
-37.74,1551188789.5
-27.44,1551188789.515625
-18.56,1551188789.53125
-11.71,1551188789.546875
-6.83,1551188789.5625
-3.47,1551188789.578125
-1.06,1551188789.59375
0.85,1551188789.609375
2.51,1551188789.625
4.02,1551188789.640625
5.36,1551188789.65625
6.55,1551188789.671875
7.59,1551188789.6875
8.47,1551188789.703125
9.25,1551188789.71875
9.94,1551188789.734375
10.63,1551188789.75
11.31,1551188789.765625
12.03,1551188789.78125
12.88,1551188789.796875
14.01,1551188789.8125
15.55,1551188789.828125
17.5,1551188789.84375
19.59,1551188789.859375
21.3,1551188789.875
21.94,1551188789.890625
21.03,1551188789.90625
18.46,1551188789.921875
14.66,1551188789.9375
10.42,1551188789.953125
6.51,1551188789.96875
3.42,1551188789.984375
1.14,1551188790.0
-0.76,1551188790.015625
-2.81,1551188790.03125
-5.36,1551188790.046875
-8.4,1551188790.0625
-11.6,1551188790.078125
-14.53,1551188790.09375
-16.94,1551188790.109375
-18.84,1551188790.125
-20.59,1551188790.140625
-22.68,1551188790.15625
-25.59,1551188790.171875
-29.51,1551188790.1875
-34.38,1551188790.203125
-39.79,1551188790.21875
-45.09,1551188790.234375
-49.41,1551188790.25
-51.88,1551188790.265625
-51.76,1551188790.28125
-48.67,1551188790.296875
-42.83,1551188790.3125
-35.04,1551188790.328125
-26.48,1551188790.34375
-18.39,1551188790.359375
-11.71,1551188790.375
-6.85,1551188790.390625
-3.62,1551188790.40625
-1.49,1551188790.421875
0.21,1551188790.4375
1.94,1551188790.453125
3.86,1551188790.46875
5.79,1551188790.484375
7.44,1551188790.5
8.58,1551188790.515625
9.21,1551188790.53125
9.56,1551188790.546875
9.95,1551188790.5625
10.64,1551188790.578125
11.64,1551188790.59375
12.82,1551188790.609375
13.91,1551188790.625
14.8,1551188790.640625
15.49,1551188790.65625
16.1,1551188790.671875
16.68,1551188790.6875
17.1,1551188790.703125
17.03,1551188790.71875
16.13,1551188790.734375
14.23,1551188790.75
11.48,1551188790.765625
8.33,1551188790.78125
5.34,1551188790.796875
2.9,1551188790.8125
1.17,1551188790.828125
-0.08,1551188790.84375
-1.23,1551188790.859375
-2.69,1551188790.875
-4.71,1551188790.890625
-7.27,1551188790.90625
-10.17,1551188790.921875
-13.08,1551188790.9375
-15.72,1551188790.953125
-17.94,1551188790.96875
-19.83,1551188790.984375
-21.72,1551188791.0
-24.06,1551188791.015625
-27.3,1551188791.03125
-31.69,1551188791.046875
-37.06,1551188791.0625
-42.81,1551188791.078125
-47.9,1551188791.09375
-51.13,1551188791.109375
-51.47,1551188791.125
-48.41,1551188791.140625
-42.19,1551188791.15625
-33.74,1551188791.171875
-24.45,1551188791.1875
-15.71,1551188791.203125
-8.47,1551188791.21875
-3.1,1551188791.234375
0.68,1551188791.25
3.44,1551188791.265625
5.76,1551188791.28125
7.95,1551188791.296875
9.98,1551188791.3125
11.63,1551188791.328125
12.74,1551188791.34375
13.29,1551188791.359375
13.49,1551188791.375
13.68,1551188791.390625
14.13,1551188791.40625
14.93,1551188791.421875
15.95,1551188791.4375
16.9,1551188791.453125
17.5,1551188791.46875
17.59,1551188791.484375
17.24,1551188791.5
16.61,1551188791.515625
15.92,1551188791.53125
15.27,1551188791.546875
14.62,1551188791.5625
13.77,1551188791.578125
12.49,1551188791.59375
10.62,1551188791.609375
8.16,1551188791.625
5.32,1551188791.640625
2.37,1551188791.65625
-0.38,1551188791.671875
-2.76,1551188791.6875
-4.75,1551188791.703125
-6.43,1551188791.71875
-7.98,1551188791.734375
-9.59,1551188791.75
-11.39,1551188791.765625
-13.5,1551188791.78125
-15.95,1551188791.796875
-18.65,1551188791.8125
-21.31,1551188791.828125
-23.54,1551188791.84375
-25.02,1551188791.859375
-25.67,1551188791.875
-25.79,1551188791.890625
-26.01,1551188791.90625
-27.03,1551188791.921875
-29.32,1551188791.9375
-32.84,1551188791.953125
-37.0,1551188791.96875
-40.8,1551188791.984375
-43.12,1551188792.0
-43.05,1551188792.015625
-40.18,1551188792.03125
-34.68,1551188792.046875
-27.24,1551188792.0625
-18.89,1551188792.078125
-10.73,1551188792.09375
-3.66,1551188792.109375
1.82,1551188792.125
5.6,1551188792.140625
7.96,1551188792.15625
9.37,1551188792.171875
10.2,1551188792.1875
10.78,1551188792.203125
11.22,1551188792.21875
11.57,1551188792.234375
11.82,1551188792.25
12.01,1551188792.265625
12.17,1551188792.28125
12.35,1551188792.296875
12.53,1551188792.3125
12.65,1551188792.328125
12.69,1551188792.34375
12.68,1551188792.359375
12.71,1551188792.375
12.92,1551188792.390625
13.33,1551188792.40625
13.79,1551188792.421875
14.01,1551188792.4375
13.62,1551188792.453125
12.41,1551188792.46875
10.41,1551188792.484375
7.92,1551188792.5
5.32,1551188792.515625
2.92,1551188792.53125
0.82,1551188792.546875
-1.09,1551188792.5625
-3.04,1551188792.578125
-5.21,1551188792.59375
-7.63,1551188792.609375
-10.2,1551188792.625
-12.7,1551188792.640625
-14.95,1551188792.65625
-16.83,1551188792.671875
-18.36,1551188792.6875
-19.66,1551188792.703125
-21.0,1551188792.71875
-22.72,1551188792.734375
-25.18,1551188792.75
-28.6,1551188792.765625
-32.87,1551188792.78125
-37.4,1551188792.796875
-41.18,1551188792.8125
-43.0,1551188792.828125
-41.83,1551188792.84375
-37.33,1551188792.859375
-29.92,1551188792.875
-20.75,1551188792.890625
-11.27,1551188792.90625
-2.74,1551188792.921875
4.12,1551188792.9375
9.23,1551188792.953125
13.01,1551188792.96875
16.01,1551188792.984375
18.65,1551188793.0
21.08,1551188793.015625
23.29,1551188793.03125
25.19,1551188793.046875
26.82,1551188793.0625
28.39,1551188793.078125
30.19,1551188793.09375
32.49,1551188793.109375
35.29,1551188793.125
38.27,1551188793.140625
40.8,1551188793.15625
42.11,1551188793.171875
41.6,1551188793.1875
39.11,1551188793.203125
34.98,1551188793.21875
30.02,1551188793.234375
25.15,1551188793.25
21.05,1551188793.265625
17.95,1551188793.28125
15.61,1551188793.296875
13.52,1551188793.3125
11.23,1551188793.328125
8.52,1551188793.34375
5.49,1551188793.359375
2.38,1551188793.375
-0.67,1551188793.390625
-3.74,1551188793.40625
-7.09,1551188793.421875
-10.97,1551188793.4375
-15.4,1551188793.453125
-20.09,1551188793.46875
-24.52,1551188793.484375
-28.22,1551188793.5
-31.04,1551188793.515625
-33.24,1551188793.53125
-35.4,1551188793.546875
-38.22,1551188793.5625
-42.15,1551188793.578125
-47.27,1551188793.59375
-53.13,1551188793.609375
-58.91,1551188793.625
-63.57,1551188793.640625
-66.05,1551188793.65625
-65.64,1551188793.671875
-62.09,1551188793.6875
-55.72,1551188793.703125
-47.42,1551188793.71875
-38.32,1551188793.734375
-29.54,1551188793.75
-21.84,1551188793.765625
-15.47,1551188793.78125
-10.2,1551188793.796875
-5.53,1551188793.8125
-0.9,1551188793.828125
3.94,1551188793.84375
8.96,1551188793.859375
13.83,1551188793.875
18.14,1551188793.890625
21.54,1551188793.90625
23.91,1551188793.921875
25.35,1551188793.9375
26.13,1551188793.953125
26.55,1551188793.96875
26.82,1551188793.984375
27.04,1551188794.0
27.25,1551188794.015625
27.46,1551188794.03125
27.73,1551188794.046875
28.15,1551188794.0625
28.69,1551188794.078125
29.15,1551188794.09375
29.22,1551188794.109375
28.48,1551188794.125
26.72,1551188794.140625
23.97,1551188794.15625
20.58,1551188794.171875
17.1,1551188794.1875
14.1,1551188794.203125
11.96,1551188794.21875
10.67,1551188794.234375
9.9,1551188794.25
9.07,1551188794.265625
7.65,1551188794.28125
5.35,1551188794.296875
2.31,1551188794.3125
-0.96,1551188794.328125
-3.87,1551188794.34375
-5.96,1551188794.359375
-7.14,1551188794.375
-7.75,1551188794.390625
-8.35,1551188794.40625
-9.55,1551188794.421875
-11.83,1551188794.4375
-15.5,1551188794.453125
-20.61,1551188794.46875
-26.87,1551188794.484375
-33.55,1551188794.5
-39.44,1551188794.515625
-43.05,1551188794.53125
-43.11,1551188794.546875
-39.15,1551188794.5625
-31.79,1551188794.578125
-22.58,1551188794.59375
-13.5,1551188794.609375
-6.12,1551188794.625
-1.18,1551188794.640625
1.5,1551188794.65625
2.69,1551188794.671875
3.24,1551188794.6875
3.71,1551188794.703125
4.38,1551188794.71875
5.26,1551188794.734375
6.34,1551188794.75
7.6,1551188794.765625
9.02,1551188794.78125
10.49,1551188794.796875
11.86,1551188794.8125
12.96,1551188794.828125
13.73,1551188794.84375
14.22,1551188794.859375
14.58,1551188794.875
14.96,1551188794.890625
15.44,1551188794.90625
15.99,1551188794.921875
16.52,1551188794.9375
16.88,1551188794.953125
16.91,1551188794.96875
16.51,1551188794.984375
15.62,1551188795.0
14.29,1551188795.015625
12.67,1551188795.03125
10.91,1551188795.046875
9.12,1551188795.0625
7.35,1551188795.078125
5.51,1551188795.09375
3.45,1551188795.109375
0.97,1551188795.125
-2.03,1551188795.140625
-5.49,1551188795.15625
-9.17,1551188795.171875
-12.73,1551188795.1875
-15.85,1551188795.203125
-18.39,1551188795.21875
-20.44,1551188795.234375
-22.31,1551188795.25
-24.41,1551188795.265625
-27.17,1551188795.28125
-30.89,1551188795.296875
-35.64,1551188795.3125
-41.17,1551188795.328125
-46.82,1551188795.34375
-51.6,1551188795.359375
-54.33,1551188795.375
-54.02,1551188795.390625
-50.27,1551188795.40625
-43.44,1551188795.421875
-34.62,1551188795.4375
-25.27,1551188795.453125
-16.7,1551188795.46875
-9.63,1551188795.484375
-4.12,1551188795.5
0.28,1551188795.515625
4.1,1551188795.53125
7.69,1551188795.546875
11.03,1551188795.5625
13.88,1551188795.578125
15.98,1551188795.59375
17.32,1551188795.609375
18.08,1551188795.625
18.63,1551188795.640625
19.29,1551188795.65625
20.2,1551188795.671875
21.29,1551188795.6875
22.37,1551188795.703125
23.28,1551188795.71875
23.95,1551188795.734375
24.46,1551188795.75
24.86,1551188795.765625
25.18,1551188795.78125
25.24,1551188795.796875
24.84,1551188795.8125
23.85,1551188795.828125
22.29,1551188795.84375
20.4,1551188795.859375
18.47,1551188795.875
16.71,1551188795.890625
15.13,1551188795.90625
13.52,1551188795.921875
11.63,1551188795.9375
9.27,1551188795.953125
6.46,1551188795.96875
3.39,1551188795.984375
0.33,1551188796.0
-2.55,1551188796.015625
-5.15,1551188796.03125
-7.58,1551188796.046875
-9.98,1551188796.0625
-12.54,1551188796.078125
-15.43,1551188796.09375
-18.85,1551188796.109375
-22.86,1551188796.125
-27.32,1551188796.140625
-31.74,1551188796.15625
-35.27,1551188796.171875
-36.88,1551188796.1875
-35.66,1551188796.203125
-31.26,1551188796.21875
-24.06,1551188796.234375
-15.17,1551188796.25
-6.05,1551188796.265625
1.97,1551188796.28125
8.11,1551188796.296875
12.3,1551188796.3125
14.98,1551188796.328125
16.76,1551188796.34375
18.11,1551188796.359375
19.16,1551188796.375
19.83,1551188796.390625
20.05,1551188796.40625
19.9,1551188796.421875
19.7,1551188796.4375
19.79,1551188796.453125
20.43,1551188796.46875
21.62,1551188796.484375
23.13,1551188796.5
24.62,1551188796.515625
25.79,1551188796.53125
26.49,1551188796.546875
26.69,1551188796.5625
26.43,1551188796.578125
25.78,1551188796.59375
24.75,1551188796.609375
23.31,1551188796.625
21.41,1551188796.640625
19.08,1551188796.65625
16.37,1551188796.671875
13.46,1551188796.6875
10.49,1551188796.703125
7.56,1551188796.71875
4.57,1551188796.734375
1.28,1551188796.75
-2.54,1551188796.765625
-6.99,1551188796.78125
-11.85,1551188796.796875
-16.72,1551188796.8125
-21.14,1551188796.828125
-24.89,1551188796.84375
-28.14,1551188796.859375
-31.45,1551188796.875
-35.48,1551188796.890625
-40.65,1551188796.90625
-46.91,1551188796.921875
-53.5,1551188796.9375
-59.17,1551188796.953125
-62.48,1551188796.96875
-62.3,1551188796.984375
-58.18,1551188797.0
-50.56,1551188797.015625
-40.65,1551188797.03125
-30.04,1551188797.046875
-20.18,1551188797.0625
-11.97,1551188797.078125
-5.6,1551188797.09375
-0.67,1551188797.109375
3.51,1551188797.125
7.53,1551188797.140625
11.69,1551188797.15625
15.91,1551188797.171875
19.87,1551188797.1875
23.16,1551188797.203125
25.5,1551188797.21875
26.87,1551188797.234375
27.49,1551188797.25
27.79,1551188797.265625
28.19,1551188797.28125
28.89,1551188797.296875
29.89,1551188797.3125
31.0,1551188797.328125
32.04,1551188797.34375
32.94,1551188797.359375
33.69,1551188797.375
34.2,1551188797.390625
34.24,1551188797.40625
33.39,1551188797.421875
31.28,1551188797.4375
27.8,1551188797.453125
23.24,1551188797.46875
18.25,1551188797.484375
13.49,1551188797.5
9.42,1551188797.515625
6.02,1551188797.53125
2.94,1551188797.546875
-0.33,1551188797.5625
-4.14,1551188797.578125
-8.49,1551188797.59375
-13.13,1551188797.609375
-17.66,1551188797.625
-21.72,1551188797.640625
-25.2,1551188797.65625
-28.27,1551188797.671875
-31.34,1551188797.6875
-34.89,1551188797.703125
-39.39,1551188797.71875
-45.02,1551188797.734375
-51.54,1551188797.75
-58.22,1551188797.765625
-63.9,1551188797.78125
-67.22,1551188797.796875
-67.08,1551188797.8125
-62.92,1551188797.828125
-55.04,1551188797.84375
-44.47,1551188797.859375
-32.69,1551188797.875
-21.17,1551188797.890625
-10.92,1551188797.90625
-2.29,1551188797.921875
4.92,1551188797.9375
11.22,1551188797.953125
17.19,1551188797.96875
23.17,1551188797.984375
29.26,1551188798.0
35.32,1551188798.015625
41.06,1551188798.03125
46.17,1551188798.046875
50.38,1551188798.0625
53.55,1551188798.078125
55.75,1551188798.09375
57.23,1551188798.109375
58.37,1551188798.125
59.63,1551188798.140625
61.41,1551188798.15625
63.85,1551188798.171875
66.88,1551188798.1875
70.01,1551188798.203125
72.48,1551188798.21875
73.37,1551188798.234375
71.75,1551188798.25
66.98,1551188798.265625
58.91,1551188798.28125
47.94,1551188798.296875
35.02,1551188798.3125
21.42,1551188798.328125
8.37,1551188798.34375
-3.22,1551188798.359375
-12.91,1551188798.375
-20.77,1551188798.390625
-27.14,1551188798.40625
-32.39,1551188798.421875
-36.77,1551188798.4375
-40.38,1551188798.453125
-43.18,1551188798.46875
-45.28,1551188798.484375
-46.96,1551188798.5
-48.68,1551188798.515625
-50.97,1551188798.53125
-54.21,1551188798.546875
-58.52,1551188798.5625
-63.63,1551188798.578125
-68.88,1551188798.59375
-73.28,1551188798.609375
-75.65,1551188798.625
-74.93,1551188798.640625
-70.48,1551188798.65625
-62.36,1551188798.671875
-51.32,1551188798.6875
-38.64,1551188798.703125
-25.71,1551188798.71875
-13.65,1551188798.734375
-3.07,1551188798.75
5.93,1551188798.765625
13.56,1551188798.78125
20.05,1551188798.796875
25.53,1551188798.8125
29.96,1551188798.828125
33.19,1551188798.84375
35.13,1551188798.859375
35.84,1551188798.875
35.55,1551188798.890625
34.61,1551188798.90625
33.41,1551188798.921875
32.3,1551188798.9375
31.45,1551188798.953125
30.96,1551188798.96875
30.8,1551188798.984375
30.93,1551188799.0
31.3,1551188799.015625
31.86,1551188799.03125
32.41,1551188799.046875
32.7,1551188799.0625
32.4,1551188799.078125
31.24,1551188799.09375
29.19,1551188799.109375
26.51,1551188799.125
23.63,1551188799.140625
20.95,1551188799.15625
18.65,1551188799.171875
16.61,1551188799.1875
14.45,1551188799.203125
11.82,1551188799.21875
8.55,1551188799.234375
4.77,1551188799.25
0.84,1551188799.265625
-2.91,1551188799.28125
-6.31,1551188799.296875
-9.49,1551188799.3125
-12.81,1551188799.328125
-16.72,1551188799.34375
-21.63,1551188799.359375
-27.75,1551188799.375
-35.06,1551188799.390625
-43.18,1551188799.40625
-51.27,1551188799.421875
-58.16,1551188799.4375
-62.48,1551188799.453125
-63.1,1551188799.46875
-59.53,1551188799.484375
-52.15,1551188799.5
-42.18,1551188799.515625
-31.24,1551188799.53125
-20.87,1551188799.546875
-12.04,1551188799.5625
-4.94,1551188799.578125
0.78,1551188799.59375
5.75,1551188799.609375
10.44,1551188799.625
14.94,1551188799.640625
19.01,1551188799.65625
22.28,1551188799.671875
24.48,1551188799.6875
25.64,1551188799.703125
26.07,1551188799.71875
26.22,1551188799.734375
26.49,1551188799.75
27.11,1551188799.765625
28.1,1551188799.78125
29.32,1551188799.796875
30.53,1551188799.8125
31.56,1551188799.828125
32.27,1551188799.84375
32.6,1551188799.859375
32.48,1551188799.875
31.85,1551188799.890625
30.65,1551188799.90625
28.83,1551188799.921875
26.36,1551188799.9375
23.26,1551188799.953125
19.58,1551188799.96875
15.38,1551188799.984375
10.74,1551188800.0
5.74,1551188800.015625
0.45,1551188800.03125
-5.0,1551188800.046875
-10.49,1551188800.0625
-15.8,1551188800.078125
-20.8,1551188800.09375
-25.36,1551188800.109375
-29.52,1551188800.125
-33.5,1551188800.140625
-37.66,1551188800.15625
-42.36,1551188800.171875
-47.8,1551188800.1875
-53.77,1551188800.203125
-59.52,1551188800.21875
-63.89,1551188800.234375
-65.51,1551188800.25
-63.33,1551188800.265625
-57.0,1551188800.28125
-47.13,1551188800.296875
-35.15,1551188800.3125
-22.91,1551188800.328125
-12.03,1551188800.34375
-3.48,1551188800.359375
2.7,1551188800.375
7.1,1551188800.390625
10.6,1551188800.40625
13.9,1551188800.421875
17.26,1551188800.4375
20.6,1551188800.453125
23.6,1551188800.46875
26.03,1551188800.484375
27.83,1551188800.5
29.13,1551188800.515625
30.09,1551188800.53125
30.83,1551188800.546875
31.39,1551188800.5625
31.76,1551188800.578125
31.97,1551188800.59375
32.11,1551188800.609375
32.28,1551188800.625
32.49,1551188800.640625
32.55,1551188800.65625
32.1,1551188800.671875
30.76,1551188800.6875
28.34,1551188800.703125
25.0,1551188800.71875
21.16,1551188800.734375
17.38,1551188800.75
14.04,1551188800.765625
11.19,1551188800.78125
8.51,1551188800.796875
5.54,1551188800.8125
1.95,1551188800.828125
-2.31,1551188800.84375
-6.99,1551188800.859375
-11.69,1551188800.875
-16.1,1551188800.890625
-20.18,1551188800.90625
-24.12,1551188800.921875
-28.34,1551188800.9375
-33.26,1551188800.953125
-39.18,1551188800.96875
-46.14,1551188800.984375
-53.8,1551188801.0
-61.39,1551188801.015625
-67.75,1551188801.03125
-71.56,1551188801.046875
-71.68,1551188801.0625
-67.52,1551188801.078125
-59.35,1551188801.09375
-48.2,1551188801.109375
-35.66,1551188801.125
-23.32,1551188801.140625
-12.32,1551188801.15625
-3.15,1551188801.171875
4.39,1551188801.1875
10.86,1551188801.203125
16.8,1551188801.21875
22.51,1551188801.234375
27.96,1551188801.25
32.89,1551188801.265625
37.03,1551188801.28125
40.21,1551188801.296875
42.42,1551188801.3125
43.8,1551188801.328125
44.56,1551188801.34375
44.85,1551188801.359375
44.86,1551188801.375
44.74,1551188801.390625
44.62,1551188801.40625
44.62,1551188801.421875
44.75,1551188801.4375
44.92,1551188801.453125
44.92,1551188801.46875
44.47,1551188801.484375
43.28,1551188801.5
41.14,1551188801.515625
38.05,1551188801.53125
34.22,1551188801.546875
30.02,1551188801.5625
25.88,1551188801.578125
22.13,1551188801.59375
18.8,1551188801.609375
15.66,1551188801.625
12.35,1551188801.640625
8.56,1551188801.65625
4.26,1551188801.671875
-0.28,1551188801.6875
-4.63,1551188801.703125
-8.44,1551188801.71875
-11.62,1551188801.734375
-14.49,1551188801.75
-17.6,1551188801.765625
-21.64,1551188801.78125
-27.13,1551188801.796875
-34.27,1551188801.8125
-42.81,1551188801.828125
-51.95,1551188801.84375
-60.41,1551188801.859375
-66.57,1551188801.875
-68.94,1551188801.890625
-66.61,1551188801.90625
-59.63,1551188801.921875
-49.1,1551188801.9375
-36.86,1551188801.953125
-24.77,1551188801.96875
-14.19,1551188801.984375
-5.57,1551188802.0
1.46,1551188802.015625
7.64,1551188802.03125
13.63,1551188802.046875
19.63,1551188802.0625
25.41,1551188802.078125
30.49,1551188802.09375
34.49,1551188802.109375
37.28,1551188802.125
39.05,1551188802.140625
40.16,1551188802.15625
40.93,1551188802.171875
41.57,1551188802.1875
42.11,1551188802.203125
42.52,1551188802.21875
42.78,1551188802.234375
42.96,1551188802.25
43.16,1551188802.265625
43.48,1551188802.28125
43.88,1551188802.296875
44.15,1551188802.3125
43.95,1551188802.328125
42.92,1551188802.34375
40.79,1551188802.359375
37.6,1551188802.375
33.64,1551188802.390625
29.36,1551188802.40625
25.32,1551188802.421875
21.88,1551188802.4375
19.17,1551188802.453125
17.03,1551188802.46875
15.04,1551188802.484375
12.74,1551188802.5
9.69,1551188802.515625
5.72,1551188802.53125
0.93,1551188802.546875
-4.24,1551188802.5625
-9.21,1551188802.578125
-13.46,1551188802.59375
-16.77,1551188802.609375
-19.38,1551188802.625
-21.96,1551188802.640625
-25.4,1551188802.65625
-30.39,1551188802.671875
-37.25,1551188802.6875
-45.65,1551188802.703125
-54.73,1551188802.71875
-63.27,1551188802.734375
-69.93,1551188802.75
-73.53,1551188802.765625
-73.25,1551188802.78125
-68.86,1551188802.796875
-60.81,1551188802.8125
-50.16,1551188802.828125
-38.39,1551188802.84375
-26.95,1551188802.859375
-16.99,1551188802.875
-8.99,1551188802.890625
-2.83,1551188802.90625
2.04,1551188802.921875
6.21,1551188802.9375
10.05,1551188802.953125
13.62,1551188802.96875
16.75,1551188802.984375
19.29,1551188803.0
21.23,1551188803.015625
22.79,1551188803.03125
24.3,1551188803.046875
26.04,1551188803.0625
28.12,1551188803.078125
30.36,1551188803.09375
32.46,1551188803.109375
34.1,1551188803.125
35.14,1551188803.140625
35.62,1551188803.15625
35.72,1551188803.171875
35.62,1551188803.1875
35.33,1551188803.203125
34.72,1551188803.21875
33.52,1551188803.234375
31.56,1551188803.25
28.83,1551188803.265625
25.5,1551188803.28125
21.95,1551188803.296875
18.5,1551188803.3125
15.35,1551188803.328125
12.47,1551188803.34375
9.6,1551188803.359375
6.44,1551188803.375
2.78,1551188803.390625
-1.39,1551188803.40625
-5.88,1551188803.421875
-10.4,1551188803.4375
-14.67,1551188803.453125
-18.61,1551188803.46875
-22.34,1551188803.484375
-26.19,1551188803.5
-30.56,1551188803.515625
-35.78,1551188803.53125
-42.04,1551188803.546875
-49.32,1551188803.5625
-57.29,1551188803.578125
-65.27,1551188803.59375
-72.35,1551188803.609375
-77.34,1551188803.625
-79.14,1551188803.640625
-76.95,1551188803.65625
-70.63,1551188803.671875
-60.87,1551188803.6875
-49.0,1551188803.703125
-36.66,1551188803.71875
-25.27,1551188803.734375
-15.64,1551188803.75
-7.84,1551188803.765625
-1.42,1551188803.78125
4.26,1551188803.796875
9.62,1551188803.8125
14.76,1551188803.828125
19.49,1551188803.84375
23.55,1551188803.859375
26.79,1551188803.875
29.3,1551188803.890625
31.3,1551188803.90625
33.09,1551188803.921875
34.87,1551188803.9375
36.71,1551188803.953125
38.56,1551188803.96875
40.3,1551188803.984375
41.83,1551188804.0
43.1,1551188804.015625
44.1,1551188804.03125
44.8,1551188804.046875
45.01,1551188804.0625
44.43,1551188804.078125
42.73,1551188804.09375
39.72,1551188804.109375
35.48,1551188804.125
30.43,1551188804.140625
25.19,1551188804.15625
20.39,1551188804.171875
16.41,1551188804.1875
13.29,1551188804.203125
10.76,1551188804.21875
8.33,1551188804.234375
5.55,1551188804.25
2.14,1551188804.265625
-1.94,1551188804.28125
-6.44,1551188804.296875
-10.99,1551188804.3125
-15.22,1551188804.328125
-18.99,1551188804.34375
-22.4,1551188804.359375
-25.83,1551188804.375
-29.76,1551188804.390625
-34.65,1551188804.40625
-40.67,1551188804.421875
-47.62,1551188804.4375
-54.86,1551188804.453125
-61.37,1551188804.46875
-65.99,1551188804.484375
-67.6,1551188804.5
-65.48,1551188804.515625
-59.46,1551188804.53125
-50.05,1551188804.546875
-38.32,1551188804.5625
-25.61,1551188804.578125
-13.24,1551188804.59375
-2.15,1551188804.609375
7.21,1551188804.625
14.88,1551188804.640625
21.12,1551188804.65625
26.25,1551188804.671875
30.4,1551188804.6875
33.55,1551188804.703125
35.64,1551188804.71875
36.68,1551188804.734375
36.94,1551188804.75
36.81,1551188804.765625
36.71,1551188804.78125
36.9,1551188804.796875
37.39,1551188804.8125
38.03,1551188804.828125
38.65,1551188804.84375
39.21,1551188804.859375
39.79,1551188804.875
40.51,1551188804.890625
41.29,1551188804.90625
41.88,1551188804.921875
41.8,1551188804.9375
40.66,1551188804.953125
38.27,1551188804.96875
34.78,1551188804.984375
30.66,1551188805.0
26.45,1551188805.015625
22.6,1551188805.03125
19.35,1551188805.046875
16.68,1551188805.0625
14.36,1551188805.078125
12.05,1551188805.09375
9.48,1551188805.109375
6.45,1551188805.125
3.03,1551188805.140625
-0.61,1551188805.15625
-4.18,1551188805.171875
-7.49,1551188805.1875
-10.56,1551188805.203125
-13.61,1551188805.21875
-17.05,1551188805.234375
-21.24,1551188805.25
-26.36,1551188805.265625
-32.27,1551188805.28125
-38.48,1551188805.296875
-44.22,1551188805.3125
-48.61,1551188805.328125
-50.78,1551188805.34375
-50.1,1551188805.359375
-46.31,1551188805.375
-39.71,1551188805.390625
-31.08,1551188805.40625
-21.57,1551188805.421875
-12.43,1551188805.4375
-4.61,1551188805.453125
1.41,1551188805.46875
5.74,1551188805.484375
8.82,1551188805.5
11.19,1551188805.515625
13.14,1551188805.53125
14.67,1551188805.546875
15.65,1551188805.5625
15.99,1551188805.578125
15.88,1551188805.59375
15.78,1551188805.609375
16.13,1551188805.625
17.15,1551188805.640625
18.72,1551188805.65625
20.37,1551188805.671875
21.62,1551188805.6875
22.18,1551188805.703125
22.04,1551188805.71875
21.43,1551188805.734375
20.57,1551188805.75
19.46,1551188805.765625
17.95,1551188805.78125
15.77,1551188805.796875
12.8,1551188805.8125
9.19,1551188805.828125
5.34,1551188805.84375
1.74,1551188805.859375
-1.25,1551188805.875
-3.56,1551188805.890625
-5.43,1551188805.90625
-7.37,1551188805.921875
-9.84,1551188805.9375
-13.15,1551188805.953125
-17.25,1551188805.96875
-21.8,1551188805.984375
-26.3,1551188806.0
-30.29,1551188806.015625
-33.61,1551188806.03125
-36.41,1551188806.046875
-39.18,1551188806.0625
-42.57,1551188806.078125
-47.19,1551188806.09375
-53.27,1551188806.109375
-60.55,1551188806.125
-68.19,1551188806.140625
-74.84,1551188806.15625
-79.05,1551188806.171875
-79.6,1551188806.1875
-75.92,1551188806.203125
-68.25,1551188806.21875
-57.62,1551188806.234375
-45.43,1551188806.25
-33.18,1551188806.265625
-21.95,1551188806.28125
-12.34,1551188806.296875
-4.38,1551188806.3125
2.21,1551188806.328125
7.87,1551188806.34375
12.97,1551188806.359375
17.69,1551188806.375
22.02,1551188806.390625
25.82,1551188806.40625
28.91,1551188806.421875
31.19,1551188806.4375
32.7,1551188806.453125
33.6,1551188806.46875
34.15,1551188806.484375
34.64,1551188806.5
35.31,1551188806.515625
36.28,1551188806.53125
37.57,1551188806.546875
39.06,1551188806.5625
40.54,1551188806.578125
41.68,1551188806.59375
42.11,1551188806.609375
41.51,1551188806.625
39.69,1551188806.640625
36.72,1551188806.65625
32.95,1551188806.671875
28.91,1551188806.6875
25.17,1551188806.703125
22.1,1551188806.71875
19.69,1551188806.734375
17.59,1551188806.75
15.22,1551188806.765625
12.08,1551188806.78125
7.97,1551188806.796875
3.07,1551188806.8125
-2.13,1551188806.828125
-7.1,1551188806.84375
-11.56,1551188806.859375
-15.55,1551188806.875
-19.45,1551188806.890625
-23.75,1551188806.90625
-28.88,1551188806.921875
-35.04,1551188806.9375
-42.1,1551188806.953125
-49.5,1551188806.96875
-56.32,1551188806.984375
-61.35,1551188807.0
-63.31,1551188807.015625
-61.29,1551188807.03125
-55.07,1551188807.046875
-45.32,1551188807.0625
-33.49,1551188807.078125
-21.31,1551188807.09375
-10.23,1551188807.109375
-1.04,1551188807.125
6.22,1551188807.140625
11.99,1551188807.15625
16.8,1551188807.171875
20.88,1551188807.1875
24.18,1551188807.203125
26.52,1551188807.21875
27.86,1551188807.234375
28.45,1551188807.25
28.74,1551188807.265625
29.19,1551188807.28125
30.06,1551188807.296875
31.34,1551188807.3125
32.83,1551188807.328125
34.31,1551188807.34375
35.67,1551188807.359375
36.82,1551188807.375
37.7,1551188807.390625
38.14,1551188807.40625
37.93,1551188807.421875
36.84,1551188807.4375
34.8,1551188807.453125
31.93,1551188807.46875
28.5,1551188807.484375
24.82,1551188807.5
21.15,1551188807.515625
17.57,1551188807.53125
14.07,1551188807.546875
10.5,1551188807.5625
6.67,1551188807.578125
2.44,1551188807.59375
-2.23,1551188807.609375
-7.24,1551188807.625
-12.34,1551188807.640625
-17.28,1551188807.65625
-21.95,1551188807.671875
-26.49,1551188807.6875
-31.31,1551188807.703125
-36.94,1551188807.71875
-43.8,1551188807.734375
-51.9,1551188807.75
-60.63,1551188807.765625
-68.8,1551188807.78125
-74.9,1551188807.796875
-77.49,1551188807.8125
-75.67,1551188807.828125
-69.38,1551188807.84375
-59.41,1551188807.859375
-47.27,1551188807.875
-34.72,1551188807.890625
-23.31,1551188807.90625
-14.05,1551188807.921875
-7.16,1551188807.9375
-2.26,1551188807.953125
1.41,1551188807.96875
4.58,1551188807.984375
7.69,1551188808.0
10.76,1551188808.015625
13.51,1551188808.03125
15.56,1551188808.046875
16.74,1551188808.0625
17.18,1551188808.078125
17.33,1551188808.09375
17.72,1551188808.109375
18.79,1551188808.125
20.69,1551188808.140625
23.28,1551188808.15625
26.15,1551188808.171875
28.82,1551188808.1875
30.84,1551188808.203125
31.9,1551188808.21875
31.84,1551188808.234375
30.61,1551188808.25
28.24,1551188808.265625
24.86,1551188808.28125
20.69,1551188808.296875
16.08,1551188808.3125
11.45,1551188808.328125
7.15,1551188808.34375
3.33,1551188808.359375
-0.1,1551188808.375
-3.41,1551188808.390625
-6.85,1551188808.40625
-10.51,1551188808.421875
-14.27,1551188808.4375
-17.92,1551188808.453125
-21.35,1551188808.46875
-24.72,1551188808.484375
-28.49,1551188808.5
-33.33,1551188808.515625
-39.81,1551188808.53125
-48.14,1551188808.546875
-57.9,1551188808.5625
-67.95,1551188808.578125
-76.58,1551188808.59375
-81.89,1551188808.609375
-82.35,1551188808.625
-77.31,1551188808.640625
-67.29,1551188808.65625
-53.86,1551188808.671875
-39.12,1551188808.6875
-25.01,1551188808.703125
-12.8,1551188808.71875
-2.82,1551188808.734375
5.39,1551188808.75
12.65,1551188808.765625
19.65,1551188808.78125
26.66,1551188808.796875
33.57,1551188808.8125
39.94,1551188808.828125
45.35,1551188808.84375
49.55,1551188808.859375
52.47,1551188808.875
54.23,1551188808.890625
54.99,1551188808.90625
54.92,1551188808.921875
54.21,1551188808.9375
53.14,1551188808.953125
52.03,1551188808.96875
51.19,1551188808.984375
50.8,1551188809.0
50.75,1551188809.015625
50.68,1551188809.03125
50.08,1551188809.046875
48.51,1551188809.0625
45.75,1551188809.078125
41.92,1551188809.09375
37.37,1551188809.109375
32.54,1551188809.125
27.76,1551188809.140625
23.15,1551188809.15625
18.61,1551188809.171875
13.95,1551188809.1875
9.01,1551188809.203125
3.81,1551188809.21875
-1.45,1551188809.234375
-6.5,1551188809.25
-11.12,1551188809.265625
-15.27,1551188809.28125
-19.2,1551188809.296875
-23.37,1551188809.3125
-28.42,1551188809.328125
-34.89,1551188809.34375
-43.01,1551188809.359375
-52.39,1551188809.375
-61.96,1551188809.390625
-70.06,1551188809.40625
-74.85,1551188809.421875
-74.92,1551188809.4375
-69.77,1551188809.453125
-60.05,1551188809.46875
-47.38,1551188809.484375
-33.73,1551188809.5
-20.9,1551188809.515625
-9.9,1551188809.53125
-0.94,1551188809.546875
6.44,1551188809.5625
12.92,1551188809.578125
19.05,1551188809.59375
24.98,1551188809.609375
30.53,1551188809.625
35.37,1551188809.640625
39.16,1551188809.65625
41.76,1551188809.671875
43.22,1551188809.6875
43.74,1551188809.703125
43.61,1551188809.71875
43.11,1551188809.734375
42.48,1551188809.75
41.97,1551188809.765625
41.78,1551188809.78125
42.06,1551188809.796875
42.8,1551188809.8125
43.81,1551188809.828125
44.69,1551188809.84375
44.96,1551188809.859375
44.13,1551188809.875
41.95,1551188809.890625
38.43,1551188809.90625
33.97,1551188809.921875
29.09,1551188809.9375
24.41,1551188809.953125
20.31,1551188809.96875
16.81,1551188809.984375
13.58,1551188810.0
10.09,1551188810.015625
5.9,1551188810.03125
0.88,1551188810.046875
-4.69,1551188810.0625
-10.29,1551188810.078125
-15.41,1551188810.09375
-19.84,1551188810.109375
-23.77,1551188810.125
-27.74,1551188810.140625
-32.41,1551188810.15625
-38.35,1551188810.171875
-45.79,1551188810.1875
-54.41,1551188810.203125
-63.32,1551188810.21875
-71.09,1551188810.234375
-76.04,1551188810.25
-76.7,1551188810.265625
-72.34,1551188810.28125
-63.34,1551188810.296875
-51.06,1551188810.3125
-37.49,1551188810.328125
-24.51,1551188810.34375
-13.36,1551188810.359375
-4.37,1551188810.375
2.83,1551188810.390625
8.9,1551188810.40625
14.34,1551188810.421875
19.23,1551188810.4375
23.34,1551188810.453125
26.38,1551188810.46875
28.29,1551188810.484375
29.37,1551188810.5
30.13,1551188810.515625
31.1,1551188810.53125
32.56,1551188810.546875
34.49,1551188810.5625
36.55,1551188810.578125
38.37,1551188810.59375
39.7,1551188810.609375
40.52,1551188810.625
40.95,1551188810.640625
41.08,1551188810.65625
40.85,1551188810.671875
40.03,1551188810.6875
38.27,1551188810.703125
35.37,1551188810.71875
31.38,1551188810.734375
26.64,1551188810.75
21.69,1551188810.765625
17.03,1551188810.78125
12.99,1551188810.796875
9.53,1551188810.8125
6.34,1551188810.828125
2.95,1551188810.84375
-1.05,1551188810.859375
-5.82,1551188810.875
-11.12,1551188810.890625
-16.48,1551188810.90625
-21.35,1551188810.921875
-25.41,1551188810.9375
-28.72,1551188810.953125
-31.78,1551188810.96875
-35.34,1551188810.984375
-40.11,1551188811.0
-46.56,1551188811.015625
-54.62,1551188811.03125
-63.67,1551188811.046875
-72.54,1551188811.0625
-79.69,1551188811.078125
-83.53,1551188811.09375
-82.84,1551188811.109375
-77.19,1551188811.125
-67.12,1551188811.140625
-54.12,1551188811.15625
-40.1,1551188811.171875
-26.79,1551188811.1875
-15.25,1551188811.203125
-5.59,1551188811.21875
2.78,1551188811.234375
10.61,1551188811.25
18.38,1551188811.265625
26.05,1551188811.28125
33.12,1551188811.296875
38.99,1551188811.3125
43.29,1551188811.328125
46.03,1551188811.34375
47.6,1551188811.359375
48.47,1551188811.375
49.09,1551188811.390625
49.67,1551188811.40625
50.33,1551188811.421875
51.09,1551188811.4375
52.01,1551188811.453125
53.15,1551188811.46875
54.48,1551188811.484375
55.84,1551188811.5
56.89,1551188811.515625
57.18,1551188811.53125
56.31,1551188811.546875
54.08,1551188811.5625
50.48,1551188811.578125
45.84,1551188811.59375
40.67,1551188811.609375
35.49,1551188811.625
30.76,1551188811.640625
26.68,1551188811.65625
23.14,1551188811.671875
19.77,1551188811.6875
16.09,1551188811.703125
11.69,1551188811.71875
6.49,1551188811.734375
0.73,1551188811.75
-5.05,1551188811.765625
-10.25,1551188811.78125
-14.56,1551188811.796875
-18.07,1551188811.8125
-21.3,1551188811.828125
-25.05,1551188811.84375
-30.09,1551188811.859375
-36.85,1551188811.875
-45.34,1551188811.890625
-55.0,1551188811.90625
-64.77,1551188811.921875
-73.25,1551188811.9375
-78.89,1551188811.953125
-80.31,1551188811.96875
-76.77,1551188811.984375
-68.38,1551188812.0
-56.2,1551188812.015625
-41.99,1551188812.03125
-27.67,1551188812.046875
-14.83,1551188812.0625
-4.26,1551188812.078125
4.02,1551188812.09375
10.6,1551188812.109375
16.18,1551188812.125
21.17,1551188812.140625
25.56,1551188812.15625
29.04,1551188812.171875
31.29,1551188812.1875
32.35,1551188812.203125
32.64,1551188812.21875
32.85,1551188812.234375
33.62,1551188812.25
35.13,1551188812.265625
37.08,1551188812.28125
38.87,1551188812.296875
39.96,1551188812.3125
40.17,1551188812.328125
39.72,1551188812.34375
39.06,1551188812.359375
38.52,1551188812.375
38.08,1551188812.390625
37.35,1551188812.40625
35.79,1551188812.421875
32.95,1551188812.4375
28.79,1551188812.453125
23.63,1551188812.46875
18.13,1551188812.484375
12.92,1551188812.5
8.43,1551188812.515625
4.66,1551188812.53125
1.29,1551188812.546875
-2.24,1551188812.5625
-6.38,1551188812.578125
-11.27,1551188812.59375
-16.68,1551188812.609375
-22.12,1551188812.625
-27.06,1551188812.640625
-31.24,1551188812.65625
-34.77,1551188812.671875
-38.22,1551188812.6875
-42.29,1551188812.703125
-47.72,1551188812.71875
-54.92,1551188812.734375
-63.83,1551188812.75
-73.82,1551188812.765625
-83.63,1551188812.78125
-91.6,1551188812.796875
-95.97,1551188812.8125
-95.36,1551188812.828125
-89.26,1551188812.84375
-78.22,1551188812.859375
-63.81,1551188812.875
-48.16,1551188812.890625
-33.3,1551188812.90625
-20.58,1551188812.921875
-10.37,1551188812.9375
-2.16,1551188812.953125
5.01,1551188812.96875
12.05,1551188812.984375
19.37,1551188813.0
26.76,1551188813.015625
33.63,1551188813.03125
39.29,1551188813.046875
43.37,1551188813.0625
45.89,1551188813.078125
47.23,1551188813.09375
47.9,1551188813.109375
48.28,1551188813.125
48.54,1551188813.140625
48.74,1551188813.15625
48.88,1551188813.171875
49.08,1551188813.1875
49.46,1551188813.203125
50.04,1551188813.21875
50.64,1551188813.234375
50.85,1551188813.25
50.17,1551188813.265625
48.22,1551188813.28125
44.89,1551188813.296875
40.46,1551188813.3125
35.42,1551188813.328125
30.39,1551188813.34375
25.86,1551188813.359375
22.08,1551188813.375
19.0,1551188813.390625
16.28,1551188813.40625
13.44,1551188813.421875
9.97,1551188813.4375
5.53,1551188813.453125
0.13,1551188813.46875
-5.88,1551188813.484375
-11.95,1551188813.5
-17.53,1551188813.515625
-22.35,1551188813.53125
-26.62,1551188813.546875
-30.93,1551188813.5625
-36.09,1551188813.578125
-42.78,1551188813.59375
-51.24,1551188813.609375
-61.11,1551188813.625
-71.33,1551188813.640625
-80.38,1551188813.65625
-86.51,1551188813.671875
-88.23,1551188813.6875
-84.69,1551188813.703125
-76.1,1551188813.71875
-63.66,1551188813.734375
-49.25,1551188813.75
-34.91,1551188813.765625
-22.17,1551188813.78125
-11.67,1551188813.796875
-3.13,1551188813.8125
4.23,1551188813.828125
11.23,1551188813.84375
18.24,1551188813.859375
25.14,1551188813.875
31.47,1551188813.890625
36.72,1551188813.90625
40.63,1551188813.921875
43.27,1551188813.9375
44.9,1551188813.953125
45.92,1551188813.96875
46.63,1551188813.984375
47.22,1551188814.0
47.76,1551188814.015625
48.25,1551188814.03125
48.64,1551188814.046875
48.89,1551188814.0625
48.92,1551188814.078125
48.64,1551188814.09375
47.93,1551188814.109375
46.67,1551188814.125
44.75,1551188814.140625
42.15,1551188814.15625
38.91,1551188814.171875
35.15,1551188814.1875
31.07,1551188814.203125
26.93,1551188814.21875
22.99,1551188814.234375
19.44,1551188814.25
16.3,1551188814.265625
13.49,1551188814.28125
10.76,1551188814.296875
7.8,1551188814.3125
4.34,1551188814.328125
0.22,1551188814.34375
-4.49,1551188814.359375
-9.54,1551188814.375
-14.54,1551188814.390625
-19.13,1551188814.40625
-23.16,1551188814.421875
-26.75,1551188814.4375
-30.29,1551188814.453125
-34.26,1551188814.46875
-39.14,1551188814.484375
-45.2,1551188814.5
-52.5,1551188814.515625
-60.76,1551188814.53125
-69.34,1551188814.546875
-77.21,1551188814.5625
-82.99,1551188814.578125
-85.23,1551188814.59375
-82.81,1551188814.609375
-75.48,1551188814.625
-63.98,1551188814.640625
-49.97,1551188814.65625
-35.52,1551188814.671875
-22.4,1551188814.6875
-11.62,1551188814.703125
-3.24,1551188814.71875
3.31,1551188814.734375
8.79,1551188814.75
13.64,1551188814.765625
17.95,1551188814.78125
21.49,1551188814.796875
24.1,1551188814.8125
25.9,1551188814.828125
27.3,1551188814.84375
28.79,1551188814.859375
30.68,1551188814.875
32.97,1551188814.890625
35.36,1551188814.90625
37.46,1551188814.921875
39.03,1551188814.9375
40.12,1551188814.953125
40.92,1551188814.96875
41.69,1551188814.984375
42.46,1551188815.0
42.96,1551188815.015625
42.77,1551188815.03125
41.42,1551188815.046875
38.71,1551188815.0625
34.76,1551188815.078125
30.1,1551188815.09375
25.4,1551188815.109375
21.28,1551188815.125
18.02,1551188815.140625
15.44,1551188815.15625
12.97,1551188815.171875
9.95,1551188815.1875
5.98,1551188815.203125
1.1,1551188815.21875
-4.19,1551188815.234375
-9.22,1551188815.25
-13.46,1551188815.265625
-16.83,1551188815.28125
-19.72,1551188815.296875
-22.85,1551188815.3125
-26.99,1551188815.328125
-32.71,1551188815.34375
-40.13,1551188815.359375
-48.85,1551188815.375
-57.89,1551188815.390625
-65.82,1551188815.40625
-71.01,1551188815.421875
-72.01,1551188815.4375
-68.01,1551188815.453125
-59.17,1551188815.46875
-46.69,1551188815.484375
-32.43,1551188815.5
-18.41,1551188815.515625
-6.11,1551188815.53125
3.76,1551188815.546875
11.35,1551188815.5625
17.25,1551188815.578125
22.1,1551188815.59375
26.2,1551188815.609375
29.51,1551188815.625
31.81,1551188815.640625
33.01,1551188815.65625
33.33,1551188815.671875
33.22,1551188815.6875
33.22,1551188815.703125
33.69,1551188815.71875
34.64,1551188815.734375
35.82,1551188815.75
36.89,1551188815.765625
37.57,1551188815.78125
37.79,1551188815.796875
37.66,1551188815.8125
37.3,1551188815.828125
36.71,1551188815.84375
35.69,1551188815.859375
33.9,1551188815.875
31.11,1551188815.890625
27.3,1551188815.90625
22.8,1551188815.921875
18.17,1551188815.9375
14.04,1551188815.953125
10.76,1551188815.96875
8.3,1551188815.984375
6.19,1551188816.0
3.75,1551188816.015625
0.34,1551188816.03125
-4.27,1551188816.046875
-9.88,1551188816.0625
-15.95,1551188816.078125
-21.85,1551188816.09375
-27.19,1551188816.109375
-31.92,1551188816.125
-36.42,1551188816.140625
-41.26,1551188816.15625
-47.07,1551188816.171875
-54.3,1551188816.1875
-62.9,1551188816.203125
-72.25,1551188816.21875
-81.07,1551188816.234375
-87.66,1551188816.25
-90.33,1551188816.265625
-87.93,1551188816.28125
-80.31,1551188816.296875
-68.43,1551188816.3125
-54.11,1551188816.328125
-39.43,1551188816.34375
-26.16,1551188816.359375
-15.24,1551188816.375
-6.72,1551188816.390625
-0.0,1551188816.40625
5.85,1551188816.421875
11.58,1551188816.4375
17.51,1551188816.453125
23.48,1551188816.46875
29.02,1551188816.484375
33.65,1551188816.5
37.13,1551188816.515625
39.58,1551188816.53125
41.35,1551188816.546875
42.79,1551188816.5625
44.05,1551188816.578125
45.04,1551188816.59375
45.57,1551188816.609375
45.59,1551188816.625
45.28,1551188816.640625
44.95,1551188816.65625
44.85,1551188816.671875
44.93,1551188816.6875
44.79,1551188816.703125
43.84,1551188816.71875
41.54,1551188816.734375
37.71,1551188816.75
32.6,1551188816.765625
26.8,1551188816.78125
21.03,1551188816.796875
15.89,1551188816.8125
11.66,1551188816.828125
8.28,1551188816.84375
5.43,1551188816.859375
2.67,1551188816.875
-0.3,1551188816.890625
-3.6,1551188816.90625
-7.1,1551188816.921875
-10.53,1551188816.9375
-13.67,1551188816.953125
-16.54,1551188816.96875
-19.48,1551188816.984375
-23.08,1551188817.0
-28.07,1551188817.015625
-35.01,1551188817.03125
-44.13,1551188817.046875
-55.07,1551188817.0625
-66.87,1551188817.078125
-77.97,1551188817.09375
-86.53,1551188817.109375
-90.8,1551188817.125
-89.6,1551188817.140625
-82.81,1551188817.15625
-71.4,1551188817.171875
-57.28,1551188817.1875
-42.63,1551188817.203125
-29.29,1551188817.21875
-18.2,1551188817.234375
-9.35,1551188817.25
-1.99,1551188817.265625
4.74,1551188817.28125
11.41,1551188817.296875
18.02,1551188817.3125
24.17,1551188817.328125
29.33,1551188817.34375
33.18,1551188817.359375
35.77,1551188817.375
37.46,1551188817.390625
38.72,1551188817.40625
39.89,1551188817.421875
41.1,1551188817.4375
42.28,1551188817.453125
43.31,1551188817.46875
44.1,1551188817.484375
44.7,1551188817.5
45.18,1551188817.515625
45.58,1551188817.53125
45.79,1551188817.546875
45.53,1551188817.5625
44.46,1551188817.578125
42.3,1551188817.59375
38.97,1551188817.609375
34.71,1551188817.625
29.98,1551188817.640625
25.36,1551188817.65625
21.34,1551188817.671875
18.14,1551188817.6875
15.59,1551188817.703125
13.3,1551188817.71875
10.75,1551188817.734375
7.54,1551188817.75
3.58,1551188817.765625
-0.84,1551188817.78125
-5.2,1551188817.796875
-9.0,1551188817.8125
-11.96,1551188817.828125
-14.22,1551188817.84375
-16.3,1551188817.859375
-18.96,1551188817.875
-22.85,1551188817.890625
-28.34,1551188817.90625
-35.28,1551188817.921875
-42.91,1551188817.9375
-49.94,1551188817.953125
-54.82,1551188817.96875
-56.1,1551188817.984375
-52.86,1551188818.0
-45.05,1551188818.015625
-33.61,1551188818.03125
-20.15,1551188818.046875
-6.48,1551188818.0625
5.93,1551188818.078125
16.45,1551188818.09375
25.24,1551188818.109375
33.02,1551188818.125
40.59,1551188818.140625
48.47,1551188818.15625
56.61,1551188818.171875
64.45,1551188818.1875
71.13,1551188818.203125
75.68,1551188818.21875
77.32,1551188818.234375
75.65,1551188818.25
70.66,1551188818.265625
62.77,1551188818.28125
52.68,1551188818.296875
41.27,1551188818.3125
29.51,1551188818.328125
18.3,1551188818.34375
8.45,1551188818.359375
0.52,1551188818.375
-5.26,1551188818.390625
-9.06,1551188818.40625
-11.45,1551188818.421875
-13.26,1551188818.4375
-15.25,1551188818.453125
-17.9,1551188818.46875
-21.16,1551188818.484375
-24.6,1551188818.5
-27.61,1551188818.515625
-29.77,1551188818.53125
-31.08,1551188818.546875
-31.96,1551188818.5625
-33.06,1551188818.578125
-34.87,1551188818.59375
-37.53,1551188818.609375
-40.7,1551188818.625
-43.81,1551188818.640625
-46.42,1551188818.65625
-48.35,1551188818.671875
-49.9,1551188818.6875
-51.64,1551188818.703125
-54.22,1551188818.71875
-58.16,1551188818.734375
-63.7,1551188818.75
-70.63,1551188818.765625
-78.15,1551188818.78125
-84.92,1551188818.796875
-89.27,1551188818.8125
-89.59,1551188818.828125
-84.94,1551188818.84375
-75.42,1551188818.859375
-62.24,1551188818.875
-47.37,1551188818.890625
-32.83,1551188818.90625
-20.14,1551188818.921875
-9.89,1551188818.9375
-1.81,1551188818.953125
4.86,1551188818.96875
10.92,1551188818.984375
16.84,1551188819.0
22.64,1551188819.015625
28.02,1551188819.03125
32.6,1551188819.046875
36.1,1551188819.0625
38.48,1551188819.078125
39.92,1551188819.09375
40.72,1551188819.109375
41.21,1551188819.125
41.6,1551188819.140625
42.01,1551188819.15625
42.45,1551188819.171875
42.91,1551188819.1875
43.37,1551188819.203125
43.82,1551188819.21875
44.21,1551188819.234375
44.36,1551188819.25
43.95,1551188819.265625
42.58,1551188819.28125
39.91,1551188819.296875
35.89,1551188819.3125
30.85,1551188819.328125
25.42,1551188819.34375
20.34,1551188819.359375
16.12,1551188819.375
12.85,1551188819.390625
10.13,1551188819.40625
7.27,1551188819.421875
3.68,1551188819.4375
-0.88,1551188819.453125
-6.2,1551188819.46875
-11.76,1551188819.484375
-16.94,1551188819.5
-21.38,1551188819.515625
-25.02,1551188819.53125
-28.2,1551188819.546875
-31.48,1551188819.5625
-35.52,1551188819.578125
-40.84,1551188819.59375
-47.66,1551188819.609375
-55.67,1551188819.625
-64.01,1551188819.640625
-71.23,1551188819.65625
-75.66,1551188819.671875
-75.79,1551188819.6875
-70.89,1551188819.703125
-61.31,1551188819.71875
-48.45,1551188819.734375
-34.36,1551188819.75
-21.05,1551188819.765625
-9.83,1551188819.78125
-1.09,1551188819.796875
5.68,1551188819.8125
11.41,1551188819.828125
16.93,1551188819.84375
22.68,1551188819.859375
28.58,1551188819.875
34.23,1551188819.890625
39.16,1551188819.90625
43.04,1551188819.921875
45.81,1551188819.9375
47.62,1551188819.953125
48.76,1551188819.96875
49.55,1551188819.984375
50.17,1551188820.0
50.72,1551188820.015625
51.15,1551188820.03125
51.43,1551188820.046875
51.58,1551188820.0625
51.7,1551188820.078125
51.92,1551188820.09375
52.22,1551188820.109375
52.39,1551188820.125
52.07,1551188820.140625
50.89,1551188820.15625
48.71,1551188820.171875
45.73,1551188820.1875
42.44,1551188820.203125
39.45,1551188820.21875
37.16,1551188820.234375
35.64,1551188820.25
34.6,1551188820.265625
33.54,1551188820.28125
32.01,1551188820.296875
29.82,1551188820.3125
27.2,1551188820.328125
24.68,1551188820.34375
22.93,1551188820.359375
22.54,1551188820.375
23.74,1551188820.390625
26.26,1551188820.40625
29.22,1551188820.421875
31.2,1551188820.4375
30.45,1551188820.453125
25.31,1551188820.46875
14.68,1551188820.484375
-1.49,1551188820.5
-21.96,1551188820.515625
-44.28,1551188820.53125
-65.37,1551188820.546875
-82.32,1551188820.5625
-93.17,1551188820.578125
-97.34,1551188820.59375
-95.69,1551188820.609375
-89.95,1551188820.625
-82.11,1551188820.640625
-73.76,1551188820.65625
-65.85,1551188820.671875
-58.63,1551188820.6875
-51.96,1551188820.703125
-45.63,1551188820.71875
-39.52,1551188820.734375
-33.73,1551188820.75
-28.44,1551188820.765625
-23.79,1551188820.78125
-19.7,1551188820.796875
-15.96,1551188820.8125
-12.25,1551188820.828125
-8.4,1551188820.84375
-4.45,1551188820.859375
-0.61,1551188820.875
2.84,1551188820.890625
5.78,1551188820.90625
8.29,1551188820.921875
10.58,1551188820.9375
12.81,1551188820.953125
14.98,1551188820.96875
16.82,1551188820.984375
17.88,1551188821.0
17.8,1551188821.015625
16.41,1551188821.03125
13.98,1551188821.046875
11.01,1551188821.0625
8.13,1551188821.078125
5.85,1551188821.09375
4.34,1551188821.109375
3.42,1551188821.125
2.6,1551188821.140625
1.28,1551188821.15625
-1.0,1551188821.171875
-4.39,1551188821.1875
-8.65,1551188821.203125
-13.27,1551188821.21875
-17.65,1551188821.234375
-21.33,1551188821.25
-24.2,1551188821.265625
-26.52,1551188821.28125
-28.88,1551188821.296875
-31.94,1551188821.3125
-36.27,1551188821.328125
-42.12,1551188821.34375
-49.28,1551188821.359375
-57.0,1551188821.375
-64.02,1551188821.390625
-68.82,1551188821.40625
-69.94,1551188821.421875
-66.5,1551188821.4375
-58.53,1551188821.453125
-47.12,1551188821.46875
-34.08,1551188821.484375
-21.37,1551188821.5
-10.53,1551188821.515625
-2.16,1551188821.53125
4.04,1551188821.546875
8.96,1551188821.5625
13.56,1551188821.578125
18.43,1551188821.59375
23.61,1551188821.609375
28.73,1551188821.625
33.24,1551188821.640625
36.75,1551188821.65625
39.14,1551188821.671875
40.57,1551188821.6875
41.38,1551188821.703125
41.84,1551188821.71875
42.11,1551188821.734375
42.28,1551188821.75
42.36,1551188821.765625
42.4,1551188821.78125
42.53,1551188821.796875
42.8,1551188821.8125
43.14,1551188821.828125
43.32,1551188821.84375
42.95,1551188821.859375
41.61,1551188821.875
39.08,1551188821.890625
35.44,1551188821.90625
31.02,1551188821.921875
26.39,1551188821.9375
22.15,1551188821.953125
18.68,1551188821.96875
16.09,1551188821.984375
14.1,1551188822.0
12.2,1551188822.015625
9.83,1551188822.03125
6.6,1551188822.046875
2.43,1551188822.0625
-2.4,1551188822.078125
-7.41,1551188822.09375
-12.06,1551188822.109375
-16.03,1551188822.125
-19.31,1551188822.140625
-22.2,1551188822.15625
-25.27,1551188822.171875
-29.14,1551188822.1875
-34.34,1551188822.203125
-41.07,1551188822.21875
-49.03,1551188822.234375
-57.31,1551188822.25
-64.49,1551188822.265625
-68.98,1551188822.28125
-69.44,1551188822.296875
-65.29,1551188822.3125
-56.96,1551188822.328125
-45.74,1551188822.34375
-33.4,1551188822.359375
-21.56,1551188822.375
-11.3,1551188822.390625
-2.96,1551188822.40625
3.8,1551188822.421875
9.59,1551188822.4375
15.0,1551188822.453125
20.31,1551188822.46875
25.45,1551188822.484375
30.08,1551188822.5
33.81,1551188822.515625
36.43,1551188822.53125
38.02,1551188822.546875
38.91,1551188822.5625
39.55,1551188822.578125
40.31,1551188822.59375
41.31,1551188822.609375
42.46,1551188822.625
43.55,1551188822.640625
44.46,1551188822.65625
45.19,1551188822.671875
45.82,1551188822.6875
46.42,1551188822.703125
46.86,1551188822.71875
46.82,1551188822.734375
45.96,1551188822.75
43.95,1551188822.765625
40.73,1551188822.78125
36.51,1551188822.796875
31.71,1551188822.8125
26.88,1551188822.828125
22.45,1551188822.84375
18.7,1551188822.859375
15.58,1551188822.875
12.79,1551188822.890625
9.94,1551188822.90625
6.66,1551188822.921875
2.81,1551188822.9375
-1.48,1551188822.953125
-5.88,1551188822.96875
-9.99,1551188822.984375
-13.53,1551188823.0
-16.45,1551188823.015625
-18.92,1551188823.03125
-21.33,1551188823.046875
-24.12,1551188823.0625
-27.73,1551188823.078125
-32.41,1551188823.09375
-38.2,1551188823.109375
-44.77,1551188823.125
-51.4,1551188823.140625
-57.01,1551188823.15625
-60.33,1551188823.171875
-60.32,1551188823.1875
-56.42,1551188823.203125
-48.87,1551188823.21875
-38.67,1551188823.234375
-27.33,1551188823.25
-16.42,1551188823.265625
-7.1,1551188823.28125
0.13,1551188823.296875
5.42,1551188823.3125
9.28,1551188823.328125
12.26,1551188823.34375
14.67,1551188823.359375
16.55,1551188823.375
17.76,1551188823.390625
18.26,1551188823.40625
18.21,1551188823.421875
18.05,1551188823.4375
18.25,1551188823.453125
19.15,1551188823.46875
20.75,1551188823.484375
22.7,1551188823.5
24.53,1551188823.515625
25.78,1551188823.53125
26.29,1551188823.546875
26.2,1551188823.5625
25.75,1551188823.578125
25.19,1551188823.59375
24.52,1551188823.609375
23.55,1551188823.625
22.0,1551188823.640625
19.65,1551188823.65625
16.5,1551188823.671875
12.81,1551188823.6875
8.94,1551188823.703125
5.27,1551188823.71875
2.09,1551188823.734375
-0.54,1551188823.75
-2.74,1551188823.765625
-4.87,1551188823.78125
-7.28,1551188823.796875
-10.28,1551188823.8125
-13.92,1551188823.828125
-18.01,1551188823.84375
-22.15,1551188823.859375
-25.89,1551188823.875
-28.96,1551188823.890625
-31.41,1551188823.90625
-33.62,1551188823.921875
-36.14,1551188823.9375
-39.57,1551188823.953125
-44.32,1551188823.96875
-50.56,1551188823.984375
-58.03,1551188824.0
-65.97,1551188824.015625
-73.2,1551188824.03125
-78.16,1551188824.046875
-79.39,1551188824.0625
-75.93,1551188824.078125
-67.8,1551188824.09375
-56.08,1551188824.109375
-42.61,1551188824.125
-29.42,1551188824.140625
-18.03,1551188824.15625
-9.13,1551188824.171875
-2.4,1551188824.1875
2.99,1551188824.203125
7.97,1551188824.21875
13.1,1551188824.234375
18.45,1551188824.25
23.66,1551188824.265625
28.21,1551188824.28125
31.75,1551188824.296875
34.19,1551188824.3125
35.72,1551188824.328125
36.7,1551188824.34375
37.44,1551188824.359375
38.09,1551188824.375
38.67,1551188824.390625
39.13,1551188824.40625
39.5,1551188824.421875
39.89,1551188824.4375
40.41,1551188824.453125
41.04,1551188824.46875
41.56,1551188824.484375
41.59,1551188824.5
40.79,1551188824.515625
38.97,1551188824.53125
36.21,1551188824.546875
32.74,1551188824.5625
28.91,1551188824.578125
25.0,1551188824.59375
21.22,1551188824.609375
17.76,1551188824.625
14.74,1551188824.640625
12.2,1551188824.65625
10.01,1551188824.671875
7.86,1551188824.6875
5.33,1551188824.703125
2.13,1551188824.71875
-1.8,1551188824.734375
-6.18,1551188824.75
-10.54,1551188824.765625
-14.46,1551188824.78125
-17.8,1551188824.796875
-20.76,1551188824.8125
-23.83,1551188824.828125
-27.56,1551188824.84375
-32.42,1551188824.859375
-38.59,1551188824.875
-45.84,1551188824.890625
-53.47,1551188824.90625
-60.34,1551188824.921875
-65.04,1551188824.9375
-66.25,1551188824.953125
-63.14,1551188824.96875
-55.79,1551188824.984375
-45.19,1551188825.0
-33.02,1551188825.015625
-21.1,1551188825.03125
-10.8,1551188825.046875
-2.72,1551188825.0625
3.37,1551188825.078125
8.18,1551188825.09375
12.39,1551188825.109375
16.37,1551188825.125
20.06,1551188825.140625
23.11,1551188825.15625
25.24,1551188825.171875
26.4,1551188825.1875
26.91,1551188825.203125
27.29,1551188825.21875
27.99,1551188825.234375
29.24,1551188825.25
30.93,1551188825.265625
32.7,1551188825.28125
34.18,1551188825.296875
35.15,1551188825.3125
35.61,1551188825.328125
35.75,1551188825.34375
35.76,1551188825.359375
35.65,1551188825.375
35.24,1551188825.390625
34.19,1551188825.40625
32.23,1551188825.421875
29.27,1551188825.4375
25.49,1551188825.453125
21.35,1551188825.46875
17.31,1551188825.484375
13.76,1551188825.5
10.83,1551188825.515625
8.41,1551188825.53125
6.2,1551188825.546875
3.78,1551188825.5625
0.8,1551188825.578125
-2.92,1551188825.59375
-7.32,1551188825.609375
-12.12,1551188825.625
-16.88,1551188825.640625
-21.23,1551188825.65625
-24.97,1551188825.671875
-28.21,1551188825.6875
-31.36,1551188825.703125
-34.95,1551188825.71875
-39.48,1551188825.734375
-45.24,1551188825.75
-52.12,1551188825.765625
-59.57,1551188825.78125
-66.58,1551188825.796875
-71.79,1551188825.8125
-73.84,1551188825.828125
-71.74,1551188825.84375
-65.33,1551188825.859375
-55.34,1551188825.875
-43.32,1551188825.890625
-31.03,1551188825.90625
-19.92,1551188825.921875
-10.72,1551188825.9375
-3.39,1551188825.953125
2.61,1551188825.96875
7.87,1551188825.984375
12.73,1551188826.0
17.22,1551188826.015625
21.12,1551188826.03125
24.25,1551188826.046875
26.55,1551188826.0625
28.18,1551188826.078125
29.38,1551188826.09375
30.37,1551188826.109375
31.28,1551188826.125
32.11,1551188826.140625
32.81,1551188826.15625
33.35,1551188826.171875
33.78,1551188826.1875
34.18,1551188826.203125
34.65,1551188826.21875
35.23,1551188826.234375
35.77,1551188826.25
35.93,1551188826.265625
35.33,1551188826.28125
33.61,1551188826.296875
30.61,1551188826.3125
26.53,1551188826.328125
21.82,1551188826.34375
17.14,1551188826.359375
13.1,1551188826.375
9.99,1551188826.390625
7.74,1551188826.40625
5.86,1551188826.421875
3.73,1551188826.4375
0.84,1551188826.453125
-2.95,1551188826.46875
-7.41,1551188826.484375
-12.05,1551188826.5
-16.39,1551188826.515625
-20.17,1551188826.53125
-23.45,1551188826.546875
-26.54,1551188826.5625
-29.91,1551188826.578125
-34.02,1551188826.59375
-39.26,1551188826.609375
-45.83,1551188826.625
-53.55,1551188826.640625
-61.75,1551188826.65625
-69.18,1551188826.671875
-74.17,1551188826.6875
-75.22,1551188826.703125
-71.46,1551188826.71875
-63.1,1551188826.734375
-51.39,1551188826.75
-38.25,1551188826.765625
-25.53,1551188826.78125
-14.52,1551188826.796875
-5.65,1551188826.8125
1.38,1551188826.828125
7.25,1551188826.84375
12.62,1551188826.859375
17.92,1551188826.875
23.23,1551188826.890625
28.36,1551188826.90625
33.02,1551188826.921875
36.88,1551188826.9375
39.73,1551188826.953125
41.55,1551188826.96875
42.54,1551188826.984375
43.02,1551188827.0
43.4,1551188827.015625
43.98,1551188827.03125
44.82,1551188827.046875
45.84,1551188827.0625
46.76,1551188827.078125
47.34,1551188827.09375
47.4,1551188827.109375
46.91,1551188827.125
45.89,1551188827.140625
44.38,1551188827.15625
42.34,1551188827.171875
39.67,1551188827.1875
36.34,1551188827.203125
32.41,1551188827.21875
28.18,1551188827.234375
24.03,1551188827.25
20.33,1551188827.265625
17.29,1551188827.28125
14.78,1551188827.296875
12.49,1551188827.3125
9.97,1551188827.328125
6.91,1551188827.34375
3.21,1551188827.359375
-0.97,1551188827.375
-5.32,1551188827.390625
-9.53,1551188827.40625
-13.42,1551188827.421875
-16.97,1551188827.4375
-20.32,1551188827.453125
-23.67,1551188827.46875
-27.3,1551188827.484375
-31.48,1551188827.5
-36.46,1551188827.515625
-42.3,1551188827.53125
-48.72,1551188827.546875
-54.94,1551188827.5625
-59.78,1551188827.578125
-61.87,1551188827.59375
-60.16,1551188827.609375
-54.31,1551188827.625
-44.93,1551188827.640625
-33.35,1551188827.65625
-21.27,1551188827.671875
-10.19,1551188827.6875
-0.98,1551188827.703125
6.18,1551188827.71875
11.69,1551188827.734375
16.12,1551188827.75
19.93,1551188827.765625
23.28,1551188827.78125
25.99,1551188827.796875
27.85,1551188827.8125
28.69,1551188827.828125
28.64,1551188827.84375
28.05,1551188827.859375
27.41,1551188827.875
27.12,1551188827.890625
27.33,1551188827.90625
27.92,1551188827.921875
28.64,1551188827.9375
29.18,1551188827.953125
29.38,1551188827.96875
29.24,1551188827.984375
28.84,1551188828.0
28.23,1551188828.015625
27.39,1551188828.03125
26.18,1551188828.046875
24.43,1551188828.0625
22.1,1551188828.078125
19.25,1551188828.09375
16.04,1551188828.109375
12.66,1551188828.125
9.3,1551188828.140625
6.07,1551188828.15625
3.1,1551188828.171875
0.4,1551188828.1875
-2.08,1551188828.203125
-4.53,1551188828.21875
-7.22,1551188828.234375
-10.4,1551188828.25
-14.13,1551188828.265625
-18.22,1551188828.28125
-22.31,1551188828.296875
-26.07,1551188828.3125
-29.36,1551188828.328125
-32.42,1551188828.34375
-35.76,1551188828.359375
-40.0,1551188828.375
-45.57,1551188828.390625
-52.52,1551188828.40625
-60.48,1551188828.421875
-68.57,1551188828.4375
-75.62,1551188828.453125
-80.27,1551188828.46875
-81.31,1551188828.484375
-78.02,1551188828.5
-70.42,1551188828.515625
-59.41,1551188828.53125
-46.53,1551188828.546875
-33.54,1551188828.5625
-21.9,1551188828.578125
-12.34,1551188828.59375
-4.79,1551188828.609375
1.43,1551188828.625
7.14,1551188828.640625
12.96,1551188828.65625
19.06,1551188828.671875
25.18,1551188828.6875
30.77,1551188828.703125
35.35,1551188828.71875
38.6,1551188828.734375
40.55,1551188828.75
41.52,1551188828.765625
41.95,1551188828.78125
42.32,1551188828.796875
42.93,1551188828.8125
43.88,1551188828.828125
45.03,1551188828.84375
46.14,1551188828.859375
46.89,1551188828.875
47.05,1551188828.890625
46.51,1551188828.90625
45.33,1551188828.921875
43.66,1551188828.9375
41.64,1551188828.953125
39.35,1551188828.96875
36.84,1551188828.984375
34.08,1551188829.0
31.14,1551188829.015625
28.17,1551188829.03125
25.39,1551188829.046875
22.98,1551188829.0625
20.94,1551188829.078125
19.08,1551188829.09375
17.04,1551188829.109375
14.5,1551188829.125
11.27,1551188829.140625
7.51,1551188829.15625
3.63,1551188829.171875
0.13,1551188829.1875
-2.62,1551188829.203125
-4.55,1551188829.21875
-5.98,1551188829.234375
-7.44,1551188829.25
-9.54,1551188829.265625
-12.71,1551188829.28125
-17.13,1551188829.296875
-22.64,1551188829.3125
-28.8,1551188829.328125
-34.81,1551188829.34375
-39.58,1551188829.359375
-41.76,1551188829.375
-40.04,1551188829.390625
-33.6,1551188829.40625
-22.52,1551188829.421875
-7.95,1551188829.4375
8.15,1551188829.453125
23.61,1551188829.46875
36.77,1551188829.484375
46.93,1551188829.5
54.22,1551188829.515625
59.21,1551188829.53125
62.19,1551188829.546875
62.9,1551188829.5625
60.58,1551188829.578125
54.44,1551188829.59375
44.25,1551188829.609375
30.7,1551188829.625
15.35,1551188829.640625
0.15,1551188829.65625
-13.08,1551188829.671875
-23.13,1551188829.6875
-29.59,1551188829.703125
-32.77,1551188829.71875
-33.37,1551188829.734375
-32.18,1551188829.75
-29.9,1551188829.765625
-27.08,1551188829.78125
-24.1,1551188829.796875
-21.31,1551188829.8125
-18.97,1551188829.828125
-17.27,1551188829.84375
-16.32,1551188829.859375
-16.08,1551188829.875
-16.4,1551188829.890625
-17.04,1551188829.90625
-17.71,1551188829.921875
-18.18,1551188829.9375
-18.29,1551188829.953125
-18.08,1551188829.96875
-17.76,1551188829.984375
-17.64,1551188830.0
-18.08,1551188830.015625
-19.29,1551188830.03125
-21.26,1551188830.046875
-23.75,1551188830.0625
-26.39,1551188830.078125
-28.88,1551188830.09375
-31.01,1551188830.109375
-32.82,1551188830.125
-34.49,1551188830.140625
-36.33,1551188830.15625
-38.7,1551188830.171875
-42.01,1551188830.1875
-46.58,1551188830.203125
-52.49,1551188830.21875
-59.39,1551188830.234375
-66.39,1551188830.25
-72.12,1551188830.265625
-75.04,1551188830.28125
-73.93,1551188830.296875
-68.25,1551188830.3125
-58.43,1551188830.328125
-45.77,1551188830.34375
-32.09,1551188830.359375
-19.18,1551188830.375
-8.38,1551188830.390625
-0.16,1551188830.40625
5.79,1551188830.421875
10.39,1551188830.4375
14.66,1551188830.453125
19.3,1551188830.46875
24.48,1551188830.484375
29.76,1551188830.5
34.45,1551188830.515625
37.91,1551188830.53125
39.93,1551188830.546875
40.74,1551188830.5625
40.89,1551188830.578125
41.01,1551188830.59375
41.43,1551188830.609375
42.24,1551188830.625
43.22,1551188830.640625
44.12,1551188830.65625
44.74,1551188830.671875
45.03,1551188830.6875
44.97,1551188830.703125
44.53,1551188830.71875
43.56,1551188830.734375
41.84,1551188830.75
39.21,1551188830.765625
35.65,1551188830.78125
31.41,1551188830.796875
26.94,1551188830.8125
22.75,1551188830.828125
19.24,1551188830.84375
16.53,1551188830.859375
14.44,1551188830.875
12.6,1551188830.890625
10.54,1551188830.90625
7.87,1551188830.921875
4.47,1551188830.9375
0.43,1551188830.953125
-3.96,1551188830.96875
-8.28,1551188830.984375
-12.22,1551188831.0
-15.65,1551188831.015625
-18.73,1551188831.03125
-21.84,1551188831.046875
-25.43,1551188831.0625
-29.91,1551188831.078125
-35.45,1551188831.09375
-42.03,1551188831.109375
-49.32,1551188831.125
-56.7,1551188831.140625
-63.26,1551188831.15625
-67.86,1551188831.171875
-69.3,1551188831.1875
-66.7,1551188831.203125
-59.87,1551188831.21875
-49.5,1551188831.234375
-37.09,1551188831.25
-24.49,1551188831.265625
-13.3,1551188831.28125
-4.41,1551188831.296875
2.18,1551188831.3125
7.15,1551188831.328125
11.43,1551188831.34375
15.7,1551188831.359375
20.19,1551188831.375
24.59,1551188831.390625
28.39,1551188831.40625
31.2,1551188831.421875
32.95,1551188831.4375
33.92,1551188831.453125
34.59,1551188831.46875
35.37,1551188831.484375
36.48,1551188831.5
37.86,1551188831.515625
39.29,1551188831.53125
40.51,1551188831.546875
41.39,1551188831.5625
41.92,1551188831.578125
42.15,1551188831.59375
42.05,1551188831.609375
41.52,1551188831.625
40.43,1551188831.640625
38.6,1551188831.65625
35.99,1551188831.671875
32.69,1551188831.6875
28.95,1551188831.703125
25.09,1551188831.71875
21.46,1551188831.734375
18.3,1551188831.75
15.66,1551188831.765625
13.32,1551188831.78125
10.82,1551188831.796875
7.73,1551188831.8125
3.77,1551188831.828125
-0.98,1551188831.84375
-6.11,1551188831.859375
-11.03,1551188831.875
-15.29,1551188831.890625
-18.77,1551188831.90625
-21.71,1551188831.921875
-24.66,1551188831.9375
-28.23,1551188831.953125
-32.89,1551188831.96875
-38.84,1551188831.984375
-45.92,1551188832.0
-53.5,1551188832.015625
-60.51,1551188832.03125
-65.56,1551188832.046875
-67.25,1551188832.0625
-64.68,1551188832.078125
-57.79,1551188832.09375
-47.53,1551188832.109375
-35.59,1551188832.125
-23.85,1551188832.140625
-13.74,1551188832.15625
-5.87,1551188832.171875
-0.08,1551188832.1875
4.36,1551188832.203125
8.19,1551188832.21875
11.88,1551188832.234375
15.45,1551188832.25
18.65,1551188832.265625
21.16,1551188832.28125
22.86,1551188832.296875
23.89,1551188832.3125
24.6,1551188832.328125
25.38,1551188832.34375
26.51,1551188832.359375
27.97,1551188832.375
29.55,1551188832.390625
30.93,1551188832.40625
31.84,1551188832.421875
32.2,1551188832.4375
32.1,1551188832.453125
31.69,1551188832.46875
31.11,1551188832.484375
30.34,1551188832.5
29.23,1551188832.515625
27.54,1551188832.53125
25.09,1551188832.546875
21.9,1551188832.5625
18.21,1551188832.578125
14.42,1551188832.59375
10.94,1551188832.609375
8.0,1551188832.625
5.55,1551188832.640625
3.28,1551188832.65625
0.74,1551188832.671875
-2.44,1551188832.6875
-6.41,1551188832.703125
-11.06,1551188832.71875
-16.07,1551188832.734375
-21.03,1551188832.75
-25.63,1551188832.765625
-29.7,1551188832.78125
-33.31,1551188832.796875
-36.81,1551188832.8125
-40.68,1551188832.828125
-45.45,1551188832.84375
-51.49,1551188832.859375
-58.81,1551188832.875
-66.9,1551188832.890625
-74.67,1551188832.90625
-80.67,1551188832.921875
-83.39,1551188832.9375
-81.78,1551188832.953125
-75.59,1551188832.96875
-65.52,1551188832.984375
-53.05,1551188833.0
-40.0,1551188833.015625
-27.93,1551188833.03125
-17.76,1551188833.046875
-9.54,1551188833.0625
-2.7,1551188833.078125
3.6,1551188833.09375
10.07,1551188833.109375
16.99,1551188833.125
24.11,1551188833.140625
30.91,1551188833.15625
36.75,1551188833.171875
41.22,1551188833.1875
44.23,1551188833.203125
46.09,1551188833.21875
47.31,1551188833.234375
48.36,1551188833.25
49.51,1551188833.265625
50.73,1551188833.28125
51.76,1551188833.296875
52.35,1551188833.3125
52.41,1551188833.328125
52.03,1551188833.34375
51.44,1551188833.359375
50.75,1551188833.375
49.86,1551188833.390625
48.43,1551188833.40625
46.09,1551188833.421875
42.64,1551188833.4375
38.24,1551188833.453125
33.38,1551188833.46875
28.63,1551188833.484375
24.4,1551188833.5
20.83,1551188833.515625
17.73,1551188833.53125
14.79,1551188833.546875
11.71,1551188833.5625
8.26,1551188833.578125
4.41,1551188833.59375
0.13,1551188833.609375
-4.49,1551188833.625
-9.33,1551188833.640625
-14.21,1551188833.65625
-18.93,1551188833.671875
-23.35,1551188833.6875
-27.51,1551188833.703125
-31.7,1551188833.71875
-36.39,1551188833.734375
-42.04,1551188833.75
-48.89,1551188833.765625
-56.64,1551188833.78125
-64.4,1551188833.796875
-70.82,1551188833.8125
-74.37,1551188833.828125
-73.89,1551188833.84375
-68.92,1551188833.859375
-59.95,1551188833.875
-48.26,1551188833.890625
-35.58,1551188833.90625
-23.51,1551188833.921875
-13.15,1551188833.9375
-4.81,1551188833.953125
1.8,1551188833.96875
7.37,1551188833.984375
12.52,1551188834.0
17.55,1551188834.015625
22.37,1551188834.03125
26.63,1551188834.046875
30.01,1551188834.0625
32.38,1551188834.078125
33.92,1551188834.09375
34.99,1551188834.109375
35.88,1551188834.125
36.73,1551188834.140625
37.46,1551188834.15625
37.98,1551188834.171875
38.27,1551188834.1875
38.48,1551188834.203125
38.84,1551188834.21875
39.44,1551188834.234375
40.15,1551188834.25
40.58,1551188834.265625
40.21,1551188834.28125
38.66,1551188834.296875
35.8,1551188834.3125
31.9,1551188834.328125
27.45,1551188834.34375
23.05,1551188834.359375
19.16,1551188834.375
15.96,1551188834.390625
13.26,1551188834.40625
10.67,1551188834.421875
7.68,1551188834.4375
4.02,1551188834.453125
-0.28,1551188834.46875
-4.86,1551188834.484375
-9.23,1551188834.5
-12.96,1551188834.515625
-16.01,1551188834.53125
-18.7,1551188834.546875
-21.67,1551188834.5625
-25.61,1551188834.578125
-31.03,1551188834.59375
-38.07,1551188834.609375
-46.39,1551188834.625
-55.17,1551188834.640625
-63.23,1551188834.65625
-69.16,1551188834.671875
-71.65,1551188834.6875
-69.8,1551188834.703125
-63.44,1551188834.71875
-53.25,1551188834.734375
-40.68,1551188834.75
-27.48,1551188834.765625
-15.26,1551188834.78125
-4.95,1551188834.796875
3.28,1551188834.8125
9.94,1551188834.828125
15.85,1551188834.84375
21.65,1551188834.859375
27.55,1551188834.875
33.3,1551188834.890625
38.4,1551188834.90625
42.41,1551188834.921875
45.24,1551188834.9375
47.13,1551188834.953125
48.58,1551188834.96875
50.07,1551188834.984375
51.86,1551188835.0
53.97,1551188835.015625
56.25,1551188835.03125
58.51,1551188835.046875
60.65,1551188835.0625
62.59,1551188835.078125
64.28,1551188835.09375
65.58,1551188835.109375
66.28,1551188835.125
66.25,1551188835.140625
65.51,1551188835.15625
64.39,1551188835.171875
63.41,1551188835.1875
63.18,1551188835.203125
64.09,1551188835.21875
66.13,1551188835.234375
68.69,1551188835.25
70.6,1551188835.265625
70.36,1551188835.28125
66.5,1551188835.296875
58.02,1551188835.3125
44.75,1551188835.328125
27.51,1551188835.34375
7.89,1551188835.359375
-12.08,1551188835.375
-30.56,1551188835.390625
-46.31,1551188835.40625
-58.94,1551188835.421875
-68.82,1551188835.4375
-76.73,1551188835.453125
-83.55,1551188835.46875
-89.88,1551188835.484375
-95.97,1551188835.5
-101.66,1551188835.515625
-106.46,1551188835.53125
-109.68,1551188835.546875
-110.54,1551188835.5625
-108.42,1551188835.578125
-103.09,1551188835.59375
-94.85,1551188835.609375
-84.61,1551188835.625
-73.53,1551188835.640625
-62.78,1551188835.65625
-53.06,1551188835.671875
-44.5,1551188835.6875
-36.72,1551188835.703125
-29.11,1551188835.71875
-21.2,1551188835.734375
-12.81,1551188835.75
-4.18,1551188835.765625
4.21,1551188835.78125
11.81,1551188835.796875
18.2,1551188835.8125
23.18,1551188835.828125
26.81,1551188835.84375
29.32,1551188835.859375
31.05,1551188835.875
32.36,1551188835.890625
33.6,1551188835.90625
35.03,1551188835.921875
36.75,1551188835.9375
38.71,1551188835.953125
40.65,1551188835.96875
42.18,1551188835.984375
42.87,1551188836.0
42.43,1551188836.015625
40.78,1551188836.03125
38.15,1551188836.046875
35.01,1551188836.0625
31.83,1551188836.078125
28.99,1551188836.09375
26.61,1551188836.109375
24.54,1551188836.125
22.44,1551188836.140625
20.0,1551188836.15625
17.03,1551188836.171875
13.55,1551188836.1875
9.78,1551188836.203125
5.99,1551188836.21875
2.37,1551188836.234375
-1.1,1551188836.25
-4.59,1551188836.265625
-8.36,1551188836.28125
-12.58,1551188836.296875
-17.24,1551188836.3125
-22.08,1551188836.328125
-26.7,1551188836.34375
-30.79,1551188836.359375
-34.27,1551188836.375
-37.44,1551188836.390625
-40.85,1551188836.40625
-45.18,1551188836.421875
-50.91,1551188836.4375
-58.09,1551188836.453125
-66.17,1551188836.46875
-74.03,1551188836.484375
-80.18,1551188836.5
-83.12,1551188836.515625
-81.77,1551188836.53125
-75.79,1551188836.546875
-65.81,1551188836.5625
-53.2,1551188836.578125
-39.75,1551188836.59375
-27.12,1551188836.609375
-16.45,1551188836.625
-8.06,1551188836.640625
-1.61,1551188836.65625
3.66,1551188836.671875
8.49,1551188836.6875
13.3,1551188836.703125
18.03,1551188836.71875
22.29,1551188836.734375
25.6,1551188836.75
27.68,1551188836.765625
28.6,1551188836.78125
28.84,1551188836.796875
28.98,1551188836.8125
29.53,1551188836.828125
30.69,1551188836.84375
32.34,1551188836.859375
34.19,1551188836.875
35.95,1551188836.890625
37.45,1551188836.90625
38.68,1551188836.921875
39.6,1551188836.9375
40.12,1551188836.953125
39.97,1551188836.96875
38.82,1551188836.984375
36.43,1551188837.0
32.9,1551188837.015625
28.68,1551188837.03125
24.46,1551188837.046875
20.9,1551188837.0625
18.35,1551188837.078125
16.62,1551188837.09375
15.11,1551188837.109375
13.04,1551188837.125
9.85,1551188837.140625
5.42,1551188837.15625
0.14,1551188837.171875
-5.31,1551188837.1875
-10.24,1551188837.203125
-14.32,1551188837.21875
-17.65,1551188837.234375
-20.71,1551188837.25
-24.19,1551188837.265625
-28.72,1551188837.28125
-34.65,1551188837.296875
-41.93,1551188837.3125
-49.94,1551188837.328125
-57.54,1551188837.34375
-63.29,1551188837.359375
-65.78,1551188837.375
-64.02,1551188837.390625
-57.84,1551188837.40625
-47.91,1551188837.421875
-35.66,1551188837.4375
-22.8,1551188837.453125
-10.89,1551188837.46875
-0.9,1551188837.484375
6.89,1551188837.5
12.82,1551188837.515625
17.5,1551188837.53125
21.51,1551188837.546875
25.16,1551188837.5625
28.43,1551188837.578125
31.14,1551188837.59375
33.12,1551188837.609375
34.42,1551188837.625
35.34,1551188837.640625
36.3,1551188837.65625
37.61,1551188837.671875
39.32,1551188837.6875
41.19,1551188837.703125
42.82,1551188837.71875
43.86,1551188837.734375
44.19,1551188837.75
43.91,1551188837.765625
43.27,1551188837.78125
42.44,1551188837.796875
41.43,1551188837.8125
40.05,1551188837.828125
38.03,1551188837.84375
35.22,1551188837.859375
31.64,1551188837.875
27.55,1551188837.890625
23.34,1551188837.90625
19.38,1551188837.921875
15.89,1551188837.9375
12.91,1551188837.953125
10.28,1551188837.96875
7.69,1551188837.984375
4.83,1551188838.0
1.43,1551188838.015625
-2.6,1551188838.03125
-7.19,1551188838.046875
-12.06,1551188838.0625
-16.84,1551188838.078125
-21.24,1551188838.09375
-25.19,1551188838.109375
-28.91,1551188838.125
-32.91,1551188838.140625
-37.84,1551188838.15625
-44.21,1551188838.171875
-52.15,1551188838.1875
-61.16,1551188838.203125
-70.08,1551188838.21875
-77.35,1551188838.234375
-81.33,1551188838.25
-80.83,1551188838.265625
-75.55,1551188838.28125
-66.12,1551188838.296875
-53.96,1551188838.3125
-40.79,1551188838.328125
-28.16,1551188838.34375
-17.07,1551188838.359375
-7.85,1551188838.375
-0.27,1551188838.390625
6.2,1551188838.40625
12.15,1551188838.421875
17.99,1551188838.4375
23.86,1551188838.453125
29.56,1551188838.46875
34.69,1551188838.484375
38.79,1551188838.5
41.56,1551188838.515625
43.0,1551188838.53125
43.43,1551188838.546875
43.33,1551188838.5625
43.17,1551188838.578125
43.22,1551188838.59375
43.52,1551188838.609375
43.95,1551188838.625
44.37,1551188838.640625
44.67,1551188838.65625
44.76,1551188838.671875
44.52,1551188838.6875
43.78,1551188838.703125
42.31,1551188838.71875
39.98,1551188838.734375
36.86,1551188838.75
33.19,1551188838.765625
29.32,1551188838.78125
25.58,1551188838.796875
22.13,1551188838.8125
18.94,1551188838.828125
15.88,1551188838.84375
12.78,1551188838.859375
9.56,1551188838.875
6.22,1551188838.890625
2.79,1551188838.90625
-0.69,1551188838.921875
-4.26,1551188838.9375
-7.97,1551188838.953125
-11.87,1551188838.96875
-15.91,1551188838.984375
-19.98,1551188839.0
-23.99,1551188839.015625
-27.88,1551188839.03125
-31.77,1551188839.046875
-35.81,1551188839.0625
-40.31,1551188839.078125
-45.53,1551188839.09375
-51.64,1551188839.109375
-58.48,1551188839.125
-65.47,1551188839.140625
-71.57,1551188839.15625
-75.42,1551188839.171875
-75.74,1551188839.1875
-71.83,1551188839.203125
-63.8,1551188839.21875
-52.71,1551188839.234375
-40.21,1551188839.25
-28.01,1551188839.265625
-17.37,1551188839.28125
-8.77,1551188839.296875
-2.02,1551188839.3125
3.48,1551188839.328125
8.28,1551188839.34375
12.66,1551188839.359375
16.6,1551188839.375
19.86,1551188839.390625
22.25,1551188839.40625
23.75,1551188839.421875
24.62,1551188839.4375
25.29,1551188839.453125
26.2,1551188839.46875
27.59,1551188839.484375
29.48,1551188839.5
31.62,1551188839.515625
33.68,1551188839.53125
35.37,1551188839.546875
36.55,1551188839.5625
37.19,1551188839.578125
37.33,1551188839.59375
36.96,1551188839.609375
35.92,1551188839.625
34.07,1551188839.640625
31.34,1551188839.65625
27.84,1551188839.671875
23.92,1551188839.6875
20.04,1551188839.703125
16.54,1551188839.71875
13.54,1551188839.734375
10.89,1551188839.75
8.24,1551188839.765625
5.24,1551188839.78125
1.73,1551188839.796875
-2.17,1551188839.8125
-6.15,1551188839.828125
-9.85,1551188839.84375
-13.05,1551188839.859375
-15.79,1551188839.875
-18.37,1551188839.890625
-21.3,1551188839.90625
-25.1,1551188839.921875
-30.22,1551188839.9375
-36.72,1551188839.953125
-44.2,1551188839.96875
-51.65,1551188839.984375
-57.57,1551188840.0
-60.31,1551188840.015625
-58.53,1551188840.03125
-51.75,1551188840.046875
-40.56,1551188840.0625
-26.55,1551188840.078125
-11.72,1551188840.09375
2.08,1551188840.109375
13.8,1551188840.125
23.27,1551188840.140625
31.05,1551188840.15625
37.95,1551188840.171875
44.58,1551188840.1875
51.15,1551188840.203125
57.46,1551188840.21875
63.13,1551188840.234375
67.8,1551188840.25
71.17,1551188840.265625
72.96,1551188840.28125
72.89,1551188840.296875
70.64,1551188840.3125
66.03,1551188840.328125
59.16,1551188840.34375
50.49,1551188840.359375
40.83,1551188840.375
31.11,1551188840.390625
22.13,1551188840.40625
14.4,1551188840.421875
8.02,1551188840.4375
2.81,1551188840.453125
-1.54,1551188840.46875
-5.31,1551188840.484375
-8.71,1551188840.5
-11.81,1551188840.515625
-14.66,1551188840.53125
-17.28,1551188840.546875
-19.66,1551188840.5625
-21.75,1551188840.578125
-23.49,1551188840.59375
-24.89,1551188840.609375
-26.06,1551188840.625
-27.25,1551188840.640625
-28.76,1551188840.65625
-30.81,1551188840.671875
-33.39,1551188840.6875
-36.3,1551188840.703125
-39.18,1551188840.71875
-41.69,1551188840.734375
-43.73,1551188840.75
-45.48,1551188840.765625
-47.38,1551188840.78125
-49.99,1551188840.796875
-53.79,1551188840.8125
-59.04,1551188840.828125
-65.67,1551188840.84375
-73.1,1551188840.859375
-80.26,1551188840.875
-85.71,1551188840.890625
-87.89,1551188840.90625
-85.63,1551188840.921875
-78.6,1551188840.9375
-67.51,1551188840.953125
-53.95,1551188840.96875
-39.93,1551188840.984375
-27.15,1551188841.0
-16.55,1551188841.015625
-8.14,1551188841.03125
-1.29,1551188841.046875
4.86,1551188841.0625
10.98,1551188841.078125
17.3,1551188841.09375
23.65,1551188841.109375
29.58,1551188841.125
34.61,1551188841.140625
38.43,1551188841.15625
40.92,1551188841.171875
42.29,1551188841.1875
42.92,1551188841.203125
43.28,1551188841.21875
43.77,1551188841.234375
44.59,1551188841.25
45.7,1551188841.265625
46.92,1551188841.28125
48.01,1551188841.296875
48.81,1551188841.3125
49.18,1551188841.328125
49.05,1551188841.34375
48.29,1551188841.359375
46.77,1551188841.375
44.32,1551188841.390625
40.92,1551188841.40625
36.74,1551188841.421875
32.19,1551188841.4375
27.81,1551188841.453125
24.04,1551188841.46875
21.06,1551188841.484375
18.65,1551188841.5
16.32,1551188841.515625
13.51,1551188841.53125
9.88,1551188841.546875
5.49,1551188841.5625
0.7,1551188841.578125
-3.95,1551188841.59375
-8.02,1551188841.609375
-11.4,1551188841.625
-14.29,1551188841.640625
-17.12,1551188841.65625
-20.43,1551188841.671875
-24.64,1551188841.6875
-29.99,1551188841.703125
-36.47,1551188841.71875
-43.75,1551188841.734375
-51.15,1551188841.75
-57.65,1551188841.765625
-61.98,1551188841.78125
-62.88,1551188841.796875
-59.54,1551188841.8125
-51.87,1551188841.828125
-40.71,1551188841.84375
-27.6,1551188841.859375
-14.33,1551188841.875
-2.36,1551188841.890625
7.56,1551188841.90625
15.41,1551188841.921875
21.74,1551188841.9375
27.18,1551188841.953125
32.17,1551188841.96875
36.84,1551188841.984375
41.12,1551188842.0
44.89,1551188842.015625
48.11,1551188842.03125
50.85,1551188842.046875
53.23,1551188842.0625
55.43,1551188842.078125
57.66,1551188842.09375
60.21,1551188842.109375
63.34,1551188842.125
67.3,1551188842.140625
72.19,1551188842.15625
77.96,1551188842.171875
84.27,1551188842.1875
90.51,1551188842.203125
95.7,1551188842.21875
98.57,1551188842.234375
97.69,1551188842.25
91.84,1551188842.265625
80.4,1551188842.28125
63.73,1551188842.296875
43.19,1551188842.3125
20.81,1551188842.328125
-1.28,1551188842.34375
-21.48,1551188842.359375
-38.96,1551188842.375
-53.65,1551188842.390625
-65.81,1551188842.40625
-75.68,1551188842.421875
-83.26,1551188842.4375
-88.44,1551188842.453125
-91.22,1551188842.46875
-92.01,1551188842.484375
-91.59,1551188842.5
-90.99,1551188842.515625
-91.15,1551188842.53125
-92.69,1551188842.546875
-95.74,1551188842.5625
-100.0,1551188842.578125
-104.65,1551188842.59375
-108.53,1551188842.609375
-110.23,1551188842.625
-108.41,1551188842.640625
-102.24,1551188842.65625
-91.73,1551188842.671875
-77.86,1551188842.6875
-62.34,1551188842.703125
-47.02,1551188842.71875
-33.36,1551188842.734375
-21.92,1551188842.75
-12.46,1551188842.765625
-4.27,1551188842.78125
3.38,1551188842.796875
10.76,1551188842.8125
17.72,1551188842.828125
23.8,1551188842.84375
28.62,1551188842.859375
32.09,1551188842.875
34.48,1551188842.890625
36.22,1551188842.90625
37.72,1551188842.921875
39.13,1551188842.9375
40.39,1551188842.953125
41.32,1551188842.96875
41.84,1551188842.984375
42.05,1551188843.0
42.15,1551188843.015625
42.37,1551188843.03125
42.72,1551188843.046875
42.96,1551188843.0625
42.69,1551188843.078125
41.47,1551188843.09375
39.0,1551188843.109375
35.29,1551188843.125
30.65,1551188843.140625
25.61,1551188843.15625
20.81,1551188843.171875
16.69,1551188843.1875
13.39,1551188843.203125
10.62,1551188843.21875
7.82,1551188843.234375
4.43,1551188843.25
0.15,1551188843.265625
-4.89,1551188843.28125
-10.24,1551188843.296875
-15.33,1551188843.3125
-19.86,1551188843.328125
-23.88,1551188843.34375
-27.88,1551188843.359375
-32.47,1551188843.375
-38.18,1551188843.390625
-45.33,1551188843.40625
-53.82,1551188843.421875
-63.09,1551188843.4375
-72.09,1551188843.453125
-79.36,1551188843.46875
-83.28,1551188843.484375
-82.56,1551188843.5
-76.71,1551188843.515625
-66.34,1551188843.53125
-53.04,1551188843.546875
-38.95,1551188843.5625
-26.02,1551188843.578125
-15.41,1551188843.59375
-7.3,1551188843.609375
-0.93,1551188843.625
4.82,1551188843.640625
10.91,1551188843.65625
17.76,1551188843.671875
25.18,1551188843.6875
32.57,1551188843.703125
39.26,1551188843.71875
44.75,1551188843.734375
48.91,1551188843.75
51.86,1551188843.765625
53.9,1551188843.78125
55.33,1551188843.796875
56.4,1551188843.8125
57.29,1551188843.828125
58.13,1551188843.84375
58.95,1551188843.859375
59.75,1551188843.875
60.41,1551188843.890625
60.71,1551188843.90625
60.41,1551188843.921875
59.35,1551188843.9375
57.53,1551188843.953125
55.13,1551188843.96875
52.48,1551188843.984375
49.98,1551188844.0
47.97,1551188844.015625
46.66,1551188844.03125
46.1,1551188844.046875
46.13,1551188844.0625
46.38,1551188844.078125
46.36,1551188844.09375
45.42,1551188844.109375
42.96,1551188844.125
38.53,1551188844.140625
31.93,1551188844.15625
23.3,1551188844.171875
13.04,1551188844.1875
1.73,1551188844.203125
-10.06,1551188844.21875
-21.84,1551188844.234375
-33.28,1551188844.25
-44.22,1551188844.265625
-54.69,1551188844.28125
-64.9,1551188844.296875
-75.14,1551188844.3125
-85.53,1551188844.328125
-95.82,1551188844.34375
-105.16,1551188844.359375
-112.17,1551188844.375
-115.28,1551188844.390625
-113.31,1551188844.40625
-105.95,1551188844.421875
-94.05,1551188844.4375
-79.35,1551188844.453125
-63.95,1551188844.46875
-49.64,1551188844.484375
-37.44,1551188844.5
-27.47,1551188844.515625
-19.24,1551188844.53125
-12.01,1551188844.546875
-5.19,1551188844.5625
1.49,1551188844.578125
8.01,1551188844.59375
14.14,1551188844.609375
19.65,1551188844.625
24.37,1551188844.640625
28.23,1551188844.65625
31.22,1551188844.671875
33.5,1551188844.6875
35.24,1551188844.703125
36.68,1551188844.71875
38.04,1551188844.734375
39.41,1551188844.75
40.82,1551188844.765625
42.16,1551188844.78125
43.32,1551188844.796875
44.13,1551188844.8125
44.41,1551188844.828125
43.95,1551188844.84375
42.5,1551188844.859375
39.93,1551188844.875
36.27,1551188844.890625
31.85,1551188844.90625
27.23,1551188844.921875
23.04,1551188844.9375
19.68,1551188844.953125
17.21,1551188844.96875
15.22,1551188844.984375
13.06,1551188845.0
10.1,1551188845.015625
6.0,1551188845.03125
0.85,1551188845.046875
-4.86,1551188845.0625
-10.51,1551188845.078125
-15.56,1551188845.09375
-19.84,1551188845.109375
-23.55,1551188845.125
-27.27,1551188845.140625
-31.68,1551188845.15625
-37.43,1551188845.171875
-44.79,1551188845.1875
-53.45,1551188845.203125
-62.46,1551188845.21875
-70.27,1551188845.234375
-75.14,1551188845.25
-75.61,1551188845.265625
-71.0,1551188845.28125
-61.71,1551188845.296875
-49.13,1551188845.3125
-35.18,1551188845.328125
-21.77,1551188845.34375
-10.17,1551188845.359375
-0.86,1551188845.375
6.41,1551188845.390625
12.31,1551188845.40625
17.49,1551188845.421875
22.34,1551188845.4375
26.92,1551188845.453125
31.06,1551188845.46875
34.48,1551188845.484375
37.05,1551188845.5
38.78,1551188845.515625
39.89,1551188845.53125
40.68,1551188845.546875
41.4,1551188845.5625
42.19,1551188845.578125
43.02,1551188845.59375
43.8,1551188845.609375
44.4,1551188845.625
44.77,1551188845.640625
44.92,1551188845.65625
44.89,1551188845.671875
44.6,1551188845.6875
43.92,1551188845.703125
42.6,1551188845.71875
40.45,1551188845.734375
37.37,1551188845.75
33.46,1551188845.765625
29.01,1551188845.78125
24.38,1551188845.796875
19.97,1551188845.8125
16.03,1551188845.828125
12.62,1551188845.84375
9.59,1551188845.859375
6.64,1551188845.875
3.44,1551188845.890625
-0.28,1551188845.90625
-4.57,1551188845.921875
-9.32,1551188845.9375
-14.28,1551188845.953125
-19.12,1551188845.96875
-23.6,1551188845.984375
-27.63,1551188846.0
-31.39,1551188846.015625
-35.21,1551188846.03125
-39.61,1551188846.046875
-45.05,1551188846.0625
-51.8,1551188846.078125
-59.72,1551188846.09375
-68.07,1551188846.109375
-75.55,1551188846.125
-80.54,1551188846.140625
-81.59,1551188846.15625
-77.88,1551188846.171875
-69.62,1551188846.1875
-57.92,1551188846.203125
-44.58,1551188846.21875
-31.41,1551188846.234375
-19.77,1551188846.25
-10.22,1551188846.265625
-2.56,1551188846.28125
3.94,1551188846.296875
10.1,1551188846.3125
16.44,1551188846.328125
23.04,1551188846.34375
29.54,1551188846.359375
35.35,1551188846.375
39.96,1551188846.390625
43.11,1551188846.40625
44.91,1551188846.421875
45.73,1551188846.4375
46.04,1551188846.453125
46.23,1551188846.46875
46.54,1551188846.484375
47.04,1551188846.5
47.75,1551188846.515625
48.6,1551188846.53125
49.45,1551188846.546875
50.03,1551188846.5625
49.94,1551188846.578125
48.82,1551188846.59375
46.45,1551188846.609375
42.98,1551188846.625
38.86,1551188846.640625
34.73,1551188846.65625
31.14,1551188846.671875
28.32,1551188846.6875
26.1,1551188846.703125
24.12,1551188846.71875
21.92,1551188846.734375
19.28,1551188846.75
16.15,1551188846.765625
12.68,1551188846.78125
9.09,1551188846.796875
5.53,1551188846.8125
2.06,1551188846.828125
-1.31,1551188846.84375
-4.7,1551188846.859375
-8.22,1551188846.875
-12.02,1551188846.890625
-16.19,1551188846.90625
-20.65,1551188846.921875
-25.23,1551188846.9375
-29.67,1551188846.953125
-33.82,1551188846.96875
-37.79,1551188846.984375
-42.01,1551188847.0
-47.03,1551188847.015625
-53.27,1551188847.03125
-60.6,1551188847.046875
-68.21,1551188847.0625
-74.63,1551188847.078125
-78.16,1551188847.09375
-77.42,1551188847.109375
-71.85,1551188847.125
-61.98,1551188847.140625
-49.3,1551188847.15625
-35.79,1551188847.171875
-23.29,1551188847.1875
-12.95,1551188847.203125
-5.05,1551188847.21875
0.89,1551188847.234375
5.73,1551188847.25
10.24,1551188847.265625
14.8,1551188847.28125
19.35,1551188847.296875
23.54,1551188847.3125
26.97,1551188847.328125
29.47,1551188847.34375
31.14,1551188847.359375
32.34,1551188847.375
33.48,1551188847.390625
34.79,1551188847.40625
36.29,1551188847.421875
37.76,1551188847.4375
38.95,1551188847.453125
39.71,1551188847.46875
40.05,1551188847.484375
40.19,1551188847.5
40.26,1551188847.515625
40.19,1551188847.53125
39.67,1551188847.546875
38.26,1551188847.5625
35.61,1551188847.578125
31.75,1551188847.59375
27.06,1551188847.609375
22.22,1551188847.625
17.88,1551188847.640625
14.43,1551188847.65625
11.79,1551188847.671875
9.53,1551188847.6875
7.05,1551188847.703125
3.87,1551188847.71875
-0.13,1551188847.734375
-4.73,1551188847.75
-9.45,1551188847.765625
-13.83,1551188847.78125
-17.6,1551188847.796875
-20.83,1551188847.8125
-23.93,1551188847.828125
-27.46,1551188847.84375
-31.94,1551188847.859375
-37.7,1551188847.875
-44.68,1551188847.890625
-52.44,1551188847.90625
-60.07,1551188847.921875
-66.35,1551188847.9375
-69.94,1551188847.953125
-69.74,1551188847.96875
-65.21,1551188847.984375
-56.68,1551188848.0
-45.24,1551188848.015625
-32.59,1551188848.03125
-20.46,1551188848.046875
-10.11,1551188848.0625
-2.09,1551188848.078125
3.86,1551188848.09375
8.47,1551188848.109375
12.54,1551188848.125
16.58,1551188848.140625
20.66,1551188848.15625
24.44,1551188848.171875
27.53,1551188848.1875
29.67,1551188848.203125
30.93,1551188848.21875
31.67,1551188848.234375
32.38,1551188848.25
33.39,1551188848.265625
34.74,1551188848.28125
36.25,1551188848.296875
37.63,1551188848.3125
38.65,1551188848.328125
39.27,1551188848.34375
39.57,1551188848.359375
39.59,1551188848.375
39.27,1551188848.390625
38.43,1551188848.40625
36.85,1551188848.421875
34.39,1551188848.4375
31.16,1551188848.453125
27.4,1551188848.46875
23.49,1551188848.484375
19.7,1551188848.5
16.22,1551188848.515625
13.02,1551188848.53125
9.92,1551188848.546875
6.7,1551188848.5625
3.09,1551188848.578125
-1.05,1551188848.59375
-5.72,1551188848.609375
-10.74,1551188848.625
-15.82,1551188848.640625
-20.66,1551188848.65625
-25.02,1551188848.671875
-28.88,1551188848.6875
-32.35,1551188848.703125
-35.72,1551188848.71875
-39.34,1551188848.734375
-43.61,1551188848.75
-48.9,1551188848.765625
-55.41,1551188848.78125
-62.97,1551188848.796875
-70.9,1551188848.8125
-78.0,1551188848.828125
-82.71,1551188848.84375
-83.54,1551188848.859375
-79.63,1551188848.875
-71.09,1551188848.890625
-59.05,1551188848.90625
-45.39,1551188848.921875
-32.09,1551188848.9375
-20.67,1551188848.953125
-11.8,1551188848.96875
-5.2,1551188848.984375
0.03,1551188849.0
4.99,1551188849.015625
10.47,1551188849.03125
16.68,1551188849.046875
23.24,1551188849.0625
29.38,1551188849.078125
34.36,1551188849.09375
37.79,1551188849.109375
39.75,1551188849.125
40.7,1551188849.140625
41.2,1551188849.15625
41.62,1551188849.171875
42.07,1551188849.1875
42.46,1551188849.203125
42.69,1551188849.21875
42.8,1551188849.234375
42.88,1551188849.25
43.02,1551188849.265625
43.1,1551188849.28125
42.8,1551188849.296875
41.71,1551188849.3125
39.57,1551188849.328125
36.34,1551188849.34375
32.31,1551188849.359375
27.9,1551188849.375
23.53,1551188849.390625
19.47,1551188849.40625
15.9,1551188849.421875
12.8,1551188849.4375
10.08,1551188849.453125
7.54,1551188849.46875
4.89,1551188849.484375
1.8,1551188849.5
-1.96,1551188849.515625
-6.42,1551188849.53125
-11.27,1551188849.546875
-16.09,1551188849.5625
-20.4,1551188849.578125
-24.01,1551188849.59375
-27.05,1551188849.609375
-30.01,1551188849.625
-33.55,1551188849.640625
-38.25,1551188849.65625
-44.42,1551188849.671875
-51.95,1551188849.6875
-60.25,1551188849.703125
-68.29,1551188849.71875
-74.7,1551188849.734375
-78.09,1551188849.75
-77.38,1551188849.765625
-72.19,1551188849.78125
-63.01,1551188849.796875
-51.18,1551188849.8125
-38.46,1551188849.828125
-26.52,1551188849.84375
-16.41,1551188849.859375
-8.4,1551188849.875
-2.04,1551188849.890625
3.44,1551188849.90625
8.68,1551188849.921875
13.94,1551188849.9375
19.04,1551188849.953125
23.62,1551188849.96875
27.36,1551188849.984375
30.21,1551188850.0
32.35,1551188850.015625
34.05,1551188850.03125
35.6,1551188850.046875
37.08,1551188850.0625
38.51,1551188850.078125
39.81,1551188850.09375
40.97,1551188850.109375
42.0,1551188850.125
42.94,1551188850.140625
43.71,1551188850.15625
44.19,1551188850.171875
44.15,1551188850.1875
43.33,1551188850.203125
41.59,1551188850.21875
38.86,1551188850.234375
35.29,1551188850.25
31.15,1551188850.265625
26.86,1551188850.28125
22.82,1551188850.296875
19.28,1551188850.3125
16.23,1551188850.328125
13.4,1551188850.34375
10.35,1551188850.359375
6.68,1551188850.375
2.3,1551188850.390625
-2.58,1551188850.40625
-7.49,1551188850.421875
-11.95,1551188850.4375
-15.7,1551188850.453125
-18.85,1551188850.46875
-21.77,1551188850.484375
-24.99,1551188850.5
-28.98,1551188850.515625
-34.03,1551188850.53125
-40.22,1551188850.546875
-47.36,1551188850.5625
-54.96,1551188850.578125
-62.07,1551188850.59375
-67.46,1551188850.609375
-69.74,1551188850.625
-67.88,1551188850.640625
-61.6,1551188850.65625
-51.59,1551188850.671875
-39.37,1551188850.6875
-26.83,1551188850.703125
-15.55,1551188850.71875
-6.41,1551188850.734375
0.59,1551188850.75
6.05,1551188850.765625
10.78,1551188850.78125
15.28,1551188850.796875
19.62,1551188850.8125
23.51,1551188850.828125
26.55,1551188850.84375
28.56,1551188850.859375
29.7,1551188850.875
30.39,1551188850.890625
31.12,1551188850.90625
32.21,1551188850.921875
33.66,1551188850.9375
35.26,1551188850.953125
36.7,1551188850.96875
37.75,1551188850.984375
38.4,1551188851.0
38.74,1551188851.015625
38.88,1551188851.03125
38.82,1551188851.046875
38.39,1551188851.0625
37.33,1551188851.078125
35.35,1551188851.09375
32.32,1551188851.109375
28.36,1551188851.125
23.82,1551188851.140625
19.24,1551188851.15625
15.09,1551188851.171875
11.66,1551188851.1875
8.9,1551188851.203125
6.42,1551188851.21875
3.73,1551188851.234375
0.41,1551188851.25
-3.72,1551188851.265625
-8.5,1551188851.28125
-13.58,1551188851.296875
-18.5,1551188851.3125
-22.96,1551188851.328125
-26.87,1551188851.34375
-30.4,1551188851.359375
-33.92,1551188851.375
-37.9,1551188851.390625
-42.8,1551188851.40625
-48.91,1551188851.421875
-56.22,1551188851.4375
-64.2,1551188851.453125
-71.76,1551188851.46875
-77.39,1551188851.484375
-79.56,1551188851.5
-77.2,1551188851.515625
-70.16,1551188851.53125
-59.33,1551188851.546875
-46.45,1551188851.5625
-33.46,1551188851.578125
-21.95,1551188851.59375
-12.67,1551188851.609375
-5.52,1551188851.625
0.21,1551188851.640625
5.42,1551188851.65625
10.71,1551188851.671875
16.29,1551188851.6875
21.97,1551188851.703125
27.34,1551188851.71875
31.97,1551188851.734375
35.61,1551188851.75
38.2,1551188851.765625
39.91,1551188851.78125
41.0,1551188851.796875
41.74,1551188851.8125
42.34,1551188851.828125
42.93,1551188851.84375
43.57,1551188851.859375
44.29,1551188851.875
45.1,1551188851.890625
45.92,1551188851.90625
46.62,1551188851.921875
46.9,1551188851.9375
46.41,1551188851.953125
44.87,1551188851.96875
42.17,1551188851.984375
38.48,1551188852.0
34.23,1551188852.015625
29.99,1551188852.03125
26.26,1551188852.046875
23.29,1551188852.0625
21.07,1551188852.078125
19.34,1551188852.09375
17.73,1551188852.109375
15.92,1551188852.125
13.77,1551188852.140625
11.32,1551188852.15625
8.73,1551188852.171875
6.08,1551188852.1875
3.33,1551188852.203125
0.22,1551188852.21875
-3.63,1551188852.234375
-8.61,1551188852.25
-14.98,1551188852.265625
-22.77,1551188852.28125
-31.78,1551188852.296875
-41.54,1551188852.3125
-51.22,1551188852.328125
-59.72,1551188852.34375
-65.75,1551188852.359375
-68.12,1551188852.375
-66.08,1551188852.390625
-59.67,1551188852.40625
-49.77,1551188852.421875
-37.97,1551188852.4375
-26.03,1551188852.453125
-15.46,1551188852.46875
-7.05,1551188852.484375
-0.86,1551188852.5
3.63,1551188852.515625
7.08,1551188852.53125
10.0,1551188852.546875
12.54,1551188852.5625
14.54,1551188852.578125
15.79,1551188852.59375
16.22,1551188852.609375
16.11,1551188852.625
15.98,1551188852.640625
16.43,1551188852.65625
17.77,1551188852.671875
19.92,1551188852.6875
22.42,1551188852.703125
24.71,1551188852.71875
26.36,1551188852.734375
27.28,1551188852.75
27.61,1551188852.765625
27.62,1551188852.78125
27.46,1551188852.796875
27.05,1551188852.8125
26.16,1551188852.828125
24.52,1551188852.84375
21.95,1551188852.859375
18.56,1551188852.875
14.65,1551188852.890625
10.69,1551188852.90625
7.12,1551188852.921875
4.21,1551188852.9375
1.96,1551188852.953125
0.11,1551188852.96875
-1.79,1551188852.984375
-4.15,1551188853.0
-7.2,1551188853.015625
-10.92,1551188853.03125
-15.1,1551188853.046875
-19.43,1551188853.0625
-23.63,1551188853.078125
-27.56,1551188853.09375
-31.22,1551188853.109375
-34.79,1551188853.125
-38.54,1551188853.140625
-42.86,1551188853.15625
-48.13,1551188853.171875
-54.58,1551188853.1875
-62.06,1551188853.203125
-69.9,1551188853.21875
-76.87,1551188853.234375
-81.43,1551188853.25
-82.16,1551188853.265625
-78.25,1551188853.28125
-69.85,1551188853.296875
-58.1,1551188853.3125
-44.78,1551188853.328125
-31.76,1551188853.34375
-20.42,1551188853.359375
-11.34,1551188853.375
-4.28,1551188853.390625
1.51,1551188853.40625
6.84,1551188853.421875
12.21,1551188853.4375
17.69,1551188853.453125
22.97,1551188853.46875
27.58,1551188853.484375
31.18,1551188853.5
33.65,1551188853.515625
35.21,1551188853.53125
36.17,1551188853.546875
36.85,1551188853.5625
37.45,1551188853.578125
38.03,1551188853.59375
38.58,1551188853.609375
39.13,1551188853.625
39.72,1551188853.640625
40.42,1551188853.65625
41.15,1551188853.671875
41.65,1551188853.6875
41.52,1551188853.703125
40.34,1551188853.71875
37.94,1551188853.734375
34.44,1551188853.75
30.32,1551188853.765625
26.17,1551188853.78125
22.48,1551188853.796875
19.46,1551188853.8125
16.95,1551188853.828125
14.55,1551188853.84375
11.79,1551188853.859375
8.33,1551188853.875
4.1,1551188853.890625
-0.68,1551188853.90625
-5.68,1551188853.921875
-10.49,1551188853.9375
-14.86,1551188853.953125
-18.75,1551188853.96875
-22.32,1551188853.984375
-25.94,1551188854.0
-30.05,1551188854.015625
-35.11,1551188854.03125
-41.48,1551188854.046875
-49.23,1551188854.0625
-57.87,1551188854.078125
-66.37,1551188854.09375
-73.17,1551188854.109375
-76.61,1551188854.125
-75.53,1551188854.140625
-69.7,1551188854.15625
-59.97,1551188854.171875
-48.02,1551188854.1875
-35.74,1551188854.203125
-24.64,1551188854.21875
-15.45,1551188854.234375
-8.13,1551188854.25
-2.12,1551188854.265625
3.27,1551188854.28125
8.57,1551188854.296875
13.99,1551188854.3125
19.46,1551188854.328125
24.67,1551188854.34375
29.26,1551188854.359375
32.92,1551188854.375
35.52,1551188854.390625
37.22,1551188854.40625
38.31,1551188854.421875
39.13,1551188854.4375
39.89,1551188854.453125
40.63,1551188854.46875
41.33,1551188854.484375
41.96,1551188854.5
42.62,1551188854.515625
43.38,1551188854.53125
44.17,1551188854.546875
44.7,1551188854.5625
44.47,1551188854.578125
43.03,1551188854.59375
40.18,1551188854.609375
36.16,1551188854.625
31.57,1551188854.640625
27.09,1551188854.65625
23.23,1551188854.671875
20.08,1551188854.6875
17.34,1551188854.703125
14.54,1551188854.71875
11.28,1551188854.734375
7.42,1551188854.75
3.15,1551188854.765625
-1.13,1551188854.78125
-5.05,1551188854.796875
-8.42,1551188854.8125
-11.3,1551188854.828125
-14.02,1551188854.84375
-17.07,1551188854.859375
-20.92,1551188854.875
-25.98,1551188854.890625
-32.39,1551188854.90625
-39.94,1551188854.921875
-47.92,1551188854.9375
-55.15,1551188854.953125
-60.16,1551188854.96875
-61.64,1551188854.984375
-58.83,1551188855.0
-51.92,1551188855.015625
-41.97,1551188855.03125
-30.66,1551188855.046875
-19.7,1551188855.0625
-10.33,1551188855.078125
-3.02,1551188855.09375
2.51,1551188855.109375
6.94,1551188855.125
11.04,1551188855.140625
15.22,1551188855.15625
19.48,1551188855.171875
23.47,1551188855.1875
26.74,1551188855.203125
29.02,1551188855.21875
30.34,1551188855.234375
31.05,1551188855.25
31.62,1551188855.265625
32.46,1551188855.28125
33.71,1551188855.296875
35.22,1551188855.3125
36.61,1551188855.328125
37.51,1551188855.34375
37.69,1551188855.359375
37.14,1551188855.375
36.07,1551188855.390625
34.72,1551188855.40625
33.25,1551188855.421875
31.62,1551188855.4375
29.64,1551188855.453125
27.11,1551188855.46875
23.93,1551188855.484375
20.24,1551188855.5
16.34,1551188855.515625
12.52,1551188855.53125
9.04,1551188855.546875
5.94,1551188855.5625
3.11,1551188855.578125
0.35,1551188855.59375
-2.53,1551188855.609375
-5.68,1551188855.625
-9.15,1551188855.640625
-12.91,1551188855.65625
-16.86,1551188855.671875
-20.89,1551188855.6875
-24.8,1551188855.703125
-28.52,1551188855.71875
-32.01,1551188855.734375
-35.44,1551188855.75
-39.18,1551188855.765625
-43.68,1551188855.78125
-49.4,1551188855.796875
-56.52,1551188855.8125
-64.8,1551188855.828125
-73.37,1551188855.84375
-80.83,1551188855.859375
-85.54,1551188855.875
-86.1,1551188855.890625
-81.87,1551188855.90625
-73.18,1551188855.921875
-61.32,1551188855.9375
-48.09,1551188855.953125
-35.24,1551188855.96875
-23.97,1551188855.984375
-14.7,1551188856.0
-7.17,1551188856.015625
-0.72,1551188856.03125
5.32,1551188856.046875
11.41,1551188856.0625
17.59,1551188856.078125
23.6,1551188856.09375
29.04,1551188856.109375
33.51,1551188856.125
36.79,1551188856.140625
38.92,1551188856.15625
40.19,1551188856.171875
40.97,1551188856.1875
41.62,1551188856.203125
42.37,1551188856.21875
43.26,1551188856.234375
44.25,1551188856.25
45.21,1551188856.265625
45.99,1551188856.28125
46.36,1551188856.296875
46.09,1551188856.3125
44.96,1551188856.328125
42.86,1551188856.34375
39.91,1551188856.359375
36.39,1551188856.375
32.74,1551188856.390625
29.28,1551188856.40625
26.18,1551188856.421875
23.43,1551188856.4375
20.87,1551188856.453125
18.38,1551188856.46875
15.87,1551188856.484375
13.32,1551188856.5
10.61,1551188856.515625
7.61,1551188856.53125
4.15,1551188856.546875
0.21,1551188856.5625
-4.09,1551188856.578125
-8.44,1551188856.59375
-12.51,1551188856.609375
-16.16,1551188856.625
-19.45,1551188856.640625
-22.72,1551188856.65625
-26.43,1551188856.671875
-31.03,1551188856.6875
-36.85,1551188856.703125
-43.93,1551188856.71875
-51.96,1551188856.734375
-60.13,1551188856.75
-67.22,1551188856.765625
-71.76,1551188856.78125
-72.44,1551188856.796875
-68.6,1551188856.8125
-60.54,1551188856.828125
-49.47,1551188856.84375
-37.21,1551188856.859375
-25.52,1551188856.875
-15.6,1551188856.890625
-7.79,1551188856.90625
-1.68,1551188856.921875
3.52,1551188856.9375
8.51,1551188856.953125
13.62,1551188856.96875
18.7,1551188856.984375
23.31,1551188857.0
26.98,1551188857.015625
29.48,1551188857.03125
30.93,1551188857.046875
31.71,1551188857.0625
32.29,1551188857.078125
33.04,1551188857.09375
34.09,1551188857.109375
35.3,1551188857.125
36.42,1551188857.140625
37.25,1551188857.15625
37.7,1551188857.171875
37.83,1551188857.1875
37.78,1551188857.203125
37.56,1551188857.21875
37.07,1551188857.234375
35.95,1551188857.25
33.86,1551188857.265625
30.6,1551188857.28125
26.32,1551188857.296875
21.5,1551188857.3125
16.84,1551188857.328125
12.94,1551188857.34375
10.1,1551188857.359375
8.11,1551188857.375
6.39,1551188857.390625
4.23,1551188857.40625
1.12,1551188857.421875
-3.05,1551188857.4375
-7.99,1551188857.453125
-13.18,1551188857.46875
-18.1,1551188857.484375
-22.49,1551188857.5
-26.33,1551188857.515625
-29.93,1551188857.53125
-33.73,1551188857.546875
-38.22,1551188857.5625
-43.84,1551188857.578125
-50.77,1551188857.59375
-58.79,1551188857.609375
-67.04,1551188857.625
-74.11,1551188857.640625
-78.29,1551188857.65625
-78.12,1551188857.671875
-72.95,1551188857.6875
-63.28,1551188857.703125
-50.64,1551188857.71875
-37.11,1551188857.734375
-24.55,1551188857.75
-14.11,1551188857.765625
-5.99,1551188857.78125
0.36,1551188857.796875
5.79,1551188857.8125
11.0,1551188857.828125
16.26,1551188857.84375
21.46,1551188857.859375
26.2,1551188857.875
30.07,1551188857.890625
32.83,1551188857.90625
34.52,1551188857.921875
35.39,1551188857.9375
35.82,1551188857.953125
36.2,1551188857.96875
36.78,1551188857.984375
37.63,1551188858.0
38.66,1551188858.015625
39.71,1551188858.03125
40.55,1551188858.046875
41.05,1551188858.0625
41.1,1551188858.078125
40.66,1551188858.09375
39.64,1551188858.109375
37.95,1551188858.125
35.47,1551188858.140625
32.16,1551188858.15625
28.15,1551188858.171875
23.75,1551188858.1875
19.42,1551188858.203125
15.63,1551188858.21875
12.59,1551188858.234375
10.23,1551188858.25
8.12,1551188858.265625
5.68,1551188858.28125
2.4,1551188858.296875
-1.91,1551188858.3125
-7.07,1551188858.328125
-12.58,1551188858.34375
-17.88,1551188858.359375
-22.54,1551188858.375
-26.51,1551188858.390625
-30.02,1551188858.40625
-33.59,1551188858.421875
-37.8,1551188858.4375
-43.14,1551188858.453125
-49.84,1551188858.46875
-57.77,1551188858.484375
-66.3,1551188858.5
-74.33,1551188858.515625
-80.42,1551188858.53125
-83.12,1551188858.546875
-81.45,1551188858.5625
-75.25,1551188858.578125
-65.3,1551188858.59375
-53.12,1551188858.609375
-40.46,1551188858.625
-28.77,1551188858.640625
-18.8,1551188858.65625
-10.59,1551188858.671875
-3.61,1551188858.6875
2.83,1551188858.703125
9.29,1551188858.71875
16.01,1551188858.734375
22.87,1551188858.75
29.44,1551188858.765625
35.24,1551188858.78125
