PPG GREEN,time
2092042.0,1551188781.447
2092455.0,1551188781.487
2092731.0,1551188781.529
2093036.0,1551188781.568
2093410.0,1551188781.606
2093813.0,1551188781.647
2094015.0,1551188781.686
2093310.0,1551188781.727
2092391.0,1551188781.768
2091737.0,1551188781.807
2091020.0,1551188781.847
2089896.0,1551188781.889
2088956.0,1551188781.929
2088440.0,1551188781.968
2087879.0,1551188782.007
2087333.0,1551188782.046
2086837.0,1551188782.087
2085993.0,1551188782.129
2085602.0,1551188782.167
2085297.0,1551188782.249
2085111.0,1551188782.208
2085038.0,1551188782.329
2085209.0,1551188782.288
2085609.0,1551188782.37
2085618.0,1551188782.447
2085556.0,1551188782.407
2086025.0,1551188782.488
2085711.0,1551188782.528
2083093.0,1551188782.609
2084316.0,1551188782.568
2081328.0,1551188782.648
2080521.0,1551188782.686
2079992.0,1551188782.728
2079813.0,1551188782.766
2079094.0,1551188782.807
2078515.0,1551188782.848
2078093.0,1551188782.887
2077981.0,1551188782.928
2077743.0,1551188782.969
2077915.0,1551188783.008
2078048.0,1551188783.048
2078023.0,1551188783.089
2078186.0,1551188783.129
2078090.0,1551188783.169
2078369.0,1551188783.21
2078790.0,1551188783.249
2079938.0,1551188783.287
2080376.0,1551188783.329
2081135.0,1551188783.368
2080171.0,1551188783.408
2079091.0,1551188783.449
2077792.0,1551188783.489
2076392.0,1551188783.53
2075203.0,1551188783.57
2074388.0,1551188783.609
2073987.0,1551188783.648
2073203.0,1551188783.69
2072617.0,1551188783.729
2072492.0,1551188783.768
2072378.0,1551188783.81
2072840.0,1551188783.849
2073556.0,1551188783.889
2074079.0,1551188783.931
2074680.0,1551188783.97
2075178.0,1551188784.01
2075523.0,1551188784.049
2076010.0,1551188784.088
2076791.0,1551188784.129
2077746.0,1551188784.17
2077521.0,1551188784.209
2077607.0,1551188784.249
2076351.0,1551188784.291
2074851.0,1551188784.33
2073578.0,1551188784.37
2071722.0,1551188784.448
2073048.0,1551188784.411
2070223.0,1551188784.531
2069857.0,1551188784.569
2070959.0,1551188784.489
2069415.0,1551188784.609
2068916.0,1551188784.651
2069014.0,1551188784.69
2069041.0,1551188784.731
2069553.0,1551188784.772
2070442.0,1551188784.89
2069625.0,1551188784.809
2071925.0,1551188784.97
2070831.0,1551188784.93
2072681.0,1551188785.011
2073433.0,1551188785.05
2074177.0,1551188785.09
2075064.0,1551188785.132
2076044.0,1551188785.171
2075541.0,1551188785.209
2069823.0,1551188784.849
2074783.0,1551188785.25
2074017.0,1551188785.289
2073592.0,1551188785.33
2072915.0,1551188785.371
2072496.0,1551188785.41
2072752.0,1551188785.45
2072370.0,1551188785.491
2072045.0,1551188785.531
2072082.0,1551188785.571
2071949.0,1551188785.612
2072053.0,1551188785.651
2072764.0,1551188785.691
2072795.0,1551188785.731
2073090.0,1551188785.77
2073706.0,1551188785.81
2073735.0,1551188785.851
2074377.0,1551188785.891
2074607.0,1551188785.932
2075210.0,1551188785.972
2075665.0,1551188786.011
2076199.0,1551188786.052
2075200.0,1551188786.091
2074084.0,1551188786.131
2072907.0,1551188786.17
2071278.0,1551188786.212
2070000.0,1551188786.251
2069118.0,1551188786.291
2068614.0,1551188786.333
2068361.0,1551188786.371
2068039.0,1551188786.412
2068120.0,1551188786.453
2068374.0,1551188786.49
2068819.0,1551188786.531
2070019.0,1551188786.572
2071204.0,1551188786.611
2072635.0,1551188786.651
2074734.0,1551188786.692
2076867.0,1551188786.732
2078668.0,1551188786.772
2080104.0,1551188786.813
2081517.0,1551188786.852
2082299.0,1551188786.89
2081954.0,1551188786.932
2080845.0,1551188786.971
2078778.0,1551188787.011
2077140.0,1551188787.052
2075619.0,1551188787.092
2074765.0,1551188787.133
2074085.0,1551188787.173
2073692.0,1551188787.212
2073130.0,1551188787.253
2072684.0,1551188787.292
2072167.0,1551188787.332
2072175.0,1551188787.371
2072314.0,1551188787.413
2072242.0,1551188787.452
2072333.0,1551188787.492
2072442.0,1551188787.534
2072346.0,1551188787.573
2072181.0,1551188787.613
2072453.0,1551188787.652
2072854.0,1551188787.692
2072165.0,1551188787.732
2071298.0,1551188787.773
2069708.0,1551188787.812
2068240.0,1551188787.852
2066776.0,1551188787.893
2065115.0,1551188787.933
2063729.0,1551188787.972
2062296.0,1551188788.013
2061433.0,1551188788.053
2060688.0,1551188788.093
2059799.0,1551188788.135
2059383.0,1551188788.173
2059375.0,1551188788.211
2059191.0,1551188788.253
2059223.0,1551188788.292
2059380.0,1551188788.333
2059460.0,1551188788.374
2060092.0,1551188788.413
2060293.0,1551188788.453
2060252.0,1551188788.494
2060582.0,1551188788.534
2060223.0,1551188788.572
2058804.0,1551188788.613
2057090.0,1551188788.652
2055362.0,1551188788.693
2053985.0,1551188788.734
2052701.0,1551188788.773
2051732.0,1551188788.813
2051222.0,1551188788.855
2050549.0,1551188788.894
2050176.0,1551188788.935
2050140.0,1551188788.973
2050054.0,1551188789.012
2050207.0,1551188789.053
2050311.0,1551188789.094
2050734.0,1551188789.134
2051041.0,1551188789.173
2050785.0,1551188789.215
2050590.0,1551188789.254
2050718.0,1551188789.294
2050662.0,1551188789.336
2050841.0,1551188789.373
2050632.0,1551188789.413
2049432.0,1551188789.454
2047432.0,1551188789.493
2046033.0,1551188789.534
2044272.0,1551188789.575
2043093.0,1551188789.614
2042386.0,1551188789.655
2042152.0,1551188789.696
2042061.0,1551188789.736
2041490.0,1551188789.776
2041634.0,1551188789.817
2042406.0,1551188789.856
2042609.0,1551188789.896
2042255.0,1551188789.938
2042332.0,1551188789.976
2043004.0,1551188790.016
2043543.0,1551188790.057
2043788.0,1551188790.096
2044893.0,1551188790.137
2044962.0,1551188790.177
2045570.0,1551188790.213
2046030.0,1551188790.253
2045895.0,1551188790.335
2046531.0,1551188790.295
2042732.0,1551188790.415
2044299.0,1551188790.374
2040366.0,1551188790.495
2039255.0,1551188790.575
2039498.0,1551188790.537
2041526.0,1551188790.454
2038591.0,1551188790.614
2037584.0,1551188790.694
2038099.0,1551188790.655
2037280.0,1551188790.776
2037191.0,1551188790.815
2037271.0,1551188790.855
2037466.0,1551188790.735
2037831.0,1551188790.896
2037780.0,1551188790.936
2037928.0,1551188790.976
2037598.0,1551188791.015
2037440.0,1551188791.054
2037739.0,1551188791.094
2037879.0,1551188791.136
2033295.0,1551188791.256
2034932.0,1551188791.215
2036962.0,1551188791.175
2031874.0,1551188791.296
2029067.0,1551188791.377
2027932.0,1551188791.414
2030254.0,1551188791.337
2027044.0,1551188791.455
2026347.0,1551188791.496
2025458.0,1551188791.575
2025046.0,1551188791.656
2025680.0,1551188791.536
2025331.0,1551188791.617
2025314.0,1551188791.696
2026080.0,1551188791.776
2026101.0,1551188791.815
2025806.0,1551188791.738
2026293.0,1551188791.856
2026735.0,1551188791.895
2027890.0,1551188791.977
2026991.0,1551188791.936
2027380.0,1551188792.016
2022544.0,1551188792.097
2025093.0,1551188792.056
2021108.0,1551188792.137
2020769.0,1551188792.177
2020384.0,1551188792.216
2020216.0,1551188792.255
2020218.0,1551188792.295
2020119.0,1551188792.337
2020134.0,1551188792.376
2020299.0,1551188792.416
2020491.0,1551188792.457
2020648.0,1551188792.497
2020425.0,1551188792.538
2020519.0,1551188792.576
2020505.0,1551188792.615
2020590.0,1551188792.656
2020920.0,1551188792.697
2021396.0,1551188792.737
2021552.0,1551188792.776
2021882.0,1551188792.818
2022177.0,1551188792.857
2022241.0,1551188792.897
2020995.0,1551188792.936
2019516.0,1551188792.974
2018361.0,1551188793.014
2016749.0,1551188793.057
2015286.0,1551188793.096
2014110.0,1551188793.136
2013361.0,1551188793.177
2012424.0,1551188793.216
2011075.0,1551188793.256
2010384.0,1551188793.297
2009864.0,1551188793.337
2009444.0,1551188793.377
2008932.0,1551188793.418
2008827.0,1551188793.457
2008894.0,1551188793.54
2008946.0,1551188793.616
2009368.0,1551188793.658
2008723.0,1551188793.498
2008967.0,1551188793.576
2009584.0,1551188793.697
2008892.0,1551188793.738
2006518.0,1551188793.778
2004637.0,1551188793.818
2001531.0,1551188793.899
1999542.0,1551188793.976
2000194.0,1551188793.939
2002826.0,1551188793.858
1997642.0,1551188794.057
1998351.0,1551188794.018
1996829.0,1551188794.097
1995877.0,1551188794.178
1996123.0,1551188794.139
1995974.0,1551188794.218
1996115.0,1551188794.259
1996586.0,1551188794.298
1997244.0,1551188794.339
1997890.0,1551188794.378
1998680.0,1551188794.417
1999043.0,1551188794.457
1999115.0,1551188794.499
1999144.0,1551188794.538
1996857.0,1551188794.578
1993933.0,1551188794.619
1991440.0,1551188794.658
1988574.0,1551188794.699
1986963.0,1551188794.741
1986323.0,1551188794.817
1985624.0,1551188794.777
1987421.0,1551188794.898
1987305.0,1551188794.859
1987976.0,1551188794.939
1989108.0,1551188794.979
1990100.0,1551188795.019
1990426.0,1551188795.059
1990775.0,1551188795.1
1990313.0,1551188795.138
1989599.0,1551188795.178
1989899.0,1551188795.219
1991641.0,1551188795.258
1993212.0,1551188795.298
1993428.0,1551188795.34
1993476.0,1551188795.379
1992535.0,1551188795.419
1990326.0,1551188795.46
1989001.0,1551188795.497
1988292.0,1551188795.538
1987971.0,1551188795.58
1987895.0,1551188795.618
1988010.0,1551188795.658
1988108.0,1551188795.699
1987006.0,1551188795.739
1985647.0,1551188795.779
1984707.0,1551188795.82
1983790.0,1551188795.859
1983650.0,1551188795.899
1983340.0,1551188795.941
1983425.0,1551188795.98
1983256.0,1551188796.018
1983384.0,1551188796.059
1983909.0,1551188796.099
1984057.0,1551188796.14
1984873.0,1551188796.18
1985305.0,1551188796.219
1985363.0,1551188796.26
1983759.0,1551188796.301
1981758.0,1551188796.341
1980114.0,1551188796.378
1978748.0,1551188796.42
1977187.0,1551188796.459
1976417.0,1551188796.499
1975751.0,1551188796.541
1975402.0,1551188796.58
1974518.0,1551188796.62
1973862.0,1551188796.661
1973690.0,1551188796.7
1973720.0,1551188796.741
1974240.0,1551188796.78
1974421.0,1551188796.819
1975388.0,1551188796.859
1976222.0,1551188796.901
1977426.0,1551188796.94
1978187.0,1551188796.98
1979143.0,1551188797.021
1979694.0,1551188797.06
1978540.0,1551188797.101
1976790.0,1551188797.143
1975195.0,1551188797.179
1974289.0,1551188797.219
1973707.0,1551188797.261
1974653.0,1551188797.3
1975710.0,1551188797.341
1976001.0,1551188797.381
1976922.0,1551188797.421
1978325.0,1551188797.461
1979824.0,1551188797.502
1980720.0,1551188797.54
1982121.0,1551188797.58
1984493.0,1551188797.621
1987697.0,1551188797.66
1990215.0,1551188797.7
1991812.0,1551188797.742
1993115.0,1551188797.781
1993905.0,1551188797.821
1994540.0,1551188797.863
1994060.0,1551188797.902
1993367.0,1551188797.94
1992616.0,1551188797.981
1991878.0,1551188798.023
1991929.0,1551188798.059
1993358.0,1551188798.102
1996368.0,1551188798.141
1997817.0,1551188798.18
1999357.0,1551188798.221
2000985.0,1551188798.26
2002911.0,1551188798.301
2004540.0,1551188798.343
2005345.0,1551188798.381
2005939.0,1551188798.422
2006011.0,1551188798.463
2006116.0,1551188798.502
2006053.0,1551188798.541
2005437.0,1551188798.582
2005251.0,1551188798.621
2005303.0,1551188798.661
2004699.0,1551188798.702
2002218.0,1551188798.742
2000440.0,1551188798.782
1998661.0,1551188798.823
1996923.0,1551188798.862
1995204.0,1551188798.903
1994153.0,1551188798.942
1993174.0,1551188798.981
1992107.0,1551188799.021
1991176.0,1551188799.062
1990792.0,1551188799.102
1990413.0,1551188799.143
1990246.0,1551188799.183
1990286.0,1551188799.222
1990466.0,1551188799.263
1990653.0,1551188799.304
1990993.0,1551188799.342
1991266.0,1551188799.381
1991250.0,1551188799.422
1991684.0,1551188799.462
1991667.0,1551188799.502
1989861.0,1551188799.544
1986588.0,1551188799.582
1983757.0,1551188799.623
1981732.0,1551188799.664
1979848.0,1551188799.701
1978762.0,1551188799.742
1977925.0,1551188799.783
1977294.0,1551188799.822
1976542.0,1551188799.862
1976234.0,1551188799.903
1975496.0,1551188799.943
1975501.0,1551188799.983
1975564.0,1551188800.024
1975677.0,1551188800.063
1976069.0,1551188800.102
1976416.0,1551188800.144
1976989.0,1551188800.182
1977496.0,1551188800.222
1978224.0,1551188800.264
1978571.0,1551188800.303
1978630.0,1551188800.344
1976682.0,1551188800.384
1974561.0,1551188800.424
1973059.0,1551188800.464
1971808.0,1551188800.503
1971105.0,1551188800.543
1971296.0,1551188800.582
1971680.0,1551188800.623
1971962.0,1551188800.662
1972345.0,1551188800.702
1973085.0,1551188800.744
1974082.0,1551188800.783
1974550.0,1551188800.823
1974680.0,1551188800.865
1974324.0,1551188800.904
1974550.0,1551188800.945
1975244.0,1551188800.985
1976182.0,1551188801.022
1977069.0,1551188801.063
1978109.0,1551188801.104
1977800.0,1551188801.144
1975769.0,1551188801.183
1974024.0,1551188801.225
1972856.0,1551188801.264
1971700.0,1551188801.304
1970688.0,1551188801.346
1970301.0,1551188801.384
1969992.0,1551188801.423
1968953.0,1551188801.464
1968205.0,1551188801.503
1967970.0,1551188801.544
1967908.0,1551188801.585
1968445.0,1551188801.624
1968555.0,1551188801.665
1968981.0,1551188801.706
1969516.0,1551188801.746
1969812.0,1551188801.785
1970487.0,1551188801.826
1971439.0,1551188801.865
1971859.0,1551188801.905
1971458.0,1551188801.947
1969146.0,1551188801.986
1966807.0,1551188802.026
1965142.0,1551188802.067
1963372.0,1551188802.105
1961620.0,1551188802.146
1960624.0,1551188802.186
1959825.0,1551188802.223
1959245.0,1551188802.264
1958957.0,1551188802.305
1958525.0,1551188802.345
1958713.0,1551188802.384
1958902.0,1551188802.426
1959322.0,1551188802.465
1959669.0,1551188802.505
1960355.0,1551188802.547
1960923.0,1551188802.586
1961989.0,1551188802.624
1964427.0,1551188802.665
1965738.0,1551188802.704
1967063.0,1551188802.745
1966897.0,1551188802.786
1964839.0,1551188802.825
1963105.0,1551188802.865
1962112.0,1551188802.907
1961255.0,1551188802.946
1959894.0,1551188802.986
1959105.0,1551188803.025
1959525.0,1551188803.064
1959778.0,1551188803.105
1960252.0,1551188803.146
1960869.0,1551188803.185
1961515.0,1551188803.225
1962420.0,1551188803.266
1963433.0,1551188803.305
1964587.0,1551188803.346
1965781.0,1551188803.387
1967009.0,1551188803.426
1968054.0,1551188803.466
1969050.0,1551188803.505
1970475.0,1551188803.545
1972249.0,1551188803.585
1973229.0,1551188803.626
1973209.0,1551188803.665
1971747.0,1551188803.706
1970154.0,1551188803.748
1969091.0,1551188803.786
1968018.0,1551188803.826
1967151.0,1551188803.868
1966925.0,1551188803.905
1966399.0,1551188803.946
1965750.0,1551188803.986
1965632.0,1551188804.025
1965410.0,1551188804.066
1965775.0,1551188804.107
1966155.0,1551188804.147
1966830.0,1551188804.186
1969093.0,1551188804.228
1972683.0,1551188804.267
1976125.0,1551188804.305
1979147.0,1551188804.347
1981780.0,1551188804.386
1983598.0,1551188804.426
1985170.0,1551188804.467
1986110.0,1551188804.506
1984980.0,1551188804.547
1982927.0,1551188804.588
1980564.0,1551188804.627
1978960.0,1551188804.665
1977428.0,1551188804.707
1976387.0,1551188804.747
1975974.0,1551188804.786
1976027.0,1551188804.827
1975732.0,1551188804.867
1975637.0,1551188804.907
1976041.0,1551188804.949
1976248.0,1551188804.987
1976872.0,1551188805.028
1977225.0,1551188805.067
1977439.0,1551188805.106
1977995.0,1551188805.147
1978201.0,1551188805.188
1978918.0,1551188805.227
1979667.0,1551188805.267
1980749.0,1551188805.308
1981904.0,1551188805.348
1981998.0,1551188805.388
1980389.0,1551188805.429
1978892.0,1551188805.466
1977985.0,1551188805.506
1977550.0,1551188805.548
1976867.0,1551188805.587
1976018.0,1551188805.627
1976125.0,1551188805.669
1976240.0,1551188805.711
1976204.0,1551188805.746
1976794.0,1551188805.788
1978832.0,1551188805.826
1980825.0,1551188805.867
1982776.0,1551188805.908
1984414.0,1551188805.948
1986631.0,1551188805.987
1988871.0,1551188806.029
1990584.0,1551188806.068
1992064.0,1551188806.108
1993330.0,1551188806.15
1994634.0,1551188806.188
1994554.0,1551188806.227
1993309.0,1551188806.268
1991508.0,1551188806.307
1990413.0,1551188806.348
1989665.0,1551188806.389
1988667.0,1551188806.428
1988506.0,1551188806.468
1987839.0,1551188806.51
1986936.0,1551188806.549
1986316.0,1551188806.589
1986191.0,1551188806.628
1985913.0,1551188806.667
1986179.0,1551188806.708
1986622.0,1551188806.75
1986926.0,1551188806.788
1987487.0,1551188806.828
1988071.0,1551188806.87
1988729.0,1551188806.909
1989209.0,1551188806.95
1989739.0,1551188806.988
1990178.0,1551188807.028
1989481.0,1551188807.068
1987043.0,1551188807.109
1984544.0,1551188807.149
1982409.0,1551188807.189
1980684.0,1551188807.23
1978940.0,1551188807.269
1977377.0,1551188807.309
1976325.0,1551188807.351
1975215.0,1551188807.388
1974329.0,1551188807.428
1973808.0,1551188807.469
1973683.0,1551188807.508
1973636.0,1551188807.549
1973691.0,1551188807.59
1974255.0,1551188807.629
1974742.0,1551188807.67
1975406.0,1551188807.711
1975888.0,1551188807.749
1976795.0,1551188807.788
1977961.0,1551188807.83
1978701.0,1551188807.869
1978684.0,1551188807.909
1976626.0,1551188807.951
1975030.0,1551188807.989
1974009.0,1551188808.03
1973510.0,1551188808.071
1972705.0,1551188808.11
1972634.0,1551188808.149
1972453.0,1551188808.19
1972609.0,1551188808.229
1973329.0,1551188808.269
1974206.0,1551188808.31
1975082.0,1551188808.35
1976378.0,1551188808.39
1977935.0,1551188808.431
1979403.0,1551188808.47
1980415.0,1551188808.51
1981169.0,1551188808.552
1982118.0,1551188808.589
1983568.0,1551188808.629
1984643.0,1551188808.67
1983824.0,1551188808.709
1981792.0,1551188808.75
1979820.0,1551188808.791
1978535.0,1551188808.83
1977252.0,1551188808.87
1976059.0,1551188808.912
1975201.0,1551188808.95
1974413.0,1551188808.989
1973155.0,1551188809.031
1972181.0,1551188809.07
1971194.0,1551188809.11
1970881.0,1551188809.152
1970397.0,1551188809.19
1970001.0,1551188809.231
1969668.0,1551188809.272
1969093.0,1551188809.311
1969324.0,1551188809.35
1969775.0,1551188809.391
1969880.0,1551188809.43
1970287.0,1551188809.47
1968867.0,1551188809.511
1966150.0,1551188809.551
1963641.0,1551188809.591
1961533.0,1551188809.632
1959087.0,1551188809.671
1956887.0,1551188809.712
1955645.0,1551188809.751
1954366.0,1551188809.79
1953367.0,1551188809.83
1952008.0,1551188809.871
1951136.0,1551188809.911
1950778.0,1551188809.952
1950354.0,1551188809.992
1950529.0,1551188810.031
1950725.0,1551188810.072
1950792.0,1551188810.113
1951183.0,1551188810.151
1952321.0,1551188810.19
1953417.0,1551188810.232
1953774.0,1551188810.271
1952944.0,1551188810.311
1951801.0,1551188810.353
1951667.0,1551188810.391
1951453.0,1551188810.432
1950564.0,1551188810.473
1949889.0,1551188810.512
1949307.0,1551188810.551
1949121.0,1551188810.592
1948108.0,1551188810.631
1947502.0,1551188810.671
1947145.0,1551188810.712
1947214.0,1551188810.752
1947426.0,1551188810.792
1947949.0,1551188810.831
1948463.0,1551188810.871
1948769.0,1551188810.911
1949247.0,1551188810.952
1949612.0,1551188810.991
1949833.0,1551188811.031
1950011.0,1551188811.072
1950198.0,1551188811.112
1948743.0,1551188811.153
1946255.0,1551188811.193
1943695.0,1551188811.232
1941709.0,1551188811.273
1940290.0,1551188811.314
1938892.0,1551188811.352
1938240.0,1551188811.391
1937761.0,1551188811.433
1937061.0,1551188811.472
1936245.0,1551188811.512
1936418.0,1551188811.554
1936508.0,1551188811.592
1936872.0,1551188811.633
1938035.0,1551188811.713
1938904.0,1551188811.752
1937709.0,1551188811.674
1940266.0,1551188811.832
1939707.0,1551188811.793
1942375.0,1551188811.913
1941346.0,1551188811.872
1943637.0,1551188811.953
1942708.0,1551188811.993
1940361.0,1551188812.034
1938385.0,1551188812.073
1937244.0,1551188812.113
1936216.0,1551188812.153
1935179.0,1551188812.192
1935222.0,1551188812.232
1935390.0,1551188812.273
1935526.0,1551188812.313
1936005.0,1551188812.354
1936247.0,1551188812.394
1936692.0,1551188812.433
1936615.0,1551188812.474
1936820.0,1551188812.515
1937466.0,1551188812.553
1938089.0,1551188812.592
1938937.0,1551188812.634
1939770.0,1551188812.673
1940562.0,1551188812.713
1941464.0,1551188812.755
1942448.0,1551188812.793
1943332.0,1551188812.834
1942301.0,1551188812.875
1940153.0,1551188812.914
1938899.0,1551188812.953
1937947.0,1551188812.994
1936947.0,1551188813.033
1936702.0,1551188813.073
1936468.0,1551188813.114
1936121.0,1551188813.154
1935680.0,1551188813.194
1935488.0,1551188813.235
1935716.0,1551188813.274
1935740.0,1551188813.314
1936270.0,1551188813.354
1936596.0,1551188813.393
1937304.0,1551188813.433
1937916.0,1551188813.474
1938802.0,1551188813.513
1939477.0,1551188813.554
1940220.0,1551188813.595
1941307.0,1551188813.634
1942195.0,1551188813.676
1941493.0,1551188813.717
1938990.0,1551188813.757
1937248.0,1551188813.796
1935539.0,1551188813.837
1934256.0,1551188813.876
1932714.0,1551188813.916
1932107.0,1551188813.958
1931577.0,1551188813.996
1931063.0,1551188814.036
1930795.0,1551188814.077
1931637.0,1551188814.116
1932585.0,1551188814.155
1933241.0,1551188814.196
1933841.0,1551188814.235
1934160.0,1551188814.275
1934602.0,1551188814.316
1936080.0,1551188814.356
1938004.0,1551188814.396
1938917.0,1551188814.437
1939571.0,1551188814.476
1940423.0,1551188814.517
1941070.0,1551188814.556
1940456.0,1551188814.595
1940357.0,1551188814.635
1939711.0,1551188814.677
1939245.0,1551188814.716
1938569.0,1551188814.757
1938275.0,1551188814.797
1938103.0,1551188814.837
1938258.0,1551188814.877
1938104.0,1551188814.916
1938194.0,1551188814.956
1938606.0,1551188814.995
1939114.0,1551188815.037
1940023.0,1551188815.076
1940529.0,1551188815.116
1941704.0,1551188815.158
1942352.0,1551188815.197
1943336.0,1551188815.237
1944374.0,1551188815.278
1945577.0,1551188815.315
1946656.0,1551188815.356
1947923.0,1551188815.397
1949133.0,1551188815.436
1949366.0,1551188815.476
1947720.0,1551188815.518
1946282.0,1551188815.557
1945330.0,1551188815.597
1944695.0,1551188815.638
1944023.0,1551188815.678
1944206.0,1551188815.716
1943973.0,1551188815.758
1943912.0,1551188815.796
1943684.0,1551188815.836
1943859.0,1551188815.878
1944070.0,1551188815.917
1944709.0,1551188815.956
1945368.0,1551188815.997
1946081.0,1551188816.036
1947706.0,1551188816.117
1949860.0,1551188816.196
1946838.0,1551188816.076
1948825.0,1551188816.157
1951535.0,1551188816.238
1952787.0,1551188816.277
1953696.0,1551188816.317
1952945.0,1551188816.359
1951761.0,1551188816.398
1950715.0,1551188816.438
1950747.0,1551188816.479
1951399.0,1551188816.516
1952118.0,1551188816.557
1952976.0,1551188816.598
1953663.0,1551188816.637
1954543.0,1551188816.677
1955435.0,1551188816.719
1956324.0,1551188816.759
1956958.0,1551188816.798
1957882.0,1551188816.839
1958980.0,1551188816.879
1961551.0,1551188816.959
1960231.0,1551188816.917
1964714.0,1551188817.037
1963120.0,1551188816.997
1966401.0,1551188817.079
1967600.0,1551188817.118
1966948.0,1551188817.159
1965013.0,1551188817.199
1962683.0,1551188817.239
1960763.0,1551188817.279
1959130.0,1551188817.318
1956129.0,1551188817.398
1955674.0,1551188817.439
1955104.0,1551188817.478
1954686.0,1551188817.518
1955520.0,1551188817.599
1954859.0,1551188817.56
1957172.0,1551188817.358
1956545.0,1551188817.639
1958745.0,1551188817.719
1959610.0,1551188817.758
1957878.0,1551188817.68
1960663.0,1551188817.799
1961410.0,1551188817.838
1962012.0,1551188817.878
1962601.0,1551188817.92
1963221.0,1551188817.96
1963471.0,1551188817.999
1961652.0,1551188818.04
1958983.0,1551188818.08
1957160.0,1551188818.118
1955087.0,1551188818.16
1952895.0,1551188818.198
1951620.0,1551188818.238
1951257.0,1551188818.28
1950661.0,1551188818.319
1949963.0,1551188818.36
1949493.0,1551188818.401
1949132.0,1551188818.44
1949257.0,1551188818.48
1949702.0,1551188818.518
1950237.0,1551188818.559
1950771.0,1551188818.598
1951508.0,1551188818.639
1951951.0,1551188818.678
1952691.0,1551188818.719
1953551.0,1551188818.761
1954698.0,1551188818.799
1955549.0,1551188818.839
1955151.0,1551188818.881
1953169.0,1551188818.92
1951481.0,1551188818.961
1950230.0,1551188819.001
1949089.0,1551188819.038
1948180.0,1551188819.079
1948040.0,1551188819.12
1947731.0,1551188819.16
1947133.0,1551188819.2
1946723.0,1551188819.241
1946774.0,1551188819.28
1947125.0,1551188819.32
1947529.0,1551188819.362
1947980.0,1551188819.401
1948679.0,1551188819.439
1949559.0,1551188819.48
1950049.0,1551188819.519
1950905.0,1551188819.56
1951563.0,1551188819.601
1952392.0,1551188819.64
1953121.0,1551188819.68
1952365.0,1551188819.722
1950667.0,1551188819.762
1948387.0,1551188819.799
1947005.0,1551188819.84
1945533.0,1551188819.88
1944697.0,1551188819.92
1943974.0,1551188819.962
1943670.0,1551188820.0
1943508.0,1551188820.041
1943179.0,1551188820.082
1942946.0,1551188820.121
1943356.0,1551188820.162
1943599.0,1551188820.201
1944204.0,1551188820.24
1944878.0,1551188820.28
1945781.0,1551188820.321
1946337.0,1551188820.361
1947264.0,1551188820.4
1948481.0,1551188820.442
1949524.0,1551188820.481
1950397.0,1551188820.521
1950941.0,1551188820.563
1949197.0,1551188820.601
1946959.0,1551188820.642
1945161.0,1551188820.681
1943522.0,1551188820.72
1942040.0,1551188820.761
1941202.0,1551188820.802
1941047.0,1551188820.841
1940388.0,1551188820.881
1939926.0,1551188820.922
1939922.0,1551188820.962
1940314.0,1551188821.002
1940828.0,1551188821.043
1941795.0,1551188821.08
1943423.0,1551188821.121
1945540.0,1551188821.162
1946560.0,1551188821.2
1947459.0,1551188821.241
1948410.0,1551188821.282
1949472.0,1551188821.321
1950776.0,1551188821.362
1951880.0,1551188821.403
1952205.0,1551188821.442
1950771.0,1551188821.482
1949165.0,1551188821.523
1947321.0,1551188821.601
1948058.0,1551188821.563
1946507.0,1551188821.642
1946330.0,1551188821.681
1945936.0,1551188821.763
1946111.0,1551188821.721
1945650.0,1551188821.802
1946426.0,1551188821.883
1946277.0,1551188821.842
1947810.0,1551188821.964
1949414.0,1551188822.041
1950003.0,1551188822.081
1948706.0,1551188822.002
1946995.0,1551188821.923
1951282.0,1551188822.123
1952378.0,1551188822.163
1953574.0,1551188822.202
1954983.0,1551188822.243
1956068.0,1551188822.283
1955063.0,1551188822.323
1953196.0,1551188822.365
1951576.0,1551188822.401
1950420.0,1551188822.442
1948963.0,1551188822.483
1948142.0,1551188822.522
1947652.0,1551188822.563
1947224.0,1551188822.604
1946927.0,1551188822.643
1946712.0,1551188822.683
1946997.0,1551188822.725
1947463.0,1551188822.762
1947793.0,1551188822.802
1948749.0,1551188822.843
1949354.0,1551188822.882
1950489.0,1551188822.923
1951693.0,1551188822.965
1952596.0,1551188823.003
1953931.0,1551188823.043
1955401.0,1551188823.085
1956866.0,1551188823.124
1957807.0,1551188823.163
1957157.0,1551188823.203
1955816.0,1551188823.242
1954645.0,1551188823.283
1953696.0,1551188823.324
1952821.0,1551188823.364
1952077.0,1551188823.403
1952025.0,1551188823.445
1951840.0,1551188823.484
1951650.0,1551188823.524
1951608.0,1551188823.564
1952547.0,1551188823.603
1953527.0,1551188823.643
1954012.0,1551188823.684
1954040.0,1551188823.723
1954524.0,1551188823.764
1955869.0,1551188823.805
1957256.0,1551188823.844
1958795.0,1551188823.884
1960648.0,1551188823.925
1961871.0,1551188823.963
1963177.0,1551188824.003
1964555.0,1551188824.044
1964174.0,1551188824.083
1963001.0,1551188824.124
1961861.0,1551188824.166
1961581.0,1551188824.204
1961381.0,1551188824.244
1961578.0,1551188824.286
1962103.0,1551188824.325
1962086.0,1551188824.364
1962446.0,1551188824.404
1962669.0,1551188824.443
1963169.0,1551188824.484
1964040.0,1551188824.525
1964924.0,1551188824.565
1965776.0,1551188824.604
1966980.0,1551188824.646
1967873.0,1551188824.685
1969025.0,1551188824.725
1970120.0,1551188824.765
1971451.0,1551188824.804
1972640.0,1551188824.844
1974066.0,1551188824.885
1975191.0,1551188824.924
1974915.0,1551188824.965
1973415.0,1551188825.006
1972144.0,1551188825.045
1971486.0,1551188825.085
1970477.0,1551188825.127
1969563.0,1551188825.164
1969439.0,1551188825.204
1969546.0,1551188825.245
1969341.0,1551188825.284
1969350.0,1551188825.325
1969744.0,1551188825.367
1970209.0,1551188825.405
1970759.0,1551188825.445
1971469.0,1551188825.487
1972431.0,1551188825.526
1972921.0,1551188825.565
1973576.0,1551188825.605
1974495.0,1551188825.644
1975367.0,1551188825.685
1976409.0,1551188825.726
1977494.0,1551188825.765
1978526.0,1551188825.805
1978668.0,1551188825.846
1976845.0,1551188825.885
1975482.0,1551188825.925
1974393.0,1551188825.967
1972460.0,1551188826.005
1970811.0,1551188826.045
1969967.0,1551188826.086
1969992.0,1551188826.125
1970676.0,1551188826.166
1971000.0,1551188826.206
1971759.0,1551188826.245
1972198.0,1551188826.286
1972756.0,1551188826.325
1973391.0,1551188826.365
1974328.0,1551188826.404
1975172.0,1551188826.445
1975988.0,1551188826.485
1976910.0,1551188826.525
1977821.0,1551188826.567
1978928.0,1551188826.605
1980805.0,1551188826.646
1981939.0,1551188826.687
1982034.0,1551188826.724
1980815.0,1551188826.765
1979611.0,1551188826.806
1979068.0,1551188826.845
1978155.0,1551188826.885
1977339.0,1551188826.926
1977246.0,1551188826.966
1977392.0,1551188827.006
1977064.0,1551188827.047
1977090.0,1551188827.086
1977100.0,1551188827.124
1977334.0,1551188827.166
1977954.0,1551188827.205
1978633.0,1551188827.245
1979663.0,1551188827.286
1980211.0,1551188827.325
1980994.0,1551188827.366
1981712.0,1551188827.407
1982487.0,1551188827.446
1983456.0,1551188827.486
1984414.0,1551188827.526
1985104.0,1551188827.566
1984169.0,1551188827.605
1982466.0,1551188827.646
1981078.0,1551188827.686
1980226.0,1551188827.726
1979163.0,1551188827.768
1978053.0,1551188827.806
1977649.0,1551188827.847
1977627.0,1551188827.888
1977050.0,1551188827.925
1977037.0,1551188827.966
1976632.0,1551188828.007
1976307.0,1551188828.046
1975713.0,1551188828.086
1975777.0,1551188828.127
1976751.0,1551188828.167
1978055.0,1551188828.207
1979207.0,1551188828.248
1980209.0,1551188828.287
1980965.0,1551188828.325
1981944.0,1551188828.367
1982914.0,1551188828.406
1983747.0,1551188828.446
1983734.0,1551188828.487
1982108.0,1551188828.527
1980585.0,1551188828.568
1979776.0,1551188828.608
1979172.0,1551188828.647
1978192.0,1551188828.686
1978161.0,1551188828.727
1978138.0,1551188828.766
1977692.0,1551188828.806
1977780.0,1551188828.847
1977769.0,1551188828.886
1978182.0,1551188828.926
1978642.0,1551188828.968
1979637.0,1551188829.006
1980126.0,1551188829.047
1981041.0,1551188829.086
1981719.0,1551188829.125
1982818.0,1551188829.165
1983681.0,1551188829.206
1984562.0,1551188829.245
1985494.0,1551188829.285
1986721.0,1551188829.326
1986786.0,1551188829.366
1985138.0,1551188829.405
1983209.0,1551188829.446
1982124.0,1551188829.485
1980734.0,1551188829.525
1979697.0,1551188829.567
1978840.0,1551188829.605
1978498.0,1551188829.645
1978120.0,1551188829.686
1977728.0,1551188829.725
1977676.0,1551188829.766
1977871.0,1551188829.806
1978126.0,1551188829.845
1978556.0,1551188829.885
1979182.0,1551188829.926
1979860.0,1551188829.966
1980402.0,1551188830.006
1981080.0,1551188830.047
1982011.0,1551188830.086
1982892.0,1551188830.126
1983659.0,1551188830.167
1984616.0,1551188830.206
1985390.0,1551188830.246
1985043.0,1551188830.287
1983367.0,1551188830.326
1981966.0,1551188830.366
1981101.0,1551188830.407
1980483.0,1551188830.446
1979627.0,1551188830.486
1979310.0,1551188830.528
1978956.0,1551188830.568
1978582.0,1551188830.608
1978521.0,1551188830.648
1978644.0,1551188830.687
1978992.0,1551188830.728
1979212.0,1551188830.769
1979958.0,1551188830.808
1980689.0,1551188830.848
1981282.0,1551188830.89
1981873.0,1551188830.929
1982548.0,1551188830.97
1983379.0,1551188831.01
1984389.0,1551188831.049
1985659.0,1551188831.088
1986703.0,1551188831.129
1987065.0,1551188831.169
1985421.0,1551188831.208
1983917.0,1551188831.25
1982959.0,1551188831.289
1981821.0,1551188831.327
1981066.0,1551188831.37
1980549.0,1551188831.408
1980676.0,1551188831.448
1980505.0,1551188831.489
1979963.0,1551188831.528
1979991.0,1551188831.569
1980137.0,1551188831.61
1980820.0,1551188831.649
1981199.0,1551188831.689
1981530.0,1551188831.731
1982206.0,1551188831.77
1982708.0,1551188831.81
1983527.0,1551188831.849
1984330.0,1551188831.889
1985112.0,1551188831.929
1985859.0,1551188831.971
1986857.0,1551188832.009
1987838.0,1551188832.05
1987197.0,1551188832.091
1985603.0,1551188832.13
1984379.0,1551188832.171
1983210.0,1551188832.21
1982218.0,1551188832.249
1981106.0,1551188832.289
1981013.0,1551188832.33
1980754.0,1551188832.37
1981376.0,1551188832.41
1982532.0,1551188832.451
1983458.0,1551188832.49
1984744.0,1551188832.531
1986265.0,1551188832.573
1988062.0,1551188832.609
1989431.0,1551188832.649
1990400.0,1551188832.69
1990906.0,1551188832.73
1991316.0,1551188832.771
1991949.0,1551188832.811
1992260.0,1551188832.85
1992682.0,1551188832.891
1993115.0,1551188832.932
1992097.0,1551188832.972
1990674.0,1551188833.009
1989755.0,1551188833.05
1988918.0,1551188833.09
1988237.0,1551188833.13
1987879.0,1551188833.172
1987907.0,1551188833.21
1987948.0,1551188833.251
1987995.0,1551188833.292
1988345.0,1551188833.331
1988844.0,1551188833.372
1989763.0,1551188833.411
1990218.0,1551188833.45
1991242.0,1551188833.49
1991870.0,1551188833.531
1993070.0,1551188833.571
1993731.0,1551188833.611
1994874.0,1551188833.652
1995732.0,1551188833.691
1996549.0,1551188833.732
1997694.0,1551188833.774
1998392.0,1551188833.81
1997482.0,1551188833.85
1995738.0,1551188833.891
1994846.0,1551188833.93
1993668.0,1551188833.971
1992536.0,1551188834.011
1991662.0,1551188834.051
1991756.0,1551188834.091
1991784.0,1551188834.132
1992106.0,1551188834.172
1992694.0,1551188834.212
1993022.0,1551188834.253
1993825.0,1551188834.292
1994281.0,1551188834.332
1994756.0,1551188834.372
1995120.0,1551188834.411
1995671.0,1551188834.451
1996352.0,1551188834.492
1996618.0,1551188834.531
1997262.0,1551188834.572
1997989.0,1551188834.613
1998567.0,1551188834.652
1999606.0,1551188834.692
1998901.0,1551188834.732
1997375.0,1551188834.772
1995900.0,1551188834.811
1995050.0,1551188834.852
1994301.0,1551188834.892
1993681.0,1551188834.932
1993379.0,1551188834.974
1993005.0,1551188835.012
1992857.0,1551188835.053
1992763.0,1551188835.094
1992858.0,1551188835.131
1993104.0,1551188835.172
1993511.0,1551188835.213
1994052.0,1551188835.252
1994741.0,1551188835.292
1995463.0,1551188835.333
1995979.0,1551188835.373
1996711.0,1551188835.413
1997483.0,1551188835.454
1998753.0,1551188835.493
1999717.0,1551188835.531
1999807.0,1551188835.573
1998600.0,1551188835.612
1997514.0,1551188835.652
1996568.0,1551188835.693
1995886.0,1551188835.733
1994824.0,1551188835.774
1994465.0,1551188835.814
1994239.0,1551188835.853
1994166.0,1551188835.892
1993812.0,1551188835.933
1993797.0,1551188835.973
1994011.0,1551188836.012
1994336.0,1551188836.054
1994807.0,1551188836.093
1995578.0,1551188836.133
1995955.0,1551188836.175
1996486.0,1551188836.213
1997507.0,1551188836.254
1998089.0,1551188836.293
1999331.0,1551188836.332
2000469.0,1551188836.373
2001510.0,1551188836.414
2001272.0,1551188836.453
1999452.0,1551188836.493
1997336.0,1551188836.534
1995962.0,1551188836.574
1995900.0,1551188836.614
1995834.0,1551188836.655
1996717.0,1551188836.694
1997742.0,1551188836.732
1998004.0,1551188836.774
1998294.0,1551188836.813
1999594.0,1551188836.853
2000476.0,1551188836.894
2000694.0,1551188836.934
2001091.0,1551188836.975
2001167.0,1551188837.015
2000990.0,1551188837.054
2001063.0,1551188837.095
2001298.0,1551188837.134
2001534.0,1551188837.174
2002206.0,1551188837.213
2002955.0,1551188837.254
2004084.0,1551188837.294
2005132.0,1551188837.334
2006037.0,1551188837.376
2005746.0,1551188837.414
2004092.0,1551188837.455
2002837.0,1551188837.496
2002069.0,1551188837.533
2001733.0,1551188837.574
2001566.0,1551188837.615
2001697.0,1551188837.654
2001959.0,1551188837.694
2001163.0,1551188837.735
2000700.0,1551188837.775
2000449.0,1551188837.814
1999991.0,1551188837.855
2000169.0,1551188837.894
2000061.0,1551188837.934
2000378.0,1551188837.976
2000897.0,1551188838.014
2001033.0,1551188838.054
2001282.0,1551188838.096
2002007.0,1551188838.134
2002391.0,1551188838.175
2003157.0,1551188838.215
2003368.0,1551188838.254
2001479.0,1551188838.293
1999783.0,1551188838.334
1998318.0,1551188838.374
1997192.0,1551188838.413
1996122.0,1551188838.455
1995336.0,1551188838.494
1994725.0,1551188838.534
1994110.0,1551188838.576
1993665.0,1551188838.615
1993287.0,1551188838.655
1993119.0,1551188838.694
1993250.0,1551188838.733
1993437.0,1551188838.774
1993608.0,1551188838.815
1994089.0,1551188838.854
1994540.0,1551188838.894
1995233.0,1551188838.936
1996034.0,1551188838.975
1997096.0,1551188839.012
1998263.0,1551188839.055
1999465.0,1551188839.094
2000149.0,1551188839.133
1999196.0,1551188839.175
1997295.0,1551188839.214
1995958.0,1551188839.254
1994497.0,1551188839.295
1993064.0,1551188839.334
1992237.0,1551188839.375
1991679.0,1551188839.416
1991135.0,1551188839.455
1990842.0,1551188839.495
1990470.0,1551188839.537
1990547.0,1551188839.574
1990754.0,1551188839.614
1990858.0,1551188839.655
1991408.0,1551188839.694
1991652.0,1551188839.735
1992185.0,1551188839.777
1992597.0,1551188839.815
1993115.0,1551188839.855
1993924.0,1551188839.897
1994631.0,1551188839.936
1995336.0,1551188839.975
1996194.0,1551188840.015
1996603.0,1551188840.054
1995302.0,1551188840.095
1993467.0,1551188840.136
1992360.0,1551188840.176
1991285.0,1551188840.215
1990232.0,1551188840.257
1989746.0,1551188840.296
1989355.0,1551188840.336
1988762.0,1551188840.376
1988175.0,1551188840.415
1987892.0,1551188840.455
1987808.0,1551188840.496
1987939.0,1551188840.535
1988217.0,1551188840.576
1988420.0,1551188840.617
1988810.0,1551188840.656
1989208.0,1551188840.696
1989852.0,1551188840.736
1990354.0,1551188840.776
1990920.0,1551188840.815
1991727.0,1551188840.856
1991862.0,1551188840.896
1990297.0,1551188840.936
1988443.0,1551188840.978
1986763.0,1551188841.016
1985540.0,1551188841.057
1984167.0,1551188841.098
1983873.0,1551188841.135
1983137.0,1551188841.176
1982668.0,1551188841.217
1982243.0,1551188841.256
1981806.0,1551188841.296
1981665.0,1551188841.337
1981953.0,1551188841.377
1981968.0,1551188841.417
1982157.0,1551188841.458
1982712.0,1551188841.497
1983316.0,1551188841.535
1983480.0,1551188841.577
1984373.0,1551188841.616
1984758.0,1551188841.656
1985534.0,1551188841.698
1986407.0,1551188841.737
1986914.0,1551188841.778
1985402.0,1551188841.819
1983400.0,1551188841.856
1981702.0,1551188841.896
1980385.0,1551188841.937
1978666.0,1551188841.977
1977377.0,1551188842.017
1976798.0,1551188842.058
1976145.0,1551188842.097
1975213.0,1551188842.137
1974888.0,1551188842.179
1974754.0,1551188842.218
1974694.0,1551188842.256
1974974.0,1551188842.297
1975172.0,1551188842.336
1975508.0,1551188842.377
1975979.0,1551188842.418
1976392.0,1551188842.457
1976853.0,1551188842.497
1977669.0,1551188842.539
1978287.0,1551188842.579
1979221.0,1551188842.616
1979670.0,1551188842.657
1978778.0,1551188842.697
1977002.0,1551188842.737
1975656.0,1551188842.779
1974468.0,1551188842.817
1973289.0,1551188842.858
1972233.0,1551188842.938
1972520.0,1551188842.899
1971896.0,1551188842.979
1971857.0,1551188843.018
1971630.0,1551188843.057
1971715.0,1551188843.097
1972053.0,1551188843.138
1972186.0,1551188843.178
1972876.0,1551188843.218
1973677.0,1551188843.259
1973919.0,1551188843.298
1974336.0,1551188843.339
1975146.0,1551188843.381
1976153.0,1551188843.417
1977088.0,1551188843.457
1977716.0,1551188843.498
1976779.0,1551188843.538
1974860.0,1551188843.579
1973302.0,1551188843.619
1972019.0,1551188843.658
1970852.0,1551188843.699
1969954.0,1551188843.74
1969366.0,1551188843.778
1969100.0,1551188843.817
1968378.0,1551188843.859
1968168.0,1551188843.898
1968003.0,1551188843.938
1968059.0,1551188843.98
1968018.0,1551188844.019
1968687.0,1551188844.059
1968736.0,1551188844.1
1969170.0,1551188844.136
1969788.0,1551188844.178
1970256.0,1551188844.219
1971080.0,1551188844.258
1971871.0,1551188844.298
1972642.0,1551188844.339
1972190.0,1551188844.379
1970101.0,1551188844.418
1968065.0,1551188844.46
1966462.0,1551188844.499
1964782.0,1551188844.539
1963257.0,1551188844.581
1962253.0,1551188844.62
1961534.0,1551188844.658
1960846.0,1551188844.699
1960663.0,1551188844.738
1960291.0,1551188844.779
1960244.0,1551188844.82
1960262.0,1551188844.859
1960801.0,1551188844.899
1961028.0,1551188844.941
1961635.0,1551188844.981
1962206.0,1551188845.018
1962829.0,1551188845.059
1963392.0,1551188845.099
1964111.0,1551188845.139
1965277.0,1551188845.181
1966247.0,1551188845.219
1966812.0,1551188845.26
1965667.0,1551188845.301
1963912.0,1551188845.34
1962086.0,1551188845.381
1960918.0,1551188845.42
1959822.0,1551188845.459
1958613.0,1551188845.499
1958397.0,1551188845.54
1958015.0,1551188845.58
1957321.0,1551188845.62
1957188.0,1551188845.661
1957057.0,1551188845.7
1957354.0,1551188845.741
1957791.0,1551188845.783
1958147.0,1551188845.819
1958638.0,1551188845.859
1959119.0,1551188845.9
1959839.0,1551188845.94
1960727.0,1551188845.981
1961758.0,1551188846.021
1962848.0,1551188846.06
1964039.0,1551188846.101
1964091.0,1551188846.142
1962647.0,1551188846.18
1960919.0,1551188846.219
1959721.0,1551188846.261
1958629.0,1551188846.3
1957768.0,1551188846.34
1957327.0,1551188846.382
1956879.0,1551188846.421
1956477.0,1551188846.461
1956212.0,1551188846.502
1956302.0,1551188846.541
1956661.0,1551188846.58
1957169.0,1551188846.621
1957785.0,1551188846.66
1958695.0,1551188846.7
1959315.0,1551188846.741
1960268.0,1551188846.781
1961356.0,1551188846.821
1962169.0,1551188846.862
1963502.0,1551188846.901
1963818.0,1551188846.941
1964243.0,1551188846.983
1963745.0,1551188847.02
1961940.0,1551188847.06
1960330.0,1551188847.101
1959533.0,1551188847.141
1958231.0,1551188847.222
1959070.0,1551188847.182
1957034.0,1551188847.302
1957433.0,1551188847.261
1956252.0,1551188847.383
1956839.0,1551188847.343
1956334.0,1551188847.42
1956479.0,1551188847.461
1956951.0,1551188847.501
1957504.0,1551188847.541
1957921.0,1551188847.583
1958808.0,1551188847.621
1959608.0,1551188847.662
1960631.0,1551188847.703
1961512.0,1551188847.743
1962366.0,1551188847.781
1963753.0,1551188847.822
1965251.0,1551188847.861
1966418.0,1551188847.901
1967665.0,1551188847.942
1968085.0,1551188847.982
1965527.0,1551188848.063
1966917.0,1551188848.022
1965166.0,1551188848.102
1964238.0,1551188848.143
1963462.0,1551188848.183
1963397.0,1551188848.221
1963302.0,1551188848.303
1963824.0,1551188848.261
1963536.0,1551188848.342
1963655.0,1551188848.383
1964152.0,1551188848.423
1964937.0,1551188848.462
1966370.0,1551188848.544
1965713.0,1551188848.503
1967466.0,1551188848.582
1969129.0,1551188848.663
1968341.0,1551188848.621
1970227.0,1551188848.702
1971485.0,1551188848.742
1972411.0,1551188848.784
1973352.0,1551188848.823
1972781.0,1551188848.863
1970981.0,1551188848.904
1969725.0,1551188848.941
1968013.0,1551188848.982
1966298.0,1551188849.023
1965385.0,1551188849.062
1965097.0,1551188849.102
1964681.0,1551188849.144
1963604.0,1551188849.184
1964248.0,1551188849.225
1966279.0,1551188849.262
1968420.0,1551188849.302
1970273.0,1551188849.342
1972087.0,1551188849.384
1973639.0,1551188849.422
1974924.0,1551188849.462
1976381.0,1551188849.504
1978429.0,1551188849.543
1980072.0,1551188849.584
1981703.0,1551188849.625
1983159.0,1551188849.664
1984056.0,1551188849.706
1983956.0,1551188849.747
1982290.0,1551188849.787
1980645.0,1551188849.826
1978974.0,1551188849.867
1976968.0,1551188849.906
1974953.0,1551188849.946
1973408.0,1551188849.988
1972047.0,1551188850.027
1970633.0,1551188850.067
1969651.0,1551188850.108
1969456.0,1551188850.147
1969952.0,1551188850.187
1971472.0,1551188850.225
1973017.0,1551188850.264
1974762.0,1551188850.304
1976422.0,1551188850.345
1977757.0,1551188850.385
1978496.0,1551188850.425
1979587.0,1551188850.466
1980448.0,1551188850.505
1981462.0,1551188850.546
1982630.0,1551188850.588
1983313.0,1551188850.624
1982312.0,1551188850.664
1980935.0,1551188850.705
1980150.0,1551188850.745
1979769.0,1551188850.786
1979212.0,1551188850.826
1978892.0,1551188850.865
1978919.0,1551188850.906
1979041.0,1551188850.947
1979288.0,1551188850.985
1979801.0,1551188851.024
1981214.0,1551188851.066
1982696.0,1551188851.105
1984000.0,1551188851.145
1984711.0,1551188851.187
1985403.0,1551188851.226
1985773.0,1551188851.266
1986670.0,1551188851.307
1987427.0,1551188851.346
1988379.0,1551188851.385
1989344.0,1551188851.426
1990253.0,1551188851.465
1990414.0,1551188851.505
1988851.0,1551188851.546
1987505.0,1551188851.586
1986433.0,1551188851.626
1985935.0,1551188851.667
1984838.0,1551188851.706
1984461.0,1551188851.747
1984338.0,1551188851.786
1983887.0,1551188851.824
1983652.0,1551188851.865
1983859.0,1551188851.906
1983995.0,1551188851.945
1984272.0,1551188851.986
1984687.0,1551188852.027
1985388.0,1551188852.066
1986031.0,1551188852.106
1986725.0,1551188852.147
1987457.0,1551188852.187
1988255.0,1551188852.227
1989152.0,1551188852.268
1990384.0,1551188852.305
1991144.0,1551188852.346
1991354.0,1551188852.388
1989595.0,1551188852.426
1988140.0,1551188852.466
1986895.0,1551188852.508
1986074.0,1551188852.547
1984670.0,1551188852.588
1984020.0,1551188852.628
1983599.0,1551188852.666
1983348.0,1551188852.706
1982918.0,1551188852.747
1983181.0,1551188852.787
1983084.0,1551188852.827
1983271.0,1551188852.868
1983652.0,1551188852.907
1984132.0,1551188852.947
1984855.0,1551188852.989
1985333.0,1551188853.028
1985940.0,1551188853.066
1986770.0,1551188853.107
1987651.0,1551188853.146
1988679.0,1551188853.187
1989531.0,1551188853.228
1989644.0,1551188853.267
1987762.0,1551188853.307
1986732.0,1551188853.349
1986158.0,1551188853.389
1985286.0,1551188853.426
1983296.0,1551188853.467
1983152.0,1551188853.507
1984034.0,1551188853.547
1984480.0,1551188853.589
1985147.0,1551188853.627
1985772.0,1551188853.668
1986192.0,1551188853.709
1986600.0,1551188853.748
1987110.0,1551188853.789
1987699.0,1551188853.828
1988391.0,1551188853.867
1989232.0,1551188853.907
1989868.0,1551188853.948
1990878.0,1551188853.988
1991914.0,1551188854.028
1992971.0,1551188854.069
1994029.0,1551188854.108
1993794.0,1551188854.148
1992590.0,1551188854.191
1990880.0,1551188854.227
1989883.0,1551188854.267
1988695.0,1551188854.308
1987299.0,1551188854.348
1986732.0,1551188854.388
1986649.0,1551188854.429
1986268.0,1551188854.468
1985717.0,1551188854.508
1985719.0,1551188854.549
1985985.0,1551188854.589
1986075.0,1551188854.629
1986790.0,1551188854.67
1987184.0,1551188854.707
1987690.0,1551188854.748
1988123.0,1551188854.79
1988877.0,1551188854.828
1989367.0,1551188854.868
1990237.0,1551188854.91
1990875.0,1551188854.949
1991484.0,1551188854.99
1990363.0,1551188855.03
1988381.0,1551188855.07
1986883.0,1551188855.108
1985705.0,1551188855.149
1984229.0,1551188855.189
1982847.0,1551188855.228
1982400.0,1551188855.27
1981749.0,1551188855.309
1981445.0,1551188855.349
1981168.0,1551188855.391
1981016.0,1551188855.429
1981407.0,1551188855.47
1981851.0,1551188855.509
1982397.0,1551188855.548
1982950.0,1551188855.589
1983819.0,1551188855.63
1984165.0,1551188855.669
1984500.0,1551188855.709
1985442.0,1551188855.751
1986405.0,1551188855.79
1987372.0,1551188855.83
1987263.0,1551188855.869
1985955.0,1551188855.908
1984257.0,1551188855.949
1984604.0,1551188855.991
1984380.0,1551188856.029
1983930.0,1551188856.069
1983546.0,1551188856.111
1983576.0,1551188856.15
1982871.0,1551188856.191
1982343.0,1551188856.23
1982365.0,1551188856.269
1982489.0,1551188856.309
1982759.0,1551188856.35
1983143.0,1551188856.39
1983710.0,1551188856.43
1984375.0,1551188856.471
1984924.0,1551188856.51
1985701.0,1551188856.55
1986511.0,1551188856.593
1987230.0,1551188856.629
1988115.0,1551188856.669
1989316.0,1551188856.71
1990076.0,1551188856.75
1988729.0,1551188856.791
1986996.0,1551188856.831
1985519.0,1551188856.87
1984375.0,1551188856.908
1982693.0,1551188856.949
1981492.0,1551188856.989
1980806.0,1551188857.029
1980381.0,1551188857.071
1979905.0,1551188857.109
1979436.0,1551188857.149
1979371.0,1551188857.191
1979594.0,1551188857.23
1979802.0,1551188857.27
1980232.0,1551188857.311
1980620.0,1551188857.351
1981709.0,1551188857.392
1981928.0,1551188857.432
1982752.0,1551188857.471
1983387.0,1551188857.51
1984292.0,1551188857.551
1985535.0,1551188857.591
1986495.0,1551188857.63
1987112.0,1551188857.672
1986168.0,1551188857.711
1984585.0,1551188857.751
1983816.0,1551188857.793
1983186.0,1551188857.832
1982478.0,1551188857.872
1982428.0,1551188857.911
1982375.0,1551188857.95
1982017.0,1551188857.991
1981436.0,1551188858.032
1981254.0,1551188858.071
1980992.0,1551188858.111
1981173.0,1551188858.153
1981417.0,1551188858.192
1981870.0,1551188858.232
1982158.0,1551188858.273
1982408.0,1551188858.31
1983272.0,1551188858.351
1983661.0,1551188858.392
1984348.0,1551188858.431
1985049.0,1551188858.471
1986091.0,1551188858.513
1985593.0,1551188858.552
1983562.0,1551188858.593
1981745.0,1551188858.633
1980674.0,1551188858.671
1979163.0,1551188858.711
1977490.0,1551188858.752
1976981.0,1551188858.792
1976311.0,1551188858.832
1975851.0,1551188858.873
1975158.0,1551188858.912
1974816.0,1551188858.952
1974921.0,1551188858.994
1974998.0,1551188859.033
1975333.0,1551188859.071
1975739.0,1551188859.112
1975782.0,1551188859.151
1976313.0,1551188859.192
1976818.0,1551188859.233
1977471.0,1551188859.272
1978224.0,1551188859.312
1978880.0,1551188859.354
1979580.0,1551188859.394
1979277.0,1551188859.433
1977069.0,1551188859.472
1974687.0,1551188859.511
1972962.0,1551188859.551
1971646.0,1551188859.593
1970455.0,1551188859.632
1970347.0,1551188859.672
1970497.0,1551188859.713
1970704.0,1551188859.752
1970521.0,1551188859.793
1970265.0,1551188859.834
1969966.0,1551188859.873
1970318.0,1551188859.913
1970150.0,1551188859.953
1970556.0,1551188859.993
1971015.0,1551188860.032
1971378.0,1551188860.073
1971807.0,1551188860.113
1972417.0,1551188860.153
1973214.0,1551188860.195
1973988.0,1551188860.233
1974660.0,1551188860.274
1975689.0,1551188860.315
1975965.0,1551188860.352
1974464.0,1551188860.393
1972430.0,1551188860.433
1970663.0,1551188860.473
1969256.0,1551188860.513
1968190.0,1551188860.554
1966833.0,1551188860.594
1966196.0,1551188860.634
1965660.0,1551188860.675
1964942.0,1551188860.714
1964925.0,1551188860.752
1964696.0,1551188860.794
1964839.0,1551188860.833
1965368.0,1551188860.873
1966173.0,1551188860.953
1967069.0,1551188861.035
1966360.0,1551188860.994
1967558.0,1551188861.074
1968614.0,1551188861.114
1969200.0,1551188861.154
1970041.0,1551188861.194
1965535.0,1551188860.914
1969411.0,1551188861.233
1965722.0,1551188861.314
1967635.0,1551188861.274
1964511.0,1551188861.354
1963208.0,1551188861.396
1962344.0,1551188861.434
1962365.0,1551188861.475
1962292.0,1551188861.516
1962253.0,1551188861.553
1962865.0,1551188861.594
1963518.0,1551188861.635
1964107.0,1551188861.674
1964580.0,1551188861.714
1965371.0,1551188861.755
1965894.0,1551188861.795
1966679.0,1551188861.834
1967146.0,1551188861.875
1967943.0,1551188861.914
1968463.0,1551188861.954
1969479.0,1551188861.996
1970562.0,1551188862.034
1971374.0,1551188862.074
1971534.0,1551188862.116
1969897.0,1551188862.154
1967741.0,1551188862.193
1966154.0,1551188862.235
1964612.0,1551188862.274
1963075.0,1551188862.314
1962005.0,1551188862.355
1961459.0,1551188862.395
1960950.0,1551188862.434
1960372.0,1551188862.475
1959962.0,1551188862.515
1959921.0,1551188862.555
1960160.0,1551188862.597
1960456.0,1551188862.635
1960917.0,1551188862.676
1961197.0,1551188862.717
1961750.0,1551188862.754
1962478.0,1551188862.795
1963201.0,1551188862.835
1964215.0,1551188862.875
1964872.0,1551188862.915
1965862.0,1551188862.956
1966704.0,1551188862.996
1966415.0,1551188863.036
1964762.0,1551188863.077
1963153.0,1551188863.116
1962279.0,1551188863.154
1961266.0,1551188863.196
1960634.0,1551188863.235
1960411.0,1551188863.275
1960657.0,1551188863.316
1960219.0,1551188863.356
1960213.0,1551188863.396
1960598.0,1551188863.437
1961935.0,1551188863.476
1962984.0,1551188863.516
1964040.0,1551188863.556
1964856.0,1551188863.596
1965611.0,1551188863.635
1966228.0,1551188863.676
1967216.0,1551188863.716
1968242.0,1551188863.756
1968987.0,1551188863.798
1969970.0,1551188863.836
1969728.0,1551188863.877
1968173.0,1551188863.918
1966352.0,1551188863.955
1965341.0,1551188863.996
1964297.0,1551188864.036
1963314.0,1551188864.076
1963061.0,1551188864.116
1962715.0,1551188864.157
1962242.0,1551188864.197
1961639.0,1551188864.237
1961544.0,1551188864.278
1961246.0,1551188864.317
1961232.0,1551188864.355
1961217.0,1551188864.397
1961388.0,1551188864.436
1961606.0,1551188864.476
1962053.0,1551188864.517
1963287.0,1551188864.595
1962499.0,1551188864.556
1964030.0,1551188864.637
1964979.0,1551188864.675
1965841.0,1551188864.716
1964168.0,1551188864.757
1961870.0,1551188864.797
1960180.0,1551188864.836
1958666.0,1551188864.878
1956589.0,1551188864.917
1954957.0,1551188864.957
1954289.0,1551188864.999
1953825.0,1551188865.037
1953066.0,1551188865.078
1952593.0,1551188865.117
1952477.0,1551188865.156
1952677.0,1551188865.197
1952819.0,1551188865.238
1953347.0,1551188865.277
1954228.0,1551188865.317
1955709.0,1551188865.398
1956790.0,1551188865.438
1955246.0,1551188865.358
1958900.0,1551188865.516
1957757.0,1551188865.479
1960189.0,1551188865.556
1961298.0,1551188865.598
1961628.0,1551188865.637
1960335.0,1551188865.677
1958567.0,1551188865.719
1957702.0,1551188865.758
1956501.0,1551188865.799
1955505.0,1551188865.839
1954875.0,1551188865.877
1954871.0,1551188865.917
1954728.0,1551188865.958
1954545.0,1551188865.998
1954781.0,1551188866.038
1954909.0,1551188866.079
1955283.0,1551188866.118
1955886.0,1551188866.158
1956785.0,1551188866.2
1957298.0,1551188866.239
1958133.0,1551188866.277
1959161.0,1551188866.318
1960252.0,1551188866.357
1961232.0,1551188866.398
1962430.0,1551188866.439
1963636.0,1551188866.478
1964915.0,1551188866.518
1965788.0,1551188866.56
1964613.0,1551188866.6
1962952.0,1551188866.637
1961909.0,1551188866.678
1961333.0,1551188866.718
1960679.0,1551188866.758
1960302.0,1551188866.8
1960616.0,1551188866.838
1960560.0,1551188866.879
1960734.0,1551188866.92
1960996.0,1551188866.959
1961706.0,1551188867.0
1962367.0,1551188867.039
1963252.0,1551188867.078
1963836.0,1551188867.118
1964915.0,1551188867.159
1965690.0,1551188867.199
1966809.0,1551188867.239
1967835.0,1551188867.28
1970071.0,1551188867.319
1972092.0,1551188867.359
1972838.0,1551188867.401
1971984.0,1551188867.44
1970334.0,1551188867.478
1969286.0,1551188867.519
1968068.0,1551188867.558
1967072.0,1551188867.599
1966568.0,1551188867.64
1966577.0,1551188867.679
1966201.0,1551188867.719
1966041.0,1551188867.761
1966217.0,1551188867.801
1966704.0,1551188867.838
1967290.0,1551188867.879
1967939.0,1551188867.919
1968709.0,1551188867.959
1969796.0,1551188868.001
1970454.0,1551188868.039
1971244.0,1551188868.08
1972364.0,1551188868.121
1973258.0,1551188868.16
1974537.0,1551188868.201
1975309.0,1551188868.24
1974737.0,1551188868.279
1973210.0,1551188868.319
1971550.0,1551188868.36
1970409.0,1551188868.4
1969268.0,1551188868.44
1968080.0,1551188868.481
1967735.0,1551188868.52
1967560.0,1551188868.561
1967170.0,1551188868.603
1966902.0,1551188868.639
1967059.0,1551188868.679
1967418.0,1551188868.72
1967886.0,1551188868.76
1968269.0,1551188868.801
1968876.0,1551188868.841
1969541.0,1551188868.88
1970041.0,1551188868.921
1970784.0,1551188868.962
1971203.0,1551188869.0
1971538.0,1551188869.039
1971991.0,1551188869.081
1972161.0,1551188869.12
1971588.0,1551188869.16
1970268.0,1551188869.202
1969558.0,1551188869.241
1969682.0,1551188869.281
1969811.0,1551188869.322
1969542.0,1551188869.361
1969629.0,1551188869.4
1969522.0,1551188869.441
1969151.0,1551188869.48
1969189.0,1551188869.52
1969403.0,1551188869.561
1969669.0,1551188869.601
1970008.0,1551188869.641
1970773.0,1551188869.682
1971304.0,1551188869.719
1972135.0,1551188869.76
1972893.0,1551188869.802
1973687.0,1551188869.84
1974692.0,1551188869.88
1975981.0,1551188869.921
1976993.0,1551188869.96
1977912.0,1551188870.001
1976024.0,1551188870.081
1977850.0,1551188870.042
1974622.0,1551188870.121
1973683.0,1551188870.163
1972923.0,1551188870.202
1971764.0,1551188870.242
1971558.0,1551188870.281
1971218.0,1551188870.32
1971009.0,1551188870.361
1970990.0,1551188870.403
1971750.0,1551188870.481
1971200.0,1551188870.441
1972229.0,1551188870.523
1972747.0,1551188870.562
1974433.0,1551188870.642
1973482.0,1551188870.603
1975360.0,1551188870.681
1976190.0,1551188870.721
1977082.0,1551188870.762
1978112.0,1551188870.802
1979370.0,1551188870.842
1980256.0,1551188870.883
1980237.0,1551188870.922
1978699.0,1551188870.962
1976939.0,1551188871.004
1975958.0,1551188871.041
1974968.0,1551188871.081
1973926.0,1551188871.122
1973655.0,1551188871.162
1973334.0,1551188871.203
1973094.0,1551188871.243
1972738.0,1551188871.282
1972868.0,1551188871.323
1973218.0,1551188871.364
1973587.0,1551188871.404
1974241.0,1551188871.441
1974753.0,1551188871.482
1975484.0,1551188871.522
1976148.0,1551188871.562
1976900.0,1551188871.604
1977796.0,1551188871.642
1978854.0,1551188871.683
1979992.0,1551188871.724
1980857.0,1551188871.763
1981606.0,1551188871.804
1980843.0,1551188871.843
1979353.0,1551188871.882
1978788.0,1551188871.922
1977912.0,1551188871.963
1977244.0,1551188872.003
1977315.0,1551188872.043
1977400.0,1551188872.084
1977180.0,1551188872.123
1976970.0,1551188872.163
1977020.0,1551188872.205
1977419.0,1551188872.242
1977849.0,1551188872.282
1978657.0,1551188872.323
1979150.0,1551188872.362
1979734.0,1551188872.403
1980421.0,1551188872.444
1981613.0,1551188872.523
1981211.0,1551188872.483
1982174.0,1551188872.565
1983267.0,1551188872.604
1984476.0,1551188872.644
1984297.0,1551188872.683
1982595.0,1551188872.722
1980993.0,1551188872.763
1979864.0,1551188872.805
1977220.0,1551188872.883
1978481.0,1551188872.843
1976523.0,1551188872.925
1976228.0,1551188872.964
1975964.0,1551188873.045
1976051.0,1551188873.005
1975727.0,1551188873.083
1975767.0,1551188873.123
1976239.0,1551188873.164
1976613.0,1551188873.204
1977407.0,1551188873.244
1978799.0,1551188873.324
1977992.0,1551188873.285
1979686.0,1551188873.364
1980935.0,1551188873.406
1982333.0,1551188873.445
1983404.0,1551188873.483
1984389.0,1551188873.524
1984612.0,1551188873.563
1984739.0,1551188873.604
1984678.0,1551188873.645
1984874.0,1551188873.684
1984172.0,1551188873.725
1983179.0,1551188873.766
1982496.0,1551188873.806
1982256.0,1551188873.846
1981556.0,1551188873.887
1980844.0,1551188873.926
1980639.0,1551188873.966
1980606.0,1551188874.007
1980732.0,1551188874.046
1981523.0,1551188874.086
1981867.0,1551188874.127
1982368.0,1551188874.163
1982881.0,1551188874.204
1983665.0,1551188874.245
1984381.0,1551188874.284
1985191.0,1551188874.324
1986439.0,1551188874.366
1987171.0,1551188874.406
1987861.0,1551188874.445
1986652.0,1551188874.486
1984753.0,1551188874.526
1982695.0,1551188874.606
1983688.0,1551188874.564
1981890.0,1551188874.644
1981552.0,1551188874.685
1981257.0,1551188874.726
1981017.0,1551188874.765
1980563.0,1551188874.806
1980496.0,1551188874.844
1980856.0,1551188874.923
1982153.0,1551188875.005
1982730.0,1551188875.044
1983384.0,1551188875.085
1984051.0,1551188875.124
1981511.0,1551188874.965
1980691.0,1551188874.883
1985945.0,1551188875.207
1984814.0,1551188875.165
1987524.0,1551188875.285
1988089.0,1551188875.327
1986646.0,1551188875.245
1986551.0,1551188875.366
1984912.0,1551188875.407
1984544.0,1551188875.447
1984255.0,1551188875.485
1983010.0,1551188875.525
1981507.0,1551188875.606
1982311.0,1551188875.566
1980764.0,1551188875.646
1980127.0,1551188875.687
1979594.0,1551188875.726
1979368.0,1551188875.808
1979358.0,1551188875.766
1979477.0,1551188875.845
1980189.0,1551188875.926
1979816.0,1551188875.885
1980561.0,1551188875.966
1981055.0,1551188876.007
1981712.0,1551188876.047
1982129.0,1551188876.086
1982977.0,1551188876.127
1983752.0,1551188876.168
1984629.0,1551188876.206
1985330.0,1551188876.245
1983473.0,1551188876.287
1981580.0,1551188876.326
1980360.0,1551188876.366
1979436.0,1551188876.408
1977923.0,1551188876.447
1977328.0,1551188876.487
1977030.0,1551188876.528
1976449.0,1551188876.567
1975841.0,1551188876.606
1975746.0,1551188876.647
1975826.0,1551188876.686
1976075.0,1551188876.726
1976490.0,1551188876.767
1976724.0,1551188876.807
1977103.0,1551188876.847
1977583.0,1551188876.888
1978239.0,1551188876.927
1979016.0,1551188876.968
1979793.0,1551188877.008
1980764.0,1551188877.046
1981444.0,1551188877.086
1980789.0,1551188877.128
1978437.0,1551188877.167
1977037.0,1551188877.208
1976354.0,1551188877.248
1975816.0,1551188877.287
1975210.0,1551188877.328
1975356.0,1551188877.369
1975491.0,1551188877.406
1975162.0,1551188877.447
1974752.0,1551188877.487
1974336.0,1551188877.526
1974226.0,1551188877.566
1974523.0,1551188877.608
1974749.0,1551188877.647
1975200.0,1551188877.687
1975621.0,1551188877.729
1975987.0,1551188877.769
1976638.0,1551188877.809
1977957.0,1551188877.849
1978822.0,1551188877.888
1979465.0,1551188877.927
1980407.0,1551188877.968
1981104.0,1551188878.008
1979721.0,1551188878.047
1977246.0,1551188878.089
1975337.0,1551188878.128
1973654.0,1551188878.168
1971935.0,1551188878.21
1970669.0,1551188878.248
1969652.0,1551188878.289
1968854.0,1551188878.328
1968063.0,1551188878.367
1967549.0,1551188878.408
1967222.0,1551188878.449
1967358.0,1551188878.488
1967658.0,1551188878.528
1967929.0,1551188878.569
1968366.0,1551188878.609
1968706.0,1551188878.649
1969510.0,1551188878.69
1969948.0,1551188878.727
1970640.0,1551188878.767
1971369.0,1551188878.809
1972373.0,1551188878.848
1973094.0,1551188878.888
1972943.0,1551188878.929
1970764.0,1551188878.969
1969011.0,1551188879.01
1967671.0,1551188879.05
1967150.0,1551188879.089
1966036.0,1551188879.128
1965054.0,1551188879.169
1963935.0,1551188879.209
1962841.0,1551188879.248
1962800.0,1551188879.29
1963352.0,1551188879.329
1964197.0,1551188879.369
1964614.0,1551188879.411
1965334.0,1551188879.449
1965822.0,1551188879.49
1966326.0,1551188879.529
1966886.0,1551188879.568
1967605.0,1551188879.609
1968240.0,1551188879.65
1969132.0,1551188879.689
1970191.0,1551188879.729
1970757.0,1551188879.771
1969957.0,1551188879.81
1967859.0,1551188879.85
1966060.0,1551188879.889
1964315.0,1551188879.928
1962586.0,1551188879.968
1961097.0,1551188880.01
1960305.0,1551188880.049
1960041.0,1551188880.089
1959331.0,1551188880.13
1958733.0,1551188880.169
1958654.0,1551188880.21
1958629.0,1551188880.251
1959056.0,1551188880.29
1959528.0,1551188880.33
1960002.0,1551188880.372
1960482.0,1551188880.409
1961427.0,1551188880.449
1961919.0,1551188880.49
1963038.0,1551188880.529
1963666.0,1551188880.57
1964756.0,1551188880.612
1965741.0,1551188880.65
1965542.0,1551188880.69
1963138.0,1551188880.732
1961049.0,1551188880.771
1959126.0,1551188880.81
1957284.0,1551188880.85
1955659.0,1551188880.889
1954479.0,1551188880.93
1953648.0,1551188880.971
1953033.0,1551188881.011
1952032.0,1551188881.05
1950516.0,1551188881.092
1949577.0,1551188881.131
1949292.0,1551188881.171
1950534.0,1551188881.211
1951778.0,1551188881.249
1952826.0,1551188881.29
1953710.0,1551188881.331
1954333.0,1551188881.37
1955094.0,1551188881.411
1955915.0,1551188881.452
1956993.0,1551188881.491
1957794.0,1551188881.531
1958905.0,1551188881.573
1958717.0,1551188881.61
1956569.0,1551188881.65
1954621.0,1551188881.691
1953298.0,1551188881.73
1951810.0,1551188881.771
1950336.0,1551188881.813
1949860.0,1551188881.851
1949400.0,1551188881.891
1948827.0,1551188881.933
1948230.0,1551188881.97
1948439.0,1551188882.011
1948411.0,1551188882.051
1948723.0,1551188882.091
1949092.0,1551188882.131
1949751.0,1551188882.172
1950510.0,1551188882.212
1951171.0,1551188882.252
1951871.0,1551188882.293
1952449.0,1551188882.332
1953483.0,1551188882.37
1955346.0,1551188882.451
1955669.0,1551188882.491
1953787.0,1551188882.532
1954342.0,1551188882.412
1951663.0,1551188882.571
1948074.0,1551188882.652
1949906.0,1551188882.612
1946255.0,1551188882.691
1944841.0,1551188882.732
1944461.0,1551188882.773
1943923.0,1551188882.813
1943440.0,1551188882.852
1942828.0,1551188882.894
1942659.0,1551188882.931
1942833.0,1551188882.971
1943380.0,1551188883.013
1943836.0,1551188883.051
1944716.0,1551188883.092
1946144.0,1551188883.133
1947430.0,1551188883.172
1949951.0,1551188883.213
1951895.0,1551188883.254
1953339.0,1551188883.293
1954784.0,1551188883.331
1956079.0,1551188883.372
1956683.0,1551188883.412
1955533.0,1551188883.452
1953372.0,1551188883.493
1951665.0,1551188883.532
1950337.0,1551188883.573
1948995.0,1551188883.615
1948120.0,1551188883.653
1947640.0,1551188883.693
1947101.0,1551188883.732
1946518.0,1551188883.772
1946355.0,1551188883.813
1946502.0,1551188883.853
1946603.0,1551188883.892
1946883.0,1551188883.933
1947697.0,1551188883.974
1948274.0,1551188884.014
1948678.0,1551188884.053
1949303.0,1551188884.095
1949859.0,1551188884.132
1950782.0,1551188884.172
1951878.0,1551188884.214
1952937.0,1551188884.252
1953734.0,1551188884.293
1953251.0,1551188884.334
1950853.0,1551188884.373
1949325.0,1551188884.414
1947677.0,1551188884.455
1946169.0,1551188884.494
1944523.0,1551188884.532
1944060.0,1551188884.573
1943606.0,1551188884.613
1943011.0,1551188884.653
1942664.0,1551188884.694
1942658.0,1551188884.733
1943116.0,1551188884.774
1943391.0,1551188884.816
1943937.0,1551188884.854
1944458.0,1551188884.892
1945291.0,1551188884.934
1946348.0,1551188884.973
1947347.0,1551188885.014
1948383.0,1551188885.054
1949120.0,1551188885.093
1950284.0,1551188885.133
1951463.0,1551188885.174
1951914.0,1551188885.214
1950181.0,1551188885.254
1948320.0,1551188885.295
1946743.0,1551188885.334
1945369.0,1551188885.374
1944076.0,1551188885.416
1943235.0,1551188885.455
1942803.0,1551188885.493
1942485.0,1551188885.534
1942052.0,1551188885.573
1941910.0,1551188885.614
1942260.0,1551188885.655
1942585.0,1551188885.694
1943015.0,1551188885.735
1943826.0,1551188885.776
1944482.0,1551188885.816
1946379.0,1551188885.896
1945334.0,1551188885.855
1947345.0,1551188885.935
1948326.0,1551188885.976
1949473.0,1551188886.017
1950760.0,1551188886.056
1951841.0,1551188886.096
1952981.0,1551188886.137
1951916.0,1551188886.176
1950127.0,1551188886.217
1949038.0,1551188886.257
1948481.0,1551188886.296
1947665.0,1551188886.336
1947424.0,1551188886.377
1947249.0,1551188886.417
1947100.0,1551188886.456
1946876.0,1551188886.498
1946981.0,1551188886.537
1947432.0,1551188886.577
1947828.0,1551188886.618
1948360.0,1551188886.657
1949296.0,1551188886.697
1949817.0,1551188886.738
1950962.0,1551188886.777
1951930.0,1551188886.818
1952794.0,1551188886.858
1953871.0,1551188886.897
1955110.0,1551188886.937
1956130.0,1551188886.978
1955618.0,1551188887.018
1953740.0,1551188887.057
1952349.0,1551188887.098
1951345.0,1551188887.138
1950356.0,1551188887.178
1949302.0,1551188887.219
1949066.0,1551188887.258
1948758.0,1551188887.298
1948309.0,1551188887.339
1948120.0,1551188887.378
1948494.0,1551188887.419
1948639.0,1551188887.459
1949202.0,1551188887.498
1949739.0,1551188887.538
1950313.0,1551188887.579
1951227.0,1551188887.619
1952244.0,1551188887.658
1953215.0,1551188887.699
1953976.0,1551188887.738
1955185.0,1551188887.778
1956040.0,1551188887.82
1957025.0,1551188887.859
1956037.0,1551188887.899
1954109.0,1551188887.94
1952500.0,1551188887.979
1951089.0,1551188888.019
1949758.0,1551188888.06
1948425.0,1551188888.099
1948258.0,1551188888.139
1947568.0,1551188888.18
1947212.0,1551188888.22
1946953.0,1551188888.259
1946818.0,1551188888.3
1947347.0,1551188888.34
1947880.0,1551188888.378
1948250.0,1551188888.417
1948684.0,1551188888.455
1949268.0,1551188888.496
1950292.0,1551188888.537
1951038.0,1551188888.576
1952054.0,1551188888.617
1953187.0,1551188888.658
1954139.0,1551188888.697
1955258.0,1551188888.737
1954054.0,1551188888.779
1952203.0,1551188888.816
1950933.0,1551188888.856
1950037.0,1551188888.897
1948983.0,1551188888.936
1948370.0,1551188888.977
1948360.0,1551188889.019
1948101.0,1551188889.057
1947800.0,1551188889.097
1948457.0,1551188889.178
1949605.0,1551188889.257
1950853.0,1551188889.296
1949057.0,1551188889.217
1947954.0,1551188889.139
1952379.0,1551188889.337
1955535.0,1551188889.418
1958140.0,1551188889.499
1959391.0,1551188889.538
1960903.0,1551188889.578
1954011.0,1551188889.378
1956492.0,1551188889.457
1960675.0,1551188889.657
1961701.0,1551188889.618
1956209.0,1551188889.738
1958414.0,1551188889.697
1954204.0,1551188889.777
1952141.0,1551188889.818
1950976.0,1551188889.859
1950433.0,1551188889.898
1949867.0,1551188889.938
1949349.0,1551188889.978
1948892.0,1551188890.018
1948679.0,1551188890.057
1948784.0,1551188890.098
1949243.0,1551188890.138
1949691.0,1551188890.178
1950127.0,1551188890.218
1950476.0,1551188890.257
1951145.0,1551188890.297
1951689.0,1551188890.338
1952736.0,1551188890.377
1953489.0,1551188890.418
1954477.0,1551188890.459
1955393.0,1551188890.498
1955464.0,1551188890.538
1952784.0,1551188890.579
1949296.0,1551188890.619
1946822.0,1551188890.659
1944116.0,1551188890.7
1941454.0,1551188890.737
1939472.0,1551188890.778
1938486.0,1551188890.819
1936864.0,1551188890.858
1935649.0,1551188890.898
1934733.0,1551188890.939
1934141.0,1551188890.979
1934453.0,1551188891.02
1934488.0,1551188891.06
1935598.0,1551188891.099
1936404.0,1551188891.138
1937266.0,1551188891.179
1937882.0,1551188891.219
1938660.0,1551188891.258
1939557.0,1551188891.3
1940584.0,1551188891.339
1941671.0,1551188891.379
1942769.0,1551188891.421
1941492.0,1551188891.459
1938938.0,1551188891.5
1936192.0,1551188891.539
1934592.0,1551188891.578
1934985.0,1551188891.619
1935957.0,1551188891.66
1936318.0,1551188891.699
1936361.0,1551188891.739
1936091.0,1551188891.781
1935820.0,1551188891.82
1936278.0,1551188891.86
1936492.0,1551188891.899
1937188.0,1551188891.938
1937580.0,1551188891.979
1938437.0,1551188892.021
1939135.0,1551188892.059
1940091.0,1551188892.099
1940999.0,1551188892.141
1941932.0,1551188892.18
1943212.0,1551188892.221
1944471.0,1551188892.262
1944820.0,1551188892.299
1943051.0,1551188892.339
1941339.0,1551188892.38
1939750.0,1551188892.42
1938290.0,1551188892.46
1936793.0,1551188892.501
1935907.0,1551188892.54
1935561.0,1551188892.58
1935446.0,1551188892.622
1934799.0,1551188892.661
1934698.0,1551188892.699
1935098.0,1551188892.74
1935373.0,1551188892.779
1935721.0,1551188892.82
1936448.0,1551188892.86
1937365.0,1551188892.899
1938117.0,1551188892.94
1938952.0,1551188892.981
1939964.0,1551188893.021
1940999.0,1551188893.06
1942448.0,1551188893.102
1943575.0,1551188893.141
1944599.0,1551188893.181
1943918.0,1551188893.221
1940680.0,1551188893.3
1941876.0,1551188893.26
1939231.0,1551188893.341
1936828.0,1551188893.38
1934354.0,1551188893.421
1933261.0,1551188893.462
1933535.0,1551188893.501
1934121.0,1551188893.541
1935334.0,1551188893.62
1934726.0,1551188893.583
1936887.0,1551188893.701
1936034.0,1551188893.66
1937269.0,1551188893.74
1937808.0,1551188893.781
1938541.0,1551188893.823
1939300.0,1551188893.861
1940185.0,1551188893.901
1941193.0,1551188893.943
1942181.0,1551188893.982
1943137.0,1551188894.021
1944403.0,1551188894.061
1944186.0,1551188894.141
1945258.0,1551188894.1
1942703.0,1551188894.182
1941840.0,1551188894.222
1941039.0,1551188894.261
1940011.0,1551188894.342
1940208.0,1551188894.303
1940188.0,1551188894.422
1940113.0,1551188894.382
1940239.0,1551188894.501
1940171.0,1551188894.46
1940835.0,1551188894.542
1941434.0,1551188894.581
1942119.0,1551188894.622
1942943.0,1551188894.663
1943487.0,1551188894.702
1944438.0,1551188894.742
1945672.0,1551188894.784
1946849.0,1551188894.821
1948204.0,1551188894.861
1951991.0,1551188894.982
1951864.0,1551188895.024
1950618.0,1551188894.941
1949931.0,1551188895.062
1949372.0,1551188894.902
1948915.0,1551188895.102
1947850.0,1551188895.144
1947225.0,1551188895.181
1946086.0,1551188895.222
1945966.0,1551188895.262
1945935.0,1551188895.302
1945886.0,1551188895.342
1945790.0,1551188895.383
1946108.0,1551188895.423
1946569.0,1551188895.462
1947205.0,1551188895.504
1948071.0,1551188895.543
1948588.0,1551188895.583
1949457.0,1551188895.623
1950437.0,1551188895.661
1951629.0,1551188895.702
1952539.0,1551188895.743
1953717.0,1551188895.782
1954695.0,1551188895.823
1955971.0,1551188895.864
1956999.0,1551188895.903
1956671.0,1551188895.943
1955082.0,1551188895.983
1954392.0,1551188896.022
1954025.0,1551188896.062
1953310.0,1551188896.103
1953116.0,1551188896.143
1953266.0,1551188896.183
1953114.0,1551188896.225
1953043.0,1551188896.263
1953365.0,1551188896.303
1953828.0,1551188896.345
1954374.0,1551188896.382
1955239.0,1551188896.423
1956020.0,1551188896.463
1956837.0,1551188896.503
1957870.0,1551188896.543
1958744.0,1551188896.584
1959703.0,1551188896.624
1960852.0,1551188896.664
1962134.0,1551188896.705
1963237.0,1551188896.742
1963452.0,1551188896.782
1961929.0,1551188896.824
1960778.0,1551188896.863
1959842.0,1551188896.903
1958892.0,1551188896.944
1958020.0,1551188896.984
1957964.0,1551188897.025
1957823.0,1551188897.065
1957619.0,1551188897.104
1957554.0,1551188897.142
1958019.0,1551188897.184
1958082.0,1551188897.224
1959440.0,1551188897.263
1960484.0,1551188897.305
1961583.0,1551188897.344
1962512.0,1551188897.384
1963773.0,1551188897.426
1964215.0,1551188897.464
1965135.0,1551188897.505
1965987.0,1551188897.544
1966880.0,1551188897.583
1967998.0,1551188897.624
1968848.0,1551188897.665
1969071.0,1551188897.704
1968897.0,1551188897.745
1968512.0,1551188897.786
1967815.0,1551188897.826
1966829.0,1551188897.865
1966056.0,1551188897.906
1965402.0,1551188897.945
1965117.0,1551188897.985
1964284.0,1551188898.027
1963962.0,1551188898.065
1964082.0,1551188898.105
1964212.0,1551188898.146
1964378.0,1551188898.185
1964779.0,1551188898.226
1965564.0,1551188898.267
1966096.0,1551188898.306
1966563.0,1551188898.346
1967203.0,1551188898.387
1967986.0,1551188898.427
1969062.0,1551188898.466
1970147.0,1551188898.507
1970892.0,1551188898.545
1971515.0,1551188898.585
1970792.0,1551188898.627
1969132.0,1551188898.665
1968066.0,1551188898.706
1967177.0,1551188898.747
1966401.0,1551188898.786
1965581.0,1551188898.827
1965386.0,1551188898.868
1964993.0,1551188898.905
1964991.0,1551188898.945
1964591.0,1551188898.987
1964753.0,1551188899.026
1965045.0,1551188899.066
1965395.0,1551188899.107
1966197.0,1551188899.146
1966518.0,1551188899.187
1967182.0,1551188899.229
1968175.0,1551188899.267
1968795.0,1551188899.305
1969545.0,1551188899.347
1970676.0,1551188899.386
1971810.0,1551188899.427
1971881.0,1551188899.467
1970208.0,1551188899.507
1968677.0,1551188899.547
1967609.0,1551188899.588
1966725.0,1551188899.628
1965186.0,1551188899.666
1964546.0,1551188899.707
1964215.0,1551188899.746
1963793.0,1551188899.786
1963419.0,1551188899.828
1963788.0,1551188899.867
1963826.0,1551188899.907
1963911.0,1551188899.948
1964368.0,1551188899.988
1965008.0,1551188900.027
1965455.0,1551188900.067
1966026.0,1551188900.106
1966826.0,1551188900.147
1967417.0,1551188900.188
1968248.0,1551188900.228
1969105.0,1551188900.267
1970099.0,1551188900.309
1970985.0,1551188900.348
1971269.0,1551188900.388
1969432.0,1551188900.43
1967455.0,1551188900.466
1965993.0,1551188900.506
1964234.0,1551188900.547
1962510.0,1551188900.586
1961431.0,1551188900.627
1960804.0,1551188900.668
1960030.0,1551188900.707
1959535.0,1551188900.748
1959009.0,1551188900.789
1958789.0,1551188900.829
1958690.0,1551188900.868
1958751.0,1551188900.908
1959222.0,1551188900.947
1959570.0,1551188900.987
1959899.0,1551188901.029
1960248.0,1551188901.068
1960880.0,1551188901.108
1961722.0,1551188901.149
1962396.0,1551188901.188
1963334.0,1551188901.229
1964171.0,1551188901.268
1963981.0,1551188901.307
1962251.0,1551188901.347
1960595.0,1551188901.389
1959531.0,1551188901.429
1958835.0,1551188901.468
1958048.0,1551188901.509
1957936.0,1551188901.549
1957963.0,1551188901.589
1957824.0,1551188901.631
1958123.0,1551188901.667
1958583.0,1551188901.707
1958794.0,1551188901.749
1959226.0,1551188901.788
1960070.0,1551188901.829
1962567.0,1551188901.87
1964313.0,1551188901.909
1965394.0,1551188901.949
1966379.0,1551188901.99
1967148.0,1551188902.028
1968005.0,1551188902.068
1968946.0,1551188902.109
1969801.0,1551188902.148
1970652.0,1551188902.189
1970426.0,1551188902.231
1968180.0,1551188902.269
1966461.0,1551188902.309
1963070.0,1551188902.39
1964507.0,1551188902.351
1960300.0,1551188902.469
1961543.0,1551188902.429
1959756.0,1551188902.508
1959265.0,1551188902.549
1958038.0,1551188902.669
1958511.0,1551188902.59
1958333.0,1551188902.711
1958530.0,1551188902.75
1958816.0,1551188902.79
1958172.0,1551188902.63
1959226.0,1551188902.83
1959858.0,1551188902.868
1960332.0,1551188902.909
1961415.0,1551188902.989
1963227.0,1551188903.07
1962180.0,1551188903.03
1960868.0,1551188902.95
1963967.0,1551188903.109
1964249.0,1551188903.149
1961915.0,1551188903.191
1959969.0,1551188903.231
1958307.0,1551188903.27
1956899.0,1551188903.312
1953806.0,1551188903.389
1954981.0,1551188903.349
1952664.0,1551188903.469
1953304.0,1551188903.431
1951981.0,1551188903.51
1951544.0,1551188903.551
1951585.0,1551188903.59
1952875.0,1551188903.672
1952095.0,1551188903.631
1955000.0,1551188903.749
1956892.0,1551188903.83
1955957.0,1551188903.79
1954065.0,1551188903.709
1958029.0,1551188903.87
1959938.0,1551188903.95
1959030.0,1551188903.911
1960373.0,1551188903.991
1959353.0,1551188904.071
1960597.0,1551188904.033
1957513.0,1551188904.109
1955938.0,1551188904.151
1953833.0,1551188904.231
1953096.0,1551188904.271
1952699.0,1551188904.31
1955117.0,1551188904.19
1952262.0,1551188904.351
1951571.0,1551188904.392
1951450.0,1551188904.47
1951128.0,1551188904.432
1951386.0,1551188904.511
1951588.0,1551188904.55
1952112.0,1551188904.59
1952685.0,1551188904.632
1953462.0,1551188904.671
1953751.0,1551188904.711
1954632.0,1551188904.752
1955599.0,1551188904.791
1956276.0,1551188904.832
1957278.0,1551188904.871
1958415.0,1551188904.91
1959330.0,1551188904.95
1957922.0,1551188904.992
1955546.0,1551188905.032
1953859.0,1551188905.071
1951950.0,1551188905.112
1949930.0,1551188905.152
1948310.0,1551188905.192
1947149.0,1551188905.234
1946190.0,1551188905.27
1945370.0,1551188905.31
1944503.0,1551188905.352
1944112.0,1551188905.391
1944220.0,1551188905.432
1943962.0,1551188905.473
1944186.0,1551188905.512
1944347.0,1551188905.552
1945023.0,1551188905.59
1945053.0,1551188905.631
1945437.0,1551188905.671
1946189.0,1551188905.712
1946999.0,1551188905.751
1947957.0,1551188905.791
1948706.0,1551188905.833
1948542.0,1551188905.871
1946531.0,1551188905.912
1944353.0,1551188905.953
1942958.0,1551188905.992
1941665.0,1551188906.033
1940317.0,1551188906.074
1939788.0,1551188906.111
1939163.0,1551188906.151
1938584.0,1551188906.192
1937925.0,1551188906.232
1937638.0,1551188906.272
1937627.0,1551188906.313
1937894.0,1551188906.352
1938388.0,1551188906.393
1938622.0,1551188906.435
1939227.0,1551188906.473
1939844.0,1551188906.511
1940300.0,1551188906.552
1940980.0,1551188906.592
1941940.0,1551188906.633
1942944.0,1551188906.673
1943787.0,1551188906.712
1944310.0,1551188906.753
1942387.0,1551188906.794
1939777.0,1551188906.834
1937827.0,1551188906.871
1936269.0,1551188906.913
1934113.0,1551188906.952
1932395.0,1551188906.992
1931619.0,1551188907.034
1930655.0,1551188907.073
1929984.0,1551188907.113
1929434.0,1551188907.154
1929291.0,1551188907.193
1929243.0,1551188907.234
1929440.0,1551188907.273
1929637.0,1551188907.312
1930164.0,1551188907.352
1930642.0,1551188907.394
1931161.0,1551188907.433
1932086.0,1551188907.473
1933126.0,1551188907.514
1934304.0,1551188907.554
1936109.0,1551188907.594
1937622.0,1551188907.636
1938710.0,1551188907.672
1937547.0,1551188907.712
1936178.0,1551188907.754
1934698.0,1551188907.794
1933995.0,1551188907.834
1933898.0,1551188907.874
1934096.0,1551188907.914
1934522.0,1551188907.954
1934634.0,1551188907.995
1934542.0,1551188908.035
1934552.0,1551188908.072
1934122.0,1551188908.114
1933806.0,1551188908.153
1934122.0,1551188908.193
1934374.0,1551188908.234
1934546.0,1551188908.273
1935402.0,1551188908.313
1935761.0,1551188908.354
1936554.0,1551188908.394
1937372.0,1551188908.435
1938439.0,1551188908.475
1939265.0,1551188908.514
1940367.0,1551188908.555
1940925.0,1551188908.594
1939555.0,1551188908.634
1937555.0,1551188908.673
1935610.0,1551188908.715
1934166.0,1551188908.754
1932334.0,1551188908.794
1931131.0,1551188908.836
1930638.0,1551188908.875
1929793.0,1551188908.915
1929130.0,1551188908.954
1928953.0,1551188908.993
1928782.0,1551188909.034
1929144.0,1551188909.075
1929569.0,1551188909.114
1929854.0,1551188909.154
1930295.0,1551188909.196
1930996.0,1551188909.236
1931657.0,1551188909.275
1933276.0,1551188909.353
1935650.0,1551188909.436
1936586.0,1551188909.474
1937296.0,1551188909.515
1934319.0,1551188909.394
1932540.0,1551188909.316
1934160.0,1551188909.595
1936045.0,1551188909.556
1931309.0,1551188909.677
1932592.0,1551188909.636
1928550.0,1551188909.753
1929773.0,1551188909.714
1928357.0,1551188909.794
1927696.0,1551188909.834
1927150.0,1551188909.873
1926869.0,1551188909.914
1926887.0,1551188909.953
1927205.0,1551188909.993
1927483.0,1551188910.035
1928276.0,1551188910.073
1928853.0,1551188910.113
1929556.0,1551188910.154
1930316.0,1551188910.193
1931262.0,1551188910.234
1932323.0,1551188910.275
1933271.0,1551188910.314
1934251.0,1551188910.354
1935431.0,1551188910.395
1936153.0,1551188910.434
1934859.0,1551188910.474
1932960.0,1551188910.515
1931397.0,1551188910.554
1930166.0,1551188910.595
1928730.0,1551188910.637
1927907.0,1551188910.673
1927396.0,1551188910.713
1926966.0,1551188910.754
1926584.0,1551188910.793
1926307.0,1551188910.835
1926590.0,1551188910.875
1927055.0,1551188910.914
1927344.0,1551188910.954
1928074.0,1551188910.995
1928749.0,1551188911.035
1929575.0,1551188911.075
1930339.0,1551188911.116
1931544.0,1551188911.155
1932226.0,1551188911.195
1933392.0,1551188911.237
1934700.0,1551188911.276
1935847.0,1551188911.316
1937123.0,1551188911.355
1936456.0,1551188911.394
1934600.0,1551188911.435
1933574.0,1551188911.476
1933069.0,1551188911.515
1932218.0,1551188911.555
1931661.0,1551188911.597
1931507.0,1551188911.637
1932156.0,1551188911.676
1932754.0,1551188911.715
1932899.0,1551188911.755
1933218.0,1551188911.795
1933709.0,1551188911.837
1933932.0,1551188911.875
1934375.0,1551188911.916
1934837.0,1551188911.957
1935542.0,1551188911.996
1936327.0,1551188912.037
1936968.0,1551188912.078
1937927.0,1551188912.115
1939065.0,1551188912.155
1940220.0,1551188912.196
1941416.0,1551188912.236
1942549.0,1551188912.276
1942406.0,1551188912.317
1940849.0,1551188912.356
1939511.0,1551188912.397
1938432.0,1551188912.439
1937427.0,1551188912.477
1936603.0,1551188912.515
1936508.0,1551188912.556
1936127.0,1551188912.596
1936008.0,1551188912.637
1935853.0,1551188912.677
1936327.0,1551188912.716
1936460.0,1551188912.757
1937208.0,1551188912.798
1937604.0,1551188912.838
1938342.0,1551188912.875
1939176.0,1551188912.917
1939824.0,1551188912.956
1940769.0,1551188912.996
1941569.0,1551188913.038
1942865.0,1551188913.077
1943827.0,1551188913.117
1944987.0,1551188913.158
1946457.0,1551188913.197
1946133.0,1551188913.238
1944506.0,1551188913.276
1943583.0,1551188913.315
1942676.0,1551188913.356
1941673.0,1551188913.397
1940691.0,1551188913.437
1940422.0,1551188913.476
1940565.0,1551188913.517
1940528.0,1551188913.556
1940887.0,1551188913.597
1942409.0,1551188913.639
1944096.0,1551188913.677
1945051.0,1551188913.717
1945739.0,1551188913.759
1946450.0,1551188913.798
1946672.0,1551188913.839
1947283.0,1551188913.877
1947939.0,1551188913.916
1948528.0,1551188913.957
1949642.0,1551188913.998
1950539.0,1551188914.038
1951685.0,1551188914.077
1952893.0,1551188914.119
1952990.0,1551188914.158
1951451.0,1551188914.198
1950185.0,1551188914.24
1949484.0,1551188914.277
1948697.0,1551188914.317
1948211.0,1551188914.358
1947800.0,1551188914.397
1947723.0,1551188914.438
1947508.0,1551188914.479
1947322.0,1551188914.518
1947928.0,1551188914.558
1948270.0,1551188914.6
1948935.0,1551188914.638
1949422.0,1551188914.677
1950187.0,1551188914.718
1951258.0,1551188914.758
1951852.0,1551188914.798
1952860.0,1551188914.84
1953783.0,1551188914.878
1954655.0,1551188914.919
1955973.0,1551188914.96
1957293.0,1551188914.997
1958235.0,1551188915.038
1958010.0,1551188915.079
1956608.0,1551188915.118
1955058.0,1551188915.158
1954119.0,1551188915.199
1952952.0,1551188915.239
1951877.0,1551188915.279
1951491.0,1551188915.32
1951527.0,1551188915.359
1952245.0,1551188915.397
1952705.0,1551188915.439
1953067.0,1551188915.478
1953580.0,1551188915.518
1954040.0,1551188915.559
1954237.0,1551188915.599
1954778.0,1551188915.64
1955160.0,1551188915.68
1955641.0,1551188915.719
1956436.0,1551188915.76
1957065.0,1551188915.804
1958052.0,1551188915.844
1959117.0,1551188915.88
1960408.0,1551188915.919
1960822.0,1551188915.958
1959883.0,1551188915.998
1958422.0,1551188916.04
1957407.0,1551188916.079
1956397.0,1551188916.119
1955616.0,1551188916.16
1955261.0,1551188916.2
1955316.0,1551188916.241
1954899.0,1551188916.318
1954860.0,1551188916.358
1955258.0,1551188916.4
1954916.0,1551188916.281
1955559.0,1551188916.44
1956269.0,1551188916.479
1956910.0,1551188916.52
1957856.0,1551188916.56
1958581.0,1551188916.6
1959369.0,1551188916.642
1959999.0,1551188916.68
1961072.0,1551188916.718
1962027.0,1551188916.76
1963264.0,1551188916.799
1964094.0,1551188916.84
1963747.0,1551188916.881
1962294.0,1551188916.92
1960671.0,1551188916.96
1959523.0,1551188917.001
1956696.0,1551188917.081
1956108.0,1551188917.12
1955314.0,1551188917.159
1958191.0,1551188917.041
1955698.0,1551188917.199
1956475.0,1551188917.241
1956709.0,1551188917.28
1957204.0,1551188917.32
1957309.0,1551188917.361
1957550.0,1551188917.401
1958147.0,1551188917.482
1958409.0,1551188917.519
1958999.0,1551188917.559
1958067.0,1551188917.442
1959579.0,1551188917.601
1960313.0,1551188917.641
1962144.0,1551188917.721
1962850.0,1551188917.761
1961473.0,1551188917.801
1959696.0,1551188917.843
1961552.0,1551188917.68
1958295.0,1551188917.879
1957309.0,1551188917.92
1956330.0,1551188917.961
1955872.0,1551188918.0
1955666.0,1551188918.041
1955235.0,1551188918.082
1954863.0,1551188918.121
1954819.0,1551188918.161
1955239.0,1551188918.203
1955206.0,1551188918.242
1955856.0,1551188918.28
1956319.0,1551188918.321
1956986.0,1551188918.36
1957872.0,1551188918.4
1958674.0,1551188918.442
1959766.0,1551188918.481
1960590.0,1551188918.521
1961519.0,1551188918.562
1962598.0,1551188918.602
1963637.0,1551188918.643
1962587.0,1551188918.681
1960575.0,1551188918.72
1959157.0,1551188918.761
1958231.0,1551188918.802
1956619.0,1551188918.881
1956715.0,1551188918.923
1956654.0,1551188918.962
1956469.0,1551188919.002
1956706.0,1551188919.044
1957054.0,1551188918.842
1957285.0,1551188919.08
1957961.0,1551188919.121
1957977.0,1551188919.162
1957838.0,1551188919.201
1958128.0,1551188919.242
1958417.0,1551188919.283
1959113.0,1551188919.322
1960014.0,1551188919.362
1960860.0,1551188919.403
1961645.0,1551188919.443
1963355.0,1551188919.522
1960588.0,1551188919.601
1959316.0,1551188919.643
1957850.0,1551188919.682
1956764.0,1551188919.722
1962547.0,1551188919.561
1962536.0,1551188919.481
1955942.0,1551188919.764
1955468.0,1551188919.803
1955272.0,1551188919.844
1954616.0,1551188919.921
1954863.0,1551188919.962
1954910.0,1551188919.882
1955546.0,1551188920.043
1955911.0,1551188920.082
1954942.0,1551188920.003
1957163.0,1551188920.163
1958201.0,1551188920.203
1956839.0,1551188920.124
1958763.0,1551188920.245
1959809.0,1551188920.281
1960679.0,1551188920.322
1961774.0,1551188920.363
1962486.0,1551188920.402
1961938.0,1551188920.443
1960498.0,1551188920.484
1959065.0,1551188920.523
1957659.0,1551188920.563
1955039.0,1551188920.642
1954466.0,1551188920.682
1956211.0,1551188920.605
1954380.0,1551188920.723
1953833.0,1551188920.762
1953604.0,1551188920.803
1953547.0,1551188920.845
1954156.0,1551188920.921
1954021.0,1551188920.883
1955247.0,1551188921.002
1955750.0,1551188921.043
1954597.0,1551188920.963
1956606.0,1551188921.083
1958807.0,1551188921.204
1959136.0,1551188921.244
1958290.0,1551188921.162
1960174.0,1551188921.283
1960572.0,1551188921.325
1959937.0,1551188921.364
1957376.0,1551188921.122
1959261.0,1551188921.404
1959037.0,1551188921.446
1958592.0,1551188921.482
1957793.0,1551188921.523
1957536.0,1551188921.564
1957367.0,1551188921.603
1957011.0,1551188921.644
1957303.0,1551188921.685
1957132.0,1551188921.724
1957613.0,1551188921.763
1958640.0,1551188921.841
1959341.0,1551188921.88
1958197.0,1551188921.802
1960342.0,1551188921.919
1963548.0,1551188922.075
1960905.0,1551188921.958
1962764.0,1551188922.036
1961680.0,1551188921.997
1964778.0,1551188922.114
1965867.0,1551188922.153
1966883.0,1551188922.192
1966493.0,1551188922.231
1964963.0,1551188922.27
1963486.0,1551188922.309
1962823.0,1551188922.348
1961236.0,1551188922.387
1960033.0,1551188922.426
1959616.0,1551188922.465
1959164.0,1551188922.504
1958550.0,1551188922.543
1958487.0,1551188922.582
1958297.0,1551188922.621
1958675.0,1551188922.66
1958980.0,1551188922.699
1959319.0,1551188922.738
1959766.0,1551188922.777
1960879.0,1551188922.855
1961587.0,1551188922.894
1960231.0,1551188922.816
1963304.0,1551188922.972
1964361.0,1551188923.011
1965299.0,1551188923.05
1965863.0,1551188923.089
1964962.0,1551188923.128
1963541.0,1551188923.167
1962373.0,1551188922.933
1962574.0,1551188923.207
1962045.0,1551188923.247
1960950.0,1551188923.327
1961095.0,1551188923.287
1960366.0,1551188923.407
1960533.0,1551188923.367
1960256.0,1551188923.447
1960601.0,1551188923.487
1960873.0,1551188923.527
1961258.0,1551188923.567
1961767.0,1551188923.607
1962464.0,1551188923.647
1963843.0,1551188923.727
1963019.0,1551188923.687
1964511.0,1551188923.767
1965955.0,1551188923.847
1965162.0,1551188923.807
1967019.0,1551188923.887
1968021.0,1551188923.927
1968606.0,1551188923.967
1965935.0,1551188924.047
1967507.0,1551188924.007
1963990.0,1551188924.127
1964850.0,1551188924.087
1962789.0,1551188924.167
1961659.0,1551188924.247
1961843.0,1551188924.207
1961336.0,1551188924.327
1961413.0,1551188924.407
1961409.0,1551188924.287
1961295.0,1551188924.367
1962501.0,1551188924.487
1961833.0,1551188924.447
1963743.0,1551188924.567
1962965.0,1551188924.527
1965286.0,1551188924.647
1964545.0,1551188924.607
1965966.0,1551188924.687
1967026.0,1551188924.727
1967840.0,1551188924.767
1969185.0,1551188924.807
1970326.0,1551188924.847
1970819.0,1551188924.887
1969999.0,1551188924.927
1970092.0,1551188924.967
1970546.0,1551188925.007
1970482.0,1551188925.047
1970240.0,1551188925.087
1970079.0,1551188925.127
1971171.0,1551188925.207
1970192.0,1551188925.167
1973176.0,1551188925.287
1972712.0,1551188925.247
1973774.0,1551188925.327
1974340.0,1551188925.367
1975752.0,1551188925.447
1976006.0,1551188925.487
1975123.0,1551188925.407
1976666.0,1551188925.527
1977023.0,1551188925.567
1977720.0,1551188925.607
1978058.0,1551188925.647
1978817.0,1551188925.687
1979519.0,1551188925.727
1980251.0,1551188925.767
1979841.0,1551188925.807
1978448.0,1551188925.847
1976691.0,1551188925.887
1975603.0,1551188925.927
1974732.0,1551188925.967
1973398.0,1551188926.047
1973487.0,1551188926.087
1973325.0,1551188926.127
1973809.0,1551188926.007
1973622.0,1551188926.167
1974121.0,1551188926.207
1974976.0,1551188926.247
1975971.0,1551188926.287
1976960.0,1551188926.327
1978004.0,1551188926.367
1978650.0,1551188926.407
1979278.0,1551188926.447
1979943.0,1551188926.487
1981242.0,1551188926.567
1980762.0,1551188926.527
1982197.0,1551188926.607
1982975.0,1551188926.647
1983595.0,1551188926.687
1983363.0,1551188926.727
1981958.0,1551188926.767
1980738.0,1551188926.807
1979845.0,1551188926.847
1978827.0,1551188926.887
1978254.0,1551188926.927
1978558.0,1551188926.967
1978229.0,1551188927.007
1978320.0,1551188927.047
1978518.0,1551188927.087
1979154.0,1551188927.127
1979540.0,1551188927.167
1980093.0,1551188927.207
1980110.0,1551188927.247
1980143.0,1551188927.287
1980501.0,1551188927.327
1980979.0,1551188927.367
1981784.0,1551188927.407
1982462.0,1551188927.447
1983156.0,1551188927.487
1984025.0,1551188927.527
1984159.0,1551188927.567
1982781.0,1551188927.607
1981404.0,1551188927.647
1980020.0,1551188927.687
1979006.0,1551188927.727
1978176.0,1551188927.767
1977278.0,1551188927.807
1977135.0,1551188927.847
1976560.0,1551188927.887
1976316.0,1551188927.927
1976042.0,1551188927.967
1976026.0,1551188928.007
1977399.0,1551188928.167
1978378.0,1551188928.247
1978789.0,1551188928.287
1979655.0,1551188928.327
1977845.0,1551188928.207
1976244.0,1551188928.047
1976888.0,1551188928.127
1976565.0,1551188928.087
1981235.0,1551188928.407
1980702.0,1551188928.367
1980954.0,1551188928.447
1979135.0,1551188928.487
1975924.0,1551188928.567
1977276.0,1551188928.527
1972677.0,1551188928.647
1974074.0,1551188928.607
1971647.0,1551188928.687
1971146.0,1551188928.727
1970848.0,1551188928.767
1970072.0,1551188928.807
1969909.0,1551188928.847
1969867.0,1551188928.887
1970269.0,1551188928.927
1970474.0,1551188928.967
1970821.0,1551188929.007
1971711.0,1551188929.087
1971383.0,1551188929.047
1972271.0,1551188929.127
1973089.0,1551188929.167
1973677.0,1551188929.207
1974389.0,1551188929.247
1975156.0,1551188929.287
1975151.0,1551188929.327
1973198.0,1551188929.367
1971607.0,1551188929.407
1970381.0,1551188929.447
1969266.0,1551188929.487
1968546.0,1551188929.527
1967820.0,1551188929.567
1967285.0,1551188929.607
1966667.0,1551188929.647
1966324.0,1551188929.687
1966344.0,1551188929.727
1966515.0,1551188929.767
1966502.0,1551188929.807
1966768.0,1551188929.847
1967320.0,1551188929.887
1967849.0,1551188929.927
1968311.0,1551188929.967
1968946.0,1551188930.007
1969592.0,1551188930.047
1970435.0,1551188930.087
1971255.0,1551188930.127
1972167.0,1551188930.167
1971955.0,1551188930.207
1970425.0,1551188930.247
1968491.0,1551188930.287
1967093.0,1551188930.327
1965657.0,1551188930.367
1964139.0,1551188930.407
1963391.0,1551188930.447
1962582.0,1551188930.487
1962050.0,1551188930.527
1961446.0,1551188930.567
1961239.0,1551188930.607
1961234.0,1551188930.647
1961447.0,1551188930.687
1961664.0,1551188930.727
1961914.0,1551188930.767
1962369.0,1551188930.807
1962809.0,1551188930.847
1964137.0,1551188930.927
1963544.0,1551188930.887
1964735.0,1551188930.967
1965666.0,1551188931.007
1966298.0,1551188931.047
1966671.0,1551188931.087
1965399.0,1551188931.127
1963742.0,1551188931.167
1962422.0,1551188931.207
1961362.0,1551188931.247
1960098.0,1551188931.287
1959694.0,1551188931.327
1959302.0,1551188931.367
1958635.0,1551188931.407
1958240.0,1551188931.447
1958166.0,1551188931.487
1958146.0,1551188931.527
1958379.0,1551188931.567
1958806.0,1551188931.607
1959448.0,1551188931.647
1960363.0,1551188931.687
1960634.0,1551188931.727
1961419.0,1551188931.767
1962237.0,1551188931.807
1963017.0,1551188931.847
1963755.0,1551188931.887
1964659.0,1551188931.927
1964784.0,1551188931.967
1963043.0,1551188932.007
1960926.0,1551188932.047
1959272.0,1551188932.087
1957921.0,1551188932.127
1956087.0,1551188932.167
1954995.0,1551188932.207
1954520.0,1551188932.247
1953729.0,1551188932.287
1953092.0,1551188932.327
1952647.0,1551188932.367
1952505.0,1551188932.407
1952407.0,1551188932.447
1952491.0,1551188932.487
1952728.0,1551188932.527
1952934.0,1551188932.567
1953385.0,1551188932.607
1954107.0,1551188932.647
1954307.0,1551188932.687
1954995.0,1551188932.727
1956253.0,1551188932.767
1956836.0,1551188932.807
1957241.0,1551188932.847
1956236.0,1551188932.887
1955163.0,1551188932.927
1954363.0,1551188932.967
1953987.0,1551188933.007
1953148.0,1551188933.047
1952069.0,1551188933.087
1951120.0,1551188933.127
1950289.0,1551188933.167
1949317.0,1551188933.207
1948633.0,1551188933.247
1948553.0,1551188933.287
1948753.0,1551188933.327
1948888.0,1551188933.367
1948979.0,1551188933.407
1949358.0,1551188933.447
1949824.0,1551188933.487
1950014.0,1551188933.527
1950564.0,1551188933.567
1951179.0,1551188933.607
1952056.0,1551188933.647
1952762.0,1551188933.687
1953364.0,1551188933.726
1951848.0,1551188933.767
1949717.0,1551188933.806
1947742.0,1551188933.846
1945935.0,1551188933.887
1944314.0,1551188933.926
1942875.0,1551188933.966
1942265.0,1551188934.008
1941406.0,1551188934.046
1940500.0,1551188934.086
1940015.0,1551188934.127
1939671.0,1551188934.166
1939599.0,1551188934.207
1939405.0,1551188934.247
1939643.0,1551188934.286
1939755.0,1551188934.326
1940158.0,1551188934.367
1940359.0,1551188934.407
1941027.0,1551188934.446
1941947.0,1551188934.487
1942608.0,1551188934.526
1943500.0,1551188934.567
1944369.0,1551188934.608
1943407.0,1551188934.647
1941925.0,1551188934.687
1940696.0,1551188934.728
1939627.0,1551188934.767
1938291.0,1551188934.807
1936708.0,1551188934.848
1935700.0,1551188934.887
1934534.0,1551188934.927
1933788.0,1551188934.968
1933031.0,1551188935.008
1932865.0,1551188935.047
1932450.0,1551188935.088
1932359.0,1551188935.127
1932401.0,1551188935.167
1932497.0,1551188935.209
1932736.0,1551188935.247
1933042.0,1551188935.287
1933607.0,1551188935.328
1934158.0,1551188935.367
1934917.0,1551188935.408
1935548.0,1551188935.449
1936198.0,1551188935.488
1934921.0,1551188935.528
1932665.0,1551188935.569
1930381.0,1551188935.608
1928538.0,1551188935.648
1926811.0,1551188935.689
1925464.0,1551188935.728
1924501.0,1551188935.768
1923753.0,1551188935.81
1922747.0,1551188935.848
1922132.0,1551188935.888
1921839.0,1551188935.929
1921772.0,1551188935.968
1921909.0,1551188936.009
1922442.0,1551188936.049
1922618.0,1551188936.088
1923910.0,1551188936.169
1925439.0,1551188936.248
1924466.0,1551188936.209
1926298.0,1551188936.289
1923210.0,1551188936.128
1927733.0,1551188936.328
1927271.0,1551188936.41
1928319.0,1551188936.369
1925163.0,1551188936.449
1923203.0,1551188936.489
1921487.0,1551188936.53
1919725.0,1551188936.569
1918042.0,1551188936.609
1917074.0,1551188936.65
1916375.0,1551188936.689
1915690.0,1551188936.729
1915040.0,1551188936.77
1915006.0,1551188936.81
1914862.0,1551188936.849
1915534.0,1551188936.929
1915090.0,1551188936.89
1915886.0,1551188936.969
1916461.0,1551188937.011
1917141.0,1551188937.049
1917727.0,1551188937.089
1918361.0,1551188937.131
1919317.0,1551188937.17
1920410.0,1551188937.21
1921231.0,1551188937.251
1921161.0,1551188937.29
1919251.0,1551188937.33
1917089.0,1551188937.371
1914122.0,1551188937.45
1915651.0,1551188937.411
1912902.0,1551188937.491
1912245.0,1551188937.53
1911841.0,1551188937.57
1911128.0,1551188937.612
1910879.0,1551188937.65
1910829.0,1551188937.69
1911244.0,1551188937.731
1911564.0,1551188937.771
1912218.0,1551188937.811
1913087.0,1551188937.851
1914173.0,1551188937.89
1914847.0,1551188937.93
1915971.0,1551188937.972
1916747.0,1551188938.011
1918028.0,1551188938.051
1919176.0,1551188938.092
1920328.0,1551188938.131
1921153.0,1551188938.171
1919941.0,1551188938.213
1918374.0,1551188938.251
1917002.0,1551188938.291
1916255.0,1551188938.332
1914793.0,1551188938.371
1914473.0,1551188938.452
1914184.0,1551188938.412
1914729.0,1551188938.491
1914082.0,1551188938.531
1913075.0,1551188938.572
1911838.0,1551188938.612
1911884.0,1551188938.651
1913574.0,1551188938.692
1915125.0,1551188938.731
1916876.0,1551188938.771
1918533.0,1551188938.813
1920000.0,1551188938.851
1920881.0,1551188938.891
1921851.0,1551188938.932
1923047.0,1551188938.971
1924142.0,1551188939.012
1924938.0,1551188939.053
1924473.0,1551188939.092
1922663.0,1551188939.132
1921446.0,1551188939.173
1920481.0,1551188939.212
1919571.0,1551188939.252
1919069.0,1551188939.293
1919087.0,1551188939.372
1919054.0,1551188939.332
1919138.0,1551188939.452
1919641.0,1551188939.492
1919022.0,1551188939.414
1920906.0,1551188939.572
1920154.0,1551188939.533
1922870.0,1551188939.653
1921781.0,1551188939.613
1924165.0,1551188939.692
1926313.0,1551188939.773
1927444.0,1551188939.813
1925252.0,1551188939.732
1928864.0,1551188939.852
1930346.0,1551188939.893
1931711.0,1551188939.932
1932104.0,1551188939.973
1930607.0,1551188940.014
1929345.0,1551188940.053
1928579.0,1551188940.093
1927797.0,1551188940.134
1926659.0,1551188940.173
1926640.0,1551188940.213
1926715.0,1551188940.254
1926663.0,1551188940.293
1926816.0,1551188940.333
1927281.0,1551188940.374
1927795.0,1551188940.414
1928706.0,1551188940.453
1929584.0,1551188940.494
1930558.0,1551188940.533
1931832.0,1551188940.573
1933103.0,1551188940.615
1934027.0,1551188940.653
1935516.0,1551188940.693
1936951.0,1551188940.734
1938993.0,1551188940.773
1940454.0,1551188940.814
1941433.0,1551188940.854
1940183.0,1551188940.893
1938614.0,1551188940.933
1938158.0,1551188940.974
1937746.0,1551188941.014
1937177.0,1551188941.054
1937319.0,1551188941.095
1937366.0,1551188941.134
1937441.0,1551188941.174
1937548.0,1551188941.215
1937736.0,1551188941.254
1938291.0,1551188941.294
1939132.0,1551188941.335
1939910.0,1551188941.374
1940539.0,1551188941.415
1941464.0,1551188941.455
1942604.0,1551188941.494
1943621.0,1551188941.534
1944485.0,1551188941.575
1945505.0,1551188941.615
1946585.0,1551188941.654
1947808.0,1551188941.695
1949105.0,1551188941.734
1949109.0,1551188941.774
1947435.0,1551188941.816
1945894.0,1551188941.854
1944952.0,1551188941.894
1943762.0,1551188941.935
1942701.0,1551188941.974
1942063.0,1551188942.015
1941964.0,1551188942.056
1941688.0,1551188942.095
1941759.0,1551188942.135
1941560.0,1551188942.176
1941890.0,1551188942.215
1942666.0,1551188942.255
1943051.0,1551188942.296
1944041.0,1551188942.335
1944534.0,1551188942.375
1945580.0,1551188942.417
1946196.0,1551188942.455
1947509.0,1551188942.495
1948702.0,1551188942.536
1949839.0,1551188942.575
1951247.0,1551188942.616
1952563.0,1551188942.656
1953006.0,1551188942.695
1952457.0,1551188942.735
1952102.0,1551188942.776
1951755.0,1551188942.816
1951063.0,1551188942.855
1950397.0,1551188942.896
1950260.0,1551188942.936
1949904.0,1551188942.976
1949653.0,1551188943.017
1949865.0,1551188943.056
1950092.0,1551188943.096
1950395.0,1551188943.137
1950998.0,1551188943.176
1951888.0,1551188943.217
1952604.0,1551188943.257
1953476.0,1551188943.296
1954584.0,1551188943.336
1955902.0,1551188943.377
1956748.0,1551188943.417
1958021.0,1551188943.456
1959013.0,1551188943.497
1959571.0,1551188943.536
1959713.0,1551188943.576
1957888.0,1551188943.618
1956125.0,1551188943.656
1954927.0,1551188943.696
1953602.0,1551188943.738
1951870.0,1551188943.777
1950701.0,1551188943.817
1949991.0,1551188943.858
1949750.0,1551188943.897
1949252.0,1551188943.937
1949108.0,1551188943.978
1948691.0,1551188944.018
1948364.0,1551188944.057
1948130.0,1551188944.098
1947526.0,1551188944.137
1947470.0,1551188944.177
1947878.0,1551188944.219
1948503.0,1551188944.257
1949307.0,1551188944.297
1950309.0,1551188944.338
1951498.0,1551188944.377
1952830.0,1551188944.418
1953906.0,1551188944.459
1954036.0,1551188944.498
1951989.0,1551188944.538
1948985.0,1551188944.579
1946209.0,1551188944.618
1945719.0,1551188944.658
1946454.0,1551188944.699
1948082.0,1551188944.738
1949088.0,1551188944.778
1950572.0,1551188944.858
1951799.0,1551188944.898
1953292.0,1551188944.939
1954612.0,1551188944.978
1949827.0,1551188944.82
1956722.0,1551188945.019
1960790.0,1551188945.098
1958746.0,1551188945.059
1962636.0,1551188945.138
1963877.0,1551188945.18
1965345.0,1551188945.219
1967936.0,1551188945.3
1968258.0,1551188945.339
1966447.0,1551188945.259
1966502.0,1551188945.379
1963661.0,1551188945.421
1960335.0,1551188945.499
1961791.0,1551188945.459
1958718.0,1551188945.54
1957733.0,1551188945.579
1957075.0,1551188945.62
1956132.0,1551188945.66
1955301.0,1551188945.699
1954668.0,1551188945.789
1954238.0,1551188945.83
1954365.0,1551188945.87
1954957.0,1551188945.951
1954644.0,1551188945.909
1955403.0,1551188945.99
1955816.0,1551188946.03
1956496.0,1551188946.071
1956719.0,1551188946.11
1957836.0,1551188946.15
1959728.0,1551188946.23
1958688.0,1551188946.191
1959806.0,1551188946.271
1958641.0,1551188946.311
1956986.0,1551188946.35
1956064.0,1551188946.39
1955197.0,1551188946.431
1954198.0,1551188946.471
1953384.0,1551188946.51
1953442.0,1551188946.551
1952999.0,1551188946.59
1952907.0,1551188946.63
1952703.0,1551188946.672
1953103.0,1551188946.71
1953522.0,1551188946.751
1953824.0,1551188946.792
1954423.0,1551188946.831
1955149.0,1551188946.871
1955832.0,1551188946.912
1956491.0,1551188946.951
1957496.0,1551188946.991
1958654.0,1551188947.032
1959386.0,1551188947.072
1960790.0,1551188947.111
1961635.0,1551188947.152
1960966.0,1551188947.191
1959532.0,1551188947.231
1958494.0,1551188947.273
1958019.0,1551188947.311
1957085.0,1551188947.352
1956419.0,1551188947.393
1956579.0,1551188947.432
1956522.0,1551188947.472
1955959.0,1551188947.513
1956016.0,1551188947.552
1956073.0,1551188947.592
1956306.0,1551188947.633
1957213.0,1551188947.673
1957610.0,1551188947.712
1958239.0,1551188947.753
1958831.0,1551188947.792
1959656.0,1551188947.832
1960440.0,1551188947.874
1961515.0,1551188947.912
1962168.0,1551188947.952
1963261.0,1551188947.994
1962847.0,1551188948.033
1961242.0,1551188948.073
1959485.0,1551188948.114
1958195.0,1551188948.153
1956700.0,1551188948.193
1955642.0,1551188948.234
1954618.0,1551188948.274
1954183.0,1551188948.313
1953684.0,1551188948.354
1953167.0,1551188948.393
1953068.0,1551188948.433
1952863.0,1551188948.475
1953178.0,1551188948.513
1953562.0,1551188948.553
1953993.0,1551188948.594
1954524.0,1551188948.633
1955069.0,1551188948.674
1954968.0,1551188948.715
1954166.0,1551188948.754
1954334.0,1551188948.794
1955934.0,1551188948.835
1957721.0,1551188948.874
1959387.0,1551188948.914
1960390.0,1551188948.955
1959088.0,1551188948.994
1957489.0,1551188949.034
1955875.0,1551188949.076
1954579.0,1551188949.114
1953126.0,1551188949.154
1952090.0,1551188949.195
1951644.0,1551188949.234
1950691.0,1551188949.275
1950297.0,1551188949.315
1949906.0,1551188949.354
1949677.0,1551188949.395
1949882.0,1551188949.436
1949897.0,1551188949.476
1950312.0,1551188949.515
1950588.0,1551188949.556
1951324.0,1551188949.595
1952160.0,1551188949.635
1952806.0,1551188949.677
1953533.0,1551188949.715
1954497.0,1551188949.755
1955336.0,1551188949.797
1956130.0,1551188949.836
1954614.0,1551188949.876
1952695.0,1551188949.917
1951364.0,1551188949.956
1950457.0,1551188949.996
1949641.0,1551188950.037
1948925.0,1551188950.077
1948580.0,1551188950.116
1948537.0,1551188950.157
1947971.0,1551188950.196
1948027.0,1551188950.236
1948287.0,1551188950.278
1948507.0,1551188950.316
1948945.0,1551188950.356
1949528.0,1551188950.397
1950376.0,1551188950.437
1950859.0,1551188950.477
1951431.0,1551188950.518
1952458.0,1551188950.557
1953421.0,1551188950.597
1955007.0,1551188950.638
1956046.0,1551188950.678
1956679.0,1551188950.717
1955563.0,1551188950.758
1953406.0,1551188950.797
1952059.0,1551188950.837
1950769.0,1551188950.879
1949326.0,1551188950.917
1948576.0,1551188950.957
1948438.0,1551188950.999
1948587.0,1551188951.038
1948614.0,1551188951.078
1948787.0,1551188951.119
1948555.0,1551188951.158
1948675.0,1551188951.198
1948772.0,1551188951.239
1949118.0,1551188951.279
1949209.0,1551188951.318
1949736.0,1551188951.359
1950025.0,1551188951.398
1950490.0,1551188951.438
1951001.0,1551188951.48
1951660.0,1551188951.519
1952417.0,1551188951.559
1953148.0,1551188951.6
1953689.0,1551188951.639
1952544.0,1551188951.68
1950179.0,1551188951.72
1948249.0,1551188951.759
1946699.0,1551188951.799
1945435.0,1551188951.84
1944375.0,1551188951.88
1943945.0,1551188951.919
1943738.0,1551188951.96
1942939.0,1551188951.999
1942444.0,1551188952.04
1942349.0,1551188952.081
1942462.0,1551188952.12
1942932.0,1551188952.16
1943144.0,1551188952.201
1944055.0,1551188952.24
1944375.0,1551188952.281
1944899.0,1551188952.321
1945308.0,1551188952.36
1946012.0,1551188952.4
1947068.0,1551188952.441
1947782.0,1551188952.481
1947622.0,1551188952.52
1945316.0,1551188952.561
1943207.0,1551188952.601
1941635.0,1551188952.637
1940136.0,1551188952.673
1938656.0,1551188952.709
1937779.0,1551188952.749
1937344.0,1551188952.79
1936632.0,1551188952.83
1935781.0,1551188952.871
1935339.0,1551188952.911
1935410.0,1551188952.95
1935301.0,1551188952.991
1935686.0,1551188953.032
1935896.0,1551188953.07
1936196.0,1551188953.109
1936544.0,1551188953.151
1937024.0,1551188953.19
1937610.0,1551188953.23
1938327.0,1551188953.272
1938854.0,1551188953.31
1939634.0,1551188953.351
1939314.0,1551188953.392
1936740.0,1551188953.431
1934052.0,1551188953.47
1931757.0,1551188953.511
1929155.0,1551188953.55
1926483.0,1551188953.59
1924235.0,1551188953.631
1922634.0,1551188953.671
1920837.0,1551188953.711
1919373.0,1551188953.752
1918288.0,1551188953.791
1917462.0,1551188953.832
1916934.0,1551188953.871
1916778.0,1551188953.91
1916328.0,1551188953.95
1915939.0,1551188953.991
1915896.0,1551188954.031
1915869.0,1551188954.072
1916088.0,1551188954.112
1916519.0,1551188954.151
1917006.0,1551188954.192
1917558.0,1551188954.233
1917792.0,1551188954.272
1915505.0,1551188954.312
1909944.0,1551188954.392
1912290.0,1551188954.353
1908176.0,1551188954.432
1906262.0,1551188954.474
1904954.0,1551188954.512
1904022.0,1551188954.552
1902887.0,1551188954.593
1901958.0,1551188954.63
1901302.0,1551188954.671
1901254.0,1551188954.712
1901784.0,1551188954.751
1902260.0,1551188954.791
1903063.0,1551188954.833
1904095.0,1551188954.873
1905289.0,1551188954.912
1905006.0,1551188954.953
1905421.0,1551188954.991
1907793.0,1551188955.031
1910705.0,1551188955.073
1912992.0,1551188955.111
1912437.0,1551188955.152
1910654.0,1551188955.193
1909281.0,1551188955.232
1907634.0,1551188955.273
1905663.0,1551188955.314
1903400.0,1551188955.353
1902262.0,1551188955.391
1901214.0,1551188955.432
1899509.0,1551188955.472
1897945.0,1551188955.512
1897108.0,1551188955.553
1896442.0,1551188955.592
1896137.0,1551188955.632
1896108.0,1551188955.674
1896459.0,1551188955.713
1896882.0,1551188955.753
1897186.0,1551188955.792
1897627.0,1551188955.831
1898110.0,1551188955.872
1898840.0,1551188955.913
1899541.0,1551188955.952
1900432.0,1551188955.992
1899762.0,1551188956.034
1896616.0,1551188956.074
1893342.0,1551188956.113
1890402.0,1551188956.155
1888336.0,1551188956.192
1885916.0,1551188956.232
1883977.0,1551188956.274
1882861.0,1551188956.312
1881774.0,1551188956.353
1880543.0,1551188956.394
1880056.0,1551188956.433
1879615.0,1551188956.474
1879534.0,1551188956.515
1879762.0,1551188956.554
1880484.0,1551188956.592
1881017.0,1551188956.633
1881946.0,1551188956.673
1882666.0,1551188956.713
1884025.0,1551188956.754
1885909.0,1551188956.793
1888200.0,1551188956.833
1890460.0,1551188956.875
1892562.0,1551188956.914
1892424.0,1551188956.954
1890768.0,1551188956.995
1889563.0,1551188957.032
1888275.0,1551188957.073
1887158.0,1551188957.114
1887191.0,1551188957.153
1887070.0,1551188957.193
1886488.0,1551188957.235
1885828.0,1551188957.274
1885765.0,1551188957.314
1885899.0,1551188957.355
1885876.0,1551188957.394
1886332.0,1551188957.433
1886698.0,1551188957.474
1887406.0,1551188957.513
1888180.0,1551188957.553
1888972.0,1551188957.595
1890204.0,1551188957.634
1891099.0,1551188957.675
1892215.0,1551188957.715
1893418.0,1551188957.755
1894492.0,1551188957.795
1893731.0,1551188957.836
1891065.0,1551188957.875
1888918.0,1551188957.915
1887135.0,1551188957.956
1885197.0,1551188957.995
1883124.0,1551188958.035
1882172.0,1551188958.077
1881361.0,1551188958.115
1880275.0,1551188958.155
1879401.0,1551188958.196
1878851.0,1551188958.235
1878474.0,1551188958.276
1878461.0,1551188958.316
1879020.0,1551188958.355
1879575.0,1551188958.395
1880134.0,1551188958.436
1880785.0,1551188958.476
1881819.0,1551188958.516
1882921.0,1551188958.557
1884403.0,1551188958.593
1885484.0,1551188958.633
1886960.0,1551188958.675
1888319.0,1551188958.713
1887045.0,1551188958.753
1883312.0,1551188958.834
1884959.0,1551188958.795
1882060.0,1551188958.874
1880808.0,1551188958.915
1879803.0,1551188958.954
1879176.0,1551188958.994
1878875.0,1551188959.036
1878251.0,1551188959.076
1877684.0,1551188959.115
1877478.0,1551188959.156
1877464.0,1551188959.196
1877801.0,1551188959.236
1878007.0,1551188959.276
1878227.0,1551188959.314
1878789.0,1551188959.354
1879013.0,1551188959.395
1879586.0,1551188959.434
1879999.0,1551188959.475
1881046.0,1551188959.516
1882169.0,1551188959.555
1883083.0,1551188959.595
1882818.0,1551188959.636
1879841.0,1551188959.676
1877276.0,1551188959.716
1875123.0,1551188959.757
1873206.0,1551188959.796
1871121.0,1551188959.834
1870040.0,1551188959.876
1869292.0,1551188959.915
1868280.0,1551188959.955
1867925.0,1551188959.996
1868136.0,1551188960.036
1868532.0,1551188960.077
1868977.0,1551188960.117
1869811.0,1551188960.156
1870624.0,1551188960.197
1871594.0,1551188960.236
1872632.0,1551188960.276
1873275.0,1551188960.315
1874199.0,1551188960.357
1875259.0,1551188960.396
1876608.0,1551188960.436
1877920.0,1551188960.478
1879101.0,1551188960.516
1878025.0,1551188960.557
1875832.0,1551188960.598
1874708.0,1551188960.635
1873768.0,1551188960.676
1872450.0,1551188960.717
1871492.0,1551188960.756
1871544.0,1551188960.796
1871126.0,1551188960.837
1870901.0,1551188960.877
1870668.0,1551188960.917
1871095.0,1551188960.958
1871676.0,1551188960.995
1872274.0,1551188961.036
1872743.0,1551188961.078
1873589.0,1551188961.116
1874335.0,1551188961.156
1875422.0,1551188961.198
1876349.0,1551188961.237
1877356.0,1551188961.278
1878538.0,1551188961.318
1879934.0,1551188961.358
1881206.0,1551188961.396
1882469.0,1551188961.437
1881995.0,1551188961.477
1880198.0,1551188961.516
1879046.0,1551188961.558
1878381.0,1551188961.597
1877755.0,1551188961.637
1877205.0,1551188961.679
1877275.0,1551188961.718
1877110.0,1551188961.758
1876860.0,1551188961.797
1876887.0,1551188961.836
1877078.0,1551188961.877
1877565.0,1551188961.918
1878503.0,1551188961.957
1879211.0,1551188961.997
1879826.0,1551188962.038
1880723.0,1551188962.078
1881632.0,1551188962.117
1882878.0,1551188962.158
1884090.0,1551188962.198
1885462.0,1551188962.238
1886816.0,1551188962.28
1887297.0,1551188962.318
1886193.0,1551188962.356
1885580.0,1551188962.398
1885849.0,1551188962.437
1885875.0,1551188962.478
1886984.0,1551188962.519
1888192.0,1551188962.558
1889703.0,1551188962.598
1890800.0,1551188962.639
1891679.0,1551188962.679
1892474.0,1551188962.717
1893816.0,1551188962.758
1894752.0,1551188962.797
1895953.0,1551188962.838
1897541.0,1551188962.88
1898521.0,1551188962.918
1899659.0,1551188962.958
1901021.0,1551188963.0
1902315.0,1551188963.039
1903811.0,1551188963.08
1905249.0,1551188963.118
1906627.0,1551188963.157
1907703.0,1551188963.198
1906725.0,1551188963.239
1905144.0,1551188963.279
1904155.0,1551188963.318
1903009.0,1551188963.36
1901936.0,1551188963.399
1901411.0,1551188963.439
1901222.0,1551188963.481
1901065.0,1551188963.517
1900858.0,1551188963.558
1901004.0,1551188963.599
1901405.0,1551188963.638
1902250.0,1551188963.679
1902919.0,1551188963.72
1903655.0,1551188963.759
1904631.0,1551188963.799
1905657.0,1551188963.841
1906679.0,1551188963.878
1907839.0,1551188963.918
1908967.0,1551188963.959
1910392.0,1551188963.998
1912129.0,1551188964.039
1913193.0,1551188964.081
1912609.0,1551188964.119
1911061.0,1551188964.159
1910232.0,1551188964.201
1909925.0,1551188964.24
1909166.0,1551188964.279
1909358.0,1551188964.319
1909752.0,1551188964.358
1910348.0,1551188964.399
1910327.0,1551188964.44
1910308.0,1551188964.48
1911495.0,1551188964.519
1913485.0,1551188964.561
1915211.0,1551188964.6
1916806.0,1551188964.64
1918530.0,1551188964.682
1919617.0,1551188964.718
1921025.0,1551188964.759
1922185.0,1551188964.8
1923445.0,1551188964.839
1924584.0,1551188964.88
1926200.0,1551188964.921
1926897.0,1551188964.96
1925269.0,1551188965.0
1923230.0,1551188965.042
1921781.0,1551188965.081
1920713.0,1551188965.119
1919253.0,1551188965.16
1918491.0,1551188965.199
1917986.0,1551188965.239
1917734.0,1551188965.281
1917543.0,1551188965.32
1917209.0,1551188965.36
1917215.0,1551188965.401
1917496.0,1551188965.441
1917986.0,1551188965.482
1918385.0,1551188965.52
1919143.0,1551188965.559
1919923.0,1551188965.6
1920970.0,1551188965.641
1921667.0,1551188965.681
1922577.0,1551188965.72
1923551.0,1551188965.762
1924754.0,1551188965.801
1926134.0,1551188965.841
1926949.0,1551188965.881
1925766.0,1551188965.92
1923646.0,1551188965.96
1921828.0,1551188966.001
1920456.0,1551188966.04
1918931.0,1551188966.081
1917772.0,1551188966.122
1917306.0,1551188966.161
1916924.0,1551188966.201
1916563.0,1551188966.241
1916256.0,1551188966.281
1916125.0,1551188966.32
1916650.0,1551188966.361
1917254.0,1551188966.401
1917692.0,1551188966.441
1918415.0,1551188966.483
1918945.0,1551188966.521
1920064.0,1551188966.562
1920720.0,1551188966.603
1921913.0,1551188966.64
1923064.0,1551188966.681
1924433.0,1551188966.722
1925855.0,1551188966.761
1925882.0,1551188966.801
1924052.0,1551188966.842
1922880.0,1551188966.882
