bvp,time
-88.66,1780135980.0
-81.0,1780135980.015625
-75.7,1780135980.03125
-72.64,1780135980.046875
-71.21,1780135980.0625
-70.55,1780135980.078125
-69.84,1780135980.09375
-68.55,1780135980.109375
-66.47,1780135980.125
-63.76,1780135980.140625
-60.73,1780135980.15625
-57.74,1780135980.171875
-55.04,1780135980.1875
-52.72,1780135980.203125
-50.92,1780135980.21875
-49.87,1780135980.234375
-50.04,1780135980.25
-52.04,1780135980.265625
-56.39,1780135980.28125
-63.31,1780135980.296875
-72.57,1780135980.3125
-83.62,1780135980.328125
-95.76,1780135980.34375
-108.4,1780135980.359375
-121.19,1780135980.375
-133.88,1780135980.390625
-146.26,1780135980.40625
-157.97,1780135980.421875
-168.63,1780135980.4375
-178.01,1780135980.453125
-186.32,1780135980.46875
-194.17,1780135980.484375
-202.31,1780135980.5
-211.11,1780135980.515625
-220.05,1780135980.53125
-227.53,1780135980.546875
-231.12,1780135980.5625
-228.16,1780135980.578125
-216.62,1780135980.59375
-195.78,1780135980.609375
-166.41,1780135980.625
-130.67,1780135980.640625
-91.5,1780135980.65625
-51.96,1780135980.671875
-14.73,1780135980.6875
18.25,1780135980.703125
45.86,1780135980.71875
67.66,1780135980.734375
83.86,1780135980.75
95.17,1780135980.765625
102.74,1780135980.78125
107.94,1780135980.796875
112.11,1780135980.8125
116.21,1780135980.828125
120.54,1780135980.84375
124.57,1780135980.859375
127.02,1780135980.875
126.23,1780135980.890625
120.71,1780135980.90625
109.85,1780135980.921875
94.23,1780135980.9375
75.77,1780135980.953125
57.16,1780135980.96875
41.11,1780135980.984375
29.34,1780135981.0
22.08,1780135981.015625
18.02,1780135981.03125
15.02,1780135981.046875
11.07,1780135981.0625
5.18,1780135981.078125
-2.39,1780135981.09375
-10.48,1780135981.109375
-17.92,1780135981.125
-24.24,1780135981.140625
-30.04,1780135981.15625
-36.66,1780135981.171875
-45.59,1780135981.1875
-57.69,1780135981.203125
-72.75,1780135981.21875
-89.29,1780135981.234375
-104.86,1780135981.25
-116.43,1780135981.265625
-121.08,1780135981.28125
-116.74,1780135981.296875
-102.81,1780135981.3125
-80.44,1780135981.328125
-52.34,1780135981.34375
-22.12,1780135981.359375
6.71,1780135981.375
31.6,1780135981.390625
51.26,1780135981.40625
65.62,1780135981.421875
75.18,1780135981.4375
80.42,1780135981.453125
81.48,1780135981.46875
78.25,1780135981.484375
70.67,1780135981.5
59.13,1780135981.515625
44.61,1780135981.53125
28.52,1780135981.546875
12.35,1780135981.5625
-2.7,1780135981.578125
-15.9,1780135981.59375
-26.92,1780135981.609375
-35.61,1780135981.625
-41.8,1780135981.640625
-45.28,1780135981.65625
-45.92,1780135981.671875
-43.99,1780135981.6875
-40.27,1780135981.703125
-35.98,1780135981.71875
-32.38,1780135981.734375
-30.29,1780135981.75
-29.82,1780135981.765625
-30.36,1780135981.78125
-30.94,1780135981.796875
-30.67,1780135981.8125
-29.22,1780135981.828125
-26.85,1780135981.84375
-24.39,1780135981.859375
-22.89,1780135981.875
-23.25,1780135981.890625
-25.87,1780135981.90625
-30.28,1780135981.921875
-34.97,1780135981.9375
-37.51,1780135981.953125
-35.13,1780135981.96875
-25.53,1780135981.984375
-7.85,1780135982.0
16.86,1780135982.015625
45.82,1780135982.03125
75.36,1780135982.046875
102.03,1780135982.0625
123.48,1780135982.078125
138.8,1780135982.09375
148.21,1780135982.109375
152.48,1780135982.125
152.36,1780135982.140625
148.4,1780135982.15625
141.07,1780135982.171875
130.97,1780135982.1875
118.95,1780135982.203125
106.03,1780135982.21875
93.15,1780135982.234375
80.96,1780135982.25
69.69,1780135982.265625
59.38,1780135982.28125
50.1,1780135982.296875
42.12,1780135982.3125
35.92,1780135982.328125
31.96,1780135982.34375
30.4,1780135982.359375
30.79,1780135982.375
32.18,1780135982.390625
33.3,1780135982.40625
32.99,1780135982.421875
30.53,1780135982.4375
25.75,1780135982.453125
19.03,1780135982.46875
11.09,1780135982.484375
2.68,1780135982.5
-5.72,1780135982.515625
-14.05,1780135982.53125
-22.82,1780135982.546875
-32.91,1780135982.5625
-45.2,1780135982.578125
-60.07,1780135982.59375
-76.84,1780135982.609375
-93.58,1780135982.625
-107.28,1780135982.640625
-114.6,1780135982.65625
-112.73,1780135982.671875
-100.32,1780135982.6875
-78.01,1780135982.703125
-48.21,1780135982.71875
-14.58,1780135982.734375
18.95,1780135982.75
48.98,1780135982.765625
73.25,1780135982.78125
90.74,1780135982.796875
101.5,1780135982.8125
106.3,1780135982.828125
106.27,1780135982.84375
102.6,1780135982.859375
96.44,1780135982.875
88.75,1780135982.890625
80.35,1780135982.90625
71.93,1780135982.921875
64.08,1780135982.9375
57.2,1780135982.953125
51.46,1780135982.96875
46.69,1780135982.984375
42.34,1780135983.0
37.69,1780135983.015625
32.07,1780135983.03125
25.08,1780135983.046875
16.85,1780135983.0625
7.99,1780135983.078125
-0.4,1780135983.09375
-7.03,1780135983.109375
-10.61,1780135983.125
-10.28,1780135983.140625
-5.93,1780135983.15625
1.6,1780135983.171875
10.48,1780135983.1875
18.29,1780135983.203125
22.6,1780135983.21875
21.67,1780135983.234375
15.11,1780135983.25
4.05,1780135983.265625
-8.96,1780135983.28125
-20.65,1780135983.296875
-27.78,1780135983.3125
-28.08,1780135983.328125
-20.66,1780135983.34375
-6.2,1780135983.359375
13.37,1780135983.375
35.44,1780135983.390625
57.3,1780135983.40625
76.56,1780135983.421875
91.36,1780135983.4375
100.48,1780135983.453125
103.32,1780135983.46875
99.96,1780135983.484375
91.18,1780135983.5
78.49,1780135983.515625
63.92,1780135983.53125
49.66,1780135983.546875
37.62,1780135983.5625
28.99,1780135983.578125
23.93,1780135983.59375
21.54,1780135983.609375
20.05,1780135983.625
17.41,1780135983.640625
11.92,1780135983.65625
2.84,1780135983.671875
-9.3,1780135983.6875
-22.97,1780135983.703125
-36.29,1780135983.71875
-47.81,1780135983.734375
-57.14,1780135983.75
-65.15,1780135983.765625
-73.57,1780135983.78125
-84.57,1780135983.796875
-100.09,1780135983.8125
-121.4,1780135983.828125
-148.56,1780135983.84375
-180.16,1780135983.859375
-213.27,1780135983.875
-243.96,1780135983.890625
-268.23,1780135983.90625
-283.07,1780135983.921875
-287.27,1780135983.9375
-281.56,1780135983.953125
-268.04,1780135983.96875
-249.31,1780135983.984375
-227.84,1780135984.0
-205.54,1780135984.015625
-183.93,1780135984.03125
-164.2,1780135984.046875
-147.15,1780135984.0625
-133.06,1780135984.078125
-121.53,1780135984.09375
-111.57,1780135984.109375
-101.97,1780135984.125
-91.76,1780135984.140625
-80.48,1780135984.15625
-68.21,1780135984.171875
-55.43,1780135984.1875
-42.72,1780135984.203125
-30.59,1780135984.21875
-19.23,1780135984.234375
-8.42,1780135984.25
2.27,1780135984.265625
13.39,1780135984.28125
25.12,1780135984.296875
37.13,1780135984.3125
48.43,1780135984.328125
57.7,1780135984.34375
63.83,1780135984.359375
66.41,1780135984.375
66.01,1780135984.390625
63.97,1780135984.40625
61.76,1780135984.421875
60.4,1780135984.4375
60.03,1780135984.453125
60.03,1780135984.46875
59.47,1780135984.484375
57.76,1780135984.5
54.94,1780135984.515625
51.71,1780135984.53125
49.28,1780135984.546875
48.98,1780135984.5625
52.06,1780135984.578125
59.24,1780135984.59375
70.42,1780135984.609375
84.32,1780135984.625
98.53,1780135984.640625
109.86,1780135984.65625
115.15,1780135984.671875
112.21,1780135984.6875
100.36,1780135984.703125
80.34,1780135984.71875
53.72,1780135984.734375
22.22,1780135984.75
-12.58,1780135984.765625
-48.81,1780135984.78125
-83.79,1780135984.796875
-113.81,1780135984.8125
-134.83,1780135984.828125
-143.75,1780135984.84375
-139.8,1780135984.859375
-125.13,1780135984.875
-104.16,1780135984.890625
-81.98,1780135984.90625
-62.58,1780135984.921875
-47.55,1780135984.9375
-36.1,1780135984.953125
-25.94,1780135984.96875
-14.75,1780135984.984375
-1.15,1780135985.0
14.89,1780135985.015625
32.42,1780135985.03125
50.13,1780135985.046875
66.98,1780135985.0625
82.31,1780135985.078125
95.77,1780135985.09375
106.96,1780135985.109375
115.23,1780135985.125
119.69,1780135985.140625
119.4,1780135985.15625
113.55,1780135985.171875
101.55,1780135985.1875
82.93,1780135985.203125
57.3,1780135985.21875
24.55,1780135985.234375
-14.66,1780135985.25
-58.29,1780135985.265625
-102.65,1780135985.28125
-142.98,1780135985.296875
-174.64,1780135985.3125
-194.77,1780135985.328125
-203.39,1780135985.34375
-203.46,1780135985.359375
-199.75,1780135985.375
-197.1,1780135985.390625
-198.93,1780135985.40625
-206.53,1780135985.421875
-219.44,1780135985.4375
-236.1,1780135985.453125
-254.65,1780135985.46875
-273.15,1780135985.484375
-289.55,1780135985.5
-301.76,1780135985.515625
-307.97,1780135985.53125
-307.28,1780135985.546875
-300.08,1780135985.5625
-288.07,1780135985.578125
-273.48,1780135985.59375
-258.27,1780135985.609375
-243.32,1780135985.625
-228.37,1780135985.640625
-212.44,1780135985.65625
-194.49,1780135985.671875
-173.98,1780135985.6875
-150.94,1780135985.703125
-125.75,1780135985.71875
-98.83,1780135985.734375
-70.63,1780135985.75
-41.87,1780135985.765625
-13.91,1780135985.78125
11.19,1780135985.796875
31.08,1780135985.8125
43.92,1780135985.828125
49.12,1780135985.84375
47.76,1780135985.859375
42.07,1780135985.875
34.59,1780135985.890625
27.12,1780135985.90625
20.2,1780135985.921875
13.14,1780135985.9375
4.73,1780135985.953125
-6.22,1780135985.96875
-20.37,1780135985.984375
-37.78,1780135986.0
-57.94,1780135986.015625
-79.74,1780135986.03125
-101.33,1780135986.046875
-120.29,1780135986.0625
-133.98,1780135986.078125
-140.37,1780135986.09375
-138.72,1780135986.109375
-129.83,1780135986.125
-115.74,1780135986.140625
-98.97,1780135986.15625
-81.7,1780135986.171875
-65.26,1780135986.1875
-50.17,1780135986.203125
-36.4,1780135986.21875
-23.68,1780135986.234375
-11.73,1780135986.25
-0.21,1780135986.265625
11.3,1780135986.28125
23.23,1780135986.296875
35.89,1780135986.3125
49.34,1780135986.328125
63.35,1780135986.34375
77.49,1780135986.359375
91.32,1780135986.375
104.55,1780135986.390625
117.18,1780135986.40625
129.58,1780135986.421875
142.36,1780135986.4375
156.17,1780135986.453125
171.25,1780135986.46875
187.08,1780135986.484375
202.25,1780135986.5
214.67,1780135986.515625
222.15,1780135986.53125
223.19,1780135986.546875
217.48,1780135986.5625
205.98,1780135986.578125
190.54,1780135986.59375
173.13,1780135986.609375
155.2,1780135986.625
137.39,1780135986.640625
119.68,1780135986.65625
101.71,1780135986.671875
83.15,1780135986.6875
63.64,1780135986.703125
42.71,1780135986.71875
19.78,1780135986.734375
-5.4,1780135986.75
-32.03,1780135986.765625
-57.91,1780135986.78125
-79.55,1780135986.796875
-93.24,1780135986.8125
-96.42,1780135986.828125
-88.79,1780135986.84375
-72.44,1780135986.859375
-50.96,1780135986.875
-27.91,1780135986.890625
-5.65,1780135986.90625
15.15,1780135986.921875
35.14,1780135986.9375
55.46,1780135986.953125
77.11,1780135986.96875
100.54,1780135986.984375
125.51,1780135987.0
151.06,1780135987.015625
175.5,1780135987.03125
196.53,1780135987.046875
211.73,1780135987.0625
219.2,1780135987.078125
218.26,1780135987.09375
209.67,1780135987.109375
195.44,1780135987.125
178.25,1780135987.140625
160.69,1780135987.15625
144.76,1780135987.171875
131.67,1780135987.1875
121.81,1780135987.203125
114.97,1780135987.21875
110.31,1780135987.234375
106.67,1780135987.25
102.65,1780135987.265625
97.04,1780135987.28125
89.07,1780135987.296875
78.67,1780135987.3125
66.4,1780135987.328125
53.17,1780135987.34375
39.95,1780135987.359375
27.36,1780135987.375
15.5,1780135987.390625
3.92,1780135987.40625
-8.28,1780135987.421875
-22.22,1780135987.4375
-38.77,1780135987.453125
-58.06,1780135987.46875
-78.88,1780135987.484375
-98.57,1780135987.5
-113.46,1780135987.515625
-119.86,1780135987.53125
-115.31,1780135987.546875
-99.4,1780135987.5625
-73.8,1780135987.578125
-41.43,1780135987.59375
-5.29,1780135987.609375
32.36,1780135987.625
70.14,1780135987.640625
107.02,1780135987.65625
141.65,1780135987.671875
172.14,1780135987.6875
196.49,1780135987.703125
213.28,1780135987.71875
222.23,1780135987.734375
224.27,1780135987.75
221.02,1780135987.765625
214.19,1780135987.78125
204.98,1780135987.796875
194.11,1780135987.8125
181.97,1780135987.828125
168.94,1780135987.84375
155.58,1780135987.859375
142.6,1780135987.875
130.66,1780135987.890625
120.22,1780135987.90625
111.38,1780135987.921875
103.88,1780135987.9375
97.21,1780135987.953125
90.73,1780135987.96875
83.86,1780135987.984375
76.11,1780135988.0
67.23,1780135988.015625
57.12,1780135988.03125
45.94,1780135988.046875
33.94,1780135988.0625
21.48,1780135988.078125
8.92,1780135988.09375
-3.47,1780135988.109375
-15.62,1780135988.125
-27.67,1780135988.140625
-40.06,1780135988.15625
-53.5,1780135988.171875
-68.75,1780135988.1875
-86.25,1780135988.203125
-105.59,1780135988.21875
-125.07,1780135988.234375
-141.72,1780135988.25
-151.81,1780135988.265625
-151.91,1780135988.28125
-139.97,1780135988.296875
-116.13,1780135988.3125
-82.68,1780135988.328125
-43.39,1780135988.34375
-2.39,1780135988.359375
36.82,1780135988.375
71.9,1780135988.390625
101.7,1780135988.40625
125.9,1780135988.421875
144.54,1780135988.4375
157.82,1780135988.453125
166.02,1780135988.46875
169.55,1780135988.484375
169.05,1780135988.5
165.36,1780135988.515625
159.37,1780135988.53125
151.88,1780135988.546875
143.46,1780135988.5625
134.47,1780135988.578125
125.12,1780135988.59375
115.66,1780135988.609375
106.46,1780135988.625
98.03,1780135988.640625
90.84,1780135988.65625
85.22,1780135988.671875
81.14,1780135988.6875
78.29,1780135988.703125
76.16,1780135988.71875
74.15,1780135988.734375
71.77,1780135988.75
68.67,1780135988.765625
64.69,1780135988.78125
59.87,1780135988.796875
54.49,1780135988.8125
48.99,1780135988.828125
43.81,1780135988.84375
39.27,1780135988.859375
35.42,1780135988.875
32.04,1780135988.890625
28.71,1780135988.90625
25.01,1780135988.921875
20.54,1780135988.9375
14.95,1780135988.953125
8.03,1780135988.96875
-0.1,1780135988.984375
-8.65,1780135989.0
-15.88,1780135989.015625
-19.06,1780135989.03125
-15.07,1780135989.046875
-1.21,1780135989.0625
23.84,1780135989.078125
59.53,1780135989.09375
103.62,1780135989.109375
152.96,1780135989.125
204.27,1780135989.140625
254.81,1780135989.15625
302.32,1780135989.171875
344.73,1780135989.1875
379.77,1780135989.203125
405.03,1780135989.21875
418.45,1780135989.234375
419.15,1780135989.25
407.99,1780135989.265625
387.55,1780135989.28125
361.47,1780135989.296875
333.41,1780135989.3125
306.11,1780135989.328125
280.8,1780135989.34375
257.42,1780135989.359375
235.11,1780135989.375
212.97,1780135989.390625
190.53,1780135989.40625
167.85,1780135989.421875
145.34,1780135989.4375
123.41,1780135989.453125
102.18,1780135989.46875
81.44,1780135989.484375
60.68,1780135989.5
39.37,1780135989.515625
17.11,1780135989.53125
-6.13,1780135989.546875
-30.01,1780135989.5625
-53.9,1780135989.578125
-77.11,1780135989.59375
-99.14,1780135989.609375
-119.83,1780135989.625
-139.44,1780135989.640625
-158.44,1780135989.65625
-177.52,1780135989.671875
-197.41,1780135989.6875
-218.88,1780135989.703125
-242.48,1780135989.71875
-268.16,1780135989.734375
-294.69,1780135989.75
-319.47,1780135989.765625
-338.86,1780135989.78125
-349.19,1780135989.796875
-348.06,1780135989.8125
-335.41,1780135989.828125
-313.6,1780135989.84375
-286.64,1780135989.859375
-258.76,1780135989.875
-233.15,1780135989.890625
-211.31,1780135989.90625
-193.41,1780135989.921875
-178.92,1780135989.9375
-167.4,1780135989.953125
-158.7,1780135989.96875
-152.79,1780135989.984375
-149.39,1780135990.0
-147.71,1780135990.015625
-146.6,1780135990.03125
-144.96,1780135990.046875
-142.1,1780135990.0625
-138.03,1780135990.078125
-133.4,1780135990.09375
-129.07,1780135990.109375
-125.64,1780135990.125
-123.13,1780135990.140625
-120.99,1780135990.15625
-118.45,1780135990.171875
-114.94,1780135990.1875
-110.48,1780135990.203125
-105.7,1780135990.21875
-101.55,1780135990.234375
-98.84,1780135990.25
-97.9,1780135990.265625
-98.47,1780135990.28125
-99.83,1780135990.296875
-101.25,1780135990.3125
-102.27,1780135990.328125
-102.99,1780135990.34375
-104.05,1780135990.359375
-106.44,1780135990.375
-111.13,1780135990.390625
-118.53,1780135990.40625
-128.14,1780135990.421875
-138.32,1780135990.4375
-146.56,1780135990.453125
-150.11,1780135990.46875
-146.76,1780135990.484375
-135.57,1780135990.5
-117.06,1780135990.515625
-92.97,1780135990.53125
-65.61,1780135990.546875
-37.31,1780135990.5625
-9.98,1780135990.578125
14.95,1780135990.59375
36.46,1780135990.609375
53.79,1780135990.625
66.45,1780135990.640625
74.35,1780135990.65625
77.85,1780135990.671875
77.76,1780135990.6875
75.14,1780135990.703125
71.05,1780135990.71875
66.33,1780135990.734375
61.49,1780135990.75
56.69,1780135990.765625
51.83,1780135990.78125
46.79,1780135990.796875
41.5,1780135990.8125
36.18,1780135990.828125
31.28,1780135990.84375
27.43,1780135990.859375
25.26,1780135990.875
25.14,1780135990.890625
27.01,1780135990.90625
30.29,1780135990.921875
33.95,1780135990.9375
36.76,1780135990.953125
37.59,1780135990.96875
35.79,1780135990.984375
31.35,1780135991.0
24.96,1780135991.015625
17.78,1780135991.03125
10.92,1780135991.046875
5.09,1780135991.0625
0.21,1780135991.078125
-4.58,1780135991.09375
-10.57,1780135991.109375
-19.09,1780135991.125
-30.78,1780135991.140625
-45.27,1780135991.15625
-60.92,1780135991.171875
-75.22,1780135991.1875
-85.31,1780135991.203125
-88.9,1780135991.21875
-84.85,1780135991.234375
-73.55,1780135991.25
-56.7,1780135991.265625
-36.79,1780135991.28125
-16.38,1780135991.296875
2.49,1780135991.3125
18.53,1780135991.328125
31.14,1780135991.34375
40.11,1780135991.359375
45.41,1780135991.375
47.08,1780135991.390625
45.29,1780135991.40625
40.53,1780135991.421875
33.61,1780135991.4375
25.54,1780135991.453125
17.32,1780135991.46875
9.66,1780135991.484375
2.92,1780135991.5
-2.9,1780135991.515625
-7.95,1780135991.53125
-12.32,1780135991.546875
-16.04,1780135991.5625
-18.99,1780135991.578125
-21.17,1780135991.59375
-22.69,1780135991.609375
-23.85,1780135991.625
-25.04,1780135991.640625
-26.59,1780135991.65625
-28.66,1780135991.671875
-31.3,1780135991.6875
-34.47,1780135991.703125
-38.15,1780135991.71875
-42.33,1780135991.734375
-46.97,1780135991.75
-51.89,1780135991.765625
-56.75,1780135991.78125
-61.13,1780135991.796875
-64.77,1780135991.8125
-67.74,1780135991.828125
-70.49,1780135991.84375
-73.69,1780135991.859375
-77.72,1780135991.875
-82.33,1780135991.890625
-86.29,1780135991.90625
-87.55,1780135991.921875
-83.68,1780135991.9375
-72.62,1780135991.953125
-53.4,1780135991.96875
-26.46,1780135991.984375
6.35,1780135992.0
42.29,1780135992.015625
78.38,1780135992.03125
112.14,1780135992.046875
141.99,1780135992.0625
167.38,1780135992.078125
188.6,1780135992.09375
206.36,1780135992.109375
221.45,1780135992.125
234.41,1780135992.140625
245.51,1780135992.15625
254.72,1780135992.171875
261.88,1780135992.1875
266.9,1780135992.203125
269.79,1780135992.21875
270.76,1780135992.234375
270.2,1780135992.25
268.61,1780135992.265625
266.43,1780135992.28125
263.89,1780135992.296875
260.82,1780135992.3125
256.6,1780135992.328125
250.33,1780135992.34375
241.13,1780135992.359375
228.47,1780135992.375
212.36,1780135992.390625
193.34,1780135992.40625
172.04,1780135992.421875
148.88,1780135992.4375
123.8,1780135992.453125
96.51,1780135992.46875
67.01,1780135992.484375
36.11,1780135992.5
5.6,1780135992.515625
-22.2,1780135992.53125
-45.23,1780135992.546875
-62.64,1780135992.5625
-75.14,1780135992.578125
-84.67,1780135992.59375
-93.58,1780135992.609375
-103.56,1780135992.625
-115.07,1780135992.640625
-127.25,1780135992.65625
-138.4,1780135992.671875
-146.58,1780135992.6875
-150.13,1780135992.703125
-147.86,1780135992.71875
-139.32,1780135992.734375
-124.9,1780135992.75
-106.12,1780135992.765625
-85.61,1780135992.78125
-66.86,1780135992.796875
-53.57,1780135992.8125
-48.83,1780135992.828125
-54.53,1780135992.84375
-70.83,1780135992.859375
-96.11,1780135992.875
-127.2,1780135992.890625
-159.85,1780135992.90625
-189.63,1780135992.921875
-212.85,1780135992.9375
-227.58,1780135992.953125
-234.02,1780135992.96875
-234.28,1780135992.984375
-231.5,1780135993.0
-228.7,1780135993.015625
-227.83,1780135993.03125
-229.61,1780135993.046875
-233.82,1780135993.0625
-239.9,1780135993.078125
-247.36,1780135993.09375
-255.75,1780135993.109375
-264.23,1780135993.125
-271.4,1780135993.140625
-275.43,1780135993.15625
-274.57,1780135993.171875
-267.91,1780135993.1875
-255.89,1780135993.203125
-240.34,1780135993.21875
-224.19,1780135993.234375
-210.81,1780135993.25
-203.42,1780135993.265625
-204.6,1780135993.28125
-215.73,1780135993.296875
-236.49,1780135993.3125
-264.63,1780135993.328125
-295.98,1780135993.34375
-325.28,1780135993.359375
-347.38,1780135993.375
-358.68,1780135993.390625
-358.01,1780135993.40625
-346.75,1780135993.421875
-328.09,1780135993.4375
-305.84,1780135993.453125
-283.27,1780135993.46875
-262.47,1780135993.484375
-244.24,1780135993.5
-228.38,1780135993.515625
-214.17,1780135993.53125
-200.78,1780135993.546875
-187.61,1780135993.5625
-174.4,1780135993.578125
-161.16,1780135993.59375
-148.1,1780135993.609375
-135.57,1780135993.625
-124.09,1780135993.640625
-114.46,1780135993.65625
-107.54,1780135993.671875
-103.9,1780135993.6875
-103.34,1780135993.703125
-104.66,1780135993.71875
-105.82,1780135993.734375
-104.61,1780135993.75
-99.44,1780135993.765625
-89.91,1780135993.78125
-76.8,1780135993.796875
-61.52,1780135993.8125
-45.48,1780135993.828125
-29.66,1780135993.84375
-14.48,1780135993.859375
-0.08,1780135993.875
13.49,1780135993.890625
26.22,1780135993.90625
38.36,1780135993.921875
50.54,1780135993.9375
63.94,1780135993.953125
80.07,1780135993.96875
100.24,1780135993.984375
124.81,1780135994.0
152.59,1780135994.015625
180.59,1780135994.03125
204.75,1780135994.046875
221.15,1780135994.0625
227.71,1780135994.078125
225.31,1780135994.09375
217.88,1780135994.109375
211.34,1780135994.125
211.6,1780135994.140625
222.73,1780135994.15625
245.82,1780135994.171875
278.94,1780135994.1875
318.02,1780135994.203125
357.94,1780135994.21875
393.61,1780135994.234375
420.75,1780135994.25
436.34,1780135994.265625
438.93,1780135994.28125
428.83,1780135994.296875
407.83,1780135994.3125
378.68,1780135994.328125
344.33,1780135994.34375
307.3,1780135994.359375
269.36,1780135994.375
231.59,1780135994.390625
194.69,1780135994.40625
159.2,1780135994.421875
125.62,1780135994.4375
94.39,1780135994.453125
65.83,1780135994.46875
40.21,1780135994.484375
17.72,1780135994.5
-1.41,1780135994.515625
-17.15,1780135994.53125
-29.68,1780135994.546875
-39.54,1780135994.5625
-47.54,1780135994.578125
-54.51,1780135994.59375
-61.06,1780135994.609375
-67.44,1780135994.625
-73.56,1780135994.640625
-79.15,1780135994.65625
-84.12,1780135994.671875
-88.83,1780135994.6875
-94.27,1780135994.703125
-101.87,1780135994.71875
-113.1,1780135994.734375
-128.75,1780135994.75
-148.33,1780135994.765625
-169.74,1780135994.78125
-189.55,1780135994.796875
-203.81,1780135994.8125
-209.14,1780135994.828125
-203.83,1780135994.84375
-188.21,1780135994.859375
-164.48,1780135994.875
-135.93,1780135994.890625
-105.98,1780135994.90625
-77.4,1780135994.921875
-52.01,1780135994.9375
-30.78,1780135994.953125
-14.19,1780135994.96875
-2.51,1780135994.984375
4.13,1780135995.0
5.79,1780135995.015625
2.91,1780135995.03125
-3.61,1780135995.046875
-12.56,1780135995.0625
-22.51,1780135995.078125
-32.14,1780135995.09375
-40.37,1780135995.109375
-46.51,1780135995.125
-50.35,1780135995.140625
-52.09,1780135995.15625
-52.26,1780135995.171875
-51.58,1780135995.1875
-50.66,1780135995.203125
-50.01,1780135995.21875
-49.92,1780135995.234375
-50.6,1780135995.25
-52.24,1780135995.265625
-55.1,1780135995.28125
-59.56,1780135995.296875
-66.07,1780135995.3125
-75.06,1780135995.328125
-86.81,1780135995.34375
-101.01,1780135995.359375
-116.49,1780135995.375
-131.05,1780135995.390625
-141.74,1780135995.40625
-145.45,1780135995.421875
-140.22,1780135995.4375
-126.05,1780135995.453125
-104.87,1780135995.46875
-79.71,1780135995.484375
-53.52,1780135995.5
-28.18,1780135995.515625
-4.3,1780135995.53125
18.49,1780135995.546875
41.26,1780135995.5625
64.85,1780135995.578125
89.59,1780135995.59375
115.26,1780135995.609375
141.16,1780135995.625
166.15,1780135995.640625
188.65,1780135995.65625
206.95,1780135995.671875
219.68,1780135995.6875
227.2,1780135995.703125
230.87,1780135995.71875
232.72,1780135995.734375
234.79,1780135995.75
238.62,1780135995.765625
244.97,1780135995.78125
253.63,1780135995.796875
263.76,1780135995.8125
274.15,1780135995.828125
285.39,1780135995.84375
297.43,1780135995.859375
308.99,1780135995.875
317.91,1780135995.890625
322.32,1780135995.90625
321.53,1780135995.921875
316.02,1780135995.9375
307.04,1780135995.953125
295.94,1780135995.96875
287.48,1780135995.984375
284.43,1780135996.0
286.45,1780135996.015625
290.94,1780135996.03125
295.31,1780135996.046875
298.43,1780135996.0625
300.33,1780135996.078125
301.42,1780135996.09375
301.56,1780135996.109375
306.22,1780135996.125
318.06,1780135996.140625
335.32,1780135996.15625
352.98,1780135996.171875
366.18,1780135996.1875
372.37,1780135996.203125
371.13,1780135996.21875
363.2,1780135996.234375
349.14,1780135996.25
337.35,1780135996.265625
332.69,1780135996.28125
333.98,1780135996.296875
335.16,1780135996.3125
329.86,1780135996.328125
314.77,1780135996.34375
290.14,1780135996.359375
259.18,1780135996.375
181.44,1780135996.390625
45.82,1780135996.40625
-128.36,1780135996.421875
-303.14,1780135996.4375
-448.52,1780135996.453125
-554.84,1780135996.46875
-626.6,1780135996.484375
-672.75,1780135996.5
-697.29,1780135996.515625
-709.4,1780135996.53125
-707.5,1780135996.546875
-691.06,1780135996.5625
-663.38,1780135996.578125
-630.28,1780135996.59375
-595.87,1780135996.609375
-560.49,1780135996.625
-524.59,1780135996.640625
-487.92,1780135996.65625
-451.91,1780135996.671875
-412.37,1780135996.6875
-367.62,1780135996.703125
-319.42,1780135996.71875
-271.77,1780135996.734375
-227.86,1780135996.75
-188.5,1780135996.765625
-152.86,1780135996.78125
-119.44,1780135996.796875
-87.97,1780135996.8125
-55.03,1780135996.828125
-19.96,1780135996.84375
14.42,1780135996.859375
43.19,1780135996.875
62.37,1780135996.890625
70.8,1780135996.90625
69.99,1780135996.921875
63.13,1780135996.9375
53.04,1780135996.953125
43.83,1780135996.96875
37.68,1780135996.984375
34.6,1780135997.0
33.23,1780135997.015625
32.24,1780135997.03125
30.99,1780135997.046875
29.16,1780135997.0625
26.39,1780135997.078125
21.68,1780135997.09375
14.57,1780135997.109375
4.54,1780135997.125
-8.62,1780135997.140625
-24.27,1780135997.15625
-40.35,1780135997.171875
-53.61,1780135997.1875
-60.47,1780135997.203125
-58.06,1780135997.21875
-45.27,1780135997.234375
-22.92,1780135997.25
6.48,1780135997.265625
39.57,1780135997.28125
72.99,1780135997.296875
104.09,1780135997.3125
131.13,1780135997.328125
153.1,1780135997.34375
169.51,1780135997.359375
180.2,1780135997.375
185.24,1780135997.390625
185.02,1780135997.40625
180.28,1780135997.421875
171.94,1780135997.4375
161.04,1780135997.453125
148.44,1780135997.46875
134.77,1780135997.484375
120.42,1780135997.5
105.68,1780135997.515625
90.85,1780135997.53125
76.37,1780135997.546875
62.7,1780135997.5625
50.23,1780135997.578125
39.09,1780135997.59375
29.04,1780135997.609375
19.62,1780135997.625
10.33,1780135997.640625
0.85,1780135997.65625
-8.77,1780135997.671875
-18.19,1780135997.6875
-27.0,1780135997.703125
-34.93,1780135997.71875
-42.12,1780135997.734375
-49.12,1780135997.75
-56.84,1780135997.765625
-66.28,1780135997.78125
-78.06,1780135997.796875
-91.96,1780135997.8125
-106.56,1780135997.828125
-119.26,1780135997.84375
-126.71,1780135997.859375
-125.69,1780135997.875
-114.21,1780135997.890625
-92.16,1780135997.90625
-61.53,1780135997.921875
-25.76,1780135997.9375
11.26,1780135997.953125
46.27,1780135997.96875
77.19,1780135997.984375
103.22,1780135998.0
124.36,1780135998.015625
140.9,1780135998.03125
153.02,1780135998.046875
160.73,1780135998.0625
164.06,1780135998.078125
163.32,1780135998.09375
159.14,1780135998.109375
152.5,1780135998.125
144.46,1780135998.140625
135.97,1780135998.15625
127.68,1780135998.171875
120.03,1780135998.1875
113.3,1780135998.203125
107.77,1780135998.21875
103.69,1780135998.234375
101.13,1780135998.25
99.82,1780135998.265625
99.09,1780135998.28125
98.01,1780135998.296875
95.68,1780135998.3125
91.57,1780135998.328125
85.73,1780135998.34375
78.75,1780135998.359375
71.48,1780135998.375
64.78,1780135998.390625
59.25,1780135998.40625
55.12,1780135998.421875
52.25,1780135998.4375
50.18,1780135998.453125
48.22,1780135998.46875
45.49,1780135998.484375
41.03,1780135998.5
34.0,1780135998.515625
23.79,1780135998.53125
10.33,1780135998.546875
-5.7,1780135998.5625
-22.71,1780135998.578125
-38.22,1780135998.59375
-49.25,1780135998.609375
-52.93,1780135998.625
-47.28,1780135998.640625
-31.66,1780135998.65625
-6.96,1780135998.671875
24.67,1780135998.6875
60.38,1780135998.703125
97.14,1780135998.71875
132.17,1780135998.734375
163.08,1780135998.75
188.17,1780135998.765625
206.56,1780135998.78125
218.38,1780135998.796875
224.79,1780135998.8125
227.6,1780135998.828125
228.69,1780135998.84375
229.35,1780135998.859375
229.88,1780135998.875
229.68,1780135998.890625
227.68,1780135998.90625
222.93,1780135998.921875
215.11,1780135998.9375
204.58,1780135998.953125
192.08,1780135998.96875
178.3,1780135998.984375
163.57,1780135999.0
147.8,1780135999.015625
130.8,1780135999.03125
112.58,1780135999.046875
93.65,1780135999.0625
74.88,1780135999.078125
57.12,1780135999.09375
40.82,1780135999.109375
25.69,1780135999.125
10.88,1780135999.140625
-4.73,1780135999.15625
-22.0,1780135999.171875
-41.34,1780135999.1875
-62.55,1780135999.203125
-84.97,1780135999.21875
-107.58,1780135999.234375
-129.25,1780135999.25
-148.85,1780135999.265625
-165.49,1780135999.28125
-178.89,1780135999.296875
-189.46,1780135999.3125
-198.25,1780135999.328125
-206.41,1780135999.34375
-214.46,1780135999.359375
-221.82,1780135999.375
-226.7,1780135999.390625
-226.71,1780135999.40625
-219.84,1780135999.421875
-205.33,1780135999.4375
-184.07,1780135999.453125
-158.31,1780135999.46875
-130.85,1780135999.484375
-104.22,1780135999.5
-80.12,1780135999.515625
-59.4,1780135999.53125
-42.41,1780135999.546875
-29.29,1780135999.5625
-20.26,1780135999.578125
-15.45,1780135999.59375
-14.71,1780135999.609375
-17.4,1780135999.625
-22.44,1780135999.640625
-28.59,1780135999.65625
-34.77,1780135999.671875
-40.43,1780135999.6875
-45.51,1780135999.703125
-50.34,1780135999.71875
-55.31,1780135999.734375
-60.56,1780135999.75
-65.84,1780135999.765625
-70.65,1780135999.78125
-74.48,1780135999.796875
-77.07,1780135999.8125
-78.52,1780135999.828125
-79.15,1780135999.84375
-79.3,1780135999.859375
-79.15,1780135999.875
-78.59,1780135999.890625
-77.36,1780135999.90625
-75.26,1780135999.921875
-72.28,1780135999.9375
-68.66,1780135999.953125
-64.77,1780135999.96875
-60.96,1780135999.984375
-57.39,1780136000.0
-54.01,1780136000.015625
-50.65,1780136000.03125
-47.15,1780136000.046875
-43.49,1780136000.0625
-39.76,1780136000.078125
-36.1,1780136000.09375
-32.64,1780136000.109375
-29.34,1780136000.125
-26.05,1780136000.140625
-22.47,1780136000.15625
-18.22,1780136000.171875
-12.87,1780136000.1875
-6.05,1780136000.203125
2.43,1780136000.21875
12.46,1780136000.234375
23.46,1780136000.25
34.43,1780136000.265625
44.19,1780136000.28125
51.7,1780136000.296875
56.33,1780136000.3125
57.98,1780136000.328125
56.92,1780136000.34375
53.58,1780136000.359375
48.32,1780136000.375
41.4,1780136000.390625
33.12,1780136000.40625
23.9,1780136000.421875
14.34,1780136000.4375
5.1,1780136000.453125
-3.29,1780136000.46875
-10.54,1780136000.484375
-16.59,1780136000.5
-21.57,1780136000.515625
-25.62,1780136000.53125
-28.79,1780136000.546875
-31.16,1780136000.5625
-32.87,1780136000.578125
-34.21,1780136000.59375
-35.54,1780136000.609375
-37.18,1780136000.625
-39.33,1780136000.640625
-42.07,1780136000.65625
-45.41,1780136000.671875
-49.37,1780136000.6875
-54.0,1780136000.703125
-59.34,1780136000.71875
-65.37,1780136000.734375
-71.91,1780136000.75
-78.72,1780136000.765625
-85.5,1780136000.78125
-92.0,1780136000.796875
-98.08,1780136000.8125
-103.67,1780136000.828125
-108.77,1780136000.84375
-113.47,1780136000.859375
-117.99,1780136000.875
-122.58,1780136000.890625
-127.48,1780136000.90625
-132.72,1780136000.921875
-138.03,1780136000.9375
-142.8,1780136000.953125
-146.22,1780136000.96875
-147.47,1780136000.984375
-145.95,1780136001.0
-141.46,1780136001.015625
-134.2,1780136001.03125
-124.65,1780136001.046875
-113.39,1780136001.0625
-100.92,1780136001.078125
-87.63,1780136001.09375
-73.87,1780136001.109375
-60.14,1780136001.125
-47.23,1780136001.140625
-36.09,1780136001.15625
-27.67,1780136001.171875
-22.48,1780136001.1875
-20.48,1780136001.203125
-20.92,1780136001.21875
-22.67,1780136001.234375
-24.45,1780136001.25
-25.22,1780136001.265625
-24.34,1780136001.28125
-21.6,1780136001.296875
-17.18,1780136001.3125
-11.52,1780136001.328125
-5.21,1780136001.34375
1.1,1780136001.359375
6.76,1780136001.375
11.04,1780136001.390625
13.28,1780136001.40625
13.08,1780136001.421875
10.63,1780136001.4375
7.02,1780136001.453125
4.23,1780136001.46875
4.65,1780136001.484375
10.32,1780136001.5
22.09,1780136001.515625
39.25,1780136001.53125
59.74,1780136001.546875
80.88,1780136001.5625
100.12,1780136001.578125
115.61,1780136001.59375
126.21,1780136001.609375
131.34,1780136001.625
130.63,1780136001.640625
123.89,1780136001.65625
111.27,1780136001.671875
93.49,1780136001.6875
71.96,1780136001.703125
48.67,1780136001.71875
25.88,1780136001.734375
5.67,1780136001.75
-10.38,1780136001.765625
-21.42,1780136001.78125
-27.46,1780136001.796875
-29.22,1780136001.8125
-27.87,1780136001.828125
-24.76,1780136001.84375
-21.16,1780136001.859375
-18.02,1780136001.875
-15.94,1780136001.890625
-15.16,1780136001.90625
-15.69,1780136001.921875
-17.41,1780136001.9375
-20.16,1780136001.953125
-23.79,1780136001.96875
-28.11,1780136001.984375
-32.96,1780136002.0
-38.12,1780136002.015625
-43.49,1780136002.03125
-49.04,1780136002.046875
-54.94,1780136002.0625
-61.37,1780136002.078125
-68.31,1780136002.09375
-75.35,1780136002.109375
-81.47,1780136002.125
-85.15,1780136002.140625
-84.68,1780136002.15625
-78.72,1780136002.171875
-66.67,1780136002.1875
-48.91,1780136002.203125
-26.79,1780136002.21875
-2.52,1780136002.234375
21.09,1780136002.25
40.85,1780136002.265625
53.64,1780136002.28125
57.03,1780136002.296875
50.0,1780136002.3125
33.46,1780136002.328125
10.27,1780136002.34375
-15.55,1780136002.359375
-39.92,1780136002.375
-59.92,1780136002.390625
-74.37,1780136002.40625
-83.74,1780136002.421875
-89.31,1780136002.4375
-92.35,1780136002.453125
-93.42,1780136002.46875
-92.36,1780136002.484375
-88.62,1780136002.5
-81.73,1780136002.515625
-71.64,1780136002.53125
-58.88,1780136002.546875
-44.39,1780136002.5625
-29.31,1780136002.578125
-14.7,1780136002.59375
-1.4,1780136002.609375
10.07,1780136002.625
19.38,1780136002.640625
26.36,1780136002.65625
30.99,1780136002.671875
33.5,1780136002.6875
34.43,1780136002.703125
34.7,1780136002.71875
35.43,1780136002.734375
37.58,1780136002.75
41.57,1780136002.765625
47.05,1780136002.78125
53.0,1780136002.796875
58.17,1780136002.8125
61.55,1780136002.828125
62.79,1780136002.84375
62.26,1780136002.859375
60.68,1780136002.875
58.72,1780136002.890625
56.64,1780136002.90625
54.21,1780136002.921875
50.99,1780136002.9375
46.64,1780136002.953125
41.25,1780136002.96875
35.32,1780136002.984375
29.63,1780136003.0
24.91,1780136003.015625
21.61,1780136003.03125
19.75,1780136003.046875
18.97,1780136003.0625
18.74,1780136003.078125
18.48,1780136003.09375
17.75,1780136003.109375
16.23,1780136003.125
13.84,1780136003.140625
10.56,1780136003.15625
6.5,1780136003.171875
1.92,1780136003.1875
-2.71,1780136003.203125
-6.83,1780136003.21875
-9.79,1780136003.234375
-11.21,1780136003.25
-11.1,1780136003.265625
-9.99,1780136003.28125
-8.79,1780136003.296875
-8.47,1780136003.3125
-9.72,1780136003.328125
-12.73,1780136003.34375
-17.15,1780136003.359375
-22.25,1780136003.375
-27.24,1780136003.390625
-31.46,1780136003.40625
-34.58,1780136003.421875
-36.53,1780136003.4375
-37.5,1780136003.453125
-37.76,1780136003.46875
-37.62,1780136003.484375
-37.33,1780136003.5
-37.07,1780136003.515625
-36.86,1780136003.53125
-36.65,1780136003.546875
-36.29,1780136003.5625
-35.7,1780136003.578125
-34.89,1780136003.59375
-33.99,1780136003.609375
-33.24,1780136003.625
-32.92,1780136003.640625
-33.22,1780136003.65625
-34.2,1780136003.671875
-35.78,1780136003.6875
-37.8,1780136003.703125
-40.1,1780136003.71875
-42.6,1780136003.734375
-45.42,1780136003.75
-48.79,1780136003.765625
-53.06,1780136003.78125
-58.43,1780136003.796875
-64.84,1780136003.8125
-71.61,1780136003.828125
-77.56,1780136003.84375
-81.11,1780136003.859375
-80.72,1780136003.875
-75.38,1780136003.890625
-65.02,1780136003.90625
-50.52,1780136003.921875
-33.49,1780136003.9375
-15.81,1780136003.953125
0.86,1780136003.96875
15.29,1780136003.984375
26.86,1780136004.0
35.36,1780136004.015625
40.87,1780136004.03125
43.56,1780136004.046875
43.7,1780136004.0625
41.61,1780136004.078125
37.74,1780136004.09375
32.69,1780136004.109375
27.13,1780136004.125
21.66,1780136004.140625
16.7,1780136004.15625
12.36,1780136004.171875
8.49,1780136004.1875
4.89,1780136004.203125
1.41,1780136004.21875
-1.85,1780136004.234375
-4.58,1780136004.25
-6.53,1780136004.265625
-7.66,1780136004.28125
-8.23,1780136004.296875
-8.8,1780136004.3125
-10.0,1780136004.328125
-12.26,1780136004.34375
-15.7,1780136004.359375
-20.12,1780136004.375
-25.03,1780136004.390625
-29.91,1780136004.40625
-34.34,1780136004.421875
-38.14,1780136004.4375
-41.48,1780136004.453125
-44.83,1780136004.46875
-48.82,1780136004.484375
-54.08,1780136004.5
-60.97,1780136004.515625
-69.38,1780136004.53125
-78.55,1780136004.546875
-87.14,1780136004.5625
-93.28,1780136004.578125
-95.08,1780136004.59375
-91.08,1780136004.609375
-80.7,1780136004.625
-64.47,1780136004.640625
-43.93,1780136004.65625
-21.25,1780136004.671875
1.34,1780136004.6875
21.97,1780136004.703125
39.36,1780136004.71875
52.89,1780136004.734375
62.41,1780136004.75
68.02,1780136004.765625
70.1,1780136004.78125
69.14,1780136004.796875
65.87,1780136004.8125
61.1,1780136004.828125
55.65,1780136004.84375
50.21,1780136004.859375
45.17,1780136004.875
40.66,1780136004.890625
36.56,1780136004.90625
32.65,1780136004.921875
28.8,1780136004.9375
25.07,1780136004.953125
21.71,1780136004.96875
19.04,1780136004.984375
17.21,1780136005.0
16.09,1780136005.015625
15.17,1780136005.03125
13.74,1780136005.046875
11.21,1780136005.0625
7.32,1780136005.078125
2.26,1780136005.09375
-3.46,1780136005.109375
-9.27,1780136005.125
-14.81,1780136005.140625
-20.03,1780136005.15625
-25.19,1780136005.171875
-30.75,1780136005.1875
-37.2,1780136005.203125
-44.98,1780136005.21875
-54.31,1780136005.234375
-64.99,1780136005.25
-76.29,1780136005.265625
-86.76,1780136005.28125
-94.44,1780136005.296875
-97.32,1780136005.3125
-93.87,1780136005.328125
-83.53,1780136005.34375
-66.89,1780136005.359375
-45.52,1780136005.375
-21.49,1780136005.390625
3.01,1780136005.40625
26.16,1780136005.421875
46.57,1780136005.4375
63.32,1780136005.453125
75.91,1780136005.46875
84.18,1780136005.484375
88.3,1780136005.5
88.77,1780136005.515625
86.35,1780136005.53125
81.98,1780136005.546875
76.74,1780136005.5625
71.74,1780136005.578125
67.96,1780136005.59375
66.09,1780136005.609375
66.41,1780136005.625
68.88,1780136005.640625
73.14,1780136005.65625
78.77,1780136005.671875
85.33,1780136005.6875
92.31,1780136005.703125
99.06,1780136005.71875
104.7,1780136005.734375
108.34,1780136005.75
109.28,1780136005.765625
107.26,1780136005.78125
102.61,1780136005.796875
96.11,1780136005.8125
88.72,1780136005.828125
81.32,1780136005.84375
74.39,1780136005.859375
68.03,1780136005.875
61.96,1780136005.890625
55.68,1780136005.90625
48.61,1780136005.921875
40.3,1780136005.9375
30.64,1780136005.953125
19.92,1780136005.96875
8.89,1780136005.984375
-1.35,1780136006.0
-9.6,1780136006.015625
-14.82,1780136006.03125
-16.38,1780136006.046875
-14.2,1780136006.0625
-8.77,1780136006.078125
-0.96,1780136006.09375
8.12,1780136006.109375
17.43,1780136006.125
26.12,1780136006.140625
33.64,1780136006.15625
39.69,1780136006.171875
44.22,1780136006.1875
47.3,1780136006.203125
49.07,1780136006.21875
49.65,1780136006.234375
49.07,1780136006.25
47.31,1780136006.265625
44.25,1780136006.28125
39.82,1780136006.296875
34.05,1780136006.3125
27.14,1780136006.328125
19.51,1780136006.34375
11.71,1780136006.359375
4.31,1780136006.375
-2.21,1780136006.390625
-7.63,1780136006.40625
-12.13,1780136006.421875
-16.16,1780136006.4375
-20.43,1780136006.453125
-25.55,1780136006.46875
-31.94,1780136006.484375
-39.57,1780136006.5
-48.01,1780136006.515625
-56.58,1780136006.53125
-64.52,1780136006.546875
-71.15,1780136006.5625
-76.1,1780136006.578125
-79.37,1780136006.59375
-81.35,1780136006.609375
-82.74,1780136006.625
-84.28,1780136006.640625
-86.45,1780136006.65625
-89.21,1780136006.671875
-91.94,1780136006.6875
-93.54,1780136006.703125
-92.86,1780136006.71875
-89.01,1780136006.734375
-81.57,1780136006.75
-70.67,1780136006.765625
-56.86,1780136006.78125
-40.92,1780136006.796875
-23.75,1780136006.8125
-6.28,1780136006.828125
10.56,1780136006.84375
25.96,1780136006.859375
39.31,1780136006.875
50.34,1780136006.890625
59.11,1780136006.90625
65.94,1780136006.921875
71.23,1780136006.9375
75.27,1780136006.953125
78.1,1780136006.96875
79.58,1780136006.984375
79.43,1780136007.0
77.48,1780136007.015625
73.78,1780136007.03125
68.7,1780136007.046875
62.89,1780136007.0625
57.09,1780136007.078125
51.92,1780136007.09375
47.61,1780136007.109375
43.86,1780136007.125
39.86,1780136007.140625
34.64,1780136007.15625
27.39,1780136007.171875
17.83,1780136007.1875
6.28,1780136007.203125
-6.38,1780136007.21875
-19.19,1780136007.234375
-31.38,1780136007.25
-42.63,1780136007.265625
-53.01,1780136007.28125
-62.77,1780136007.296875
-72.0,1780136007.3125
-80.38,1780136007.328125
-87.11,1780136007.34375
-91.01,1780136007.359375
-90.84,1780136007.375
-85.6,1780136007.390625
-75.07,1780136007.40625
-60.12,1780136007.421875
-42.85,1780136007.4375
-26.32,1780136007.453125
-13.87,1780136007.46875
-8.18,1780136007.484375
-10.38,1780136007.5
-19.61,1780136007.515625
-33.16,1780136007.53125
-47.23,1780136007.546875
-58.13,1780136007.5625
-63.18,1780136007.578125
-61.37,1780136007.59375
-53.24,1780136007.609375
-40.37,1780136007.625
-24.75,1780136007.640625
-8.23,1780136007.65625
7.67,1780136007.671875
21.77,1780136007.6875
33.14,1780136007.703125
41.19,1780136007.71875
45.65,1780136007.734375
46.76,1780136007.75
45.21,1780136007.765625
42.02,1780136007.78125
38.2,1780136007.796875
34.48,1780136007.8125
31.1,1780136007.828125
27.93,1780136007.84375
24.68,1780136007.859375
21.19,1780136007.875
17.63,1780136007.890625
14.4,1780136007.90625
11.99,1780136007.921875
10.73,1780136007.9375
10.6,1780136007.953125
11.23,1780136007.96875
12.01,1780136007.984375
12.29,1780136008.0
11.64,1780136008.015625
9.96,1780136008.03125
7.53,1780136008.046875
4.83,1780136008.0625
2.36,1780136008.078125
0.36,1780136008.09375
-1.26,1780136008.109375
-2.9,1780136008.125
-5.04,1780136008.140625
-8.05,1780136008.15625
-11.9,1780136008.171875
-16.3,1780136008.1875
-20.75,1780136008.203125
-24.85,1780136008.21875
-28.47,1780136008.234375
-31.84,1780136008.25
-35.4,1780136008.265625
-39.65,1780136008.28125
-44.97,1780136008.296875
-51.3,1780136008.3125
-58.08,1780136008.328125
-64.15,1780136008.34375
-67.91,1780136008.359375
-67.66,1780136008.375
-62.16,1780136008.390625
-51.09,1780136008.40625
-35.28,1780136008.421875
-16.52,1780136008.4375
2.93,1780136008.453125
21.01,1780136008.46875
36.32,1780136008.484375
48.25,1780136008.5
56.84,1780136008.515625
62.43,1780136008.53125
65.38,1780136008.546875
65.96,1780136008.5625
64.43,1780136008.578125
61.15,1780136008.59375
56.64,1780136008.609375
51.58,1780136008.625
46.61,1780136008.640625
42.2,1780136008.65625
38.57,1780136008.671875
35.67,1780136008.6875
33.29,1780136008.703125
31.21,1780136008.71875
29.27,1780136008.734375
27.46,1780136008.75
25.85,1780136008.765625
24.48,1780136008.78125
23.29,1780136008.796875
22.12,1780136008.8125
20.78,1780136008.828125
19.03,1780136008.84375
16.74,1780136008.859375
13.81,1780136008.875
10.25,1780136008.890625
6.16,1780136008.90625
1.72,1780136008.921875
-2.78,1780136008.9375
-7.11,1780136008.953125
-11.15,1780136008.96875
-15.0,1780136008.984375
-18.99,1780136009.0
-23.6,1780136009.015625
-29.2,1780136009.03125
-35.87,1780136009.046875
-43.11,1780136009.0625
-49.85,1780136009.078125
-54.61,1780136009.09375
-55.85,1780136009.109375
-52.41,1780136009.125
-43.95,1780136009.140625
-31.07,1780136009.15625
-15.18,1780136009.171875
1.89,1780136009.1875
18.36,1780136009.203125
32.86,1780136009.21875
44.65,1780136009.234375
53.47,1780136009.25
59.39,1780136009.265625
62.63,1780136009.28125
63.49,1780136009.296875
62.34,1780136009.3125
59.63,1780136009.328125
55.89,1780136009.34375
51.67,1780136009.359375
47.46,1780136009.375
43.64,1780136009.390625
40.42,1780136009.40625
37.77,1780136009.421875
35.48,1780136009.4375
33.17,1780136009.453125
30.49,1780136009.46875
27.3,1780136009.484375
23.73,1780136009.5
20.17,1780136009.515625
17.09,1780136009.53125
14.73,1780136009.546875
13.0,1780136009.5625
11.46,1780136009.578125
9.54,1780136009.59375
6.78,1780136009.609375
3.03,1780136009.625
-1.54,1780136009.640625
-6.53,1780136009.65625
-11.5,1780136009.671875
-16.14,1780136009.6875
-20.35,1780136009.703125
-24.21,1780136009.71875
-27.9,1780136009.734375
-31.69,1780136009.75
-35.88,1780136009.765625
-40.73,1780136009.78125
-46.36,1780136009.796875
-52.48,1780136009.8125
-58.32,1780136009.828125
-62.61,1780136009.84375
-63.83,1780136009.859375
-60.72,1780136009.875
-52.69,1780136009.890625
-40.1,1780136009.90625
-24.24,1780136009.921875
-6.88,1780136009.9375
10.21,1780136009.953125
25.66,1780136009.96875
38.64,1780136009.984375
48.85,1780136010.0
56.24,1780136010.015625
60.92,1780136010.03125
63.05,1780136010.046875
62.82,1780136010.0625
60.58,1780136010.078125
56.78,1780136010.09375
51.97,1780136010.109375
46.73,1780136010.125
41.52,1780136010.140625
36.64,1780136010.15625
32.22,1780136010.171875
28.22,1780136010.1875
24.54,1780136010.203125
21.13,1780136010.21875
17.97,1780136010.234375
15.17,1780136010.25
12.83,1780136010.265625
11.0,1780136010.28125
9.6,1780136010.296875
8.37,1780136010.3125
7.03,1780136010.328125
5.28,1780136010.34375
2.96,1780136010.359375
0.06,1780136010.375
-3.29,1780136010.390625
-6.91,1780136010.40625
-10.63,1780136010.421875
-14.33,1780136010.4375
-17.98,1780136010.453125
-21.54,1780136010.46875
-25.02,1780136010.484375
-28.51,1780136010.5
-32.17,1780136010.515625
-36.23,1780136010.53125
-40.87,1780136010.546875
-46.01,1780136010.5625
-51.11,1780136010.578125
-55.15,1780136010.59375
-56.76,1780136010.609375
-54.69,1780136010.625
-48.13,1780136010.640625
-37.08,1780136010.65625
-22.33,1780136010.671875
-5.3,1780136010.6875
12.34,1780136010.703125
29.06,1780136010.71875
43.67,1780136010.734375
55.35,1780136010.75
63.71,1780136010.765625
68.66,1780136010.78125
70.4,1780136010.796875
69.36,1780136010.8125
66.19,1780136010.828125
61.64,1780136010.84375
56.44,1780136010.859375
51.24,1780136010.875
46.51,1780136010.890625
42.5,1780136010.90625
39.26,1780136010.921875
36.67,1780136010.9375
34.45,1780136010.953125
32.33,1780136010.96875
30.07,1780136010.984375
27.56,1780136011.0
24.86,1780136011.015625
22.14,1780136011.03125
19.59,1780136011.046875
17.31,1780136011.0625
15.29,1780136011.078125
13.42,1780136011.09375
11.56,1780136011.109375
9.57,1780136011.125
7.39,1780136011.140625
4.99,1780136011.15625
2.46,1780136011.171875
-0.12,1780136011.1875
-2.59,1780136011.203125
-4.79,1780136011.21875
-6.6,1780136011.234375
-7.99,1780136011.25
-9.14,1780136011.265625
-10.36,1780136011.28125
-11.97,1780136011.296875
-14.17,1780136011.3125
-16.81,1780136011.328125
-19.31,1780136011.34375
-20.81,1780136011.359375
-20.35,1780136011.375
-17.18,1780136011.390625
-11.07,1780136011.40625
-2.51,1780136011.421875
7.41,1780136011.4375
17.26,1780136011.453125
25.59,1780136011.46875
31.4,1780136011.484375
34.35,1780136011.5
34.76,1780136011.515625
33.41,1780136011.53125
31.19,1780136011.546875
28.82,1780136011.5625
26.64,1780136011.578125
24.7,1780136011.59375
22.98,1780136011.609375
21.46,1780136011.625
20.17,1780136011.640625
19.19,1780136011.65625
18.55,1780136011.671875
18.22,1780136011.6875
18.26,1780136011.703125
18.81,1780136011.71875
20.1,1780136011.734375
22.26,1780136011.75
25.09,1780136011.765625
28.07,1780136011.78125
30.39,1780136011.796875
31.38,1780136011.8125
30.75,1780136011.828125
28.78,1780136011.84375
26.15,1780136011.859375
23.59,1780136011.875
21.59,1780136011.890625
20.19,1780136011.90625
19.05,1780136011.921875
17.64,1780136011.9375
15.48,1780136011.953125
12.27,1780136011.96875
7.94,1780136011.984375
2.62,1780136012.0
-3.4,1780136012.015625
-9.85,1780136012.03125
-16.49,1780136012.046875
-23.23,1780136012.0625
-29.99,1780136012.078125
-36.6,1780136012.09375
-42.65,1780136012.109375
-47.45,1780136012.125
-50.26,1780136012.140625
-50.52,1780136012.15625
-48.15,1780136012.171875
-43.59,1780136012.1875
-37.65,1780136012.203125
-31.34,1780136012.21875
-25.53,1780136012.234375
-20.96,1780136012.25
-18.24,1780136012.265625
-17.77,1780136012.28125
-19.69,1780136012.296875
-23.75,1780136012.3125
-29.22,1780136012.328125
-35.06,1780136012.34375
-40.23,1780136012.359375
-43.99,1780136012.375
-46.16,1780136012.390625
-47.0,1780136012.40625
-47.03,1780136012.421875
-46.74,1780136012.4375
-46.43,1780136012.453125
-46.12,1780136012.46875
-45.72,1780136012.484375
-45.09,1780136012.5
-44.15,1780136012.515625
-42.89,1780136012.53125
-41.31,1780136012.546875
-39.47,1780136012.5625
-37.44,1780136012.578125
-35.42,1780136012.59375
-33.73,1780136012.609375
-32.7,1780136012.625
-32.57,1780136012.640625
-33.34,1780136012.65625
-34.75,1780136012.671875
-36.42,1780136012.6875
-38.04,1780136012.703125
-39.51,1780136012.71875
-40.9,1780136012.734375
-42.24,1780136012.75
-43.42,1780136012.765625
-44.06,1780136012.78125
-43.67,1780136012.796875
-41.77,1780136012.8125
-38.06,1780136012.828125
-32.3,1780136012.84375
-24.29,1780136012.859375
-13.9,1780136012.875
-1.27,1780136012.890625
12.82,1780136012.90625
26.77,1780136012.921875
38.37,1780136012.9375
45.48,1780136012.953125
46.84,1780136012.96875
42.76,1780136012.984375
35.09,1780136013.0
26.65,1780136013.015625
20.14,1780136013.03125
17.31,1780136013.046875
18.58,1780136013.0625
23.14,1780136013.078125
29.41,1780136013.09375
35.52,1780136013.109375
39.55,1780136013.125
39.83,1780136013.140625
35.09,1780136013.15625
24.97,1780136013.171875
10.27,1780136013.1875
-7.0,1780136013.203125
-24.08,1780136013.21875
-38.21,1780136013.234375
-47.55,1780136013.25
-51.69,1780136013.265625
-51.56,1780136013.28125
-48.9,1780136013.296875
-45.56,1780136013.3125
-42.91,1780136013.328125
-41.64,1780136013.34375
-41.81,1780136013.359375
-43.15,1780136013.375
-45.24,1780136013.390625
-47.66,1780136013.40625
-50.06,1780136013.421875
-52.2,1780136013.4375
-53.99,1780136013.453125
-55.61,1780136013.46875
-57.45,1780136013.484375
-59.91,1780136013.5
-63.12,1780136013.515625
-66.62,1780136013.53125
-69.22,1780136013.546875
-69.22,1780136013.5625
-64.98,1780136013.578125
-55.39,1780136013.59375
-40.38,1780136013.609375
-20.93,1780136013.625
1.26,1780136013.640625
24.19,1780136013.65625
46.07,1780136013.671875
65.45,1780136013.6875
81.32,1780136013.703125
93.03,1780136013.71875
100.28,1780136013.734375
103.12,1780136013.75
101.9,1780136013.765625
97.33,1780136013.78125
90.37,1780136013.796875
82.1,1780136013.8125
73.55,1780136013.828125
65.55,1780136013.84375
58.61,1780136013.859375
52.93,1780136013.875
48.45,1780136013.890625
44.96,1780136013.90625
42.24,1780136013.921875
40.15,1780136013.9375
38.63,1780136013.953125
37.58,1780136013.96875
36.82,1780136013.984375
35.97,1780136014.0
34.55,1780136014.015625
32.13,1780136014.03125
28.52,1780136014.046875
23.84,1780136014.0625
18.56,1780136014.078125
13.24,1780136014.09375
8.4,1780136014.109375
4.18,1780136014.125
0.22,1780136014.140625
-4.26,1780136014.15625
-10.29,1780136014.171875
-18.74,1780136014.1875
-29.84,1780136014.203125
-42.8,1780136014.21875
-55.82,1780136014.234375
-66.33,1780136014.25
-71.67,1780136014.265625
-69.76,1780136014.28125
-59.82,1780136014.296875
-42.47,1780136014.3125
-19.62,1780136014.328125
6.12,1780136014.34375
32.04,1780136014.359375
55.77,1780136014.375
75.51,1780136014.390625
90.08,1780136014.40625
98.8,1780136014.421875
101.52,1780136014.4375
98.61,1780136014.453125
91.03,1780136014.46875
80.29,1780136014.484375
68.13,1780136014.5
56.17,1780136014.515625
45.58,1780136014.53125
36.78,1780136014.546875
29.63,1780136014.5625
23.65,1780136014.578125
18.44,1780136014.59375
13.86,1780136014.609375
10.13,1780136014.625
7.49,1780136014.640625
6.05,1780136014.65625
5.55,1780136014.671875
5.49,1780136014.6875
5.3,1780136014.703125
4.58,1780136014.71875
3.15,1780136014.734375
0.93,1780136014.75
-2.21,1780136014.765625
-6.56,1780136014.78125
-12.5,1780136014.796875
-20.24,1780136014.8125
-29.66,1780136014.828125
-40.21,1780136014.84375
-51.1,1780136014.859375
-61.49,1780136014.875
-70.76,1780136014.890625
-78.49,1780136014.90625
-84.32,1780136014.921875
-87.79,1780136014.9375
-88.37,1780136014.953125
-85.71,1780136014.96875
-79.96,1780136014.984375
-71.83,1780136015.0
-62.44,1780136015.015625
-52.73,1780136015.03125
-43.19,1780136015.046875
-33.79,1780136015.0625
-24.21,1780136015.078125
-14.5,1780136015.09375
-5.31,1780136015.109375
2.05,1780136015.125
6.08,1780136015.140625
5.55,1780136015.15625
0.05,1780136015.171875
-9.89,1780136015.1875
-22.95,1780136015.203125
-37.26,1780136015.21875
-50.86,1780136015.234375
-61.93,1780136015.25
-69.19,1780136015.265625
-71.99,1780136015.28125
-70.46,1780136015.296875
-65.23,1780136015.3125
-57.27,1780136015.328125
-47.47,1780136015.34375
-36.46,1780136015.359375
-24.67,1780136015.375
-12.56,1780136015.390625
-1.03,1780136015.40625
8.38,1780136015.421875
13.75,1780136015.4375
13.32,1780136015.453125
6.18,1780136015.46875
-7.19,1780136015.484375
-25.03,1780136015.5
-44.96,1780136015.515625
-64.76,1780136015.53125
-83.01,1780136015.546875
-99.15,1780136015.5625
-112.86,1780136015.578125
-123.42,1780136015.59375
-129.37,1780136015.609375
-128.81,1780136015.625
-120.22,1780136015.640625
-103.32,1780136015.65625
-79.41,1780136015.671875
-51.08,1780136015.6875
-21.39,1780136015.703125
7.06,1780136015.71875
32.62,1780136015.734375
54.61,1780136015.75
72.83,1780136015.765625
87.13,1780136015.78125
97.12,1780136015.796875
102.36,1780136015.8125
102.69,1780136015.828125
98.55,1780136015.84375
91.04,1780136015.859375
81.64,1780136015.875
71.8,1780136015.890625
62.55,1780136015.90625
54.31,1780136015.921875
46.99,1780136015.9375
40.34,1780136015.953125
34.17,1780136015.96875
28.51,1780136015.984375
23.64,1780136016.0
19.73,1780136016.015625
16.74,1780136016.03125
14.24,1780136016.046875
11.56,1780136016.0625
8.01,1780136016.078125
3.14,1780136016.09375
-3.07,1780136016.109375
-10.25,1780136016.125
-17.81,1780136016.140625
-25.21,1780136016.15625
-32.22,1780136016.171875
-38.98,1780136016.1875
-46.08,1780136016.203125
-54.36,1780136016.21875
-64.7,1780136016.234375
-77.6,1780136016.25
-92.83,1780136016.265625
-109.0,1780136016.28125
-123.6,1780136016.296875
-133.37,1780136016.3125
-135.11,1780136016.328125
-126.65,1780136016.34375
-107.57,1780136016.359375
-79.43,1780136016.375
-45.3,1780136016.390625
-8.91,1780136016.40625
26.3,1780136016.421875
57.74,1780136016.4375
83.92,1780136016.453125
104.16,1780136016.46875
118.34,1780136016.484375
126.64,1780136016.5
129.48,1780136016.515625
127.6,1780136016.53125
122.09,1780136016.546875
114.28,1780136016.5625
105.55,1780136016.578125
97.07,1780136016.59375
89.57,1780136016.609375
83.25,1780136016.625
77.94,1780136016.640625
73.3,1780136016.65625
69.07,1780136016.671875
65.27,1780136016.6875
62.09,1780136016.703125
59.77,1780136016.71875
58.32,1780136016.734375
57.37,1780136016.75
56.15,1780136016.765625
53.74,1780136016.78125
49.36,1780136016.796875
42.58,1780136016.8125
33.54,1780136016.828125
22.82,1780136016.84375
11.31,1780136016.859375
-0.12,1780136016.875
-10.84,1780136016.890625
-20.66,1780136016.90625
-29.81,1780136016.921875
-38.96,1780136016.9375
-49.0,1780136016.953125
-60.75,1780136016.96875
-74.64,1780136016.984375
-90.11,1780136017.0
-105.46,1780136017.015625
-117.91,1780136017.03125
-124.23,1780136017.046875
-121.63,1780136017.0625
-108.69,1780136017.078125
-85.81,1780136017.09375
-55.04,1780136017.109375
-19.51,1780136017.125
17.52,1780136017.140625
53.2,1780136017.15625
85.36,1780136017.171875
112.47,1780136017.1875
133.4,1780136017.203125
147.45,1780136017.21875
154.41,1780136017.234375
154.76,1780136017.25
149.67,1780136017.265625
140.75,1780136017.28125
129.68,1780136017.296875
117.91,1780136017.3125
106.36,1780136017.328125
95.55,1780136017.34375
85.61,1780136017.359375
76.54,1780136017.375
68.3,1780136017.390625
60.95,1780136017.40625
54.59,1780136017.421875
49.28,1780136017.4375
45.01,1780136017.453125
41.56,1780136017.46875
38.55,1780136017.484375
35.46,1780136017.5
31.76,1780136017.515625
27.03,1780136017.53125
21.05,1780136017.546875
13.81,1780136017.5625
5.48,1780136017.578125
-3.61,1780136017.59375
-13.11,1780136017.609375
-22.62,1780136017.625
-31.85,1780136017.640625
-40.68,1780136017.65625
-49.3,1780136017.671875
-58.19,1780136017.6875
-68.02,1780136017.703125
-79.29,1780136017.71875
-91.87,1780136017.734375
-104.65,1780136017.75
-115.5,1780136017.765625
-121.59,1780136017.78125
-120.17,1780136017.796875
-109.47,1780136017.8125
-89.31,1780136017.828125
-61.28,1780136017.84375
-28.33,1780136017.859375
6.02,1780136017.875
38.45,1780136017.890625
66.44,1780136017.90625
88.45,1780136017.921875
103.81,1780136017.9375
112.5,1780136017.953125
114.98,1780136017.96875
112.15,1780136017.984375
105.29,1780136018.0
95.89,1780136018.015625
85.43,1780136018.03125
75.07,1780136018.046875
65.39,1780136018.0625
56.45,1780136018.078125
48.0,1780136018.09375
39.82,1780136018.109375
31.98,1780136018.125
24.84,1780136018.140625
18.93,1780136018.15625
14.58,1780136018.171875
11.65,1780136018.1875
9.51,1780136018.203125
7.25,1780136018.21875
4.0,1780136018.234375
-0.75,1780136018.25
-7.03,1780136018.265625
-14.53,1780136018.28125
-22.69,1780136018.296875
-30.98,1780136018.3125
-39.01,1780136018.328125
-46.69,1780136018.34375
-54.26,1780136018.359375
-62.32,1780136018.375
-71.62,1780136018.390625
-82.69,1780136018.40625
-95.38,1780136018.421875
-108.45,1780136018.4375
-119.53,1780136018.453125
-125.56,1780136018.46875
-123.66,1780136018.484375
-112.03,1780136018.5
-90.67,1780136018.515625
-61.43,1780136018.53125
-27.52,1780136018.546875
7.44,1780136018.5625
40.24,1780136018.578125
68.66,1780136018.59375
91.49,1780136018.609375
108.32,1780136018.625
119.17,1780136018.640625
124.27,1780136018.65625
124.09,1780136018.671875
119.43,1780136018.6875
111.39,1780136018.703125
101.32,1780136018.71875
90.48,1780136018.734375
79.79,1780136018.75
69.75,1780136018.765625
60.42,1780136018.78125
51.7,1780136018.796875
43.49,1780136018.8125
35.9,1780136018.828125
29.18,1780136018.84375
23.62,1780136018.859375
19.38,1780136018.875
16.27,1780136018.890625
13.77,1780136018.90625
11.08,1780136018.921875
7.35,1780136018.9375
1.99,1780136018.953125
-5.15,1780136018.96875
-13.66,1780136018.984375
-22.76,1780136019.0
-31.51,1780136019.015625
-39.29,1780136019.03125
-45.97,1780136019.046875
-51.96,1780136019.0625
-58.1,1780136019.078125
-65.34,1780136019.09375
-74.39,1780136019.109375
-85.35,1780136019.125
-97.51,1780136019.140625
-109.2,1780136019.15625
-117.98,1780136019.171875
-121.1,1780136019.1875
-116.26,1780136019.203125
-102.26,1780136019.21875
-79.52,1780136019.234375
-50.08,1780136019.25
-17.11,1780136019.265625
15.93,1780136019.28125
46.02,1780136019.296875
71.14,1780136019.3125
90.35,1780136019.328125
103.55,1780136019.34375
111.16,1780136019.359375
113.83,1780136019.375
112.22,1780136019.390625
107.04,1780136019.40625
99.03,1780136019.421875
89.05,1780136019.4375
78.03,1780136019.453125
66.89,1780136019.46875
56.47,1780136019.484375
47.32,1780136019.5
39.67,1780136019.515625
33.4,1780136019.53125
28.25,1780136019.546875
23.88,1780136019.5625
20.07,1780136019.578125
16.74,1780136019.59375
13.88,1780136019.609375
11.37,1780136019.625
8.96,1780136019.640625
6.21,1780136019.65625
2.64,1780136019.671875
-2.13,1780136019.6875
-8.18,1780136019.703125
-15.23,1780136019.71875
-22.75,1780136019.734375
-30.12,1780136019.75
-36.89,1780136019.765625
-42.93,1780136019.78125
-48.49,1780136019.796875
-54.11,1780136019.8125
-60.4,1780136019.828125
-67.84,1780136019.84375
-76.62,1780136019.859375
-86.52,1780136019.875
-96.84,1780136019.890625
-106.31,1780136019.90625
-113.19,1780136019.921875
-115.34,1780136019.9375
-110.8,1780136019.953125
-98.36,1780136019.96875
-78.06,1780136019.984375
-51.49,1780136020.0
-21.43,1780136020.015625
8.86,1780136020.03125
36.47,1780136020.046875
59.46,1780136020.0625
76.97,1780136020.078125
89.06,1780136020.09375
96.2,1780136020.109375
99.0,1780136020.125
98.05,1780136020.140625
93.98,1780136020.15625
87.48,1780136020.171875
79.37,1780136020.1875
70.47,1780136020.203125
61.52,1780136020.21875
53.11,1780136020.234375
45.64,1780136020.25
39.35,1780136020.265625
34.26,1780136020.28125
30.24,1780136020.296875
27.0,1780136020.3125
24.15,1780136020.328125
21.39,1780136020.34375
18.51,1780136020.359375
15.43,1780136020.375
12.21,1780136020.390625
8.81,1780136020.40625
5.13,1780136020.421875
0.97,1780136020.4375
-3.87,1780136020.453125
-9.46,1780136020.46875
-15.66,1780136020.484375
-22.18,1780136020.5
-28.6,1780136020.515625
-34.59,1780136020.53125
-39.96,1780136020.546875
-44.72,1780136020.5625
-49.06,1780136020.578125
-53.27,1780136020.59375
-57.74,1780136020.609375
-62.82,1780136020.625
-68.76,1780136020.640625
-75.52,1780136020.65625
-82.49,1780136020.671875
-88.34,1780136020.6875
-91.17,1780136020.703125
-88.86,1780136020.71875
-79.77,1780136020.734375
-63.42,1780136020.75
-40.76,1780136020.765625
-14.11,1780136020.78125
13.59,1780136020.796875
39.52,1780136020.8125
61.6,1780136020.828125
78.76,1780136020.84375
90.76,1780136020.859375
97.84,1780136020.875
100.43,1780136020.890625
99.05,1780136020.90625
94.4,1780136020.921875
87.41,1780136020.9375
79.18,1780136020.953125
70.61,1780136020.96875
62.14,1780136020.984375
53.51,1780136021.0
43.88,1780136021.015625
32.26,1780136021.03125
18.07,1780136021.046875
1.63,1780136021.0625
-15.7,1780136021.078125
-31.85,1780136021.09375
-44.62,1780136021.109375
-52.38,1780136021.125
-54.6,1780136021.140625
-51.94,1780136021.15625
-45.98,1780136021.171875
-38.67,1780136021.1875
-31.69,1780136021.203125
-26.04,1780136021.21875
-21.9,1780136021.234375
-18.87,1780136021.25
-16.36,1780136021.265625
-14.02,1780136021.28125
-12.0,1780136021.296875
-10.99,1780136021.3125
-12.08,1780136021.328125
-16.42,1780136021.34375
-24.89,1780136021.359375
-37.74,1780136021.375
-54.18,1780136021.390625
-72.18,1780136021.40625
-88.61,1780136021.421875
-99.8,1780136021.4375
-102.58,1780136021.453125
-95.32,1780136021.46875
-78.65,1780136021.484375
-55.39,1780136021.5
-29.65,1780136021.515625
-5.63,1780136021.53125
13.55,1780136021.546875
26.41,1780136021.5625
32.99,1780136021.578125
34.28,1780136021.59375
31.56,1780136021.609375
26.07,1780136021.625
18.87,1780136021.640625
10.97,1780136021.65625
3.35,1780136021.671875
-3.16,1780136021.6875
-8.06,1780136021.703125
-11.31,1780136021.71875
-13.31,1780136021.734375
-14.66,1780136021.75
-15.83,1780136021.765625
-17.02,1780136021.78125
-18.11,1780136021.796875
-18.71,1780136021.8125
-18.44,1780136021.828125
-17.0,1780136021.84375
-14.38,1780136021.859375
-10.9,1780136021.875
-7.24,1780136021.890625
-4.37,1780136021.90625
-3.29,1780136021.921875
-4.83,1780136021.9375
-9.23,1780136021.953125
-16.13,1780136021.96875
-24.61,1780136021.984375
-33.53,1780136022.0
-41.97,1780136022.015625
-49.54,1780136022.03125
-56.42,1780136022.046875
-63.22,1780136022.0625
-70.74,1780136022.078125
-79.68,1780136022.09375
-90.52,1780136022.109375
-103.39,1780136022.125
-117.84,1780136022.140625
-132.62,1780136022.15625
-145.59,1780136022.171875
-153.89,1780136022.1875
-154.58,1780136022.203125
-145.58,1780136022.21875
-126.5,1780136022.234375
-98.94,1780136022.25
-66.14,1780136022.265625
-31.99,1780136022.28125
0.05,1780136022.296875
27.73,1780136022.3125
50.14,1780136022.328125
67.35,1780136022.34375
79.85,1780136022.359375
88.06,1780136022.375
92.31,1780136022.390625
92.91,1780136022.40625
90.35,1780136022.421875
85.32,1780136022.4375
78.58,1780136022.453125
70.78,1780136022.46875
62.39,1780136022.484375
53.74,1780136022.5
45.17,1780136022.515625
37.16,1780136022.53125
30.29,1780136022.546875
25.13,1780136022.5625
22.09,1780136022.578125
21.22,1780136022.59375
22.22,1780136022.609375
24.51,1780136022.625
27.44,1780136022.640625
30.45,1780136022.65625
33.11,1780136022.671875
35.16,1780136022.6875
36.36,1780136022.703125
36.44,1780136022.71875
35.09,1780136022.734375
32.12,1780136022.75
27.53,1780136022.765625
21.64,1780136022.78125
14.94,1780136022.796875
8.0,1780136022.8125
1.17,1780136022.828125
-5.5,1780136022.84375
-12.31,1780136022.859375
-19.88,1780136022.875
-28.93,1780136022.890625
-40.09,1780136022.90625
-53.46,1780136022.921875
-68.23,1780136022.9375
-82.47,1780136022.953125
-93.31,1780136022.96875
-97.58,1780136022.984375
-92.81,1780136023.0
-78.16,1780136023.015625
-54.74,1780136023.03125
-25.4,1780136023.046875
6.2,1780136023.0625
36.57,1780136023.078125
63.24,1780136023.09375
85.01,1780136023.109375
101.7,1780136023.125
113.74,1780136023.140625
121.68,1780136023.15625
126.06,1780136023.171875
127.34,1780136023.1875
126.0,1780136023.203125
122.59,1780136023.21875
117.71,1780136023.234375
111.94,1780136023.25
105.79,1780136023.265625
99.62,1780136023.28125
93.67,1780136023.296875
88.09,1780136023.3125
83.01,1780136023.328125
78.61,1780136023.34375
75.08,1780136023.359375
72.5,1780136023.375
70.71,1780136023.390625
69.34,1780136023.40625
67.85,1780136023.421875
65.71,1780136023.4375
62.64,1780136023.453125
58.66,1780136023.46875
54.07,1780136023.484375
49.26,1780136023.5
44.54,1780136023.515625
40.03,1780136023.53125
35.65,1780136023.546875
31.2,1780136023.5625
26.53,1780136023.578125
21.51,1780136023.59375
16.08,1780136023.609375
10.26,1780136023.625
4.13,1780136023.640625
-2.16,1780136023.65625
-8.42,1780136023.671875
-14.56,1780136023.6875
-20.6,1780136023.703125
-26.76,1780136023.71875
-33.29,1780136023.734375
-40.12,1780136023.75
-46.7,1780136023.765625
-51.88,1780136023.78125
-54.2,1780136023.796875
-52.38,1780136023.8125
-45.89,1780136023.828125
-35.23,1780136023.84375
-21.87,1780136023.859375
-7.76,1780136023.875
5.27,1780136023.890625
15.91,1780136023.90625
23.62,1780136023.921875
28.42,1780136023.9375
30.68,1780136023.953125
30.81,1780136023.96875
29.14,1780136023.984375
25.98,1780136024.0
21.56,1780136024.015625
16.24,1780136024.03125
10.39,1780136024.046875
4.44,1780136024.0625
-1.22,1780136024.078125
-6.35,1780136024.09375
-10.87,1780136024.109375
-14.88,1780136024.125
-18.51,1780136024.140625
-21.83,1780136024.15625
-24.72,1780136024.171875
-26.93,1780136024.1875
-28.13,1780136024.203125
-28.15,1780136024.21875
-27.08,1780136024.234375
-25.27,1780136024.25
-23.2,1780136024.265625
-21.29,1780136024.28125
-19.8,1780136024.296875
-18.73,1780136024.3125
-17.98,1780136024.328125
-17.35,1780136024.34375
-16.73,1780136024.359375
-16.15,1780136024.375
-15.76,1780136024.390625
-15.75,1780136024.40625
-16.31,1780136024.421875
-17.5,1780136024.4375
-19.33,1780136024.453125
-21.71,1780136024.46875
-24.48,1780136024.484375
-27.33,1780136024.5
-29.79,1780136024.515625
-31.2,1780136024.53125
-30.87,1780136024.546875
-28.28,1780136024.5625
-23.38,1780136024.578125
-16.6,1780136024.59375
-8.81,1780136024.609375
-0.96,1780136024.625
6.16,1780136024.640625
12.08,1780136024.65625
16.61,1780136024.671875
19.67,1780136024.6875
21.21,1780136024.703125
21.18,1780136024.71875
19.73,1780136024.734375
17.21,1780136024.75
14.18,1780136024.765625
11.18,1780136024.78125
8.58,1780136024.796875
6.43,1780136024.8125
4.59,1780136024.828125
2.86,1780136024.84375
1.13,1780136024.859375
-0.62,1780136024.875
-2.39,1780136024.890625
-4.23,1780136024.90625
-6.25,1780136024.921875
-8.62,1780136024.9375
-11.47,1780136024.953125
-14.86,1780136024.96875
-18.79,1780136024.984375
-23.23,1780136025.0
-28.08,1780136025.015625
-33.14,1780136025.03125
-38.15,1780136025.046875
-42.79,1780136025.0625
-46.78,1780136025.078125
-49.94,1780136025.09375
-52.28,1780136025.109375
-53.9,1780136025.125
-54.99,1780136025.140625
-55.66,1780136025.15625
-56.05,1780136025.171875
-56.25,1780136025.1875
-56.31,1780136025.203125
-56.28,1780136025.21875
-56.21,1780136025.234375
-56.15,1780136025.25
-56.14,1780136025.265625
-56.26,1780136025.28125
-56.47,1780136025.296875
-56.49,1780136025.3125
-55.71,1780136025.328125
-53.25,1780136025.34375
-48.23,1780136025.359375
-40.1,1780136025.375
-28.98,1780136025.390625
-15.78,1780136025.40625
-1.93,1780136025.421875
10.9,1780136025.4375
21.18,1780136025.453125
27.9,1780136025.46875
30.7,1780136025.484375
30.04,1780136025.5
27.12,1780136025.515625
23.76,1780136025.53125
21.87,1780136025.546875
22.99,1780136025.5625
27.72,1780136025.578125
35.44,1780136025.59375
44.39,1780136025.609375
52.12,1780136025.625
56.19,1780136025.640625
54.87,1780136025.65625
47.66,1780136025.671875
35.44,1780136025.6875
20.21,1780136025.703125
4.48,1780136025.71875
-9.47,1780136025.734375
-20.13,1780136025.75
-27.02,1780136025.765625
-30.56,1780136025.78125
-31.59,1780136025.796875
-30.98,1780136025.8125
-29.34,1780136025.828125
-27.13,1780136025.84375
-24.78,1780136025.859375
-22.72,1780136025.875
-21.36,1780136025.890625
-20.89,1780136025.90625
-21.16,1780136025.921875
-21.81,1780136025.9375
-22.41,1780136025.953125
-22.71,1780136025.96875
-22.79,1780136025.984375
-22.9,1780136026.0
-23.31,1780136026.015625
-23.97,1780136026.03125
-24.43,1780136026.046875
-23.75,1780136026.0625
-20.81,1780136026.078125
-14.61,1780136026.09375
-4.68,1780136026.109375
8.8,1780136026.125
24.98,1780136026.140625
42.59,1780136026.15625
60.23,1780136026.171875
76.56,1780136026.1875
90.34,1780136026.203125
100.42,1780136026.21875
105.77,1780136026.234375
105.7,1780136026.25
100.17,1780136026.265625
89.97,1780136026.28125
76.64,1780136026.296875
62.11,1780136026.3125
48.09,1780136026.328125
35.68,1780136026.34375
25.21,1780136026.359375
16.44,1780136026.375
8.92,1780136026.390625
2.3,1780136026.40625
-3.51,1780136026.421875
-8.43,1780136026.4375
-12.41,1780136026.453125
-15.54,1780136026.46875
-18.1,1780136026.484375
-20.47,1780136026.5
-23.02,1780136026.515625
-26.02,1780136026.53125
-29.58,1780136026.546875
-33.63,1780136026.5625
-37.97,1780136026.578125
-42.36,1780136026.59375
-46.59,1780136026.609375
-50.57,1780136026.625
-54.39,1780136026.640625
-58.27,1780136026.65625
-62.59,1780136026.671875
-67.71,1780136026.6875
-73.94,1780136026.703125
-81.33,1780136026.71875
-89.55,1780136026.734375
-97.73,1780136026.75
-104.49,1780136026.765625
-108.11,1780136026.78125
-107.04,1780136026.796875
-100.33,1780136026.8125
-88.02,1780136026.828125
-71.17,1780136026.84375
-51.53,1780136026.859375
-31.13,1780136026.875
-11.68,1780136026.890625
5.56,1780136026.90625
19.88,1780136026.921875
30.88,1780136026.9375
38.43,1780136026.953125
42.55,1780136026.96875
43.51,1780136026.984375
41.85,1780136027.0
38.31,1780136027.015625
33.78,1780136027.03125
29.18,1780136027.046875
25.35,1780136027.0625
23.01,1780136027.078125
22.73,1780136027.09375
24.79,1780136027.109375
29.2,1780136027.125
35.59,1780136027.140625
43.3,1780136027.15625
51.35,1780136027.171875
58.67,1780136027.1875
64.28,1780136027.203125
67.47,1780136027.21875
68.02,1780136027.234375
66.12,1780136027.25
62.36,1780136027.265625
57.4,1780136027.28125
51.77,1780136027.296875
45.72,1780136027.3125
39.26,1780136027.328125
32.24,1780136027.34375
24.56,1780136027.359375
16.27,1780136027.375
7.55,1780136027.390625
-1.37,1780136027.40625
-10.16,1780136027.421875
-18.3,1780136027.4375
-25.06,1780136027.453125
-29.55,1780136027.46875
-30.87,1780136027.484375
-28.54,1780136027.5
-22.74,1780136027.515625
-14.37,1780136027.53125
-4.92,1780136027.546875
3.99,1780136027.5625
11.06,1780136027.578125
15.6,1780136027.59375
17.45,1780136027.609375
16.73,1780136027.625
13.59,1780136027.640625
8.21,1780136027.65625
0.91,1780136027.671875
-7.47,1780136027.6875
-15.71,1780136027.703125
-22.41,1780136027.71875
-26.57,1780136027.734375
-28.08,1780136027.75
-27.82,1780136027.765625
-27.35,1780136027.78125
-28.24,1780136027.796875
-31.55,1780136027.8125
-37.52,1780136027.828125
-45.73,1780136027.84375
-55.51,1780136027.859375
-66.28,1780136027.875
-77.81,1780136027.890625
-89.99,1780136027.90625
-102.68,1780136027.921875
-115.25,1780136027.9375
-126.62,1780136027.953125
-135.36,1780136027.96875
-140.11,1780136027.984375
-140.1,1780136028.0
-135.43,1780136028.015625
-127.05,1780136028.03125
-116.36,1780136028.046875
-104.74,1780136028.0625
-93.13,1780136028.078125
-81.93,1780136028.09375
-71.15,1780136028.109375
-60.68,1780136028.125
-50.37,1780136028.140625
-40.09,1780136028.15625
-29.56,1780136028.171875
-18.36,1780136028.1875
-6.02,1780136028.203125
7.68,1780136028.21875
22.49,1780136028.234375
37.67,1780136028.25
52.03,1780136028.265625
64.3,1780136028.28125
73.43,1780136028.296875
78.89,1780136028.3125
80.68,1780136028.328125
79.3,1780136028.34375
75.48,1780136028.359375
69.97,1780136028.375
63.44,1780136028.390625
56.35,1780136028.40625
49.07,1780136028.421875
41.86,1780136028.4375
34.97,1780136028.453125
28.55,1780136028.46875
22.57,1780136028.484375
16.82,1780136028.5
11.0,1780136028.515625
4.83,1780136028.53125
-1.74,1780136028.546875
-8.5,1780136028.5625
-15.14,1780136028.578125
-21.35,1780136028.59375
-27.01,1780136028.609375
-32.36,1780136028.625
-37.86,1780136028.640625
-44.13,1780136028.65625
-51.73,1780136028.671875
-61.02,1780136028.6875
-71.88,1780136028.703125
-83.67,1780136028.71875
-95.03,1780136028.734375
-104.01,1780136028.75
-108.37,1780136028.765625
-106.06,1780136028.78125
-95.95,1780136028.796875
-78.16,1780136028.8125
-54.21,1780136028.828125
-26.6,1780136028.84375
1.79,1780136028.859375
28.45,1780136028.875
51.6,1780136028.890625
70.33,1780136028.90625
84.41,1780136028.921875
94.03,1780136028.9375
99.64,1780136028.953125
101.89,1780136028.96875
101.59,1780136028.984375
99.7,1780136029.0
97.08,1780136029.015625
94.28,1780136029.03125
91.52,1780136029.046875
88.61,1780136029.0625
85.29,1780136029.078125
81.35,1780136029.09375
76.9,1780136029.109375
72.21,1780136029.125
67.67,1780136029.140625
63.53,1780136029.15625
59.77,1780136029.171875
56.1,1780136029.1875
52.06,1780136029.203125
47.21,1780136029.21875
41.3,1780136029.234375
34.47,1780136029.25
27.16,1780136029.265625
20.07,1780136029.28125
13.8,1780136029.296875
8.61,1780136029.3125
4.24,1780136029.328125
0.02,1780136029.34375
-4.92,1780136029.359375
-11.24,1780136029.375
-19.05,1780136029.390625
-27.78,1780136029.40625
-36.2,1780136029.421875
-42.77,1780136029.4375
-45.88,1780136029.453125
-44.27,1780136029.46875
-37.37,1780136029.484375
-25.36,1780136029.5
-9.34,1780136029.515625
8.91,1780136029.53125
27.3,1780136029.546875
43.83,1780136029.5625
57.06,1780136029.578125
66.28,1780136029.59375
71.48,1780136029.609375
73.04,1780136029.625
71.29,1780136029.640625
66.39,1780136029.65625
58.36,1780136029.671875
47.44,1780136029.6875
34.42,1780136029.703125
20.62,1780136029.71875
7.66,1780136029.734375
-3.01,1780136029.75
-10.62,1780136029.765625
-15.16,1780136029.78125
-17.26,1780136029.796875
-17.8,1780136029.8125
-17.59,1780136029.828125
-17.19,1780136029.84375
-16.97,1780136029.859375
-17.22,1780136029.875
-18.25,1780136029.890625
-20.26,1780136029.90625
-23.27,1780136029.921875
-27.07,1780136029.9375
-31.24,1780136029.953125
-35.51,1780136029.96875
-39.93,1780136029.984375
-45.09,1780136030.0
-51.98,1780136030.015625
-61.63,1780136030.03125
-74.41,1780136030.046875
-89.46,1780136030.0625
-104.49,1780136030.078125
-116.04,1780136030.09375
-120.42,1780136030.109375
-114.82,1780136030.125
-98.12,1780136030.140625
-71.28,1780136030.15625
-36.94,1780136030.171875
1.4,1780136030.1875
40.15,1780136030.203125
76.22,1780136030.21875
107.25,1780136030.234375
131.73,1780136030.25
148.91,1780136030.265625
158.92,1780136030.28125
162.67,1780136030.296875
161.59,1780136030.3125
157.34,1780136030.328125
151.32,1780136030.34375
144.39,1780136030.359375
136.95,1780136030.375
129.01,1780136030.390625
120.56,1780136030.40625
111.73,1780136030.421875
102.88,1780136030.4375
94.48,1780136030.453125
86.88,1780136030.46875
80.2,1780136030.484375
74.18,1780136030.5
68.26,1780136030.515625
61.7,1780136030.53125
53.81,1780136030.546875
44.3,1780136030.5625
33.28,1780136030.578125
21.28,1780136030.59375
9.0,1780136030.609375
-2.99,1780136030.625
-14.46,1780136030.640625
-25.55,1780136030.65625
-36.73,1780136030.671875
-48.54,1780136030.6875
-61.4,1780136030.703125
-75.34,1780136030.71875
-89.82,1780136030.734375
-103.59,1780136030.75
-114.75,1780136030.765625
-121.02,1780136030.78125
-120.3,1780136030.796875
-111.26,1780136030.8125
-93.84,1780136030.828125
-69.46,1780136030.84375
-40.7,1780136030.859375
-10.7,1780136030.875
17.6,1780136030.890625
42.05,1780136030.90625
61.51,1780136030.921875
75.7,1780136030.9375
84.91,1780136030.953125
89.63,1780136030.96875
90.33,1780136030.984375
87.52,1780136031.0
81.8,1780136031.015625
73.91,1780136031.03125
64.7,1780136031.046875
54.96,1780136031.0625
45.29,1780136031.078125
35.95,1780136031.09375
26.99,1780136031.109375
18.34,1780136031.125
10.0,1780136031.140625
2.18,1780136031.15625
-4.8,1780136031.171875
-10.56,1780136031.1875
-14.9,1780136031.203125
-17.88,1780136031.21875
-19.92,1780136031.234375
-21.57,1780136031.25
-23.41,1780136031.265625
-25.81,1780136031.28125
-28.88,1780136031.296875
-32.47,1780136031.3125
-36.36,1780136031.328125
-40.41,1780136031.34375
-44.65,1780136031.359375
-49.3,1780136031.375
-54.63,1780136031.390625
-60.78,1780136031.40625
-67.64,1780136031.421875
-74.73,1780136031.4375
-81.3,1780136031.453125
-86.47,1780136031.46875
-89.49,1780136031.484375
-89.81,1780136031.5
-87.1,1780136031.515625
-81.16,1780136031.53125
-71.85,1780136031.546875
-58.97,1780136031.5625
-42.5,1780136031.578125
-22.8,1780136031.59375
-0.9,1780136031.609375
21.49,1780136031.625
42.19,1780136031.640625
59.05,1780136031.65625
70.55,1780136031.671875
76.14,1780136031.6875
76.35,1780136031.703125
72.59,1780136031.71875
66.72,1780136031.734375
60.67,1780136031.75
56.07,1780136031.765625
54.11,1780136031.78125
55.32,1780136031.796875
59.51,1780136031.8125
65.53,1780136031.828125
71.37,1780136031.84375
74.47,1780136031.859375
72.52,1780136031.875
64.18,1780136031.890625
49.85,1780136031.90625
31.47,1780136031.921875
11.99,1780136031.9375
-5.79,1780136031.953125
-20.09,1780136031.96875
-30.57,1780136031.984375
-37.95,1780136032.0
-43.34,1780136032.015625
-47.61,1780136032.03125
-51.12,1780136032.046875
-53.88,1780136032.0625
-55.98,1780136032.078125
-57.79,1780136032.09375
-59.9,1780136032.109375
-62.88,1780136032.125
-67.0,1780136032.140625
-72.28,1780136032.15625
-78.57,1780136032.171875
-85.73,1780136032.1875
-93.56,1780136032.203125
-101.54,1780136032.21875
-108.57,1780136032.234375
-112.94,1780136032.25
-112.51,1780136032.265625
-105.35,1780136032.28125
-90.45,1780136032.296875
-68.15,1780136032.3125
-40.18,1780136032.328125
-9.29,1780136032.34375
21.42,1780136032.359375
49.27,1780136032.375
72.43,1780136032.390625
90.16,1780136032.40625
102.58,1780136032.421875
110.34,1780136032.4375
114.3,1780136032.453125
115.2,1780136032.46875
113.64,1780136032.484375
110.13,1780136032.5
105.17,1780136032.515625
99.35,1780136032.53125
93.19,1780136032.546875
87.08,1780136032.5625
81.25,1780136032.578125
75.73,1780136032.59375
70.54,1780136032.609375
65.72,1780136032.625
61.24,1780136032.640625
56.85,1780136032.65625
51.81,1780136032.671875
44.86,1780136032.6875
34.58,1780136032.703125
19.9,1780136032.71875
0.74,1780136032.734375
-21.84,1780136032.75
-45.89,1780136032.765625
-69.26,1780136032.78125
-90.33,1780136032.796875
-108.38,1780136032.8125
-123.62,1780136032.828125
-136.75,1780136032.84375
-148.62,1780136032.859375
-159.93,1780136032.875
-171.19,1780136032.890625
-182.63,1780136032.90625
-193.99,1780136032.921875
-204.35,1780136032.9375
-212.12,1780136032.953125
-215.2,1780136032.96875
-211.59,1780136032.984375
-199.97,1780136033.0
-180.04,1780136033.015625
-152.48,1780136033.03125
-118.68,1780136033.046875
-80.41,1780136033.0625
-39.58,1780136033.078125
1.74,1780136033.09375
41.29,1780136033.109375
76.8,1780136033.125
106.23,1780136033.140625
128.29,1780136033.15625
142.65,1780136033.171875
149.92,1780136033.1875
151.36,1780136033.203125
148.38,1780136033.21875
142.23,1780136033.234375
133.81,1780136033.25
123.78,1780136033.265625
112.65,1780136033.28125
100.94,1780136033.296875
89.19,1780136033.3125
77.91,1780136033.328125
67.4,1780136033.34375
57.68,1780136033.359375
48.5,1780136033.375
39.44,1780136033.390625
30.04,1780136033.40625
19.98,1780136033.421875
9.2,1780136033.4375
-2.03,1780136033.453125
-13.26,1780136033.46875
-23.85,1780136033.484375
-33.34,1780136033.5
-41.57,1780136033.515625
-48.87,1780136033.53125
-56.07,1780136033.546875
-64.32,1780136033.5625
-74.77,1780136033.578125
-88.01,1780136033.59375
-103.64,1780136033.609375
-119.98,1780136033.625
-134.25,1780136033.640625
-143.17,1780136033.65625
-143.82,1780136033.671875
-134.5,1780136033.6875
-115.18,1780136033.703125
-87.53,1780136033.71875
-54.34,1780136033.734375
-18.82,1780136033.75
15.96,1780136033.765625
47.48,1780136033.78125
73.77,1780136033.796875
93.52,1780136033.8125
106.08,1780136033.828125
111.54,1780136033.84375
110.82,1780136033.859375
105.44,1780136033.875
97.16,1780136033.890625
87.55,1780136033.90625
77.64,1780136033.921875
67.87,1780136033.9375
58.26,1780136033.953125
48.68,1780136033.96875
39.18,1780136033.984375
30.02,1780136034.0
21.7,1780136034.015625
14.69,1780136034.03125
9.26,1780136034.046875
5.31,1780136034.0625
2.27,1780136034.078125
-0.74,1780136034.09375
-4.66,1780136034.109375
-10.17,1780136034.125
-17.4,1780136034.140625
-25.98,1780136034.15625
-35.14,1780136034.171875
-44.09,1780136034.1875
-52.4,1780136034.203125
-60.16,1780136034.21875
-67.99,1780136034.234375
-76.84,1780136034.25
-87.65,1780136034.265625
-100.94,1780136034.28125
-116.46,1780136034.296875
-132.81,1780136034.3125
-147.46,1780136034.328125
-157.02,1780136034.34375
-158.11,1780136034.359375
-148.29,1780136034.375
-126.99,1780136034.390625
-95.77,1780136034.40625
-58.0,1780136034.421875
-17.88,1780136034.4375
20.65,1780136034.453125
54.74,1780136034.46875
82.89,1780136034.484375
104.66,1780136034.5
120.14,1780136034.515625
129.68,1780136034.53125
133.75,1780136034.546875
133.08,1780136034.5625
128.78,1780136034.578125
122.17,1780136034.59375
114.5,1780136034.609375
106.53,1780136034.625
98.44,1780136034.640625
89.92,1780136034.65625
80.69,1780136034.671875
70.83,1780136034.6875
60.95,1780136034.703125
51.98,1780136034.71875
44.78,1780136034.734375
39.68,1780136034.75
36.34,1780136034.765625
33.88,1780136034.78125
31.17,1780136034.796875
27.23,1780136034.8125
21.5,1780136034.828125
13.96,1780136034.84375
5.09,1780136034.859375
-4.35,1780136034.875
-13.59,1780136034.890625
-22.23,1780136034.90625
-30.39,1780136034.921875
-38.82,1780136034.9375
-48.67,1780136034.953125
-61.04,1780136034.96875
-76.49,1780136034.984375
-94.45,1780136035.0
-113.0,1780136035.015625
-129.05,1780136035.03125
-138.93,1780136035.046875
-139.37,1780136035.0625
-128.47,1780136035.078125
-106.35,1780136035.09375
-75.2,1780136035.109375
-38.7,1780136035.125
-0.96,1780136035.140625
34.4,1780136035.15625
64.9,1780136035.171875
89.36,1780136035.1875
107.54,1780136035.203125
119.75,1780136035.21875
126.44,1780136035.234375
128.18,1780136035.25
125.62,1780136035.265625
119.66,1780136035.28125
111.44,1780136035.296875
102.21,1780136035.3125
93.0,1780136035.328125
84.56,1780136035.34375
77.18,1780136035.359375
70.92,1780136035.375
65.77,1780136035.390625
61.83,1780136035.40625
59.35,1780136035.421875
58.56,1780136035.4375
59.4,1780136035.453125
61.39,1780136035.46875
63.66,1780136035.484375
65.26,1780136035.5
65.49,1780136035.515625
64.2,1780136035.53125
61.72,1780136035.546875
58.62,1780136035.5625
55.36,1780136035.578125
52.08,1780136035.59375
48.48,1780136035.609375
43.96,1780136035.625
37.93,1780136035.640625
29.9,1780136035.65625
19.7,1780136035.671875
7.48,1780136035.6875
-6.16,1780136035.703125
-20.14,1780136035.71875
-32.89,1780136035.734375
-42.52,1780136035.75
-47.14,1780136035.765625
-45.43,1780136035.78125
-37.11,1780136035.796875
-23.08,1780136035.8125
-5.33,1780136035.828125
13.59,1780136035.84375
31.17,1780136035.859375
45.55,1780136035.875
55.76,1780136035.890625
61.65,1780136035.90625
63.63,1780136035.921875
62.29,1780136035.9375
58.17,1780136035.953125
51.76,1780136035.96875
43.62,1780136035.984375
34.47,1780136036.0
25.24,1780136036.015625
16.84,1780136036.03125
9.93,1780136036.046875
4.71,1780136036.0625
0.93,1780136036.078125
-1.75,1780136036.09375
-3.52,1780136036.109375
-4.23,1780136036.125
-3.45,1780136036.140625
-0.83,1780136036.15625
3.59,1780136036.171875
9.19,1780136036.1875
14.93,1780136036.203125
19.63,1780136036.21875
22.38,1780136036.234375
22.75,1780136036.25
20.73,1780136036.265625
16.69,1780136036.28125
11.09,1780136036.296875
4.39,1780136036.3125
-2.99,1780136036.328125
-10.64,1780136036.34375
-18.13,1780136036.359375
-25.06,1780136036.375
-31.18,1780136036.390625
-36.33,1780136036.40625
-40.46,1780136036.421875
-43.44,1780136036.4375
-44.86,1780136036.453125
-44.1,1780136036.46875
-40.52,1780136036.484375
-33.77,1780136036.5
-24.15,1780136036.515625
-12.62,1780136036.53125
-0.66,1780136036.546875
10.21,1780136036.5625
18.77,1780136036.578125
24.39,1780136036.59375
26.99,1780136036.609375
26.91,1780136036.625
24.71,1780136036.640625
21.0,1780136036.65625
16.42,1780136036.671875
11.51,1780136036.6875
6.74,1780136036.703125
2.48,1780136036.71875
-1.1,1780136036.734375
-4.03,1780136036.75
-6.46,1780136036.765625
-8.64,1780136036.78125
-10.84,1780136036.796875
-13.28,1780136036.8125
-16.03,1780136036.828125
-18.98,1780136036.84375
-21.83,1780136036.859375
-24.22,1780136036.875
-25.89,1780136036.890625
-26.81,1780136036.90625
-27.24,1780136036.921875
-27.55,1780136036.9375
-28.14,1780136036.953125
-29.17,1780136036.96875
-30.59,1780136036.984375
-32.18,1780136037.0
-33.74,1780136037.015625
-35.17,1780136037.03125
-36.53,1780136037.046875
-37.99,1780136037.0625
-39.75,1780136037.078125
-41.89,1780136037.09375
-44.36,1780136037.109375
-46.98,1780136037.125
-49.39,1780136037.140625
-51.02,1780136037.15625
-51.12,1780136037.171875
-48.84,1780136037.1875
-43.54,1780136037.203125
-35.01,1780136037.21875
-23.72,1780136037.234375
-10.84,1780136037.25
2.03,1780136037.265625
13.31,1780136037.28125
21.81,1780136037.296875
26.97,1780136037.3125
28.87,1780136037.328125
28.15,1780136037.34375
25.87,1780136037.359375
23.43,1780136037.375
22.36,1780136037.390625
24.09,1780136037.40625
29.5,1780136037.421875
38.6,1780136037.4375
50.31,1780136037.453125
62.62,1780136037.46875
73.12,1780136037.484375
79.63,1780136037.5
80.93,1780136037.515625
76.93,1780136037.53125
68.6,1780136037.546875
57.51,1780136037.5625
45.23,1780136037.578125
32.92,1780136037.59375
21.1,1780136037.609375
9.77,1780136037.625
-1.47,1780136037.640625
-13.13,1780136037.65625
-25.63,1780136037.671875
-39.06,1780136037.6875
-53.02,1780136037.703125
-66.48,1780136037.71875
-77.93,1780136037.734375
-85.69,1780136037.75
-88.44,1780136037.765625
-85.85,1780136037.78125
-78.83,1780136037.796875
-69.51,1780136037.8125
-60.7,1780136037.828125
-55.11,1780136037.84375
-54.62,1780136037.859375
-59.68,1780136037.875
-69.15,1780136037.890625
-80.52,1780136037.90625
-90.63,1780136037.921875
-96.45,1780136037.9375
-95.92,1780136037.953125
-88.49,1780136037.96875
-75.02,1780136037.984375
-57.46,1780136038.0
-38.17,1780136038.015625
-19.29,1780136038.03125
-2.44,1780136038.046875
11.38,1780136038.0625
21.66,1780136038.078125
28.18,1780136038.09375
31.02,1780136038.109375
30.49,1780136038.125
27.23,1780136038.140625
22.11,1780136038.15625
16.12,1780136038.171875
10.14,1780136038.1875
4.75,1780136038.203125
0.14,1780136038.21875
-3.76,1780136038.234375
-7.12,1780136038.25
-10.0,1780136038.265625
-12.3,1780136038.28125
-13.75,1780136038.296875
-14.18,1780136038.3125
-13.65,1780136038.328125
-12.52,1780136038.34375
-11.42,1780136038.359375
-10.96,1780136038.375
-11.59,1780136038.390625
-13.41,1780136038.40625
-16.19,1780136038.421875
-19.44,1780136038.4375
-22.65,1780136038.453125
-25.48,1780136038.46875
-27.82,1780136038.484375
-29.82,1780136038.5
-31.8,1780136038.515625
-34.16,1780136038.53125
-37.23,1780136038.546875
-41.23,1780136038.5625
-46.11,1780136038.578125
-51.46,1780136038.59375
-56.41,1780136038.609375
-59.69,1780136038.625
-59.92,1780136038.640625
-55.93,1780136038.65625
-47.22,1780136038.671875
-34.1,1780136038.6875
-17.74,1780136038.703125
0.19,1780136038.71875
17.86,1780136038.734375
33.59,1780136038.75
46.09,1780136038.765625
54.62,1780136038.78125
58.92,1780136038.796875
59.28,1780136038.8125
56.41,1780136038.828125
51.3,1780136038.84375
45.0,1780136038.859375
38.39,1780136038.875
32.03,1780136038.890625
26.11,1780136038.90625
20.61,1780136038.921875
15.44,1780136038.9375
10.63,1780136038.953125
6.27,1780136038.96875
2.53,1780136038.984375
-0.49,1780136039.0
-2.8,1780136039.015625
-4.59,1780136039.03125
-6.13,1780136039.046875
-7.72,1780136039.0625
-9.6,1780136039.078125
-11.89,1780136039.09375
-14.64,1780136039.109375
-17.82,1780136039.125
-21.37,1780136039.140625
-25.17,1780136039.15625
-29.11,1780136039.171875
-33.11,1780136039.1875
-37.2,1780136039.203125
-41.57,1780136039.21875
-46.4,1780136039.234375
-51.72,1780136039.25
-57.18,1780136039.265625
-61.9,1780136039.28125
-64.62,1780136039.296875
-63.97,1780136039.3125
-58.92,1780136039.328125
-49.06,1780136039.34375
-34.82,1780136039.359375
-17.38,1780136039.375
1.59,1780136039.390625
20.24,1780136039.40625
36.91,1780136039.421875
50.37,1780136039.4375
59.99,1780136039.453125
65.7,1780136039.46875
67.92,1780136039.484375
67.31,1780136039.5
64.62,1780136039.515625
60.57,1780136039.53125
55.72,1780136039.546875
50.53,1780136039.5625
45.4,1780136039.578125
40.59,1780136039.59375
36.26,1780136039.609375
32.51,1780136039.625
29.31,1780136039.640625
26.55,1780136039.65625
24.04,1780136039.671875
21.54,1780136039.6875
18.85,1780136039.703125
15.84,1780136039.71875
12.5,1780136039.734375
8.92,1780136039.75
5.19,1780136039.765625
1.35,1780136039.78125
-2.62,1780136039.796875
-6.8,1780136039.8125
-11.21,1780136039.828125
-15.86,1780136039.84375
-20.8,1780136039.859375
-26.11,1780136039.875
-31.98,1780136039.890625
-38.51,1780136039.90625
-45.49,1780136039.921875
-52.26,1780136039.9375
-57.73,1780136039.953125
-60.56,1780136039.96875
-59.45,1780136039.984375
-53.6,1780136040.0
-42.88,1780136040.015625
-28.01,1780136040.03125
-10.35,1780136040.046875
8.29,1780136040.0625
26.03,1780136040.078125
41.31,1780136040.09375
53.06,1780136040.109375
60.84,1780136040.125
64.79,1780136040.140625
65.44,1780136040.15625
63.64,1780136040.171875
60.24,1780136040.1875
56.04,1780136040.203125
51.64,1780136040.21875
47.33,1780136040.234375
43.13,1780136040.25
38.96,1780136040.265625
34.7,1780136040.28125
30.34,1780136040.296875
26.04,1780136040.3125
22.06,1780136040.328125
18.63,1780136040.34375
15.83,1780136040.359375
13.53,1780136040.375
11.35,1780136040.390625
8.9,1780136040.40625
5.87,1780136040.421875
2.25,1780136040.4375
-1.74,1780136040.453125
-5.7,1780136040.46875
-9.28,1780136040.484375
-12.35,1780136040.5
-15.14,1780136040.515625
-18.14,1780136040.53125
-21.91,1780136040.546875
-26.86,1780136040.5625
-32.98,1780136040.578125
-39.83,1780136040.59375
-46.54,1780136040.609375
-51.95,1780136040.625
-54.89,1780136040.640625
-54.34,1780136040.65625
-49.68,1780136040.671875
-40.85,1780136040.6875
-28.44,1780136040.703125
-13.6,1780136040.71875
2.14,1780136040.734375
17.16,1780136040.75
30.11,1780136040.765625
40.12,1780136040.78125
46.88,1780136040.796875
50.59,1780136040.8125
51.69,1780136040.828125
50.71,1780136040.84375
48.1,1780136040.859375
44.27,1780136040.875
39.6,1780136040.890625
34.51,1780136040.90625
29.43,1780136040.921875
24.66,1780136040.9375
20.39,1780136040.953125
16.68,1780136040.96875
13.51,1780136040.984375
10.85,1780136041.0
8.7,1780136041.015625
7.06,1780136041.03125
5.79,1780136041.046875
4.66,1780136041.0625
3.34,1780136041.078125
1.52,1780136041.09375
-0.93,1780136041.109375
-3.92,1780136041.125
-7.2,1780136041.140625
-10.43,1780136041.15625
-13.39,1780136041.171875
-16.06,1780136041.1875
-18.68,1780136041.203125
-21.62,1780136041.21875
-25.3,1780136041.234375
-29.95,1780136041.25
-35.41,1780136041.265625
-41.06,1780136041.28125
-45.82,1780136041.296875
-48.38,1780136041.3125
-47.56,1780136041.328125
-42.6,1780136041.34375
-33.54,1780136041.359375
-21.14,1780136041.375
-6.75,1780136041.390625
8.03,1780136041.40625
21.74,1780136041.421875
33.27,1780136041.4375
41.96,1780136041.453125
47.57,1780136041.46875
50.19,1780136041.484375
50.14,1780136041.5
47.91,1780136041.515625
44.08,1780136041.53125
39.22,1780136041.546875
33.75,1780136041.5625
27.91,1780136041.578125
21.85,1780136041.59375
15.67,1780136041.609375
9.53,1780136041.625
3.74,1780136041.640625
-1.38,1780136041.65625
-5.58,1780136041.671875
-8.81,1780136041.6875
-11.31,1780136041.703125
-13.44,1780136041.71875
-15.61,1780136041.734375
-18.11,1780136041.75
-20.96,1780136041.765625
-24.03,1780136041.78125
-27.12,1780136041.796875
-30.07,1780136041.8125
-32.83,1780136041.828125
-35.52,1780136041.84375
-38.35,1780136041.859375
-41.63,1780136041.875
-45.66,1780136041.890625
-50.62,1780136041.90625
-56.42,1780136041.921875
-62.58,1780136041.9375
-68.13,1780136041.953125
-71.76,1780136041.96875
-72.07,1780136041.984375
-67.94,1780136042.0
-58.88,1780136042.015625
-45.27,1780136042.03125
-28.22,1780136042.046875
-9.41,1780136042.0625
9.37,1780136042.078125
26.56,1780136042.09375
41.05,1780136042.109375
52.18,1780136042.125
59.73,1780136042.140625
63.76,1780136042.15625
64.62,1780136042.171875
62.86,1780136042.1875
59.2,1780136042.203125
54.44,1780136042.21875
49.36,1780136042.234375
44.44,1780136042.25
39.91,1780136042.265625
35.68,1780136042.28125
31.53,1780136042.296875
27.32,1780136042.3125
23.09,1780136042.328125
19.09,1780136042.34375
15.66,1780136042.359375
13.02,1780136042.375
11.1,1780136042.390625
9.53,1780136042.40625
7.77,1780136042.421875
5.31,1780136042.4375
1.88,1780136042.453125
-2.41,1780136042.46875
-7.2,1780136042.484375
-12.02,1780136042.5
-16.52,1780136042.515625
-20.6,1780136042.53125
-24.42,1780136042.546875
-28.33,1780136042.5625
-32.66,1780136042.578125
-37.68,1780136042.59375
-43.38,1780136042.609375
-49.43,1780136042.625
-55.04,1780136042.640625
-59.05,1780136042.65625
-60.08,1780136042.671875
-56.82,1780136042.6875
-48.45,1780136042.703125
-34.99,1780136042.71875
-17.39,1780136042.734375
2.66,1780136042.75
23.12,1780136042.765625
42.13,1780136042.78125
58.29,1780136042.796875
70.86,1780136042.8125
79.71,1780136042.828125
85.07,1780136042.84375
87.44,1780136042.859375
87.32,1780136042.875
85.24,1780136042.890625
81.72,1780136042.90625
77.3,1780136042.921875
72.57,1780136042.9375
68.12,1780136042.953125
64.42,1780136042.96875
61.68,1780136042.984375
59.82,1780136043.0
58.47,1780136043.015625
57.23,1780136043.03125
55.76,1780136043.046875
54.09,1780136043.0625
52.57,1780136043.078125
51.65,1780136043.09375
51.63,1780136043.109375
52.38,1780136043.125
53.24,1780136043.140625
53.11,1780136043.15625
50.69,1780136043.171875
44.83,1780136043.1875
34.8,1780136043.203125
20.44,1780136043.21875
2.27,1780136043.234375
-18.62,1780136043.25
-40.78,1780136043.265625
-62.63,1780136043.28125
-82.85,1780136043.296875
-100.66,1780136043.3125
-115.81,1780136043.328125
-128.53,1780136043.34375
-139.03,1780136043.359375
-147.16,1780136043.375
-152.07,1780136043.390625
-152.45,1780136043.40625
-146.95,1780136043.421875
-134.86,1780136043.4375
-116.6,1780136043.453125
-93.8,1780136043.46875
-68.9,1780136043.484375
-44.51,1780136043.5
-22.67,1780136043.515625
-4.51,1780136043.53125
9.69,1780136043.546875
20.2,1780136043.5625
27.41,1780136043.578125
31.64,1780136043.59375
33.11,1780136043.609375
32.16,1780136043.625
29.36,1780136043.640625
25.55,1780136043.65625
21.58,1780136043.671875
18.08,1780136043.6875
15.25,1780136043.703125
12.9,1780136043.71875
10.6,1780136043.734375
7.96,1780136043.75
4.9,1780136043.765625
1.65,1780136043.78125
-1.3,1780136043.796875
-3.37,1780136043.8125
-4.17,1780136043.828125
-3.62,1780136043.84375
-2.02,1780136043.859375
0.02,1780136043.875
1.81,1780136043.890625
2.83,1780136043.90625
2.87,1780136043.921875
2.09,1780136043.9375
0.91,1780136043.953125
-0.36,1780136043.96875
-1.61,1780136043.984375
-3.05,1780136044.0
-5.11,1780136044.015625
-8.23,1780136044.03125
-12.62,1780136044.046875
-18.23,1780136044.0625
-24.68,1780136044.078125
-31.4,1780136044.09375
-37.61,1780136044.109375
-42.35,1780136044.125
-44.62,1780136044.140625
-43.54,1780136044.15625
-38.69,1780136044.171875
-30.31,1780136044.1875
-19.38,1780136044.203125
-7.3,1780136044.21875
4.53,1780136044.234375
15.16,1780136044.25
24.25,1780136044.265625
31.84,1780136044.28125
37.96,1780136044.296875
42.29,1780136044.3125
44.14,1780136044.328125
42.73,1780136044.34375
37.68,1780136044.359375
29.27,1780136044.375
18.36,1780136044.390625
6.11,1780136044.40625
-6.51,1780136044.421875
-18.84,1780136044.4375
-30.37,1780136044.453125
-40.52,1780136044.46875
-48.27,1780136044.484375
-52.38,1780136044.5
-51.57,1780136044.515625
-45.01,1780136044.53125
-32.63,1780136044.546875
-15.39,1780136044.5625
4.58,1780136044.578125
24.23,1780136044.59375
40.0,1780136044.609375
48.57,1780136044.625
47.88,1780136044.640625
37.76,1780136044.65625
20.17,1780136044.671875
-1.46,1780136044.6875
-23.2,1780136044.703125
-41.9,1780136044.71875
-55.87,1780136044.734375
-65.02,1780136044.75
-70.38,1780136044.765625
-73.5,1780136044.78125
-75.89,1780136044.796875
-78.64,1780136044.8125
-82.21,1780136044.828125
-86.28,1780136044.84375
-89.68,1780136044.859375
-90.61,1780136044.875
-87.12,1780136044.890625
-77.7,1780136044.90625
-61.86,1780136044.921875
-40.38,1780136044.9375
-15.24,1780136044.953125
10.95,1780136044.96875
35.58,1780136044.984375
56.61,1780136045.0
72.89,1780136045.015625
84.24,1780136045.03125
91.19,1780136045.046875
94.57,1780136045.0625
95.09,1780136045.078125
93.09,1780136045.09375
88.41,1780136045.109375
80.66,1780136045.125
69.58,1780136045.140625
55.48,1780136045.15625
39.43,1780136045.171875
23.34,1780136045.1875
9.47,1780136045.203125
-0.01,1780136045.21875
-3.71,1780136045.234375
-1.44,1780136045.25
5.84,1780136045.265625
16.13,1780136045.28125
27.06,1780136045.296875
36.4,1780136045.3125
42.54,1780136045.328125
44.66,1780136045.34375
42.82,1780136045.359375
37.73,1780136045.375
30.47,1780136045.390625
22.2,1780136045.40625
13.88,1780136045.421875
5.98,1780136045.4375
-1.61,1780136045.453125
-9.51,1780136045.46875
-18.77,1780136045.484375
-30.38,1780136045.5
-44.88,1780136045.515625
-61.89,1780136045.53125
-79.83,1780136045.546875
-96.0,1780136045.5625
-107.11,1780136045.578125
-110.1,1780136045.59375
-103.15,1780136045.609375
-86.24,1780136045.625
-61.27,1780136045.640625
-31.4,1780136045.65625
-0.19,1780136045.671875
29.37,1780136045.6875
55.4,1780136045.703125
77.13,1780136045.71875
94.55,1780136045.734375
107.79,1780136045.75
116.78,1780136045.765625
121.16,1780136045.78125
120.55,1780136045.796875
114.91,1780136045.8125
104.79,1780136045.828125
91.33,1780136045.84375
75.96,1780136045.859375
60.05,1780136045.875
44.6,1780136045.890625
30.1,1780136045.90625
16.76,1780136045.921875
4.7,1780136045.9375
-5.86,1780136045.953125
-14.61,1780136045.96875
-21.38,1780136045.984375
-26.34,1780136046.0
-30.06,1780136046.015625
-33.4,1780136046.03125
-37.2,1780136046.046875
-41.96,1780136046.0625
-47.72,1780136046.078125
-54.06,1780136046.09375
-60.35,1780136046.109375
-66.01,1780136046.125
-70.78,1780136046.140625
-74.88,1780136046.15625
-78.96,1780136046.171875
-84.02,1780136046.1875
-91.01,1780136046.203125
-100.5,1780136046.21875
-112.33,1780136046.234375
-125.32,1780136046.25
-137.27,1780136046.265625
-145.33,1780136046.28125
-146.63,1780136046.296875
-139.09,1780136046.3125
-122.06,1780136046.328125
-96.53,1780136046.34375
-64.94,1780136046.359375
-30.61,1780136046.375
3.12,1780136046.390625
33.44,1780136046.40625
58.49,1780136046.421875
77.36,1780136046.4375
89.96,1780136046.453125
96.72,1780136046.46875
98.36,1780136046.484375
95.78,1780136046.5
89.91,1780136046.515625
81.66,1780136046.53125
71.93,1780136046.546875
61.43,1780136046.5625
50.79,1780136046.578125
40.45,1780136046.59375
30.75,1780136046.609375
22.01,1780136046.625
14.52,1780136046.640625
8.44,1780136046.65625
3.8,1780136046.671875
0.33,1780136046.6875
-2.51,1780136046.703125
-5.36,1780136046.71875
-8.81,1780136046.734375
-13.19,1780136046.75
-18.52,1780136046.765625
-24.57,1780136046.78125
-30.98,1780136046.796875
-37.45,1780136046.8125
-43.85,1780136046.828125
-50.39,1780136046.84375
-57.62,1780136046.859375
-66.27,1780136046.875
-76.94,1780136046.890625
-89.58,1780136046.90625
-103.1,1780136046.921875
-115.21,1780136046.9375
-122.82,1780136046.953125
-122.91,1780136046.96875
-113.41,1780136046.984375
-94.04,1780136047.0
-66.41,1780136047.015625
-33.58,1780136047.03125
0.8,1780136047.046875
33.44,1780136047.0625
61.96,1780136047.078125
85.07,1780136047.09375
102.33,1780136047.109375
113.84,1780136047.125
119.92,1780136047.140625
121.05,1780136047.15625
117.84,1780136047.171875
111.11,1780136047.1875
101.87,1780136047.203125
91.21,1780136047.21875
80.1,1780136047.234375
69.25,1780136047.25
59.08,1780136047.265625
49.79,1780136047.28125
41.48,1780136047.296875
34.21,1780136047.3125
27.99,1780136047.328125
22.7,1780136047.34375
17.97,1780136047.359375
13.27,1780136047.375
7.96,1780136047.390625
1.57,1780136047.40625
-6.07,1780136047.421875
-14.8,1780136047.4375
-24.16,1780136047.453125
-33.67,1780136047.46875
-43.03,1780136047.484375
-52.32,1780136047.5
-62.05,1780136047.515625
-73.04,1780136047.53125
-86.13,1780136047.546875
-101.54,1780136047.5625
-118.45,1780136047.578125
-134.64,1780136047.59375
-146.78,1780136047.609375
-151.19,1780136047.625
-145.0,1780136047.640625
-127.11,1780136047.65625
-98.68,1780136047.671875
-62.84,1780136047.6875
-23.75,1780136047.703125
14.49,1780136047.71875
48.71,1780136047.734375
77.06,1780136047.75
98.83,1780136047.765625
114.05,1780136047.78125
123.19,1780136047.796875
127.0,1780136047.8125
126.33,1780136047.828125
122.25,1780136047.84375
115.73,1780136047.859375
107.56,1780136047.875
98.26,1780136047.890625
88.05,1780136047.90625
77.14,1780136047.921875
65.87,1780136047.9375
54.89,1780136047.953125
44.96,1780136047.96875
36.77,1780136047.984375
30.54,1780136048.0
25.91,1780136048.015625
22.03,1780136048.03125
17.82,1780136048.046875
12.41,1780136048.0625
5.42,1780136048.078125
-2.97,1780136048.09375
-12.17,1780136048.109375
-21.43,1780136048.125
-30.31,1780136048.140625
-38.78,1780136048.15625
-47.37,1780136048.171875
-57.0,1780136048.1875
-68.66,1780136048.203125
-82.84,1780136048.21875
-99.09,1780136048.234375
-115.64,1780136048.25
-129.64,1780136048.265625
-137.63,1780136048.28125
-136.56,1780136048.296875
-124.75,1780136048.3125
-102.39,1780136048.328125
-71.6,1780136048.34375
-35.78,1780136048.359375
1.31,1780136048.375
36.36,1780136048.390625
67.01,1780136048.40625
91.89,1780136048.421875
110.4,1780136048.4375
122.51,1780136048.453125
128.53,1780136048.46875
129.16,1780136048.484375
125.44,1780136048.5
118.64,1780136048.515625
110.07,1780136048.53125
100.73,1780136048.546875
91.2,1780136048.5625
81.6,1780136048.578125
71.81,1780136048.59375
61.84,1780136048.609375
52.09,1780136048.625
43.33,1780136048.640625
36.39,1780136048.65625
31.77,1780136048.671875
29.31,1780136048.6875
28.1,1780136048.703125
26.8,1780136048.71875
24.08,1780136048.734375
19.22,1780136048.75
12.17,1780136048.765625
3.59,1780136048.78125
-5.62,1780136048.796875
-14.65,1780136048.8125
-23.2,1780136048.828125
-31.49,1780136048.84375
-40.2,1780136048.859375
-50.3,1780136048.875
-62.74,1780136048.890625
-78.06,1780136048.90625
-95.94,1780136048.921875
-114.83,1780136048.9375
-131.84,1780136048.953125
-143.21,1780136048.96875
-145.2,1780136048.984375
-135.33,1780136049.0
-113.24,1780136049.015625
-81.01,1780136049.03125
-42.45,1780136049.046875
-2.04,1780136049.0625
36.2,1780136049.078125
69.45,1780136049.09375
96.17,1780136049.109375
115.77,1780136049.125
128.22,1780136049.140625
133.89,1780136049.15625
133.5,1780136049.171875
128.23,1780136049.1875
119.59,1780136049.203125
109.13,1780136049.21875
98.07,1780136049.234375
87.13,1780136049.25
76.49,1780136049.265625
66.12,1780136049.28125
56.04,1780136049.296875
46.56,1780136049.3125
38.27,1780136049.328125
31.8,1780136049.34375
27.49,1780136049.359375
25.13,1780136049.375
23.89,1780136049.390625
22.56,1780136049.40625
19.91,1780136049.421875
15.17,1780136049.4375
8.31,1780136049.453125
-0.04,1780136049.46875
-8.9,1780136049.484375
-17.36,1780136049.5
-25.01,1780136049.515625
-32.11,1780136049.53125
-39.5,1780136049.546875
-48.36,1780136049.5625
-59.74,1780136049.578125
-74.12,1780136049.59375
-90.92,1780136049.609375
-108.25,1780136049.625
-123.0,1780136049.640625
-131.5,1780136049.65625
-130.41,1780136049.671875
-117.83,1780136049.6875
-94.04,1780136049.703125
-61.48,1780136049.71875
-24.12,1780136049.734375
13.71,1780136049.75
48.34,1780136049.765625
77.45,1780136049.78125
100.01,1780136049.796875
115.88,1780136049.8125
125.39,1780136049.828125
128.94,1780136049.84375
127.16,1780136049.859375
120.94,1780136049.875
111.62,1780136049.890625
100.72,1780136049.90625
89.68,1780136049.921875
79.41,1780136049.9375
70.21,1780136049.953125
61.85,1780136049.96875
53.93,1780136049.984375
46.25,1780136050.0
38.95,1780136050.015625
32.47,1780136050.03125
27.3,1780136050.046875
23.6,1780136050.0625
21.0,1780136050.078125
18.6,1780136050.09375
15.26,1780136050.109375
9.95,1780136050.125
2.2,1780136050.140625
-7.75,1780136050.15625
-19.06,1780136050.171875
-30.63,1780136050.1875
-41.5,1780136050.203125
-51.31,1780136050.21875
-60.38,1780136050.234375
-69.71,1780136050.25
-80.59,1780136050.265625
-94.18,1780136050.28125
-110.93,1780136050.296875
-130.06,1780136050.3125
-149.33,1780136050.328125
-165.19,1780136050.34375
-173.57,1780136050.359375
-170.98,1780136050.375
-155.62,1780136050.390625
-128.09,1780136050.40625
-91.32,1780136050.421875
-49.72,1780136050.4375
-7.97,1780136050.453125
30.11,1780136050.46875
62.21,1780136050.484375
87.5,1780136050.5
106.13,1780136050.515625
118.57,1780136050.53125
125.3,1780136050.546875
126.76,1780136050.5625
123.52,1780136050.578125
116.51,1780136050.59375
106.96,1780136050.609375
96.22,1780136050.625
85.41,1780136050.640625
75.1,1780136050.65625
65.36,1780136050.671875
55.94,1780136050.6875
46.64,1780136050.703125
37.57,1780136050.71875
29.26,1780136050.734375
22.45,1780136050.75
17.68,1780136050.765625
15.01,1780136050.78125
13.88,1780136050.796875
13.2,1780136050.8125
11.69,1780136050.828125
8.24,1780136050.84375
2.23,1780136050.859375
-6.27,1780136050.875
-16.63,1780136050.890625
-27.85,1780136050.90625
-38.85,1780136050.921875
-48.77,1780136050.9375
-57.18,1780136050.953125
-64.19,1780136050.96875
-70.49,1780136050.984375
-77.2,1780136051.0
-85.51,1780136051.015625
-96.19,1780136051.03125
-108.95,1780136051.046875
-122.08,1780136051.0625
-132.5,1780136051.078125
-136.42,1780136051.09375
-130.49,1780136051.109375
-112.94,1780136051.125
-84.26,1780136051.140625
-47.22,1780136051.15625
-6.02,1780136051.171875
34.94,1780136051.1875
72.09,1780136051.203125
103.26,1780136051.21875
127.66,1780136051.234375
145.32,1780136051.25
156.7,1780136051.265625
162.3,1780136051.28125
162.66,1780136051.296875
158.53,1780136051.3125
150.87,1780136051.328125
140.79,1780136051.34375
129.43,1780136051.359375
117.7,1780136051.375
106.2,1780136051.390625
95.23,1780136051.40625
84.9,1780136051.421875
75.26,1780136051.4375
66.37,1780136051.453125
58.29,1780136051.46875
51.13,1780136051.484375
44.97,1780136051.5
39.79,1780136051.515625
35.43,1780136051.53125
31.54,1780136051.546875
27.59,1780136051.5625
22.97,1780136051.578125
17.19,1780136051.59375
10.0,1780136051.609375
1.46,1780136051.625
-8.04,1780136051.640625
-18.0,1780136051.65625
-27.94,1780136051.671875
-37.6,1780136051.6875
-46.96,1780136051.703125
-56.22,1780136051.71875
-65.73,1780136051.734375
-75.91,1780136051.75
-87.15,1780136051.765625
-99.69,1780136051.78125
-113.32,1780136051.796875
-127.18,1780136051.8125
-139.56,1780136051.828125
-148.08,1780136051.84375
-150.18,1780136051.859375
-143.82,1780136051.875
-128.22,1780136051.890625
-104.2,1780136051.90625
-74.09,1780136051.921875
-41.1,1780136051.9375
-8.57,1780136051.953125
20.77,1780136051.96875
45.2,1780136051.984375
63.97,1780136052.0
77.09,1780136052.015625
84.99,1780136052.03125
88.4,1780136052.046875
88.22,1780136052.0625
85.58,1780136052.078125
81.64,1780136052.09375
77.42,1780136052.109375
73.53,1780136052.125
70.0,1780136052.140625
66.46,1780136052.15625
62.31,1780136052.171875
57.23,1780136052.1875
51.34,1780136052.203125
45.21,1780136052.21875
39.66,1780136052.234375
35.3,1780136052.25
32.35,1780136052.265625
30.4,1780136052.28125
28.62,1780136052.296875
26.01,1780136052.3125
21.73,1780136052.328125
15.41,1780136052.34375
7.3,1780136052.359375
-1.88,1780136052.375
-11.17,1780136052.390625
-19.77,1780136052.40625
-27.37,1780136052.421875
-34.28,1780136052.4375
-41.29,1780136052.453125
-49.45,1780136052.46875
-59.64,1780136052.484375
-72.19,1780136052.5
-86.59,1780136052.515625
-101.27,1780136052.53125
-113.74,1780136052.546875
-120.93,1780136052.5625
-119.95,1780136052.578125
-108.96,1780136052.59375
-87.82,1780136052.609375
-58.33,1780136052.625
-23.83,1780136052.640625
11.71,1780136052.65625
44.61,1780136052.671875
72.31,1780136052.6875
93.62,1780136052.703125
108.51,1780136052.71875
117.62,1780136052.734375
121.76,1780136052.75
121.63,1780136052.765625
117.83,1780136052.78125
111.04,1780136052.796875
102.21,1780136052.8125
92.54,1780136052.828125
83.26,1780136052.84375
75.26,1780136052.859375
68.83,1780136052.875
63.68,1780136052.890625
59.15,1780136052.90625
54.73,1780136052.921875
50.27,1780136052.9375
46.1,1780136052.953125
42.67,1780136052.96875
40.28,1780136052.984375
38.73,1780136053.0
37.41,1780136053.015625
35.48,1780136053.03125
32.29,1780136053.046875
27.63,1780136053.0625
21.72,1780136053.078125
15.18,1780136053.09375
8.64,1780136053.109375
2.55,1780136053.125
-2.91,1780136053.140625
-7.88,1780136053.15625
-12.72,1780136053.171875
-17.83,1780136053.1875
-23.55,1780136053.203125
-29.99,1780136053.21875
-36.9,1780136053.234375
-43.59,1780136053.25
-48.87,1780136053.265625
-51.36,1780136053.28125
-49.8,1780136053.296875
-43.58,1780136053.3125
-33.08,1780136053.328125
-19.63,1780136053.34375
-5.12,1780136053.359375
8.57,1780136053.375
20.16,1780136053.390625
29.1,1780136053.40625
35.43,1780136053.421875
39.35,1780136053.4375
40.92,1780136053.453125
40.01,1780136053.46875
36.51,1780136053.484375
30.65,1780136053.5
23.1,1780136053.515625
14.93,1780136053.53125
7.17,1780136053.546875
0.51,1780136053.5625
-4.9,1780136053.578125
-9.37,1780136053.59375
-13.41,1780136053.609375
-17.45,1780136053.625
-21.64,1780136053.640625
-25.78,1780136053.65625
-29.4,1780136053.671875
-32.01,1780136053.6875
-33.31,1780136053.703125
-33.34,1780136053.71875
-32.58,1780136053.734375
-31.82,1780136053.75
-31.88,1780136053.765625
-33.38,1780136053.78125
-36.52,1780136053.796875
-40.97,1780136053.8125
-46.07,1780136053.828125
-51.04,1780136053.84375
-55.24,1780136053.859375
-58.46,1780136053.875
-60.96,1780136053.890625
-63.49,1780136053.90625
-67.08,1780136053.921875
-72.72,1780136053.9375
-80.93,1780136053.953125
-91.46,1780136053.96875
-103.1,1780136053.984375
-113.84,1780136054.0
-121.32,1780136054.015625
-123.4,1780136054.03125
-118.72,1780136054.046875
-107.06,1780136054.0625
-89.29,1780136054.078125
-67.18,1780136054.09375
-42.92,1780136054.109375
-18.73,1780136054.125
3.55,1780136054.140625
22.62,1780136054.15625
37.75,1780136054.171875
48.68,1780136054.1875
55.44,1780136054.203125
58.26,1780136054.21875
57.48,1780136054.234375
53.7,1780136054.25
47.76,1780136054.265625
40.7,1780136054.28125
33.56,1780136054.296875
27.1,1780136054.3125
21.58,1780136054.328125
16.79,1780136054.34375
12.24,1780136054.359375
7.44,1780136054.375
2.2,1780136054.390625
-3.35,1780136054.40625
-8.81,1780136054.421875
-13.79,1780136054.4375
-18.02,1780136054.453125
-21.53,1780136054.46875
-24.59,1780136054.484375
-27.71,1780136054.5
-31.5,1780136054.515625
-36.44,1780136054.53125
-42.6,1780136054.546875
-49.5,1780136054.5625
-56.09,1780136054.578125
-61.1,1780136054.59375
-63.51,1780136054.609375
-63.02,1780136054.625
-60.25,1780136054.640625
-56.66,1780136054.65625
-54.17,1780136054.671875
-54.66,1780136054.6875
-59.46,1780136054.703125
-68.92,1780136054.71875
-82.1,1780136054.734375
-96.69,1780136054.75
-109.25,1780136054.765625
-115.87,1780136054.78125
-113.09,1780136054.796875
-98.96,1780136054.8125
-73.72,1780136054.828125
-39.8,1780136054.84375
-1.36,1780136054.859375
36.76,1780136054.875
69.83,1780136054.890625
94.1,1780136054.90625
107.21,1780136054.921875
108.56,1780136054.9375
99.36,1780136054.953125
82.52,1780136054.96875
62.0,1780136054.984375
41.94,1780136055.0
25.57,1780136055.015625
14.52,1780136055.03125
8.68,1780136055.046875
6.72,1780136055.0625
6.89,1780136055.078125
7.77,1780136055.09375
8.59,1780136055.109375
9.12,1780136055.125
9.3,1780136055.140625
8.94,1780136055.15625
7.64,1780136055.171875
4.99,1780136055.1875
0.8,1780136055.203125
-4.75,1780136055.21875
-11.15,1780136055.234375
-17.73,1780136055.25
-23.96,1780136055.265625
-29.56,1780136055.28125
-34.65,1780136055.296875
-39.62,1780136055.3125
-45.07,1780136055.328125
-51.6,1780136055.34375
-59.76,1780136055.359375
-69.77,1780136055.375
-81.47,1780136055.390625
-94.05,1780136055.40625
-106.05,1780136055.421875
-115.42,1780136055.4375
-119.91,1780136055.453125
-117.55,1780136055.46875
-107.24,1780136055.484375
-89.11,1780136055.5
-64.72,1780136055.515625
-36.66,1780136055.53125
-8.03,1780136055.546875
18.32,1780136055.5625
40.3,1780136055.578125
56.76,1780136055.59375
67.51,1780136055.609375
72.93,1780136055.625
73.78,1780136055.640625
70.93,1780136055.65625
65.35,1780136055.671875
57.98,1780136055.6875
49.71,1780136055.703125
41.21,1780136055.71875
32.94,1780136055.734375
25.08,1780136055.75
17.71,1780136055.765625
10.89,1780136055.78125
4.79,1780136055.796875
-0.26,1780136055.8125
-3.9,1780136055.828125
-5.84,1780136055.84375
-6.04,1780136055.859375
-4.76,1780136055.875
-2.63,1780136055.890625
-0.44,1780136055.90625
0.99,1780136055.921875
1.07,1780136055.9375
-0.4,1780136055.953125
-3.29,1780136055.96875
-7.2,1780136055.984375
-11.77,1780136056.0
-16.89,1780136056.015625
-22.81,1780136056.03125
-30.11,1780136056.046875
-39.46,1780136056.0625
-51.15,1780136056.078125
-64.57,1780136056.09375
-77.88,1780136056.109375
-88.11,1780136056.125
-91.81,1780136056.140625
-86.03,1780136056.15625
-69.34,1780136056.171875
-42.4,1780136056.1875
-7.8,1780136056.203125
30.59,1780136056.21875
68.61,1780136056.234375
102.59,1780136056.25
129.82,1780136056.265625
148.66,1780136056.28125
158.42,1780136056.296875
159.36,1780136056.3125
152.59,1780136056.328125
140.09,1780136056.34375
124.35,1780136056.359375
107.97,1780136056.375
93.1,1780136056.390625
