bvp,time
-33.77,1597571336.8125
-31.03,1597571336.828125
-26.77,1597571336.84375
-22.46,1597571336.859375
-19.55,1597571336.875
-18.92,1597571336.890625
-20.47,1597571336.90625
-23.15,1597571336.921875
-25.26,1597571336.9375
-25.1,1597571336.953125
-21.47,1597571336.96875
-14.01,1597571336.984375
-3.18,1597571337.0
9.87,1597571337.015625
23.72,1597571337.03125
36.97,1597571337.046875
48.54,1597571337.0625
57.8,1597571337.078125
64.62,1597571337.09375
69.22,1597571337.109375
72.1,1597571337.125
73.85,1597571337.140625
75.11,1597571337.15625
76.41,1597571337.171875
78.02,1597571337.1875
80.08,1597571337.203125
82.62,1597571337.21875
85.71,1597571337.234375
89.52,1597571337.25
94.17,1597571337.265625
99.61,1597571337.28125
105.5,1597571337.296875
111.25,1597571337.3125
116.28,1597571337.328125
120.17,1597571337.34375
122.81,1597571337.359375
124.35,1597571337.375
125.05,1597571337.390625
125.21,1597571337.40625
125.14,1597571337.421875
125.18,1597571337.4375
125.67,1597571337.453125
126.81,1597571337.46875
128.57,1597571337.484375
130.53,1597571337.5
132.13,1597571337.515625
132.91,1597571337.53125
132.74,1597571337.546875
131.92,1597571337.5625
130.95,1597571337.578125
130.07,1597571337.59375
129.0,1597571337.609375
126.72,1597571337.625
121.69,1597571337.640625
112.28,1597571337.65625
97.4,1597571337.671875
76.8,1597571337.6875
51.16,1597571337.703125
21.8,1597571337.71875
-9.76,1597571337.734375
-42.22,1597571337.75
-74.72,1597571337.765625
-106.82,1597571337.78125
-138.35,1597571337.796875
-169.23,1597571337.8125
-199.29,1597571337.828125
-227.99,1597571337.84375
-254.11,1597571337.859375
-275.53,1597571337.875
-289.42,1597571337.890625
-292.85,1597571337.90625
-283.89,1597571337.921875
-262.52,1597571337.9375
-231.0,1597571337.953125
-193.42,1597571337.96875
-154.51,1597571337.984375
-118.44,1597571338.0
-88.06,1597571338.015625
-64.95,1597571338.03125
-49.51,1597571338.046875
-41.55,1597571338.0625
-40.53,1597571338.078125
-45.7,1597571338.09375
-56.56,1597571338.109375
-73.36,1597571338.125
-97.6,1597571338.140625
-131.52,1597571338.15625
-176.61,1597571338.171875
-231.37,1597571338.1875
-290.06,1597571338.203125
-343.23,1597571338.21875
-380.44,1597571338.234375
-393.99,1597571338.25
-381.75,1597571338.265625
-347.49,1597571338.28125
-298.6,1597571338.296875
-242.67,1597571338.3125
-184.83,1597571338.328125
-127.36,1597571338.34375
-71.25,1597571338.359375
-18.33,1597571338.375
27.91,1597571338.390625
63.31,1597571338.40625
85.19,1597571338.421875
94.05,1597571338.4375
93.73,1597571338.453125
89.61,1597571338.46875
86.21,1597571338.484375
85.5,1597571338.5
86.79,1597571338.515625
87.7,1597571338.53125
86.06,1597571338.546875
81.15,1597571338.5625
73.89,1597571338.578125
66.18,1597571338.59375
59.81,1597571338.609375
55.64,1597571338.625
53.44,1597571338.640625
52.04,1597571338.65625
50.09,1597571338.671875
46.56,1597571338.6875
41.16,1597571338.703125
34.33,1597571338.71875
26.96,1597571338.734375
19.95,1597571338.75
13.83,1597571338.765625
8.6,1597571338.78125
3.82,1597571338.796875
-1.13,1597571338.8125
-6.69,1597571338.828125
-13.06,1597571338.84375
-20.2,1597571338.859375
-28.15,1597571338.875
-37.06,1597571338.890625
-47.01,1597571338.90625
-57.69,1597571338.921875
-68.03,1597571338.9375
-76.27,1597571338.953125
-80.45,1597571338.96875
-79.09,1597571338.984375
-71.89,1597571339.0
-59.81,1597571339.015625
-44.7,1597571339.03125
-28.73,1597571339.046875
-13.6,1597571339.0625
-0.38,1597571339.078125
10.61,1597571339.09375
19.45,1597571339.109375
26.45,1597571339.125
31.98,1597571339.140625
36.29,1597571339.15625
39.61,1597571339.171875
42.06,1597571339.1875
43.72,1597571339.203125
44.69,1597571339.21875
45.19,1597571339.234375
45.54,1597571339.25
46.07,1597571339.265625
47.04,1597571339.28125
48.46,1597571339.296875
50.18,1597571339.3125
51.95,1597571339.328125
53.59,1597571339.34375
55.07,1597571339.359375
56.46,1597571339.375
57.77,1597571339.390625
58.86,1597571339.40625
59.37,1597571339.421875
58.91,1597571339.4375
57.23,1597571339.453125
54.5,1597571339.46875
51.28,1597571339.484375
48.31,1597571339.5
46.15,1597571339.515625
44.87,1597571339.53125
43.99,1597571339.546875
42.72,1597571339.5625
40.38,1597571339.578125
36.82,1597571339.59375
32.38,1597571339.609375
27.72,1597571339.625
23.39,1597571339.640625
19.49,1597571339.65625
15.69,1597571339.671875
11.51,1597571339.6875
6.61,1597571339.703125
1.01,1597571339.71875
-4.93,1597571339.734375
-10.75,1597571339.75
-16.17,1597571339.765625
-21.12,1597571339.78125
-25.82,1597571339.796875
-30.49,1597571339.8125
-35.46,1597571339.828125
-41.06,1597571339.84375
-47.55,1597571339.859375
-55.08,1597571339.875
-63.33,1597571339.890625
-71.34,1597571339.90625
-77.54,1597571339.921875
-80.08,1597571339.9375
-77.59,1597571339.953125
-69.61,1597571339.96875
-56.93,1597571339.984375
-41.21,1597571340.0
-24.47,1597571340.015625
-8.4,1597571340.03125
5.97,1597571340.046875
18.23,1597571340.0625
28.35,1597571340.078125
36.46,1597571340.09375
42.67,1597571340.109375
47.22,1597571340.125
50.41,1597571340.140625
52.69,1597571340.15625
54.48,1597571340.171875
56.0,1597571340.1875
57.38,1597571340.203125
58.63,1597571340.21875
59.75,1597571340.234375
60.79,1597571340.25
61.79,1597571340.265625
62.78,1597571340.28125
63.75,1597571340.296875
64.71,1597571340.3125
65.68,1597571340.328125
66.67,1597571340.34375
67.55,1597571340.359375
68.08,1597571340.375
67.92,1597571340.390625
66.86,1597571340.40625
64.92,1597571340.421875
62.47,1597571340.4375
60.03,1597571340.453125
58.03,1597571340.46875
56.65,1597571340.484375
55.73,1597571340.5
54.9,1597571340.515625
53.76,1597571340.53125
52.14,1597571340.546875
50.06,1597571340.5625
47.76,1597571340.578125
45.53,1597571340.59375
43.54,1597571340.609375
41.79,1597571340.625
40.02,1597571340.640625
37.89,1597571340.65625
34.99,1597571340.671875
31.11,1597571340.6875
26.31,1597571340.703125
20.98,1597571340.71875
15.7,1597571340.734375
11.0,1597571340.75
7.12,1597571340.765625
3.87,1597571340.78125
0.76,1597571340.796875
-2.82,1597571340.8125
-7.23,1597571340.828125
-12.43,1597571340.84375
-18.02,1597571340.859375
-23.38,1597571340.875
-28.06,1597571340.890625
-31.95,1597571340.90625
-35.3,1597571340.921875
-38.63,1597571340.9375
-42.56,1597571340.953125
-47.6,1597571340.96875
-53.98,1597571340.984375
-61.53,1597571341.0
-69.5,1597571341.015625
-76.51,1597571341.03125
-80.73,1597571341.046875
-80.39,1597571341.0625
-74.34,1597571341.078125
-62.61,1597571341.09375
-46.61,1597571341.109375
-28.68,1597571341.125
-11.4,1597571341.140625
3.28,1597571341.15625
14.51,1597571341.171875
22.5,1597571341.1875
28.2,1597571341.203125
32.64,1597571341.21875
36.55,1597571341.234375
40.24,1597571341.25
43.72,1597571341.265625
46.91,1597571341.28125
49.73,1597571341.296875
52.18,1597571341.3125
54.28,1597571341.328125
56.0,1597571341.34375
57.29,1597571341.359375
58.13,1597571341.375
58.52,1597571341.390625
58.5,1597571341.40625
58.15,1597571341.421875
57.53,1597571341.4375
56.75,1597571341.453125
55.87,1597571341.46875
54.97,1597571341.484375
53.95,1597571341.5
52.58,1597571341.515625
50.54,1597571341.53125
47.63,1597571341.546875
43.94,1597571341.5625
39.92,1597571341.578125
36.28,1597571341.59375
33.69,1597571341.609375
32.47,1597571341.625
32.42,1597571341.640625
32.92,1597571341.65625
33.24,1597571341.671875
32.85,1597571341.6875
31.66,1597571341.703125
29.88,1597571341.71875
27.9,1597571341.734375
25.96,1597571341.75
24.05,1597571341.765625
22.0,1597571341.78125
19.61,1597571341.796875
16.81,1597571341.8125
13.7,1597571341.828125
10.46,1597571341.84375
7.26,1597571341.859375
4.16,1597571341.875
1.22,1597571341.890625
-1.5,1597571341.90625
-3.89,1597571341.921875
-5.92,1597571341.9375
-7.71,1597571341.953125
-9.57,1597571341.96875
-11.84,1597571341.984375
-14.78,1597571342.0
-18.37,1597571342.015625
-22.26,1597571342.03125
-26.05,1597571342.046875
-29.42,1597571342.0625
-32.27,1597571342.078125
-34.8,1597571342.09375
-37.32,1597571342.109375
-40.24,1597571342.125
-43.96,1597571342.140625
-48.77,1597571342.15625
-54.68,1597571342.171875
-61.17,1597571342.1875
-67.09,1597571342.203125
-70.83,1597571342.21875
-70.83,1597571342.234375
-66.15,1597571342.25
-56.98,1597571342.265625
-44.55,1597571342.28125
-30.77,1597571342.296875
-17.48,1597571342.3125
-6.0,1597571342.328125
3.07,1597571342.34375
9.75,1597571342.359375
14.37,1597571342.375
17.36,1597571342.390625
19.19,1597571342.40625
20.27,1597571342.421875
21.08,1597571342.4375
21.96,1597571342.453125
23.03,1597571342.46875
24.2,1597571342.484375
25.26,1597571342.5
25.97,1597571342.515625
26.28,1597571342.53125
26.35,1597571342.546875
26.42,1597571342.5625
26.68,1597571342.578125
27.17,1597571342.59375
27.72,1597571342.609375
28.03,1597571342.625
27.79,1597571342.640625
26.87,1597571342.65625
25.31,1597571342.671875
23.4,1597571342.6875
21.46,1597571342.703125
19.78,1597571342.71875
18.45,1597571342.734375
17.4,1597571342.75
16.44,1597571342.765625
15.45,1597571342.78125
14.37,1597571342.796875
13.23,1597571342.8125
12.12,1597571342.828125
11.08,1597571342.84375
10.13,1597571342.859375
9.23,1597571342.875
8.4,1597571342.890625
7.64,1597571342.90625
6.87,1597571342.921875
5.95,1597571342.9375
4.67,1597571342.953125
2.82,1597571342.96875
0.31,1597571342.984375
-2.68,1597571343.0
-5.91,1597571343.015625
-9.1,1597571343.03125
-12.07,1597571343.046875
-14.88,1597571343.0625
-17.65,1597571343.078125
-20.48,1597571343.09375
-23.34,1597571343.109375
-26.07,1597571343.125
-28.44,1597571343.140625
-30.37,1597571343.15625
-31.93,1597571343.171875
-33.4,1597571343.1875
-35.17,1597571343.203125
-37.67,1597571343.21875
-41.2,1597571343.234375
-45.8,1597571343.25
-51.05,1597571343.265625
-56.06,1597571343.28125
-59.54,1597571343.296875
-60.27,1597571343.3125
-57.42,1597571343.328125
-51.0,1597571343.34375
-41.86,1597571343.359375
-31.48,1597571343.375
-21.37,1597571343.390625
-12.71,1597571343.40625
-6.02,1597571343.421875
-1.25,1597571343.4375
2.07,1597571343.453125
4.53,1597571343.46875
6.6,1597571343.484375
8.64,1597571343.5
10.79,1597571343.515625
13.09,1597571343.53125
15.41,1597571343.546875
17.59,1597571343.5625
19.47,1597571343.578125
21.0,1597571343.59375
22.19,1597571343.609375
23.09,1597571343.625
23.84,1597571343.640625
24.46,1597571343.65625
24.97,1597571343.671875
25.34,1597571343.6875
25.52,1597571343.703125
25.49,1597571343.71875
25.17,1597571343.734375
24.43,1597571343.75
23.22,1597571343.765625
21.45,1597571343.78125
19.22,1597571343.796875
16.71,1597571343.8125
14.23,1597571343.828125
12.09,1597571343.84375
10.53,1597571343.859375
9.63,1597571343.875
9.32,1597571343.890625
9.4,1597571343.90625
9.67,1597571343.921875
9.88,1597571343.9375
9.89,1597571343.953125
9.56,1597571343.96875
8.91,1597571343.984375
7.99,1597571344.0
6.99,1597571344.015625
6.1,1597571344.03125
5.42,1597571344.046875
4.81,1597571344.0625
4.02,1597571344.078125
2.7,1597571344.09375
0.63,1597571344.109375
-2.22,1597571344.125
-5.71,1597571344.140625
-9.55,1597571344.15625
-13.52,1597571344.171875
-17.41,1597571344.1875
-21.09,1597571344.203125
-24.48,1597571344.21875
-27.54,1597571344.234375
-30.29,1597571344.25
-32.74,1597571344.265625
-34.96,1597571344.28125
-36.91,1597571344.296875
-38.55,1597571344.3125
-39.81,1597571344.328125
-40.7,1597571344.34375
-41.45,1597571344.359375
-42.47,1597571344.375
-44.27,1597571344.390625
-47.24,1597571344.40625
-51.41,1597571344.421875
-56.3,1597571344.4375
-60.88,1597571344.453125
-63.78,1597571344.46875
-63.64,1597571344.484375
-59.58,1597571344.5
-51.64,1597571344.515625
-40.73,1597571344.53125
-28.46,1597571344.546875
-16.62,1597571344.5625
-6.58,1597571344.578125
0.94,1597571344.59375
5.97,1597571344.609375
9.03,1597571344.625
10.8,1597571344.640625
12.01,1597571344.65625
13.18,1597571344.671875
14.69,1597571344.6875
16.74,1597571344.703125
19.39,1597571344.71875
22.48,1597571344.734375
25.73,1597571344.75
28.81,1597571344.765625
31.35,1597571344.78125
33.1,1597571344.796875
33.94,1597571344.8125
33.9,1597571344.828125
33.2,1597571344.84375
32.17,1597571344.859375
31.17,1597571344.875
30.46,1597571344.890625
30.0,1597571344.90625
29.58,1597571344.921875
28.81,1597571344.9375
27.38,1597571344.953125
25.19,1597571344.96875
22.41,1597571344.984375
19.33,1597571345.0
16.21,1597571345.015625
13.18,1597571345.03125
10.32,1597571345.046875
7.61,1597571345.0625
5.12,1597571345.078125
2.93,1597571345.09375
1.08,1597571345.109375
-0.44,1597571345.125
-1.78,1597571345.140625
-3.09,1597571345.15625
-4.47,1597571345.171875
-5.96,1597571345.1875
-7.49,1597571345.203125
-8.93,1597571345.21875
-10.1,1597571345.234375
-10.9,1597571345.25
-11.2,1597571345.265625
-11.05,1597571345.28125
-10.6,1597571345.296875
-10.15,1597571345.3125
-10.02,1597571345.328125
-10.39,1597571345.34375
-11.25,1597571345.359375
-12.43,1597571345.375
-13.74,1597571345.390625
-15.12,1597571345.40625
-16.64,1597571345.421875
-18.5,1597571345.4375
-20.77,1597571345.453125
-23.42,1597571345.46875
-26.2,1597571345.484375
-28.77,1597571345.5
-30.85,1597571345.515625
-32.33,1597571345.53125
-33.31,1597571345.546875
-34.07,1597571345.5625
-35.04,1597571345.578125
-36.62,1597571345.59375
-39.12,1597571345.609375
-42.71,1597571345.625
-47.19,1597571345.640625
-51.92,1597571345.65625
-55.85,1597571345.671875
-57.72,1597571345.6875
-56.39,1597571345.703125
-51.32,1597571345.71875
-42.74,1597571345.734375
-31.72,1597571345.75
-19.81,1597571345.765625
-8.66,1597571345.78125
0.46,1597571345.796875
6.95,1597571345.8125
10.89,1597571345.828125
12.88,1597571345.84375
13.77,1597571345.859375
14.35,1597571345.875
15.19,1597571345.890625
16.46,1597571345.90625
18.09,1597571345.921875
19.86,1597571345.9375
21.6,1597571345.953125
23.29,1597571345.96875
25.0,1597571345.984375
26.83,1597571346.0
28.73,1597571346.015625
30.46,1597571346.03125
31.73,1597571346.046875
32.33,1597571346.0625
32.24,1597571346.078125
31.62,1597571346.09375
30.74,1597571346.109375
29.75,1597571346.125
28.65,1597571346.140625
27.29,1597571346.15625
25.48,1597571346.171875
23.16,1597571346.1875
20.46,1597571346.203125
17.67,1597571346.21875
15.07,1597571346.234375
12.87,1597571346.25
11.03,1597571346.265625
9.44,1597571346.28125
8.0,1597571346.296875
6.71,1597571346.3125
5.67,1597571346.328125
5.08,1597571346.34375
4.94,1597571346.359375
5.11,1597571346.375
5.34,1597571346.390625
5.28,1597571346.40625
4.73,1597571346.421875
3.71,1597571346.4375
2.41,1597571346.453125
1.12,1597571346.46875
-0.01,1597571346.484375
-1.03,1597571346.5
-2.2,1597571346.515625
-3.83,1597571346.53125
-6.19,1597571346.546875
-9.35,1597571346.5625
-13.09,1597571346.578125
-17.05,1597571346.59375
-20.79,1597571346.609375
-23.99,1597571346.625
-26.57,1597571346.640625
-28.72,1597571346.65625
-30.92,1597571346.671875
-33.75,1597571346.6875
-37.7,1597571346.703125
-42.95,1597571346.71875
-49.16,1597571346.734375
-55.41,1597571346.75
-60.33,1597571346.765625
-62.51,1597571346.78125
-60.87,1597571346.796875
-55.11,1597571346.8125
-45.83,1597571346.828125
-34.28,1597571346.84375
-22.13,1597571346.859375
-10.9,1597571346.875
-1.6,1597571346.890625
5.35,1597571346.90625
10.08,1597571346.921875
13.01,1597571346.9375
14.73,1597571346.953125
15.72,1597571346.96875
16.36,1597571346.984375
16.88,1597571347.0
17.4,1597571347.015625
18.0,1597571347.03125
18.75,1597571347.046875
19.65,1597571347.0625
20.66,1597571347.078125
21.62,1597571347.09375
22.43,1597571347.109375
23.05,1597571347.125
23.66,1597571347.140625
24.51,1597571347.15625
25.85,1597571347.171875
27.67,1597571347.1875
29.69,1597571347.203125
31.41,1597571347.21875
32.27,1597571347.234375
31.99,1597571347.25
30.56,1597571347.265625
28.35,1597571347.28125
25.84,1597571347.296875
23.4,1597571347.3125
21.22,1597571347.328125
19.24,1597571347.34375
17.35,1597571347.359375
15.45,1597571347.375
13.65,1597571347.390625
12.09,1597571347.40625
10.95,1597571347.421875
10.28,1597571347.4375
9.91,1597571347.453125
9.56,1597571347.46875
8.92,1597571347.484375
7.81,1597571347.5
6.13,1597571347.515625
3.96,1597571347.53125
1.41,1597571347.546875
-1.49,1597571347.5625
-4.77,1597571347.578125
-8.46,1597571347.59375
-12.61,1597571347.609375
-17.1,1597571347.625
-21.74,1597571347.640625
-26.21,1597571347.65625
-30.24,1597571347.671875
-33.67,1597571347.6875
-36.5,1597571347.703125
-38.85,1597571347.71875
-40.97,1597571347.734375
-43.15,1597571347.75
-45.74,1597571347.765625
-49.17,1597571347.78125
-53.82,1597571347.796875
-59.71,1597571347.8125
-66.28,1597571347.828125
-72.28,1597571347.84375
-75.96,1597571347.859375
-75.61,1597571347.875
-70.27,1597571347.890625
-60.08,1597571347.90625
-46.36,1597571347.921875
-31.1,1597571347.9375
-16.37,1597571347.953125
-3.68,1597571347.96875
6.25,1597571347.984375
13.36,1597571348.0
18.07,1597571348.015625
20.88,1597571348.03125
22.36,1597571348.046875
23.0,1597571348.0625
23.26,1597571348.078125
23.52,1597571348.09375
24.06,1597571348.109375
24.96,1597571348.125
26.2,1597571348.140625
27.62,1597571348.15625
29.0,1597571348.171875
30.11,1597571348.1875
30.81,1597571348.203125
31.05,1597571348.21875
31.0,1597571348.234375
30.97,1597571348.25
31.28,1597571348.265625
32.16,1597571348.28125
33.46,1597571348.296875
34.85,1597571348.3125
35.88,1597571348.328125
36.18,1597571348.34375
35.64,1597571348.359375
34.41,1597571348.375
32.72,1597571348.390625
30.72,1597571348.40625
28.41,1597571348.421875
25.74,1597571348.4375
22.75,1597571348.453125
19.57,1597571348.46875
16.47,1597571348.484375
13.64,1597571348.5
11.05,1597571348.515625
8.44,1597571348.53125
5.46,1597571348.546875
1.95,1597571348.5625
-2.02,1597571348.578125
-6.05,1597571348.59375
-9.73,1597571348.609375
-12.82,1597571348.625
-15.37,1597571348.640625
-17.72,1597571348.65625
-20.28,1597571348.671875
-23.32,1597571348.6875
-26.82,1597571348.703125
-30.54,1597571348.71875
-34.09,1597571348.734375
-37.11,1597571348.75
-39.4,1597571348.765625
-40.94,1597571348.78125
-41.96,1597571348.796875
-42.88,1597571348.8125
-44.3,1597571348.828125
-46.85,1597571348.84375
-50.95,1597571348.859375
-56.63,1597571348.875
-63.24,1597571348.890625
-69.43,1597571348.90625
-73.46,1597571348.921875
-73.63,1597571348.9375
-68.92,1597571348.953125
-59.35,1597571348.96875
-46.08,1597571348.984375
-31.01,1597571349.0
-16.24,1597571349.015625
-3.47,1597571349.03125
6.4,1597571349.046875
13.29,1597571349.0625
17.72,1597571349.078125
20.52,1597571349.09375
22.46,1597571349.109375
24.12,1597571349.125
25.79,1597571349.140625
27.53,1597571349.15625
29.26,1597571349.171875
30.89,1597571349.1875
32.41,1597571349.203125
33.94,1597571349.21875
35.65,1597571349.234375
37.6,1597571349.25
39.74,1597571349.265625
41.82,1597571349.28125
43.58,1597571349.296875
44.88,1597571349.3125
45.73,1597571349.328125
46.22,1597571349.34375
46.44,1597571349.359375
46.3,1597571349.375
45.58,1597571349.390625
44.1,1597571349.40625
41.81,1597571349.421875
38.95,1597571349.4375
36.02,1597571349.453125
33.49,1597571349.46875
31.7,1597571349.484375
30.63,1597571349.5
29.96,1597571349.515625
29.28,1597571349.53125
28.17,1597571349.546875
26.43,1597571349.5625
24.04,1597571349.578125
21.14,1597571349.59375
17.96,1597571349.609375
14.76,1597571349.625
11.74,1597571349.640625
8.96,1597571349.65625
6.31,1597571349.671875
3.53,1597571349.6875
0.31,1597571349.703125
-3.58,1597571349.71875
-8.09,1597571349.734375
-12.96,1597571349.75
-17.82,1597571349.765625
-22.28,1597571349.78125
-26.19,1597571349.796875
-29.66,1597571349.8125
-32.98,1597571349.828125
-36.56,1597571349.84375
-40.9,1597571349.859375
-46.41,1597571349.875
-53.36,1597571349.890625
-61.55,1597571349.90625
-70.14,1597571349.921875
-77.62,1597571349.9375
-82.06,1597571349.953125
-81.73,1597571349.96875
-75.73,1597571349.984375
-64.4,1597571350.0
-49.26,1597571350.015625
-32.5,1597571350.03125
-16.3,1597571350.046875
-2.17,1597571350.0625
9.18,1597571350.078125
17.8,1597571350.09375
24.13,1597571350.109375
28.7,1597571350.125
31.94,1597571350.140625
34.17,1597571350.15625
35.64,1597571350.171875
36.66,1597571350.1875
37.5,1597571350.203125
38.52,1597571350.21875
39.97,1597571350.234375
41.92,1597571350.25
44.22,1597571350.265625
46.51,1597571350.28125
48.39,1597571350.296875
49.53,1597571350.3125
49.82,1597571350.328125
49.39,1597571350.34375
48.47,1597571350.359375
47.23,1597571350.375
45.65,1597571350.390625
43.61,1597571350.40625
40.98,1597571350.421875
37.78,1597571350.4375
34.22,1597571350.453125
30.67,1597571350.46875
27.45,1597571350.484375
24.75,1597571350.5
22.53,1597571350.515625
20.52,1597571350.53125
18.4,1597571350.546875
15.98,1597571350.5625
13.28,1597571350.578125
10.53,1597571350.59375
8.05,1597571350.609375
5.98,1597571350.625
4.24,1597571350.640625
2.41,1597571350.65625
-0.04,1597571350.671875
-3.54,1597571350.6875
-8.19,1597571350.703125
-13.69,1597571350.71875
-19.42,1597571350.734375
-24.8,1597571350.75
-29.5,1597571350.765625
-33.62,1597571350.78125
-37.63,1597571350.796875
-42.17,1597571350.8125
-47.84,1597571350.828125
-54.94,1597571350.84375
-63.24,1597571350.859375
-71.88,1597571350.875
-79.37,1597571350.890625
-83.98,1597571350.90625
-84.18,1597571350.921875
-79.18,1597571350.9375
-69.26,1597571350.953125
-55.77,1597571350.96875
-40.67,1597571350.984375
-26.0,1597571351.0
-13.15,1597571351.015625
-2.7,1597571351.03125
5.54,1597571351.046875
12.25,1597571351.0625
18.13,1597571351.078125
23.7,1597571351.09375
29.15,1597571351.109375
34.41,1597571351.125
39.31,1597571351.140625
43.61,1597571351.15625
47.19,1597571351.171875
50.02,1597571351.1875
52.24,1597571351.203125
54.04,1597571351.21875
55.64,1597571351.234375
57.12,1597571351.25
58.43,1597571351.265625
59.47,1597571351.28125
60.1,1597571351.296875
60.27,1597571351.3125
60.01,1597571351.328125
59.32,1597571351.34375
58.13,1597571351.359375
56.31,1597571351.375
53.72,1597571351.390625
50.38,1597571351.40625
46.5,1597571351.421875
42.5,1597571351.4375
38.79,1597571351.453125
35.64,1597571351.46875
33.03,1597571351.484375
30.69,1597571351.5
28.16,1597571351.515625
25.11,1597571351.53125
21.47,1597571351.546875
17.45,1597571351.5625
13.46,1597571351.578125
9.82,1597571351.59375
6.68,1597571351.609375
3.89,1597571351.625
1.11,1597571351.640625
-2.03,1597571351.65625
-5.8,1597571351.671875
-10.27,1597571351.6875
-15.25,1597571351.703125
-20.35,1597571351.71875
-25.11,1597571351.734375
-29.21,1597571351.75
-32.58,1597571351.765625
-35.52,1597571351.78125
-38.64,1597571351.796875
-42.71,1597571351.8125
-48.35,1597571351.828125
-55.82,1597571351.84375
-64.72,1597571351.859375
-74.03,1597571351.875
-82.23,1597571351.890625
-87.61,1597571351.90625
-88.76,1597571351.921875
-84.81,1597571351.9375
-75.83,1597571351.953125
-62.74,1597571351.96875
-47.16,1597571351.984375
-30.96,1597571352.0
-15.85,1597571352.015625
-3.09,1597571352.03125
6.78,1597571352.046875
13.86,1597571352.0625
18.76,1597571352.078125
22.37,1597571352.09375
25.47,1597571352.109375
28.6,1597571352.125
31.82,1597571352.140625
34.86,1597571352.15625
37.29,1597571352.171875
38.76,1597571352.1875
39.23,1597571352.203125
38.97,1597571352.21875
38.38,1597571352.234375
37.87,1597571352.25
37.68,1597571352.265625
37.82,1597571352.28125
38.08,1597571352.296875
38.17,1597571352.3125
37.73,1597571352.328125
36.52,1597571352.34375
34.47,1597571352.359375
31.76,1597571352.375
28.75,1597571352.390625
25.81,1597571352.40625
23.07,1597571352.421875
20.32,1597571352.4375
17.05,1597571352.453125
12.8,1597571352.46875
7.43,1597571352.484375
1.43,1597571352.5
-4.25,1597571352.515625
-8.45,1597571352.53125
-10.21,1597571352.546875
-8.97,1597571352.5625
-4.74,1597571352.578125
1.95,1597571352.59375
9.98,1597571352.609375
17.72,1597571352.625
23.11,1597571352.640625
24.22,1597571352.65625
20.01,1597571352.671875
10.97,1597571352.6875
-0.73,1597571352.703125
-11.82,1597571352.71875
-19.29,1597571352.734375
-21.46,1597571352.75
-18.61,1597571352.765625
-12.58,1597571352.78125
-5.7,1597571352.796875
0.2,1597571352.8125
4.35,1597571352.828125
6.8,1597571352.84375
7.83,1597571352.859375
7.42,1597571352.875
5.11,1597571352.890625
0.38,1597571352.90625
-6.9,1597571352.921875
-16.12,1597571352.9375
-25.87,1597571352.953125
-34.35,1597571352.96875
-39.82,1597571352.984375
-41.12,1597571353.0
-37.95,1597571353.015625
-30.96,1597571353.03125
-21.47,1597571353.046875
-11.07,1597571353.0625
-1.23,1597571353.078125
7.08,1597571353.09375
13.44,1597571353.109375
17.83,1597571353.125
20.43,1597571353.140625
21.41,1597571353.15625
21.01,1597571353.171875
19.48,1597571353.1875
17.3,1597571353.203125
15.13,1597571353.21875
13.63,1597571353.234375
13.25,1597571353.25
14.06,1597571353.265625
15.75,1597571353.28125
17.76,1597571353.296875
19.58,1597571353.3125
20.96,1597571353.328125
21.98,1597571353.34375
22.86,1597571353.359375
23.82,1597571353.375
24.92,1597571353.390625
25.97,1597571353.40625
26.75,1597571353.421875
27.05,1597571353.4375
26.82,1597571353.453125
26.14,1597571353.46875
25.09,1597571353.484375
23.75,1597571353.5
22.14,1597571353.515625
20.29,1597571353.53125
18.27,1597571353.546875
16.2,1597571353.5625
14.18,1597571353.578125
12.33,1597571353.59375
10.75,1597571353.609375
9.62,1597571353.625
9.11,1597571353.640625
9.43,1597571353.65625
10.66,1597571353.671875
12.62,1597571353.6875
14.91,1597571353.703125
17.05,1597571353.71875
18.68,1597571353.734375
19.78,1597571353.75
20.6,1597571353.765625
21.56,1597571353.78125
22.98,1597571353.796875
24.92,1597571353.8125
27.14,1597571353.828125
29.27,1597571353.84375
30.95,1597571353.859375
31.99,1597571353.875
32.34,1597571353.890625
32.12,1597571353.90625
31.46,1597571353.921875
30.56,1597571353.9375
29.49,1597571353.953125
28.19,1597571353.96875
26.22,1597571353.984375
22.8,1597571354.0
16.86,1597571354.015625
7.53,1597571354.03125
-5.44,1597571354.046875
-21.29,1597571354.0625
-38.29,1597571354.078125
-54.22,1597571354.09375
-67.07,1597571354.109375
-75.73,1597571354.125
-80.28,1597571354.140625
-81.85,1597571354.15625
-82.15,1597571354.171875
-82.87,1597571354.1875
-85.26,1597571354.203125
-89.71,1597571354.21875
-95.67,1597571354.234375
-101.64,1597571354.25
-105.59,1597571354.265625
-105.58,1597571354.28125
-100.41,1597571354.296875
-90.22,1597571354.3125
-76.45,1597571354.328125
-61.26,1597571354.34375
-46.78,1597571354.359375
-34.28,1597571354.375
-24.03,1597571354.390625
-15.59,1597571354.40625
-8.29,1597571354.421875
-1.8,1597571354.4375
3.9,1597571354.453125
8.68,1597571354.46875
12.53,1597571354.484375
15.68,1597571354.5
18.4,1597571354.515625
20.73,1597571354.53125
22.39,1597571354.546875
22.91,1597571354.5625
22.02,1597571354.578125
19.81,1597571354.59375
16.98,1597571354.609375
14.47,1597571354.625
13.1,1597571354.640625
13.16,1597571354.65625
14.27,1597571354.671875
15.58,1597571354.6875
16.23,1597571354.703125
15.75,1597571354.71875
14.29,1597571354.734375
12.39,1597571354.75
10.75,1597571354.765625
9.73,1597571354.78125
9.26,1597571354.796875
8.88,1597571354.8125
8.01,1597571354.828125
6.25,1597571354.84375
3.54,1597571354.859375
0.14,1597571354.875
-3.54,1597571354.890625
-7.13,1597571354.90625
-10.4,1597571354.921875
-13.31,1597571354.9375
-15.97,1597571354.953125
-18.57,1597571354.96875
-21.26,1597571354.984375
-24.13,1597571355.0
-27.04,1597571355.015625
-29.74,1597571355.03125
-31.93,1597571355.046875
-33.43,1597571355.0625
-34.29,1597571355.078125
-34.83,1597571355.09375
-35.53,1597571355.109375
-36.85,1597571355.125
-39.13,1597571355.140625
-42.48,1597571355.15625
-46.71,1597571355.171875
-51.32,1597571355.1875
-55.45,1597571355.203125
-58.03,1597571355.21875
-57.97,1597571355.234375
-54.58,1597571355.25
-47.82,1597571355.265625
-38.42,1597571355.28125
-27.69,1597571355.296875
-17.07,1597571355.3125
-7.71,1597571355.328125
-0.26,1597571355.34375
5.23,1597571355.359375
9.02,1597571355.375
11.52,1597571355.390625
13.14,1597571355.40625
14.21,1597571355.421875
15.07,1597571355.4375
16.05,1597571355.453125
17.38,1597571355.46875
19.15,1597571355.484375
21.23,1597571355.5
23.35,1597571355.515625
25.22,1597571355.53125
26.63,1597571355.546875
27.53,1597571355.5625
28.05,1597571355.578125
28.36,1597571355.59375
28.63,1597571355.609375
28.95,1597571355.625
29.29,1597571355.640625
29.58,1597571355.65625
29.68,1597571355.671875
29.46,1597571355.6875
28.87,1597571355.703125
27.85,1597571355.71875
26.48,1597571355.734375
24.89,1597571355.75
23.24,1597571355.765625
21.63,1597571355.78125
20.08,1597571355.796875
18.41,1597571355.8125
16.41,1597571355.828125
13.88,1597571355.84375
10.79,1597571355.859375
7.33,1597571355.875
3.87,1597571355.890625
0.77,1597571355.90625
-1.75,1597571355.921875
-3.66,1597571355.9375
-5.21,1597571355.953125
-6.67,1597571355.96875
-8.28,1597571355.984375
-10.12,1597571356.0
-12.09,1597571356.015625
-14.02,1597571356.03125
-15.73,1597571356.046875
-17.12,1597571356.0625
-18.25,1597571356.078125
-19.32,1597571356.09375
-20.65,1597571356.109375
-22.56,1597571356.125
-25.34,1597571356.140625
-29.13,1597571356.15625
-33.86,1597571356.171875
-39.18,1597571356.1875
-44.33,1597571356.203125
-48.23,1597571356.21875
-49.68,1597571356.234375
-47.74,1597571356.25
-42.08,1597571356.265625
-33.22,1597571356.28125
-22.36,1597571356.296875
-11.11,1597571356.3125
-0.93,1597571356.328125
7.23,1597571356.34375
13.02,1597571356.359375
16.67,1597571356.375
18.65,1597571356.390625
19.51,1597571356.40625
19.68,1597571356.421875
19.47,1597571356.4375
19.09,1597571356.453125
18.74,1597571356.46875
18.62,1597571356.484375
18.92,1597571356.5
19.71,1597571356.515625
20.87,1597571356.53125
22.08,1597571356.546875
22.97,1597571356.5625
23.29,1597571356.578125
23.08,1597571356.59375
22.63,1597571356.609375
22.32,1597571356.625
22.38,1597571356.640625
22.77,1597571356.65625
23.19,1597571356.671875
23.28,1597571356.6875
22.73,1597571356.703125
21.43,1597571356.71875
19.42,1597571356.734375
16.88,1597571356.75
14.11,1597571356.765625
11.48,1597571356.78125
9.36,1597571356.796875
7.97,1597571356.8125
7.24,1597571356.828125
6.8,1597571356.84375
6.12,1597571356.859375
4.79,1597571356.875
2.7,1597571356.890625
0.12,1597571356.90625
-2.52,1597571356.921875
-4.9,1597571356.9375
-6.98,1597571356.953125
-9.04,1597571356.96875
-11.41,1597571356.984375
-14.33,1597571357.0
-17.72,1597571357.015625
-21.32,1597571357.03125
-24.82,1597571357.046875
-28.02,1597571357.0625
-30.92,1597571357.078125
-33.64,1597571357.09375
-36.27,1597571357.109375
-38.83,1597571357.125
-41.34,1597571357.140625
-43.88,1597571357.15625
-46.79,1597571357.171875
-50.34,1597571357.1875
-54.57,1597571357.203125
-58.87,1597571357.21875
-62.1,1597571357.234375
-62.81,1597571357.25
-59.93,1597571357.265625
-53.24,1597571357.28125
-43.54,1597571357.296875
-32.31,1597571357.3125
-21.14,1597571357.328125
-11.13,1597571357.34375
-2.69,1597571357.359375
4.26,1597571357.375
9.98,1597571357.390625
14.66,1597571357.40625
18.24,1597571357.421875
20.78,1597571357.4375
22.45,1597571357.453125
23.65,1597571357.46875
24.75,1597571357.484375
25.93,1597571357.5
27.14,1597571357.515625
28.12,1597571357.53125
28.69,1597571357.546875
28.82,1597571357.5625
28.7,1597571357.578125
28.61,1597571357.59375
28.75,1597571357.609375
29.24,1597571357.625
30.05,1597571357.640625
31.1,1597571357.65625
32.2,1597571357.671875
33.15,1597571357.6875
33.69,1597571357.703125
33.62,1597571357.71875
32.83,1597571357.734375
31.46,1597571357.75
29.73,1597571357.765625
27.94,1597571357.78125
26.22,1597571357.796875
24.6,1597571357.8125
22.93,1597571357.828125
21.11,1597571357.84375
19.16,1597571357.859375
17.16,1597571357.875
15.23,1597571357.890625
13.48,1597571357.90625
11.98,1597571357.921875
10.77,1597571357.9375
9.89,1597571357.953125
9.3,1597571357.96875
8.85,1597571357.984375
8.25,1597571358.0
7.18,1597571358.015625
5.47,1597571358.03125
3.13,1597571358.046875
0.43,1597571358.0625
-2.27,1597571358.078125
-4.73,1597571358.09375
-6.98,1597571358.109375
-9.29,1597571358.125
-12.05,1597571358.140625
-15.61,1597571358.15625
-20.11,1597571358.171875
-25.37,1597571358.1875
-31.01,1597571358.203125
-36.5,1597571358.21875
-41.41,1597571358.234375
-45.52,1597571358.25
-48.93,1597571358.265625
-52.01,1597571358.28125
-55.32,1597571358.296875
-59.44,1597571358.3125
-64.69,1597571358.328125
-70.91,1597571358.34375
-77.3,1597571358.359375
-82.49,1597571358.375
-84.88,1597571358.390625
-83.08,1597571358.40625
-76.54,1597571358.421875
-65.68,1597571358.4375
-51.9,1597571358.453125
-36.95,1597571358.46875
-22.47,1597571358.484375
-9.54,1597571358.5
1.38,1597571358.515625
10.23,1597571358.53125
17.05,1597571358.546875
21.93,1597571358.5625
25.05,1597571358.578125
26.77,1597571358.59375
27.6,1597571358.609375
28.1,1597571358.625
28.6,1597571358.640625
29.1,1597571358.65625
29.37,1597571358.671875
29.23,1597571358.6875
28.69,1597571358.703125
28.09,1597571358.71875
27.9,1597571358.734375
28.52,1597571358.75
30.08,1597571358.765625
32.42,1597571358.78125
35.14,1597571358.796875
37.82,1597571358.8125
40.06,1597571358.828125
41.59,1597571358.84375
42.32,1597571358.859375
42.27,1597571358.875
41.6,1597571358.890625
40.57,1597571358.90625
39.37,1597571358.921875
38.12,1597571358.9375
36.78,1597571358.953125
35.3,1597571358.96875
33.59,1597571358.984375
31.67,1597571359.0
29.66,1597571359.015625
27.7,1597571359.03125
25.92,1597571359.046875
24.33,1597571359.0625
22.89,1597571359.078125
21.54,1597571359.09375
20.22,1597571359.109375
18.92,1597571359.125
17.6,1597571359.140625
16.17,1597571359.15625
14.5,1597571359.171875
12.47,1597571359.1875
10.03,1597571359.203125
7.25,1597571359.21875
4.23,1597571359.234375
1.05,1597571359.25
-2.37,1597571359.265625
-6.24,1597571359.28125
-10.8,1597571359.296875
-16.12,1597571359.3125
-21.99,1597571359.328125
-27.9,1597571359.34375
-33.26,1597571359.359375
-37.58,1597571359.375
-40.71,1597571359.390625
-42.88,1597571359.40625
-44.56,1597571359.421875
-46.37,1597571359.4375
-48.86,1597571359.453125
-52.49,1597571359.46875
-57.41,1597571359.484375
-63.38,1597571359.5
-69.6,1597571359.515625
-74.74,1597571359.53125
-77.22,1597571359.546875
-75.71,1597571359.5625
-69.54,1597571359.578125
-59.03,1597571359.59375
-45.35,1597571359.609375
-30.2,1597571359.625
-15.23,1597571359.640625
-1.77,1597571359.65625
9.33,1597571359.671875
17.75,1597571359.6875
23.5,1597571359.703125
26.94,1597571359.71875
28.66,1597571359.734375
29.47,1597571359.75
30.16,1597571359.765625
31.29,1597571359.78125
33.13,1597571359.796875
35.62,1597571359.8125
38.46,1597571359.828125
41.3,1597571359.84375
43.85,1597571359.859375
45.94,1597571359.875
47.47,1597571359.890625
48.41,1597571359.90625
48.81,1597571359.921875
48.76,1597571359.9375
48.44,1597571359.953125
47.97,1597571359.96875
47.38,1597571359.984375
46.59,1597571360.0
45.42,1597571360.015625
43.77,1597571360.03125
41.68,1597571360.046875
39.38,1597571360.0625
37.15,1597571360.078125
35.21,1597571360.09375
33.59,1597571360.109375
32.11,1597571360.125
30.55,1597571360.140625
28.72,1597571360.15625
26.69,1597571360.171875
24.64,1597571360.1875
22.81,1597571360.203125
21.25,1597571360.21875
19.82,1597571360.234375
18.19,1597571360.25
16.03,1597571360.265625
13.17,1597571360.28125
9.66,1597571360.296875
5.74,1597571360.3125
1.78,1597571360.328125
-1.89,1597571360.34375
-4.99,1597571360.359375
-7.45,1597571360.375
-9.38,1597571360.390625
-11.05,1597571360.40625
-12.8,1597571360.421875
-14.96,1597571360.4375
-17.69,1597571360.453125
-20.94,1597571360.46875
-24.47,1597571360.484375
-28.04,1597571360.5
-31.44,1597571360.515625
-34.74,1597571360.53125
-38.25,1597571360.546875
-42.42,1597571360.5625
-47.61,1597571360.578125
-53.83,1597571360.59375
-60.49,1597571360.609375
-66.45,1597571360.625
-70.22,1597571360.640625
-70.42,1597571360.65625
-66.19,1597571360.671875
-57.56,1597571360.6875
-45.45,1597571360.703125
-31.34,1597571360.71875
-16.89,1597571360.734375
-3.53,1597571360.75
7.81,1597571360.765625
16.66,1597571360.78125
22.99,1597571360.796875
26.99,1597571360.8125
29.08,1597571360.828125
29.8,1597571360.84375
29.74,1597571360.859375
29.44,1597571360.875
29.33,1597571360.890625
29.68,1597571360.90625
30.55,1597571360.921875
31.91,1597571360.9375
33.59,1597571360.953125
35.43,1597571360.96875
37.24,1597571360.984375
38.87,1597571361.0
40.17,1597571361.015625
41.06,1597571361.03125
41.48,1597571361.046875
41.45,1597571361.0625
41.02,1597571361.078125
40.21,1597571361.09375
39.07,1597571361.109375
37.6,1597571361.125
35.81,1597571361.140625
33.75,1597571361.15625
31.53,1597571361.171875
29.3,1597571361.1875
27.19,1597571361.203125
25.31,1597571361.21875
23.69,1597571361.234375
22.29,1597571361.25
21.03,1597571361.265625
19.84,1597571361.28125
18.63,1597571361.296875
17.23,1597571361.3125
15.49,1597571361.328125
13.29,1597571361.34375
10.66,1597571361.359375
7.8,1597571361.375
5.02,1597571361.390625
2.59,1597571361.40625
0.49,1597571361.421875
-1.47,1597571361.4375
-3.65,1597571361.453125
-6.31,1597571361.46875
-9.47,1597571361.484375
-12.9,1597571361.5
-16.22,1597571361.515625
-19.11,1597571361.53125
-21.45,1597571361.546875
-23.35,1597571361.5625
-25.06,1597571361.578125
-26.95,1597571361.59375
-29.39,1597571361.609375
-32.65,1597571361.625
-36.83,1597571361.640625
-41.69,1597571361.65625
-46.47,1597571361.671875
-50.11,1597571361.6875
-51.42,1597571361.703125
-49.55,1597571361.71875
-44.28,1597571361.734375
-36.1,1597571361.75
-26.11,1597571361.765625
-15.58,1597571361.78125
-5.71,1597571361.796875
2.65,1597571361.8125
9.01,1597571361.828125
13.2,1597571361.84375
15.35,1597571361.859375
15.78,1597571361.875
14.98,1597571361.890625
13.44,1597571361.90625
11.63,1597571361.921875
9.92,1597571361.9375
8.6,1597571361.953125
7.91,1597571361.96875
8.08,1597571361.984375
9.23,1597571362.0
11.29,1597571362.015625
14.02,1597571362.03125
17.06,1597571362.046875
20.03,1597571362.0625
22.61,1597571362.078125
24.58,1597571362.09375
25.73,1597571362.109375
25.84,1597571362.125
24.8,1597571362.140625
22.63,1597571362.15625
19.64,1597571362.171875
16.31,1597571362.1875
13.17,1597571362.203125
10.55,1597571362.21875
8.5,1597571362.234375
6.83,1597571362.25
5.32,1597571362.265625
3.82,1597571362.28125
2.37,1597571362.296875
1.08,1597571362.3125
-0.0,1597571362.328125
-1.05,1597571362.34375
-2.4,1597571362.359375
-4.43,1597571362.375
-7.33,1597571362.390625
-11.07,1597571362.40625
-15.35,1597571362.421875
-19.81,1597571362.4375
-24.16,1597571362.453125
-28.26,1597571362.46875
-32.08,1597571362.484375
-35.6,1597571362.5
-38.89,1597571362.515625
-42.11,1597571362.53125
-45.52,1597571362.546875
-49.5,1597571362.5625
-54.26,1597571362.578125
-59.57,1597571362.59375
-64.54,1597571362.609375
-67.79,1597571362.625
-67.91,1597571362.640625
-63.96,1597571362.65625
-55.97,1597571362.671875
-44.91,1597571362.6875
-32.3,1597571362.703125
-19.7,1597571362.71875
-8.3,1597571362.734375
1.29,1597571362.75
8.89,1597571362.765625
14.56,1597571362.78125
18.44,1597571362.796875
20.7,1597571362.8125
21.64,1597571362.828125
21.67,1597571362.84375
21.32,1597571362.859375
21.05,1597571362.875
21.18,1597571362.890625
21.8,1597571362.90625
22.82,1597571362.921875
23.99,1597571362.9375
25.12,1597571362.953125
26.08,1597571362.96875
26.91,1597571362.984375
27.74,1597571363.0
28.76,1597571363.015625
30.02,1597571363.03125
31.4,1597571363.046875
32.55,1597571363.0625
33.01,1597571363.078125
32.39,1597571363.09375
30.61,1597571363.109375
27.86,1597571363.125
24.56,1597571363.140625
21.16,1597571363.15625
17.98,1597571363.171875
15.08,1597571363.1875
12.37,1597571363.203125
9.7,1597571363.21875
7.01,1597571363.234375
4.4,1597571363.25
2.0,1597571363.265625
-0.04,1597571363.28125
-1.8,1597571363.296875
-3.51,1597571363.3125
-5.52,1597571363.328125
-8.19,1597571363.34375
-11.71,1597571363.359375
-15.98,1597571363.375
-20.68,1597571363.390625
-25.28,1597571363.40625
-29.24,1597571363.421875
-32.22,1597571363.4375
-34.17,1597571363.453125
-35.34,1597571363.46875
-36.27,1597571363.484375
-37.64,1597571363.5
-40.09,1597571363.515625
-43.97,1597571363.53125
-49.14,1597571363.546875
-54.87,1597571363.5625
-59.87,1597571363.578125
-62.66,1597571363.59375
-61.98,1597571363.609375
-57.2,1597571363.625
-48.6,1597571363.640625
-37.28,1597571363.65625
-24.78,1597571363.671875
-12.71,1597571363.6875
-2.26,1597571363.703125
5.96,1597571363.71875
11.93,1597571363.734375
16.1,1597571363.75
19.07,1597571363.765625
21.44,1597571363.78125
23.64,1597571363.796875
25.81,1597571363.8125
27.93,1597571363.828125
29.86,1597571363.84375
31.49,1597571363.859375
32.82,1597571363.875
33.89,1597571363.890625
34.76,1597571363.90625
35.44,1597571363.921875
35.91,1597571363.9375
36.13,1597571363.953125
36.1,1597571363.96875
35.87,1597571363.984375
35.5,1597571364.0
34.98,1597571364.015625
34.22,1597571364.03125
33.14,1597571364.046875
31.67,1597571364.0625
29.87,1597571364.078125
27.92,1597571364.09375
26.0,1597571364.109375
24.27,1597571364.125
22.84,1597571364.140625
21.63,1597571364.15625
20.53,1597571364.171875
19.39,1597571364.1875
18.09,1597571364.203125
16.54,1597571364.21875
14.7,1597571364.234375
12.58,1597571364.25
10.22,1597571364.265625
7.7,1597571364.28125
5.14,1597571364.296875
2.72,1597571364.3125
0.54,1597571364.328125
-1.27,1597571364.34375
-2.75,1597571364.359375
-4.04,1597571364.375
-5.38,1597571364.390625
-7.04,1597571364.40625
-9.19,1597571364.421875
-11.84,1597571364.4375
-14.81,1597571364.453125
-17.78,1597571364.46875
-20.42,1597571364.484375
-22.45,1597571364.5
-23.81,1597571364.515625
-24.72,1597571364.53125
-25.72,1597571364.546875
-27.54,1597571364.5625
-30.91,1597571364.578125
-36.19,1597571364.59375
-43.11,1597571364.609375
-50.63,1597571364.625
-57.17,1597571364.640625
-61.02,1597571364.65625
-60.91,1597571364.671875
-56.39,1597571364.6875
-47.9,1597571364.703125
-36.63,1597571364.71875
-24.05,1597571364.734375
-11.56,1597571364.75
-0.3,1597571364.765625
9.03,1597571364.78125
16.08,1597571364.796875
20.92,1597571364.8125
23.91,1597571364.828125
25.6,1597571364.84375
26.62,1597571364.859375
27.45,1597571364.875
28.39,1597571364.890625
29.45,1597571364.90625
30.53,1597571364.921875
31.5,1597571364.9375
32.24,1597571364.953125
32.72,1597571364.96875
32.88,1597571364.984375
32.74,1597571365.0
32.36,1597571365.015625
31.85,1597571365.03125
31.41,1597571365.046875
31.22,1597571365.0625
31.35,1597571365.078125
31.69,1597571365.09375
31.96,1597571365.109375
31.85,1597571365.125
31.15,1597571365.140625
29.84,1597571365.15625
28.05,1597571365.171875
25.95,1597571365.1875
23.73,1597571365.203125
21.48,1597571365.21875
19.28,1597571365.234375
17.24,1597571365.25
15.45,1597571365.265625
13.93,1597571365.28125
12.58,1597571365.296875
11.14,1597571365.3125
9.36,1597571365.328125
7.12,1597571365.34375
4.53,1597571365.359375
1.91,1597571365.375
-0.42,1597571365.390625
-2.32,1597571365.40625
-3.94,1597571365.421875
-5.58,1597571365.4375
-7.56,1597571365.453125
-9.92,1597571365.46875
-12.48,1597571365.484375
-14.87,1597571365.5
-16.82,1597571365.515625
-18.31,1597571365.53125
-19.62,1597571365.546875
-21.17,1597571365.5625
-23.37,1597571365.578125
-26.52,1597571365.59375
-30.75,1597571365.609375
-35.99,1597571365.625
-41.94,1597571365.640625
-47.93,1597571365.65625
-52.91,1597571365.671875
-55.71,1597571365.6875
-55.29,1597571365.703125
-51.19,1597571365.71875
-43.73,1597571365.734375
-34.01,1597571365.75
-23.45,1597571365.765625
-13.36,1597571365.78125
-4.61,1597571365.796875
2.47,1597571365.8125
7.9,1597571365.828125
11.84,1597571365.84375
14.42,1597571365.859375
15.8,1597571365.875
16.23,1597571365.890625
16.16,1597571365.90625
16.09,1597571365.921875
16.44,1597571365.9375
17.39,1597571365.953125
18.87,1597571365.96875
20.65,1597571365.984375
22.5,1597571366.0
24.24,1597571366.015625
25.82,1597571366.03125
27.15,1597571366.046875
28.14,1597571366.0625
28.69,1597571366.078125
28.76,1597571366.09375
28.39,1597571366.109375
27.67,1597571366.125
26.68,1597571366.140625
25.34,1597571366.15625
23.53,1597571366.171875
21.13,1597571366.1875
18.23,1597571366.203125
15.11,1597571366.21875
12.11,1597571366.234375
9.52,1597571366.25
7.38,1597571366.265625
5.45,1597571366.28125
3.42,1597571366.296875
1.07,1597571366.3125
-1.6,1597571366.328125
-4.34,1597571366.34375
-6.8,1597571366.359375
-8.76,1597571366.375
-10.21,1597571366.390625
-11.37,1597571366.40625
-12.58,1597571366.421875
-14.12,1597571366.4375
-16.11,1597571366.453125
-18.57,1597571366.46875
-21.37,1597571366.484375
-24.38,1597571366.5
-27.48,1597571366.515625
-30.57,1597571366.53125
-33.59,1597571366.546875
-36.47,1597571366.5625
-39.22,1597571366.578125
-41.88,1597571366.59375
-44.58,1597571366.609375
-47.54,1597571366.625
-50.94,1597571366.640625
-54.86,1597571366.65625
-58.99,1597571366.671875
-62.71,1597571366.6875
-65.01,1597571366.703125
-64.84,1597571366.71875
-61.43,1597571366.734375
-54.58,1597571366.75
-44.8,1597571366.765625
-33.19,1597571366.78125
-21.12,1597571366.796875
-9.85,1597571366.8125
-0.31,1597571366.828125
7.03,1597571366.84375
12.11,1597571366.859375
15.14,1597571366.875
16.42,1597571366.890625
16.35,1597571366.90625
15.37,1597571366.921875
13.98,1597571366.9375
12.79,1597571366.953125
12.32,1597571366.96875
12.99,1597571366.984375
14.92,1597571367.0
17.88,1597571367.015625
21.4,1597571367.03125
24.91,1597571367.046875
28.02,1597571367.0625
30.51,1597571367.078125
32.34,1597571367.09375
33.57,1597571367.109375
34.2,1597571367.125
34.21,1597571367.140625
33.59,1597571367.15625
32.38,1597571367.171875
30.66,1597571367.1875
28.53,1597571367.203125
26.03,1597571367.21875
23.18,1597571367.234375
19.97,1597571367.25
16.49,1597571367.265625
12.91,1597571367.28125
9.44,1597571367.296875
6.26,1597571367.3125
3.39,1597571367.328125
0.77,1597571367.34375
-1.79,1597571367.359375
-4.47,1597571367.375
-7.43,1597571367.390625
-10.69,1597571367.40625
-14.18,1597571367.421875
-17.74,1597571367.4375
-21.15,1597571367.453125
-24.24,1597571367.46875
-26.98,1597571367.484375
-29.5,1597571367.5
-32.03,1597571367.515625
-34.89,1597571367.53125
-38.45,1597571367.546875
-42.98,1597571367.5625
-48.55,1597571367.578125
-54.86,1597571367.59375
-61.14,1597571367.609375
-66.15,1597571367.625
-68.48,1597571367.640625
-66.99,1597571367.65625
-61.22,1597571367.671875
-51.65,1597571367.6875
-39.52,1597571367.703125
-26.42,1597571367.71875
-13.83,1597571367.734375
-2.68,1597571367.75
6.59,1597571367.765625
13.99,1597571367.78125
19.71,1597571367.796875
23.99,1597571367.8125
27.11,1597571367.828125
29.38,1597571367.84375
31.21,1597571367.859375
32.93,1597571367.875
34.77,1597571367.890625
36.76,1597571367.90625
38.73,1597571367.921875
40.42,1597571367.9375
41.59,1597571367.953125
42.12,1597571367.96875
42.05,1597571367.984375
41.49,1597571368.0
40.63,1597571368.015625
39.59,1597571368.03125
38.45,1597571368.046875
37.17,1597571368.0625
35.68,1597571368.078125
33.94,1597571368.09375
31.94,1597571368.109375
29.78,1597571368.125
27.61,1597571368.140625
25.59,1597571368.15625
23.85,1597571368.171875
22.45,1597571368.1875
21.38,1597571368.203125
20.54,1597571368.21875
19.8,1597571368.234375
19.08,1597571368.25
18.26,1597571368.265625
17.3,1597571368.28125
16.14,1597571368.296875
14.76,1597571368.3125
13.14,1597571368.328125
11.27,1597571368.34375
9.17,1597571368.359375
6.96,1597571368.375
4.7,1597571368.390625
2.46,1597571368.40625
0.24,1597571368.421875
-2.01,1597571368.4375
-4.39,1597571368.453125
-7.02,1597571368.46875
-10.0,1597571368.484375
-13.35,1597571368.5
-17.05,1597571368.515625
-20.94,1597571368.53125
-24.86,1597571368.546875
-28.58,1597571368.5625
-32.04,1597571368.578125
-35.3,1597571368.59375
-38.66,1597571368.609375
-42.51,1597571368.625
-47.22,1597571368.640625
-52.99,1597571368.65625
-59.6,1597571368.671875
-66.38,1597571368.6875
-72.25,1597571368.703125
-75.94,1597571368.71875
-76.25,1597571368.734375
-72.44,1597571368.75
-64.55,1597571368.765625
-53.41,1597571368.78125
-40.51,1597571368.796875
-27.54,1597571368.8125
-15.92,1597571368.828125
-6.47,1597571368.84375
0.68,1597571368.859375
5.98,1597571368.875
10.07,1597571368.890625
13.51,1597571368.90625
16.65,1597571368.921875
19.58,1597571368.9375
22.28,1597571368.953125
24.73,1597571368.96875
26.99,1597571368.984375
29.19,1597571369.0
31.43,1597571369.015625
33.75,1597571369.03125
36.07,1597571369.046875
38.26,1597571369.0625
40.19,1597571369.078125
41.81,1597571369.09375
43.11,1597571369.109375
44.1,1597571369.125
44.77,1597571369.140625
45.08,1597571369.15625
44.98,1597571369.171875
44.53,1597571369.1875
43.83,1597571369.203125
42.98,1597571369.21875
41.97,1597571369.234375
40.73,1597571369.25
39.08,1597571369.265625
36.92,1597571369.28125
34.29,1597571369.296875
31.35,1597571369.3125
28.29,1597571369.328125
25.23,1597571369.34375
22.2,1597571369.359375
19.25,1597571369.375
16.47,1597571369.390625
14.04,1597571369.40625
12.15,1597571369.421875
10.84,1597571369.4375
9.96,1597571369.453125
9.22,1597571369.46875
8.35,1597571369.484375
7.19,1597571369.5
5.73,1597571369.515625
4.06,1597571369.53125
2.25,1597571369.546875
0.28,1597571369.5625
-1.91,1597571369.578125
-4.27,1597571369.59375
-6.66,1597571369.609375
-8.88,1597571369.625
-10.82,1597571369.640625
-12.54,1597571369.65625
-14.32,1597571369.671875
-16.5,1597571369.6875
-19.31,1597571369.703125
-22.74,1597571369.71875
-26.53,1597571369.734375
-30.3,1597571369.75
-33.67,1597571369.765625
-36.46,1597571369.78125
-38.74,1597571369.796875
-40.8,1597571369.8125
-43.11,1597571369.828125
-46.19,1597571369.84375
-50.47,1597571369.859375
-56.01,1597571369.875
-62.27,1597571369.890625
-68.18,1597571369.90625
-72.21,1597571369.921875
-72.89,1597571369.9375
-69.33,1597571369.953125
-61.59,1597571369.96875
-50.69,1597571369.984375
-38.2,1597571370.0
-25.75,1597571370.015625
-14.49,1597571370.03125
-4.94,1597571370.046875
2.91,1597571370.0625
9.2,1597571370.078125
14.08,1597571370.09375
17.59,1597571370.109375
19.85,1597571370.125
21.21,1597571370.140625
22.19,1597571370.15625
23.37,1597571370.171875
25.02,1597571370.1875
27.08,1597571370.203125
29.14,1597571370.21875
30.76,1597571370.234375
31.66,1597571370.25
31.9,1597571370.265625
31.77,1597571370.28125
31.62,1597571370.296875
31.66,1597571370.3125
31.94,1597571370.328125
32.29,1597571370.34375
32.53,1597571370.359375
32.44,1597571370.375
31.9,1597571370.390625
30.83,1597571370.40625
29.21,1597571370.421875
27.11,1597571370.4375
24.69,1597571370.453125
22.25,1597571370.46875
20.07,1597571370.484375
18.4,1597571370.5
17.27,1597571370.515625
16.5,1597571370.53125
15.75,1597571370.546875
14.76,1597571370.5625
13.43,1597571370.578125
11.91,1597571370.59375
10.44,1597571370.609375
9.22,1597571370.625
8.24,1597571370.640625
7.26,1597571370.65625
6.0,1597571370.671875
4.3,1597571370.6875
2.18,1597571370.703125
-0.11,1597571370.71875
-2.31,1597571370.734375
-4.3,1597571370.75
-6.16,1597571370.765625
-8.11,1597571370.78125
-10.44,1597571370.796875
-13.31,1597571370.8125
-16.71,1597571370.828125
-20.51,1597571370.84375
-24.43,1597571370.859375
-28.15,1597571370.875
-31.37,1597571370.890625
-33.96,1597571370.90625
-36.01,1597571370.921875
-37.91,1597571370.9375
-40.22,1597571370.953125
-43.48,1597571370.96875
-47.87,1597571370.984375
-52.99,1597571371.0
-57.87,1597571371.015625
-61.16,1597571371.03125
-61.55,1597571371.046875
-58.19,1597571371.0625
-50.97,1597571371.078125
-40.6,1597571371.09375
-28.32,1597571371.109375
-15.61,1597571371.125
-3.77,1597571371.140625
6.26,1597571371.15625
14.02,1597571371.171875
19.46,1597571371.1875
22.78,1597571371.203125
24.4,1597571371.21875
24.83,1597571371.234375
24.59,1597571371.25
24.09,1597571371.265625
23.59,1597571371.28125
23.16,1597571371.296875
22.75,1597571371.3125
22.3,1597571371.328125
21.86,1597571371.34375
21.51,1597571371.359375
21.4,1597571371.375
21.59,1597571371.390625
22.1,1597571371.40625
22.92,1597571371.421875
24.04,1597571371.4375
25.48,1597571371.453125
27.14,1597571371.46875
28.77,1597571371.484375
29.94,1597571371.5
30.17,1597571371.515625
29.15,1597571371.53125
26.87,1597571371.546875
23.73,1597571371.5625
20.31,1597571371.578125
17.23,1597571371.59375
14.81,1597571371.609375
13.08,1597571371.625
11.74,1597571371.640625
10.43,1597571371.65625
8.88,1597571371.671875
6.97,1597571371.6875
4.79,1597571371.703125
2.46,1597571371.71875
0.06,1597571371.734375
-2.36,1597571371.75
-4.86,1597571371.765625
-7.51,1597571371.78125
-10.42,1597571371.796875
-13.65,1597571371.8125
-17.14,1597571371.828125
-20.73,1597571371.84375
-24.12,1597571371.859375
-27.02,1597571371.875
-29.24,1597571371.890625
-30.77,1597571371.90625
-31.88,1597571371.921875
-33.02,1597571371.9375
-34.77,1597571371.953125
-37.68,1597571371.96875
-42.12,1597571371.984375
-48.08,1597571372.0
-55.02,1597571372.015625
-61.87,1597571372.03125
-67.11,1597571372.046875
-69.26,1597571372.0625
-67.33,1597571372.078125
-61.17,1597571372.09375
-51.54,1597571372.109375
-39.91,1597571372.125
-27.86,1597571372.140625
-16.74,1597571372.15625
-7.33,1597571372.171875
0.16,1597571372.1875
5.88,1597571372.203125
10.17,1597571372.21875
13.44,1597571372.234375
16.1,1597571372.25
18.55,1597571372.265625
21.13,1597571372.28125
24.04,1597571372.296875
27.26,1597571372.3125
30.58,1597571372.328125
33.69,1597571372.34375
36.35,1597571372.359375
38.43,1597571372.375
39.97,1597571372.390625
41.12,1597571372.40625
42.01,1597571372.421875
42.71,1597571372.4375
43.23,1597571372.453125
43.52,1597571372.46875
43.51,1597571372.484375
43.14,1597571372.5
42.34,1597571372.515625
40.96,1597571372.53125
38.93,1597571372.546875
36.21,1597571372.5625
32.88,1597571372.578125
29.17,1597571372.59375
25.32,1597571372.609375
21.6,1597571372.625
18.21,1597571372.640625
15.3,1597571372.65625
12.97,1597571372.671875
11.24,1597571372.6875
10.08,1597571372.703125
9.3,1597571372.71875
8.67,1597571372.734375
7.98,1597571372.75
7.14,1597571372.765625
6.17,1597571372.78125
5.18,1597571372.796875
4.28,1597571372.8125
3.36,1597571372.828125
2.16,1597571372.84375
0.33,1597571372.859375
-2.35,1597571372.875
-5.89,1597571372.890625
-10.02,1597571372.90625
-14.4,1597571372.921875
-18.71,1597571372.9375
-22.84,1597571372.953125
-26.85,1597571372.96875
-30.86,1597571372.984375
-34.94,1597571373.0
-39.15,1597571373.015625
-43.55,1597571373.03125
-48.38,1597571373.046875
-53.92,1597571373.0625
-60.38,1597571373.078125
-67.4,1597571373.09375
-73.92,1597571373.109375
-78.31,1597571373.125
-78.88,1597571373.140625
-74.57,1597571373.15625
-65.42,1597571373.171875
-52.69,1597571373.1875
-38.34,1597571373.203125
-24.4,1597571373.21875
-12.34,1597571373.234375
-2.83,1597571373.25
4.18,1597571373.265625
9.19,1597571373.28125
12.72,1597571373.296875
15.29,1597571373.3125
17.34,1597571373.328125
19.27,1597571373.34375
21.34,1597571373.359375
23.65,1597571373.375
26.05,1597571373.390625
28.16,1597571373.40625
29.66,1597571373.421875
30.45,1597571373.4375
30.74,1597571373.453125
30.92,1597571373.46875
31.38,1597571373.484375
32.29,1597571373.5
33.54,1597571373.515625
34.95,1597571373.53125
36.34,1597571373.546875
37.65,1597571373.5625
38.85,1597571373.578125
39.83,1597571373.59375
40.33,1597571373.609375
40.03,1597571373.625
38.75,1597571373.640625
36.54,1597571373.65625
33.76,1597571373.671875
30.85,1597571373.6875
28.2,1597571373.703125
25.95,1597571373.71875
24.01,1597571373.734375
22.18,1597571373.75
20.24,1597571373.765625
18.09,1597571373.78125
15.66,1597571373.796875
12.95,1597571373.8125
9.97,1597571373.828125
6.82,1597571373.84375
3.65,1597571373.859375
0.67,1597571373.875
-1.91,1597571373.890625
-3.99,1597571373.90625
-5.66,1597571373.921875
-7.15,1597571373.9375
-8.81,1597571373.953125
-10.93,1597571373.96875
-13.62,1597571373.984375
-16.85,1597571374.0
-20.39,1597571374.015625
-23.95,1597571374.03125
-27.3,1597571374.046875
-30.33,1597571374.0625
-33.11,1597571374.078125
-35.94,1597571374.09375
-39.29,1597571374.109375
-43.63,1597571374.125
-49.11,1597571374.140625
-55.37,1597571374.15625
-61.38,1597571374.171875
-65.67,1597571374.1875
-66.69,1597571374.203125
-63.44,1597571374.21875
-55.85,1597571374.234375
-44.85,1597571374.25
-32.02,1597571374.265625
-19.05,1597571374.28125
-7.2,1597571374.296875
2.89,1597571374.3125
11.13,1597571374.328125
17.66,1597571374.34375
22.62,1597571374.359375
26.12,1597571374.375
28.23,1597571374.390625
29.12,1597571374.40625
29.19,1597571374.421875
28.92,1597571374.4375
28.78,1597571374.453125
29.07,1597571374.46875
29.89,1597571374.484375
31.17,1597571374.5
32.69,1597571374.515625
34.18,1597571374.53125
35.39,1597571374.546875
36.09,1597571374.5625
36.12,1597571374.578125
35.46,1597571374.59375
34.17,1597571374.609375
32.43,1597571374.625
30.42,1597571374.640625
28.35,1597571374.65625
26.42,1597571374.671875
24.76,1597571374.6875
23.49,1597571374.703125
22.72,1597571374.71875
22.49,1597571374.734375
22.74,1597571374.75
23.34,1597571374.765625
24.05,1597571374.78125
24.56,1597571374.796875
24.57,1597571374.8125
23.89,1597571374.828125
22.44,1597571374.84375
20.29,1597571374.859375
17.59,1597571374.875
14.6,1597571374.890625
11.55,1597571374.90625
8.69,1597571374.921875
6.17,1597571374.9375
4.02,1597571374.953125
2.03,1597571374.96875
-0.1,1597571374.984375
-2.73,1597571375.0
-6.02,1597571375.015625
-9.92,1597571375.03125
-14.03,1597571375.046875
-17.85,1597571375.0625
-20.98,1597571375.078125
-23.26,1597571375.09375
-24.87,1597571375.109375
-26.22,1597571375.125
-27.76,1597571375.140625
-29.86,1597571375.15625
-32.73,1597571375.171875
-36.35,1597571375.1875
-40.48,1597571375.203125
-44.61,1597571375.21875
-48.02,1597571375.234375
-49.93,1597571375.25
-49.69,1597571375.265625
-46.99,1597571375.28125
-41.97,1597571375.296875
-35.19,1597571375.3125
-27.42,1597571375.328125
-19.39,1597571375.34375
-11.66,1597571375.359375
-4.54,1597571375.375
1.86,1597571375.390625
7.44,1597571375.40625
12.12,1597571375.421875
15.72,1597571375.4375
18.16,1597571375.453125
19.43,1597571375.46875
19.77,1597571375.484375
19.55,1597571375.5
19.26,1597571375.515625
19.34,1597571375.53125
20.03,1597571375.546875
21.39,1597571375.5625
23.28,1597571375.578125
25.45,1597571375.59375
27.64,1597571375.609375
29.63,1597571375.625
31.22,1597571375.640625
32.26,1597571375.65625
32.59,1597571375.671875
32.08,1597571375.6875
30.64,1597571375.703125
28.33,1597571375.71875
25.38,1597571375.734375
22.22,1597571375.75
19.38,1597571375.765625
17.38,1597571375.78125
16.43,1597571375.796875
16.37,1597571375.8125
16.63,1597571375.828125
16.53,1597571375.84375
15.51,1597571375.859375
13.44,1597571375.875
10.6,1597571375.890625
7.59,1597571375.90625
4.96,1597571375.921875
3.0,1597571375.9375
1.66,1597571375.953125
0.69,1597571375.96875
-0.28,1597571375.984375
-1.56,1597571376.0
-3.32,1597571376.015625
-5.6,1597571376.03125
-8.38,1597571376.046875
-11.52,1597571376.0625
-14.78,1597571376.078125
-17.94,1597571376.09375
-20.83,1597571376.109375
-23.38,1597571376.125
-25.7,1597571376.140625
-28.06,1597571376.15625
-30.81,1597571376.171875
-34.19,1597571376.1875
-38.21,1597571376.203125
-42.5,1597571376.21875
-46.3,1597571376.234375
-48.5,1597571376.25
-48.11,1597571376.265625
-44.48,1597571376.28125
-37.63,1597571376.296875
-28.31,1597571376.3125
-17.76,1597571376.328125
-7.3,1597571376.34375
1.97,1597571376.359375
9.42,1597571376.375
14.86,1597571376.390625
18.42,1597571376.40625
20.35,1597571376.421875
20.97,1597571376.4375
20.6,1597571376.453125
19.55,1597571376.46875
18.21,1597571376.484375
16.97,1597571376.5
16.12,1597571376.515625
15.94,1597571376.53125
16.51,1597571376.546875
17.77,1597571376.5625
19.45,1597571376.578125
21.25,1597571376.59375
22.85,1597571376.609375
24.03,1597571376.625
24.66,1597571376.640625
24.75,1597571376.65625
24.35,1597571376.671875
23.52,1597571376.6875
22.35,1597571376.703125
20.99,1597571376.71875
19.62,1597571376.734375
18.47,1597571376.75
17.72,1597571376.765625
17.38,1597571376.78125
17.31,1597571376.796875
17.25,1597571376.8125
16.87,1597571376.828125
15.97,1597571376.84375
14.48,1597571376.859375
12.53,1597571376.875
10.33,1597571376.890625
8.18,1597571376.90625
6.3,1597571376.921875
4.86,1597571376.9375
3.83,1597571376.953125
3.02,1597571376.96875
2.16,1597571376.984375
0.97,1597571377.0
-0.67,1597571377.015625
-2.66,1597571377.03125
-4.82,1597571377.046875
-6.93,1597571377.0625
-8.85,1597571377.078125
-10.6,1597571377.09375
-12.25,1597571377.109375
-13.87,1597571377.125
-15.58,1597571377.140625
-17.5,1597571377.15625
-19.89,1597571377.171875
-23.0,1597571377.1875
-26.9,1597571377.203125
-31.25,1597571377.21875
-35.25,1597571377.234375
-37.77,1597571377.25
-37.78,1597571377.265625
-34.72,1597571377.28125
-28.81,1597571377.296875
-20.96,1597571377.3125
-12.5,1597571377.328125
-4.7,1597571377.34375
1.58,1597571377.359375
5.99,1597571377.375
8.65,1597571377.390625
9.91,1597571377.40625
10.21,1597571377.421875
9.88,1597571377.4375
9.21,1597571377.453125
8.45,1597571377.46875
7.8,1597571377.484375
7.46,1597571377.5
7.54,1597571377.515625
8.08,1597571377.53125
8.98,1597571377.546875
10.06,1597571377.5625
11.08,1597571377.578125
11.78,1597571377.59375
12.01,1597571377.609375
11.74,1597571377.625
11.12,1597571377.640625
10.32,1597571377.65625
9.51,1597571377.671875
8.68,1597571377.6875
7.69,1597571377.703125
6.37,1597571377.71875
4.65,1597571377.734375
2.68,1597571377.75
0.83,1597571377.765625
-0.5,1597571377.78125
-1.12,1597571377.796875
-1.07,1597571377.8125
-0.63,1597571377.828125
-0.15,1597571377.84375
0.14,1597571377.859375
0.18,1597571377.875
0.04,1597571377.890625
-0.32,1597571377.90625
-1.02,1597571377.921875
-2.24,1597571377.9375
-4.15,1597571377.953125
-6.72,1597571377.96875
-9.73,1597571377.984375
-12.76,1597571378.0
-15.4,1597571378.015625
-17.4,1597571378.03125
-18.77,1597571378.046875
-19.7,1597571378.0625
-20.55,1597571378.078125
-21.65,1597571378.09375
-23.26,1597571378.109375
-25.56,1597571378.125
-28.62,1597571378.140625
-32.34,1597571378.15625
-36.37,1597571378.171875
-40.01,1597571378.1875
-42.3,1597571378.203125
-42.27,1597571378.21875
-39.25,1597571378.234375
-33.19,1597571378.25
-24.76,1597571378.265625
-15.1,1597571378.28125
-5.48,1597571378.296875
3.06,1597571378.3125
9.9,1597571378.328125
14.91,1597571378.34375
18.15,1597571378.359375
19.75,1597571378.375
19.91,1597571378.390625
18.83,1597571378.40625
16.89,1597571378.421875
14.57,1597571378.4375
12.39,1597571378.453125
10.76,1597571378.46875
9.89,1597571378.484375
9.77,1597571378.5
10.22,1597571378.515625
10.99,1597571378.53125
11.84,1597571378.546875
12.62,1597571378.5625
13.2,1597571378.578125
13.58,1597571378.59375
13.73,1597571378.609375
13.7,1597571378.625
13.52,1597571378.640625
13.19,1597571378.65625
12.72,1597571378.671875
12.06,1597571378.6875
11.19,1597571378.703125
10.12,1597571378.71875
8.86,1597571378.734375
7.44,1597571378.75
5.88,1597571378.765625
4.18,1597571378.78125
2.39,1597571378.796875
0.61,1597571378.8125
-1.1,1597571378.828125
-2.63,1597571378.84375
-3.93,1597571378.859375
-5.02,1597571378.875
-5.96,1597571378.890625
-6.9,1597571378.90625
-8.04,1597571378.921875
-9.62,1597571378.9375
-11.86,1597571378.953125
-14.95,1597571378.96875
-18.9,1597571378.984375
-23.56,1597571379.0
-28.67,1597571379.015625
-34.0,1597571379.03125
-39.38,1597571379.046875
-44.82,1597571379.0625
-50.23,1597571379.078125
-55.24,1597571379.09375
-59.1,1597571379.109375
-60.77,1597571379.125
-59.3,1597571379.140625
-54.25,1597571379.15625
-45.95,1597571379.171875
-35.5,1597571379.1875
-24.37,1597571379.203125
-13.94,1597571379.21875
-5.13,1597571379.234375
1.72,1597571379.25
6.71,1597571379.265625
10.07,1597571379.28125
12.09,1597571379.296875
13.02,1597571379.3125
13.15,1597571379.328125
12.9,1597571379.34375
12.68,1597571379.359375
12.84,1597571379.375
13.51,1597571379.390625
14.54,1597571379.40625
15.74,1597571379.421875
16.94,1597571379.4375
18.07,1597571379.453125
19.14,1597571379.46875
20.14,1597571379.484375
20.97,1597571379.5
21.52,1597571379.515625
21.71,1597571379.53125
21.64,1597571379.546875
21.47,1597571379.5625
21.35,1597571379.578125
21.36,1597571379.59375
21.37,1597571379.609375
21.14,1597571379.625
20.54,1597571379.640625
19.51,1597571379.65625
18.16,1597571379.671875
16.65,1597571379.6875
15.12,1597571379.703125
13.63,1597571379.71875
12.14,1597571379.734375
10.58,1597571379.75
8.87,1597571379.765625
6.94,1597571379.78125
4.79,1597571379.796875
2.44,1597571379.8125
-0.06,1597571379.828125
-2.58,1597571379.84375
-5.01,1597571379.859375
-7.18,1597571379.875
-8.91,1597571379.890625
-10.08,1597571379.90625
-10.71,1597571379.921875
-11.04,1597571379.9375
-11.44,1597571379.953125
-12.34,1597571379.96875
-14.0,1597571379.984375
-16.42,1597571380.0
-19.34,1597571380.015625
-22.42,1597571380.03125
-25.41,1597571380.046875
-28.27,1597571380.0625
-31.16,1597571380.078125
-34.36,1597571380.09375
-38.05,1597571380.109375
-42.34,1597571380.125
-47.19,1597571380.140625
-52.32,1597571380.15625
-57.16,1597571380.171875
-60.87,1597571380.1875
-62.41,1597571380.203125
-60.84,1597571380.21875
-55.75,1597571380.234375
-47.49,1597571380.25
-37.23,1597571380.265625
-26.48,1597571380.28125
-16.68,1597571380.296875
-8.68,1597571380.3125
-2.57,1597571380.328125
2.02,1597571380.34375
5.69,1597571380.359375
8.84,1597571380.375
11.62,1597571380.390625
14.05,1597571380.40625
16.14,1597571380.421875
18.04,1597571380.4375
19.9,1597571380.453125
21.86,1597571380.46875
23.82,1597571380.484375
25.56,1597571380.5
26.83,1597571380.515625
27.58,1597571380.53125
27.93,1597571380.546875
28.21,1597571380.5625
28.69,1597571380.578125
29.49,1597571380.59375
30.51,1597571380.609375
31.52,1597571380.625
32.24,1597571380.640625
32.48,1597571380.65625
32.18,1597571380.671875
31.38,1597571380.6875
30.19,1597571380.703125
28.77,1597571380.71875
27.26,1597571380.734375
25.73,1597571380.75
24.16,1597571380.765625
22.44,1597571380.78125
20.49,1597571380.796875
18.22,1597571380.8125
15.74,1597571380.828125
13.26,1597571380.84375
11.04,1597571380.859375
9.26,1597571380.875
7.93,1597571380.890625
6.96,1597571380.90625
6.17,1597571380.921875
5.48,1597571380.9375
4.85,1597571380.953125
4.26,1597571380.96875
3.61,1597571380.984375
2.65,1597571381.0
1.14,1597571381.015625
-1.03,1597571381.03125
-3.73,1597571381.046875
-6.6,1597571381.0625
-9.22,1597571381.078125
-11.33,1597571381.09375
-13.01,1597571381.109375
-14.56,1597571381.125
-16.42,1597571381.140625
-18.83,1597571381.15625
-21.81,1597571381.171875
-25.06,1597571381.1875
-28.13,1597571381.203125
-30.71,1597571381.21875
-32.68,1597571381.234375
-34.28,1597571381.25
-35.98,1597571381.265625
-38.35,1597571381.28125
-41.83,1597571381.296875
-46.58,1597571381.3125
-52.33,1597571381.328125
-58.38,1597571381.34375
-63.7,1597571381.359375
-67.14,1597571381.375
-67.64,1597571381.390625
-64.55,1597571381.40625
-57.75,1597571381.421875
-47.8,1597571381.4375
-35.77,1597571381.453125
-23.04,1597571381.46875
-10.98,1597571381.484375
-0.61,1597571381.5
7.52,1597571381.515625
13.4,1597571381.53125
17.36,1597571381.546875
19.89,1597571381.5625
21.47,1597571381.578125
22.51,1597571381.59375
23.33,1597571381.609375
24.18,1597571381.625
25.27,1597571381.640625
26.65,1597571381.65625
28.25,1597571381.671875
29.87,1597571381.6875
31.28,1597571381.703125
32.33,1597571381.71875
33.02,1597571381.734375
33.43,1597571381.75
33.7,1597571381.765625
33.92,1597571381.78125
34.19,1597571381.796875
34.44,1597571381.8125
34.66,1597571381.828125
34.78,1597571381.84375
34.72,1597571381.859375
34.39,1597571381.875
33.73,1597571381.890625
32.7,1597571381.90625
31.37,1597571381.921875
29.86,1597571381.9375
28.27,1597571381.953125
26.72,1597571381.96875
25.2,1597571381.984375
23.64,1597571382.0
21.99,1597571382.015625
20.24,1597571382.03125
18.43,1597571382.046875
16.68,1597571382.0625
15.04,1597571382.078125
13.45,1597571382.09375
11.69,1597571382.109375
9.49,1597571382.125
6.7,1597571382.140625
3.38,1597571382.15625
-0.16,1597571382.171875
-3.51,1597571382.1875
-6.36,1597571382.203125
-8.65,1597571382.21875
-10.6,1597571382.234375
-12.54,1597571382.25
-14.81,1597571382.265625
-17.55,1597571382.28125
-20.67,1597571382.296875
-23.96,1597571382.3125
-27.17,1597571382.328125
-30.11,1597571382.34375
-32.74,1597571382.359375
-35.15,1597571382.375
-37.61,1597571382.390625
-40.51,1597571382.40625
-44.27,1597571382.421875
-49.19,1597571382.4375
-55.24,1597571382.453125
-61.84,1597571382.46875
-67.87,1597571382.484375
-71.86,1597571382.5
-72.45,1597571382.515625
-68.85,1597571382.53125
-61.17,1597571382.546875
-50.38,1597571382.5625
-37.99,1597571382.578125
-25.58,1597571382.59375
-14.47,1597571382.609375
-5.37,1597571382.625
1.51,1597571382.640625
6.44,1597571382.65625
9.95,1597571382.671875
12.7,1597571382.6875
15.27,1597571382.703125
18.08,1597571382.71875
21.29,1597571382.734375
24.75,1597571382.75
28.15,1597571382.765625
31.18,1597571382.78125
33.67,1597571382.796875
35.6,1597571382.8125
37.1,1597571382.828125
38.3,1597571382.84375
39.23,1597571382.859375
39.88,1597571382.875
40.25,1597571382.890625
40.4,1597571382.90625
40.39,1597571382.921875
40.26,1597571382.9375
39.97,1597571382.953125
39.37,1597571382.96875
38.27,1597571382.984375
36.59,1597571383.0
34.42,1597571383.015625
32.0,1597571383.03125
29.69,1597571383.046875
27.7,1597571383.0625
26.1,1597571383.078125
24.75,1597571383.09375
23.47,1597571383.109375
22.13,1597571383.125
20.71,1597571383.140625
19.35,1597571383.15625
18.21,1597571383.171875
17.29,1597571383.1875
16.45,1597571383.203125
15.31,1597571383.21875
13.53,1597571383.234375
10.9,1597571383.25
7.51,1597571383.265625
3.7,1597571383.28125
-0.03,1597571383.296875
-3.3,1597571383.3125
-5.95,1597571383.328125
-8.17,1597571383.34375
-10.28,1597571383.359375
-12.64,1597571383.375
-15.49,1597571383.390625
-18.74,1597571383.40625
-22.13,1597571383.421875
-25.32,1597571383.4375
-28.09,1597571383.453125
-30.41,1597571383.46875
-32.49,1597571383.484375
-34.72,1597571383.5
-37.61,1597571383.515625
-41.61,1597571383.53125
-47.01,1597571383.546875
-53.75,1597571383.5625
-61.24,1597571383.578125
-68.27,1597571383.59375
-73.31,1597571383.609375
-74.89,1597571383.625
-72.11,1597571383.640625
-64.92,1597571383.65625
-54.21,1597571383.671875
-41.45,1597571383.6875
-28.17,1597571383.703125
-15.67,1597571383.71875
-4.75,1597571383.734375
4.22,1597571383.75
11.22,1597571383.765625
16.43,1597571383.78125
20.09,1597571383.796875
22.65,1597571383.8125
24.57,1597571383.828125
26.27,1597571383.84375
28.0,1597571383.859375
29.87,1597571383.875
31.78,1597571383.890625
33.6,1597571383.90625
35.25,1597571383.921875
36.8,1597571383.9375
38.31,1597571383.953125
39.85,1597571383.96875
41.42,1597571383.984375
42.91,1597571384.0
44.21,1597571384.015625
45.32,1597571384.03125
46.28,1597571384.046875
47.16,1597571384.0625
47.94,1597571384.078125
48.45,1597571384.09375
48.44,1597571384.109375
47.72,1597571384.125
46.26,1597571384.140625
44.25,1597571384.15625
41.97,1597571384.171875
39.61,1597571384.1875
37.24,1597571384.203125
34.75,1597571384.21875
32.05,1597571384.234375
29.15,1597571384.25
26.21,1597571384.265625
23.52,1597571384.28125
21.26,1597571384.296875
19.45,1597571384.3125
17.91,1597571384.328125
16.35,1597571384.34375
14.44,1597571384.359375
11.98,1597571384.375
8.94,1597571384.390625
5.51,1597571384.40625
1.95,1597571384.421875
-1.47,1597571384.4375
-4.58,1597571384.453125
-7.49,1597571384.46875
-10.43,1597571384.484375
-13.7,1597571384.5
-17.47,1597571384.515625
-21.71,1597571384.53125
-26.18,1597571384.546875
-30.56,1597571384.5625
-34.6,1597571384.578125
-38.18,1597571384.59375
-41.4,1597571384.609375
-44.51,1597571384.625
-47.85,1597571384.640625
-51.81,1597571384.65625
-56.65,1597571384.671875
-62.41,1597571384.6875
-68.64,1597571384.703125
-74.37,1597571384.71875
-78.18,1597571384.734375
-78.61,1597571384.75
-74.71,1597571384.765625
-66.34,1597571384.78125
-54.27,1597571384.796875
-39.97,1597571384.8125
-25.07,1597571384.828125
-11.04,1597571384.84375
1.15,1597571384.859375
11.0,1597571384.875
18.42,1597571384.890625
23.58,1597571384.90625
26.79,1597571384.921875
28.48,1597571384.9375
29.16,1597571384.953125
29.34,1597571384.96875
29.48,1597571384.984375
29.83,1597571385.0
30.49,1597571385.015625
31.37,1597571385.03125
32.31,1597571385.046875
33.2,1597571385.0625
34.05,1597571385.078125
34.99,1597571385.09375
36.12,1597571385.109375
37.45,1597571385.125
38.79,1597571385.140625
39.88,1597571385.15625
40.43,1597571385.171875
40.37,1597571385.1875
39.8,1597571385.203125
38.96,1597571385.21875
37.96,1597571385.234375
36.75,1597571385.25
35.1,1597571385.265625
32.74,1597571385.28125
29.63,1597571385.296875
25.99,1597571385.3125
22.28,1597571385.328125
18.97,1597571385.34375
16.34,1597571385.359375
14.36,1597571385.375
12.74,1597571385.390625
11.16,1597571385.40625
9.41,1597571385.421875
7.54,1597571385.4375
5.75,1597571385.453125
4.23,1597571385.46875
3.02,1597571385.484375
1.86,1597571385.5
0.32,1597571385.515625
-2.0,1597571385.53125
-5.28,1597571385.546875
-9.43,1597571385.5625
-14.09,1597571385.578125
-18.85,1597571385.59375
-23.4,1597571385.609375
-27.55,1597571385.625
-31.38,1597571385.640625
-35.0,1597571385.65625
-38.69,1597571385.671875
-42.82,1597571385.6875
-47.78,1597571385.703125
-53.84,1597571385.71875
-60.84,1597571385.734375
-68.12,1597571385.75
-74.4,1597571385.765625
-78.15,1597571385.78125
-78.04,1597571385.796875
-73.43,1597571385.8125
-64.57,1597571385.828125
-52.52,1597571385.84375
-38.84,1597571385.859375
-25.12,1597571385.875
-12.66,1597571385.890625
-2.3,1597571385.90625
5.64,1597571385.921875
11.3,1597571385.9375
15.14,1597571385.953125
17.76,1597571385.96875
19.74,1597571385.984375
21.44,1597571386.0
22.97,1597571386.015625
24.22,1597571386.03125
25.16,1597571386.046875
25.87,1597571386.0625
26.57,1597571386.078125
27.54,1597571386.09375
28.92,1597571386.109375
30.67,1597571386.125
32.6,1597571386.140625
34.6,1597571386.15625
36.66,1597571386.171875
38.8,1597571386.1875
41.0,1597571386.203125
43.08,1597571386.21875
44.71,1597571386.234375
45.5,1597571386.25
45.17,1597571386.265625
43.7,1597571386.28125
41.3,1597571386.296875
38.35,1597571386.3125
35.22,1597571386.328125
32.19,1597571386.34375
29.31,1597571386.359375
26.51,1597571386.375
23.66,1597571386.390625
20.7,1597571386.40625
17.68,1597571386.421875
14.72,1597571386.4375
11.98,1597571386.453125
9.51,1597571386.46875
7.22,1597571386.484375
4.96,1597571386.5
2.55,1597571386.515625
-0.07,1597571386.53125
-2.89,1597571386.546875
-5.82,1597571386.5625
-8.8,1597571386.578125
-11.86,1597571386.59375
-15.16,1597571386.609375
-18.82,1597571386.625
-22.97,1597571386.640625
-27.5,1597571386.65625
-32.1,1597571386.671875
-36.34,1597571386.6875
-39.84,1597571386.703125
-42.38,1597571386.71875
-44.09,1597571386.734375
-45.44,1597571386.75
-47.17,1597571386.765625
-50.01,1597571386.78125
-54.52,1597571386.796875
-60.73,1597571386.8125
-67.99,1597571386.828125
-74.97,1597571386.84375
-79.99,1597571386.859375
-81.39,1597571386.875
-78.16,1597571386.890625
-70.22,1597571386.90625
-58.47,1597571386.921875
-44.54,1597571386.9375
-30.2,1597571386.953125
-16.93,1597571386.96875
-5.61,1597571386.984375
3.43,1597571387.0
10.32,1597571387.015625
15.42,1597571387.03125
19.13,1597571387.046875
21.94,1597571387.0625
24.27,1597571387.078125
26.54,1597571387.09375
29.02,1597571387.109375
31.86,1597571387.125
34.96,1597571387.140625
38.05,1597571387.15625
40.83,1597571387.171875
43.09,1597571387.1875
44.76,1597571387.203125
45.96,1597571387.21875
46.93,1597571387.234375
47.8,1597571387.25
48.53,1597571387.265625
48.95,1597571387.28125
48.77,1597571387.296875
47.8,1597571387.3125
45.99,1597571387.328125
43.53,1597571387.34375
40.62,1597571387.359375
37.42,1597571387.375
34.02,1597571387.390625
30.53,1597571387.40625
27.02,1597571387.421875
23.64,1597571387.4375
20.54,1597571387.453125
17.82,1597571387.46875
15.5,1597571387.484375
13.5,1597571387.5
11.82,1597571387.515625
10.43,1597571387.53125
9.34,1597571387.546875
8.52,1597571387.5625
7.84,1597571387.578125
7.08,1597571387.59375
6.02,1597571387.609375
4.58,1597571387.625
2.81,1597571387.640625
0.85,1597571387.65625
-1.19,1597571387.671875
-3.3,1597571387.6875
-5.61,1597571387.703125
-8.28,1597571387.71875
-11.43,1597571387.734375
-15.11,1597571387.75
-19.25,1597571387.765625
-23.66,1597571387.78125
-28.01,1597571387.796875
-31.96,1597571387.8125
-35.21,1597571387.828125
-37.67,1597571387.84375
-39.59,1597571387.859375
-41.59,1597571387.875
-44.45,1597571387.890625
-48.72,1597571387.90625
-54.33,1597571387.921875
-60.39,1597571387.9375
-65.28,1597571387.953125
-67.2,1597571387.96875
-64.76,1597571387.984375
-57.56,1597571388.0
-46.26,1597571388.015625
-32.42,1597571388.03125
-17.89,1597571388.046875
-4.31,1597571388.0625
7.25,1597571388.078125
16.37,1597571388.09375
23.11,1597571388.109375
27.78,1597571388.125
30.72,1597571388.140625
32.31,1597571388.15625
32.93,1597571388.171875
33.08,1597571388.1875
33.19,1597571388.203125
33.63,1597571388.21875
34.53,1597571388.234375
35.83,1597571388.25
37.3,1597571388.265625
38.67,1597571388.28125
39.8,1597571388.296875
40.69,1597571388.3125
41.38,1597571388.328125
41.95,1597571388.34375
42.43,1597571388.359375
42.81,1597571388.375
43.05,1597571388.390625
43.12,1597571388.40625
42.99,1597571388.421875
42.54,1597571388.4375
41.7,1597571388.453125
40.42,1597571388.46875
38.75,1597571388.484375
36.8,1597571388.5
34.72,1597571388.515625
32.6,1597571388.53125
30.4,1597571388.546875
28.05,1597571388.5625
25.52,1597571388.578125
22.83,1597571388.59375
20.09,1597571388.609375
17.4,1597571388.625
14.78,1597571388.640625
12.19,1597571388.65625
9.48,1597571388.671875
6.62,1597571388.6875
3.65,1597571388.703125
0.67,1597571388.71875
-2.14,1597571388.734375
-4.68,1597571388.75
-6.95,1597571388.765625
-9.0,1597571388.78125
-11.04,1597571388.796875
-13.29,1597571388.8125
-15.96,1597571388.828125
-19.2,1597571388.84375
-22.94,1597571388.859375
-26.93,1597571388.875
-30.82,1597571388.890625
-34.2,1597571388.90625
-36.85,1597571388.921875
-38.8,1597571388.9375
-40.43,1597571388.953125
-42.36,1597571388.96875
-45.22,1597571388.984375
-49.47,1597571389.0
-55.07,1597571389.015625
-61.35,1597571389.03125
-67.09,1597571389.046875
-70.8,1597571389.0625
-71.14,1597571389.078125
-67.33,1597571389.09375
-59.42,1597571389.109375
-48.27,1597571389.125
-35.28,1597571389.140625
-22.02,1597571389.15625
-9.9,1597571389.171875
0.15,1597571389.1875
7.7,1597571389.203125
12.82,1597571389.21875
15.9,1597571389.234375
17.43,1597571389.25
17.9,1597571389.265625
17.68,1597571389.28125
17.04,1597571389.296875
16.28,1597571389.3125
15.73,1597571389.328125
15.79,1597571389.34375
16.7,1597571389.359375
18.56,1597571389.375
21.12,1597571389.390625
23.95,1597571389.40625
26.65,1597571389.421875
28.99,1597571389.4375
30.96,1597571389.453125
32.66,1597571389.46875
34.18,1597571389.484375
35.36,1597571389.5
35.89,1597571389.515625
35.41,1597571389.53125
33.63,1597571389.546875
30.48,1597571389.5625
26.13,1597571389.578125
21.01,1597571389.59375
15.67,1597571389.609375
10.7,1597571389.625
6.61,1597571389.640625
3.72,1597571389.65625
2.13,1597571389.671875
1.66,1597571389.6875
1.93,1597571389.703125
2.44,1597571389.71875
2.72,1597571389.734375
2.36,1597571389.75
1.22,1597571389.765625
-0.62,1597571389.78125
-2.85,1597571389.796875
-5.09,1597571389.8125
-7.01,1597571389.828125
-8.54,1597571389.84375
-9.84,1597571389.859375
-11.29,1597571389.875
-13.31,1597571389.890625
-16.17,1597571389.90625
-19.87,1597571389.921875
-24.18,1597571389.9375
-28.68,1597571389.953125
-33.01,1597571389.96875
-36.89,1597571389.984375
-40.33,1597571390.0
-43.56,1597571390.015625
-46.95,1597571390.03125
-50.83,1597571390.046875
-55.3,1597571390.0625
-60.01,1597571390.078125
-64.18,1597571390.09375
-66.72,1597571390.109375
-66.49,1597571390.125
-62.68,1597571390.140625
-55.13,1597571390.15625
-44.39,1597571390.171875
-31.63,1597571390.1875
-18.3,1597571390.203125
-5.75,1597571390.21875
5.06,1597571390.234375
13.64,1597571390.25
19.9,1597571390.265625
24.0,1597571390.28125
26.22,1597571390.296875
26.95,1597571390.3125
26.63,1597571390.328125
25.79,1597571390.34375
25.04,1597571390.359375
24.85,1597571390.375
25.49,1597571390.390625
26.91,1597571390.40625
28.84,1597571390.421875
30.88,1597571390.4375
32.71,1597571390.453125
34.24,1597571390.46875
35.54,1597571390.484375
36.73,1597571390.5
37.89,1597571390.515625
38.91,1597571390.53125
39.53,1597571390.546875
39.45,1597571390.5625
38.46,1597571390.578125
36.55,1597571390.59375
33.96,1597571390.609375
31.01,1597571390.625
28.0,1597571390.640625
25.11,1597571390.65625
22.31,1597571390.671875
19.44,1597571390.6875
16.36,1597571390.703125
13.05,1597571390.71875
9.65,1597571390.734375
6.34,1597571390.75
3.29,1597571390.765625
0.53,1597571390.78125
-2.07,1597571390.796875
-4.65,1597571390.8125
-7.27,1597571390.828125
-9.88,1597571390.84375
-12.37,1597571390.859375
-14.68,1597571390.875
-16.83,1597571390.890625
-18.92,1597571390.90625
-21.06,1597571390.921875
-23.27,1597571390.9375
-25.62,1597571390.953125
-28.25,1597571390.96875
-31.49,1597571390.984375
-35.79,1597571391.0
-41.63,1597571391.015625
-49.2,1597571391.03125
-58.14,1597571391.046875
-67.42,1597571391.0625
-75.47,1597571391.078125
-80.46,1597571391.09375
-80.91,1597571391.109375
-76.07,1597571391.125
-66.2,1597571391.140625
-52.55,1597571391.15625
-36.92,1597571391.171875
-21.22,1597571391.1875
-7.05,1597571391.203125
4.59,1597571391.21875
13.32,1597571391.234375
19.3,1597571391.25
23.03,1597571391.265625
25.16,1597571391.28125
26.33,1597571391.296875
26.94,1597571391.3125
27.11,1597571391.328125
26.77,1597571391.34375
25.75,1597571391.359375
24.11,1597571391.375
22.11,1597571391.390625
20.25,1597571391.40625
18.98,1597571391.421875
18.55,1597571391.4375
18.95,1597571391.453125
20.03,1597571391.46875
21.55,1597571391.484375
23.34,1597571391.5
25.18,1597571391.515625
26.76,1597571391.53125
27.62,1597571391.546875
27.38,1597571391.5625
25.88,1597571391.578125
23.28,1597571391.59375
20.03,1597571391.609375
16.62,1597571391.625
13.41,1597571391.640625
10.42,1597571391.65625
7.53,1597571391.671875
4.6,1597571391.6875
1.61,1597571391.703125
-1.23,1597571391.71875
-3.66,1597571391.734375
-5.45,1597571391.75
-6.48,1597571391.765625
-6.77,1597571391.78125
-6.4,1597571391.796875
-5.44,1597571391.8125
-3.99,1597571391.828125
-2.16,1597571391.84375
-0.23,1597571391.859375
1.46,1597571391.875
2.51,1597571391.890625
2.55,1597571391.90625
1.45,1597571391.921875
-0.68,1597571391.9375
-3.44,1597571391.953125
-6.3,1597571391.96875
-8.74,1597571391.984375
-10.46,1597571392.0
-11.51,1597571392.015625
-12.16,1597571392.03125
-12.94,1597571392.046875
-14.4,1597571392.0625
-16.98,1597571392.078125
-20.87,1597571392.09375
-25.91,1597571392.109375
-31.5,1597571392.125
-36.61,1597571392.140625
-39.98,1597571392.15625
-40.4,1597571392.171875
-37.04,1597571392.1875
-29.79,1597571392.203125
-19.26,1597571392.21875
-6.66,1597571392.234375
6.49,1597571392.25
18.85,1597571392.265625
29.46,1597571392.28125
37.98,1597571392.296875
44.63,1597571392.3125
49.92,1597571392.328125
54.48,1597571392.34375
58.72,1597571392.359375
62.75,1597571392.375
66.37,1597571392.390625
69.25,1597571392.40625
71.05,1597571392.421875
71.67,1597571392.4375
71.26,1597571392.453125
70.14,1597571392.46875
68.7,1597571392.484375
67.25,1597571392.5
65.84,1597571392.515625
64.3,1597571392.53125
62.3,1597571392.546875
59.51,1597571392.5625
55.68,1597571392.578125
50.75,1597571392.59375
44.75,1597571392.609375
37.87,1597571392.625
30.34,1597571392.640625
22.37,1597571392.65625
14.28,1597571392.671875
6.37,1597571392.6875
-1.06,1597571392.703125
-7.78,1597571392.71875
-13.64,1597571392.734375
-18.66,1597571392.75
-22.93,1597571392.765625
-26.59,1597571392.78125
-29.75,1597571392.796875
-32.45,1597571392.8125
-34.64,1597571392.828125
-36.23,1597571392.84375
-37.13,1597571392.859375
-37.33,1597571392.875
-36.96,1597571392.890625
-36.11,1597571392.90625
-34.88,1597571392.921875
-33.25,1597571392.9375
-31.09,1597571392.953125
-28.32,1597571392.96875
-25.0,1597571392.984375
-21.48,1597571393.0
-18.37,1597571393.015625
-16.34,1597571393.03125
-15.9,1597571393.046875
-17.25,1597571393.0625
-20.19,1597571393.078125
-24.25,1597571393.09375
-28.86,1597571393.109375
-33.53,1597571393.125
-37.96,1597571393.140625
-42.09,1597571393.15625
-46.06,1597571393.171875
-50.14,1597571393.1875
-54.63,1597571393.203125
-59.74,1597571393.21875
-65.4,1597571393.234375
-71.04,1597571393.25
-75.63,1597571393.265625
-77.92,1597571393.28125
-76.62,1597571393.296875
-71.01,1597571393.3125
-61.15,1597571393.328125
-47.95,1597571393.34375
-32.84,1597571393.359375
-17.47,1597571393.375
-3.29,1597571393.390625
8.71,1597571393.40625
18.07,1597571393.421875
24.85,1597571393.4375
29.46,1597571393.453125
32.56,1597571393.46875
34.76,1597571393.484375
36.53,1597571393.5
38.04,1597571393.515625
39.24,1597571393.53125
40.04,1597571393.546875
40.45,1597571393.5625
40.68,1597571393.578125
41.01,1597571393.59375
41.66,1597571393.609375
42.59,1597571393.625
43.52,1597571393.640625
44.14,1597571393.65625
44.23,1597571393.671875
43.8,1597571393.6875
43.1,1597571393.703125
42.36,1597571393.71875
41.69,1597571393.734375
40.9,1597571393.75
39.67,1597571393.765625
37.71,1597571393.78125
35.01,1597571393.796875
31.86,1597571393.8125
28.74,1597571393.828125
26.05,1597571393.84375
23.94,1597571393.859375
22.27,1597571393.875
20.69,1597571393.890625
18.87,1597571393.90625
16.66,1597571393.921875
14.12,1597571393.9375
11.43,1597571393.953125
8.8,1597571393.96875
6.3,1597571393.984375
3.85,1597571394.0
1.27,1597571394.015625
-1.66,1597571394.03125
-5.16,1597571394.046875
-9.24,1597571394.0625
-13.84,1597571394.078125
-18.74,1597571394.09375
-23.61,1597571394.109375
-28.15,1597571394.125
-32.24,1597571394.140625
-35.88,1597571394.15625
-39.29,1597571394.171875
-42.74,1597571394.1875
-46.48,1597571394.203125
-50.66,1597571394.21875
-55.31,1597571394.234375
-60.18,1597571394.25
-64.79,1597571394.265625
-68.33,1597571394.28125
-69.85,1597571394.296875
-68.34,1597571394.3125
-63.2,1597571394.328125
-54.43,1597571394.34375
-42.82,1597571394.359375
-29.66,1597571394.375
-16.52,1597571394.390625
-4.69,1597571394.40625
5.07,1597571394.421875
12.63,1597571394.4375
18.27,1597571394.453125
22.42,1597571394.46875
25.4,1597571394.484375
27.3,1597571394.5
28.07,1597571394.515625
27.8,1597571394.53125
26.75,1597571394.546875
25.45,1597571394.5625
24.51,1597571394.578125
24.28,1597571394.59375
24.87,1597571394.609375
26.03,1597571394.625
27.39,1597571394.640625
28.76,1597571394.65625
30.13,1597571394.671875
31.58,1597571394.6875
33.14,1597571394.703125
34.61,1597571394.71875
35.59,1597571394.734375
35.68,1597571394.75
34.67,1597571394.765625
32.67,1597571394.78125
30.01,1597571394.796875
27.14,1597571394.8125
24.35,1597571394.828125
21.77,1597571394.84375
19.31,1597571394.859375
16.78,1597571394.875
13.98,1597571394.890625
10.83,1597571394.90625
7.43,1597571394.921875
3.99,1597571394.9375
0.87,1597571394.953125
-1.67,1597571394.96875
-3.46,1597571394.984375
-4.55,1597571395.0
-5.3,1597571395.015625
-6.15,1597571395.03125
-7.54,1597571395.046875
-9.69,1597571395.0625
-12.58,1597571395.078125
-15.94,1597571395.09375
-19.42,1597571395.109375
-22.73,1597571395.125
-25.73,1597571395.140625
-28.47,1597571395.15625
-31.13,1597571395.171875
-33.97,1597571395.1875
-37.33,1597571395.203125
-41.53,1597571395.21875
-46.71,1597571395.234375
-52.71,1597571395.25
-58.8,1597571395.265625
-63.7,1597571395.28125
-65.86,1597571395.296875
-63.89,1597571395.3125
-57.24,1597571395.328125
-46.35,1597571395.34375
-32.67,1597571395.359375
-18.13,1597571395.375
-4.59,1597571395.390625
6.65,1597571395.40625
15.04,1597571395.421875
20.65,1597571395.4375
23.95,1597571395.453125
25.55,1597571395.46875
26.06,1597571395.484375
26.03,1597571395.5
25.83,1597571395.515625
25.73,1597571395.53125
25.88,1597571395.546875
26.35,1597571395.5625
27.16,1597571395.578125
28.29,1597571395.59375
29.67,1597571395.609375
31.11,1597571395.625
32.39,1597571395.640625
33.32,1597571395.65625
33.81,1597571395.671875
33.96,1597571395.6875
33.97,1597571395.703125
33.96,1597571395.71875
33.92,1597571395.734375
33.63,1597571395.75
32.77,1597571395.765625
31.05,1597571395.78125
28.4,1597571395.796875
25.01,1597571395.8125
21.24,1597571395.828125
17.53,1597571395.84375
14.2,1597571395.859375
11.42,1597571395.875
9.12,1597571395.890625
7.17,1597571395.90625
5.43,1597571395.921875
3.84,1597571395.9375
2.46,1597571395.953125
1.38,1597571395.96875
0.62,1597571395.984375
0.1,1597571396.0
-0.33,1597571396.015625
-0.86,1597571396.03125
-1.6,1597571396.046875
-2.57,1597571396.0625
-3.72,1597571396.078125
-4.99,1597571396.09375
-6.42,1597571396.109375
-8.19,1597571396.125
-10.54,1597571396.140625
-13.66,1597571396.15625
-17.54,1597571396.171875
-21.97,1597571396.1875
-26.5,1597571396.203125
-30.66,1597571396.21875
-34.07,1597571396.234375
-36.58,1597571396.25
-38.29,1597571396.265625
-39.59,1597571396.28125
-41.0,1597571396.296875
-43.07,1597571396.3125
-46.12,1597571396.328125
-50.01,1597571396.34375
-54.08,1597571396.359375
-57.1,1597571396.375
-57.74,1597571396.390625
-54.98,1597571396.40625
-48.49,1597571396.421875
-38.78,1597571396.4375
-27.03,1597571396.453125
-14.64,1597571396.46875
-2.88,1597571396.484375
7.29,1597571396.5
15.35,1597571396.515625
21.06,1597571396.53125
24.46,1597571396.546875
25.79,1597571396.5625
25.52,1597571396.578125
24.27,1597571396.59375
22.65,1597571396.609375
21.15,1597571396.625
19.97,1597571396.640625
19.12,1597571396.65625
18.51,1597571396.671875
18.02,1597571396.6875
17.61,1597571396.703125
17.29,1597571396.71875
17.15,1597571396.734375
17.21,1597571396.75
17.58,1597571396.765625
18.25,1597571396.78125
19.15,1597571396.796875
20.14,1597571396.8125
20.94,1597571396.828125
21.25,1597571396.84375
20.84,1597571396.859375
19.61,1597571396.875
17.68,1597571396.890625
15.27,1597571396.90625
12.62,1597571396.921875
9.97,1597571396.9375
7.4,1597571396.953125
5.05,1597571396.96875
3.0,1597571396.984375
1.34,1597571397.0
0.15,1597571397.015625
-0.65,1597571397.03125
-1.25,1597571397.046875
-1.89,1597571397.0625
-2.84,1597571397.078125
-4.16,1597571397.09375
-5.8,1597571397.109375
-7.56,1597571397.125
-9.32,1597571397.140625
-11.1,1597571397.15625
-13.06,1597571397.171875
-15.38,1597571397.1875
-18.15,1597571397.203125
-21.22,1597571397.21875
-24.3,1597571397.234375
-27.1,1597571397.25
-29.51,1597571397.265625
-31.54,1597571397.28125
-33.34,1597571397.296875
-35.03,1597571397.3125
-36.61,1597571397.328125
-38.11,1597571397.34375
-39.6,1597571397.359375
-41.32,1597571397.375
-43.52,1597571397.390625
-46.16,1597571397.40625
-48.72,1597571397.421875
-50.13,1597571397.4375
-49.14,1597571397.453125
-44.79,1597571397.46875
-36.92,1597571397.484375
-26.34,1597571397.5
-14.58,1597571397.515625
-3.42,1597571397.53125
5.69,1597571397.546875
12.0,1597571397.5625
15.47,1597571397.578125
16.63,1597571397.59375
16.3,1597571397.609375
15.29,1597571397.625
14.21,1597571397.640625
13.38,1597571397.65625
12.9,1597571397.671875
12.79,1597571397.6875
13.06,1597571397.703125
13.79,1597571397.71875
15.11,1597571397.734375
17.06,1597571397.75
19.5,1597571397.765625
22.08,1597571397.78125
24.4,1597571397.796875
26.13,1597571397.8125
27.16,1597571397.828125
27.57,1597571397.84375
27.5,1597571397.859375
26.98,1597571397.875
25.87,1597571397.890625
23.95,1597571397.90625
21.09,1597571397.921875
17.4,1597571397.9375
13.35,1597571397.953125
9.58,1597571397.96875
6.64,1597571397.984375
4.79,1597571398.0
3.95,1597571398.015625
3.71,1597571398.03125
3.54,1597571398.046875
3.04,1597571398.0625
2.09,1597571398.078125
0.88,1597571398.09375
-0.18,1597571398.109375
-0.69,1597571398.125
-0.43,1597571398.140625
0.43,1597571398.15625
1.45,1597571398.171875
2.08,1597571398.1875
2.0,1597571398.203125
1.28,1597571398.21875
0.43,1597571398.234375
0.24,1597571398.25
1.32,1597571398.265625
3.8,1597571398.28125
7.2,1597571398.296875
10.67,1597571398.3125
13.27,1597571398.328125
14.42,1597571398.34375
14.0,1597571398.359375
12.37,1597571398.375
10.46,1597571398.390625
9.83,1597571398.40625
12.72,1597571398.421875
21.67,1597571398.4375
38.79,1597571398.453125
64.82,1597571398.46875
98.18,1597571398.484375
134.8,1597571398.5
168.88,1597571398.515625
194.36,1597571398.53125
206.7,1597571398.546875
203.94,1597571398.5625
187.01,1597571398.578125
158.86,1597571398.59375
123.42,1597571398.609375
84.44,1597571398.625
45.06,1597571398.640625
7.54,1597571398.65625
-26.59,1597571398.671875
-56.54,1597571398.6875
-82.32,1597571398.703125
-104.8,1597571398.71875
-125.44,1597571398.734375
-145.5,1597571398.75
-165.03,1597571398.765625
-182.2,1597571398.78125
-193.51,1597571398.796875
-195.19,1597571398.8125
-185.02,1597571398.828125
-164.01,1597571398.84375
-136.6,1597571398.859375
-109.63,1597571398.875
-89.99,1597571398.890625
-82.37,1597571398.90625
-87.71,1597571398.921875
-103.28,1597571398.9375
-123.93,1597571398.953125
-143.96,1597571398.96875
-158.72,1597571398.984375
-165.37,1597571399.0
-162.91,1597571399.015625
-151.8,1597571399.03125
-133.38,1597571399.046875
-109.64,1597571399.0625
-83.07,1597571399.078125
-56.37,1597571399.09375
-32.09,1597571399.109375
-12.13,1597571399.125
2.84,1597571399.140625
13.34,1597571399.15625
20.76,1597571399.171875
26.58,1597571399.1875
31.48,1597571399.203125
35.15,1597571399.21875
36.49,1597571399.234375
34.36,1597571399.25
28.52,1597571399.265625
19.91,1597571399.28125
10.51,1597571399.296875
2.42,1597571399.3125
-2.99,1597571399.328125
-5.66,1597571399.34375
-6.72,1597571399.359375
-7.98,1597571399.375
-11.07,1597571399.390625
-17.0,1597571399.40625
-25.97,1597571399.421875
-37.59,1597571399.4375
-50.98,1597571399.453125
-64.8,1597571399.46875
-77.27,1597571399.484375
-86.39,1597571399.5
-90.53,1597571399.515625
-89.09,1597571399.53125
-82.95,1597571399.546875
-74.18,1597571399.5625
-65.22,1597571399.578125
-57.7,1597571399.59375
-51.82,1597571399.609375
-46.14,1597571399.625
-38.3,1597571399.640625
-26.12,1597571399.65625
-8.39,1597571399.671875
14.78,1597571399.6875
42.11,1597571399.703125
71.65,1597571399.71875
101.12,1597571399.734375
128.07,1597571399.75
149.73,1597571399.765625
163.17,1597571399.78125
165.64,1597571399.796875
155.35,1597571399.8125
132.14,1597571399.828125
98.01,1597571399.84375
56.9,1597571399.859375
13.8,1597571399.875
-26.37,1597571399.890625
-59.86,1597571399.90625
-84.56,1597571399.921875
-99.86,1597571399.9375
-106.07,1597571399.953125
-103.85,1597571399.96875
-93.94,1597571399.984375
-77.26,1597571400.0
-55.21,1597571400.015625
-29.83,1597571400.03125
-3.6,1597571400.046875
21.0,1597571400.0625
42.05,1597571400.078125
58.65,1597571400.09375
70.93,1597571400.109375
79.67,1597571400.125
85.81,1597571400.140625
89.97,1597571400.15625
92.32,1597571400.171875
92.74,1597571400.1875
91.09,1597571400.203125
87.4,1597571400.21875
81.84,1597571400.234375
74.69,1597571400.25
66.2,1597571400.265625
56.51,1597571400.28125
45.81,1597571400.296875
34.32,1597571400.3125
22.42,1597571400.328125
10.62,1597571400.34375
-0.47,1597571400.359375
-10.32,1597571400.375
-18.58,1597571400.390625
-25.19,1597571400.40625
-30.5,1597571400.421875
-35.21,1597571400.4375
-40.27,1597571400.453125
-46.55,1597571400.46875
-54.49,1597571400.484375
-63.95,1597571400.5
-74.1,1597571400.515625
-83.65,1597571400.53125
-91.11,1597571400.546875
-95.12,1597571400.5625
-94.77,1597571400.578125
-89.81,1597571400.59375
-80.71,1597571400.609375
-68.72,1597571400.625
-55.55,1597571400.640625
-43.0,1597571400.65625
-32.55,1597571400.671875
-25.02,1597571400.6875
-20.32,1597571400.703125
-17.63,1597571400.71875
-15.78,1597571400.734375
-13.74,1597571400.75
-11.02,1597571400.765625
-7.87,1597571400.78125
-4.95,1597571400.796875
-2.94,1597571400.8125
-1.97,1597571400.828125
-1.37,1597571400.84375
0.18,1597571400.859375
4.21,1597571400.875
11.94,1597571400.890625
23.86,1597571400.90625
39.47,1597571400.921875
57.38,1597571400.9375
75.47,1597571400.953125
90.99,1597571400.96875
100.96,1597571400.984375
102.81,1597571401.0
95.26,1597571401.015625
79.1,1597571401.03125
57.37,1597571401.046875
34.7,1597571401.0625
15.75,1597571401.078125
3.76,1597571401.09375
-0.47,1597571401.109375
1.44,1597571401.125
6.53,1597571401.140625
11.94,1597571401.15625
15.98,1597571401.171875
18.42,1597571401.1875
19.99,1597571401.203125
21.52,1597571401.21875
23.22,1597571401.234375
24.48,1597571401.25
24.27,1597571401.265625
21.61,1597571401.28125
16.22,1597571401.296875
8.55,1597571401.3125
-0.34,1597571401.328125
-9.27,1597571401.34375
-17.32,1597571401.359375
-24.17,1597571401.375
-30.02,1597571401.390625
-35.4,1597571401.40625
-40.85,1597571401.421875
-46.8,1597571401.4375
-53.41,1597571401.453125
-60.63,1597571401.46875
-68.22,1597571401.484375
-75.67,1597571401.5
-82.2,1597571401.515625
-86.74,1597571401.53125
-88.01,1597571401.546875
-84.67,1597571401.5625
-75.63,1597571401.578125
-60.3,1597571401.59375
-38.93,1597571401.609375
-12.86,1597571401.625
15.53,1597571401.640625
43.38,1597571401.65625
68.05,1597571401.671875
87.81,1597571401.6875
102.01,1597571401.703125
110.54,1597571401.71875
112.98,1597571401.734375
108.28,1597571401.75
95.32,1597571401.765625
74.11,1597571401.78125
46.93,1597571401.796875
18.45,1597571401.8125
-5.67,1597571401.828125
-20.91,1597571401.84375
-25.69,1597571401.859375
-21.66,1597571401.875
-12.64,1597571401.890625
-2.41,1597571401.90625
6.79,1597571401.921875
14.75,1597571401.9375
22.48,1597571401.953125
30.84,1597571401.96875
39.67,1597571401.984375
47.8,1597571402.0
53.8,1597571402.015625
56.86,1597571402.03125
57.34,1597571402.046875
56.53,1597571402.0625
55.88,1597571402.078125
56.31,1597571402.09375
57.7,1597571402.109375
59.15,1597571402.125
59.53,1597571402.140625
58.28,1597571402.15625
55.61,1597571402.171875
52.42,1597571402.1875
49.68,1597571402.203125
47.94,1597571402.21875
47.04,1597571402.234375
46.35,1597571402.25
45.16,1597571402.265625
43.03,1597571402.28125
39.9,1597571402.296875
36.09,1597571402.3125
32.04,1597571402.328125
28.12,1597571402.34375
24.66,1597571402.359375
21.86,1597571402.375
19.85,1597571402.390625
18.61,1597571402.40625
17.99,1597571402.421875
17.71,1597571402.4375
17.43,1597571402.453125
16.77,1597571402.46875
15.24,1597571402.484375
12.29,1597571402.5
7.33,1597571402.515625
-0.0,1597571402.53125
-9.51,1597571402.546875
-20.27,1597571402.5625
-30.63,1597571402.578125
-38.67,1597571402.59375
-42.74,1597571402.609375
-42.0,1597571402.625
-36.67,1597571402.640625
-27.84,1597571402.65625
-17.04,1597571402.671875
-5.82,1597571402.6875
4.61,1597571402.703125
13.52,1597571402.71875
20.54,1597571402.734375
25.58,1597571402.75
28.75,1597571402.765625
30.38,1597571402.78125
30.88,1597571402.796875
30.77,1597571402.8125
30.57,1597571402.828125
30.68,1597571402.84375
31.36,1597571402.859375
32.65,1597571402.875
34.45,1597571402.890625
36.54,1597571402.90625
38.63,1597571402.921875
40.46,1597571402.9375
41.74,1597571402.953125
42.24,1597571402.96875
41.75,1597571402.984375
40.2,1597571403.0
37.64,1597571403.015625
34.28,1597571403.03125
30.4,1597571403.046875
26.32,1597571403.0625
22.27,1597571403.078125
18.41,1597571403.09375
14.78,1597571403.109375
11.4,1597571403.125
8.26,1597571403.140625
5.31,1597571403.15625
2.48,1597571403.171875
-0.31,1597571403.1875
-3.19,1597571403.203125
-6.22,1597571403.21875
-9.33,1597571403.234375
-12.36,1597571403.25
-15.05,1597571403.265625
-17.26,1597571403.28125
-18.96,1597571403.296875
-20.38,1597571403.3125
-21.88,1597571403.328125
-23.85,1597571403.34375
-26.56,1597571403.359375
-30.06,1597571403.375
-34.24,1597571403.390625
-38.84,1597571403.40625
-43.61,1597571403.421875
-48.36,1597571403.4375
-53.05,1597571403.453125
-57.88,1597571403.46875
-63.25,1597571403.484375
-69.8,1597571403.5
-78.1,1597571403.515625
-88.36,1597571403.53125
-100.09,1597571403.546875
-111.9,1597571403.5625
-121.75,1597571403.578125
-127.34,1597571403.59375
-126.81,1597571403.609375
-119.36,1597571403.625
-105.49,1597571403.640625
-86.86,1597571403.65625
-65.75,1597571403.671875
-44.47,1597571403.6875
-24.8,1597571403.703125
-7.77,1597571403.71875
6.29,1597571403.734375
17.5,1597571403.75
26.14,1597571403.765625
32.5,1597571403.78125
36.87,1597571403.796875
39.61,1597571403.8125
41.26,1597571403.828125
42.48,1597571403.84375
43.85,1597571403.859375
45.78,1597571403.875
48.3,1597571403.890625
51.2,1597571403.90625
54.08,1597571403.921875
56.57,1597571403.9375
58.55,1597571403.953125
60.08,1597571403.96875
61.38,1597571403.984375
62.6,1597571404.0
63.64,1597571404.015625
64.2,1597571404.03125
63.88,1597571404.046875
62.36,1597571404.0625
59.62,1597571404.078125
55.99,1597571404.09375
51.99,1597571404.109375
48.16,1597571404.125
44.85,1597571404.140625
42.14,1597571404.15625
39.83,1597571404.171875
37.63,1597571404.1875
35.23,1597571404.203125
32.45,1597571404.21875
29.17,1597571404.234375
25.37,1597571404.25
21.12,1597571404.265625
16.56,1597571404.28125
11.96,1597571404.296875
7.63,1597571404.3125
3.83,1597571404.328125
0.67,1597571404.34375
-1.97,1597571404.359375
-4.33,1597571404.375
-6.77,1597571404.390625
-9.62,1597571404.40625
-13.03,1597571404.421875
-17.08,1597571404.4375
-21.66,1597571404.453125
-26.59,1597571404.46875
-31.68,1597571404.484375
-36.75,1597571404.5
-41.77,1597571404.515625
-46.85,1597571404.53125
-52.28,1597571404.546875
-58.45,1597571404.5625
-65.62,1597571404.578125
-73.67,1597571404.59375
-81.89,1597571404.609375
-89.0,1597571404.625
-93.43,1597571404.640625
-93.73,1597571404.65625
-89.05,1597571404.671875
-79.4,1597571404.6875
-65.66,1597571404.703125
-49.3,1597571404.71875
-31.83,1597571404.734375
-14.52,1597571404.75
1.87,1597571404.765625
17.07,1597571404.78125
31.08,1597571404.796875
44.01,1597571404.8125
55.97,1597571404.828125
67.02,1597571404.84375
77.05,1597571404.859375
85.82,1597571404.875
92.92,1597571404.890625
97.81,1597571404.90625
100.11,1597571404.921875
99.74,1597571404.9375
97.04,1597571404.953125
92.81,1597571404.96875
87.98,1597571404.984375
83.4,1597571405.0
79.55,1597571405.015625
76.47,1597571405.03125
73.87,1597571405.046875
71.33,1597571405.0625
68.46,1597571405.078125
65.04,1597571405.09375
61.04,1597571405.109375
56.56,1597571405.125
51.77,1597571405.140625
46.88,1597571405.15625
42.06,1597571405.171875
37.43,1597571405.1875
33.09,1597571405.203125
29.14,1597571405.21875
25.72,1597571405.234375
22.94,1597571405.25
20.88,1597571405.265625
19.45,1597571405.28125
18.43,1597571405.296875
17.51,1597571405.3125
16.43,1597571405.328125
15.13,1597571405.34375
13.7,1597571405.359375
12.35,1597571405.375
11.16,1597571405.390625
9.98,1597571405.40625
8.4,1597571405.421875
5.92,1597571405.4375
2.24,1597571405.453125
-2.58,1597571405.46875
-8.01,1597571405.484375
-13.29,1597571405.5
-17.69,1597571405.515625
-20.71,1597571405.53125
-22.33,1597571405.546875
-22.85,1597571405.5625
-22.84,1597571405.578125
-23.0,1597571405.59375
-24.02,1597571405.609375
-26.42,1597571405.625
-30.41,1597571405.640625
-35.73,1597571405.65625
-41.7,1597571405.671875
-47.21,1597571405.6875
-51.09,1597571405.703125
-52.41,1597571405.71875
-50.85,1597571405.734375
-46.79,1597571405.75
-41.16,1597571405.765625
-35.15,1597571405.78125
-29.77,1597571405.796875
-25.65,1597571405.8125
-22.9,1597571405.828125
-21.24,1597571405.84375
-20.16,1597571405.859375
-19.03,1597571405.875
-17.44,1597571405.890625
-15.19,1597571405.90625
-12.4,1597571405.921875
-9.42,1597571405.9375
-6.71,1597571405.953125
-4.61,1597571405.96875
-3.19,1597571405.984375
-2.21,1597571406.0
-1.21,1597571406.015625
0.28,1597571406.03125
2.49,1597571406.046875
5.29,1597571406.0625
8.27,1597571406.078125
10.91,1597571406.09375
12.78,1597571406.109375
13.67,1597571406.125
13.61,1597571406.140625
12.75,1597571406.15625
11.3,1597571406.171875
9.36,1597571406.1875
7.03,1597571406.203125
4.38,1597571406.21875
1.52,1597571406.234375
-1.49,1597571406.25
-4.62,1597571406.265625
-7.94,1597571406.28125
-11.45,1597571406.296875
-14.95,1597571406.3125
-18.14,1597571406.328125
-20.6,1597571406.34375
-22.12,1597571406.359375
-22.81,1597571406.375
-23.32,1597571406.390625
-24.61,1597571406.40625
-27.82,1597571406.421875
-33.87,1597571406.4375
-43.03,1597571406.453125
-54.53,1597571406.46875
-66.48,1597571406.484375
-76.22,1597571406.5
-81.08,1597571406.515625
-79.32,1597571406.53125
-70.86,1597571406.546875
-57.24,1597571406.5625
-41.18,1597571406.578125
-25.42,1597571406.59375
-12.04,1597571406.609375
-1.89,1597571406.625
5.06,1597571406.640625
9.29,1597571406.65625
11.2,1597571406.671875
10.96,1597571406.6875
8.59,1597571406.703125
4.29,1597571406.71875
-1.42,1597571406.734375
-7.66,1597571406.75
-13.32,1597571406.765625
-17.38,1597571406.78125
-19.08,1597571406.796875
-18.11,1597571406.8125
-14.64,1597571406.828125
-9.26,1597571406.84375
-2.71,1597571406.859375
4.28,1597571406.875
11.1,1597571406.890625
17.34,1597571406.90625
22.66,1597571406.921875
26.79,1597571406.9375
29.55,1597571406.953125
30.92,1597571406.96875
31.08,1597571406.984375
30.44,1597571407.0
29.55,1597571407.015625
28.97,1597571407.03125
29.09,1597571407.046875
30.1,1597571407.0625
31.91,1597571407.078125
34.27,1597571407.09375
36.76,1597571407.109375
38.95,1597571407.125
40.52,1597571407.140625
41.27,1597571407.15625
41.1,1597571407.171875
40.04,1597571407.1875
38.19,1597571407.203125
35.7,1597571407.21875
32.74,1597571407.234375
29.46,1597571407.25
25.99,1597571407.265625
22.34,1597571407.28125
18.41,1597571407.296875
14.1,1597571407.3125
9.39,1597571407.328125
4.37,1597571407.34375
-0.63,1597571407.359375
-5.21,1597571407.375
-9.01,1597571407.390625
-11.81,1597571407.40625
-13.62,1597571407.421875
-14.63,1597571407.4375
-15.12,1597571407.453125
-15.33,1597571407.46875
-15.47,1597571407.484375
-15.69,1597571407.5
-16.12,1597571407.515625
-16.81,1597571407.53125
-17.78,1597571407.546875
-18.9,1597571407.5625
-19.94,1597571407.578125
-20.65,1597571407.59375
-20.86,1597571407.609375
-20.52,1597571407.625
-19.74,1597571407.640625
-18.68,1597571407.65625
-17.55,1597571407.671875
-16.45,1597571407.6875
-15.39,1597571407.703125
-14.32,1597571407.71875
-13.21,1597571407.734375
-12.1,1597571407.75
-11.19,1597571407.765625
-10.77,1597571407.78125
-11.19,1597571407.796875
-12.69,1597571407.8125
-15.27,1597571407.828125
-18.56,1597571407.84375
-21.76,1597571407.859375
-23.88,1597571407.875
-23.98,1597571407.890625
-21.5,1597571407.90625
-16.52,1597571407.921875
-9.74,1597571407.9375
-2.25,1597571407.953125
4.74,1597571407.96875
10.29,1597571407.984375
13.81,1597571408.0
15.08,1597571408.015625
14.18,1597571408.03125
11.29,1597571408.046875
6.72,1597571408.0625
0.9,1597571408.078125
-5.68,1597571408.09375
-12.41,1597571408.109375
-18.67,1597571408.125
-23.93,1597571408.140625
-27.81,1597571408.15625
-30.1,1597571408.171875
-30.79,1597571408.1875
-30.06,1597571408.203125
-28.21,1597571408.21875
-25.57,1597571408.234375
-22.43,1597571408.25
-19.09,1597571408.265625
-15.8,1597571408.28125
-12.84,1597571408.296875
-10.6,1597571408.3125
-9.39,1597571408.328125
-9.43,1597571408.34375
-10.71,1597571408.359375
-12.91,1597571408.375
-15.5,1597571408.390625
-17.86,1597571408.40625
-19.54,1597571408.421875
-20.42,1597571408.4375
-20.71,1597571408.453125
-20.86,1597571408.46875
-21.32,1597571408.484375
-22.38,1597571408.5
-24.05,1597571408.515625
-26.23,1597571408.53125
-28.81,1597571408.546875
-31.75,1597571408.5625
-35.01,1597571408.578125
-38.53,1597571408.59375
-42.24,1597571408.609375
-46.09,1597571408.625
-50.25,1597571408.640625
-54.98,1597571408.65625
-60.38,1597571408.671875
-66.04,1597571408.6875
-70.93,1597571408.703125
-73.78,1597571408.71875
-73.76,1597571408.734375
-70.92,1597571408.75
-66.31,1597571408.765625
-61.4,1597571408.78125
-57.25,1597571408.796875
-54.2,1597571408.8125
-52.0,1597571408.828125
-50.39,1597571408.84375
-49.5,1597571408.859375
-49.67,1597571408.875
-50.85,1597571408.890625
-52.0,1597571408.90625
-51.09,1597571408.921875
-45.86,1597571408.9375
-34.96,1597571408.953125
-18.55,1597571408.96875
1.69,1597571408.984375
23.42,1597571409.0
44.52,1597571409.015625
63.66,1597571409.03125
80.25,1597571409.046875
94.0,1597571409.0625
104.63,1597571409.078125
111.84,1597571409.09375
115.6,1597571409.109375
116.37,1597571409.125
115.04,1597571409.140625
112.67,1597571409.15625
110.1,1597571409.171875
107.69,1597571409.1875
105.26,1597571409.203125
102.35,1597571409.21875
98.48,1597571409.234375
93.39,1597571409.25
87.14,1597571409.265625
80.19,1597571409.28125
73.31,1597571409.296875
67.53,1597571409.3125
63.89,1597571409.328125
63.19,1597571409.34375
65.54,1597571409.359375
70.17,1597571409.375
75.55,1597571409.390625
79.71,1597571409.40625
80.87,1597571409.421875
78.04,1597571409.4375
71.19,1597571409.453125
61.17,1597571409.46875
49.18,1597571409.484375
36.31,1597571409.5
23.23,1597571409.515625
10.28,1597571409.53125
-2.31,1597571409.546875
-14.13,1597571409.5625
-24.56,1597571409.578125
-33.0,1597571409.59375
-39.19,1597571409.609375
-43.32,1597571409.625
-46.06,1597571409.640625
-48.25,1597571409.65625
-50.6,1597571409.671875
-53.5,1597571409.6875
-56.96,1597571409.703125
-60.75,1597571409.71875
-64.51,1597571409.734375
-67.82,1597571409.75
-70.17,1597571409.765625
-70.98,1597571409.78125
-69.66,1597571409.796875
-65.64,1597571409.8125
-58.72,1597571409.828125
-49.07,1597571409.84375
-37.34,1597571409.859375
-24.51,1597571409.875
-11.74,1597571409.890625
-0.04,1597571409.90625
9.86,1597571409.921875
17.61,1597571409.9375
23.32,1597571409.953125
27.33,1597571409.96875
30.16,1597571409.984375
32.28,1597571410.0
34.05,1597571410.015625
35.69,1597571410.03125
37.3,1597571410.046875
38.88,1597571410.0625
40.32,1597571410.078125
41.51,1597571410.09375
42.24,1597571410.109375
42.33,1597571410.125
41.65,1597571410.140625
40.16,1597571410.15625
37.9,1597571410.171875
34.99,1597571410.1875
31.57,1597571410.203125
27.78,1597571410.21875
23.69,1597571410.234375
19.31,1597571410.25
14.73,1597571410.265625
10.03,1597571410.28125
5.42,1597571410.296875
1.17,1597571410.3125
-2.38,1597571410.328125
-4.93,1597571410.34375
-6.3,1597571410.359375
-6.49,1597571410.375
-5.79,1597571410.390625
-4.73,1597571410.40625
-3.88,1597571410.421875
-3.75,1597571410.4375
-4.55,1597571410.453125
-6.18,1597571410.46875
-8.32,1597571410.484375
-10.63,1597571410.5
-12.92,1597571410.515625
-15.21,1597571410.53125
-17.63,1597571410.546875
-20.23,1597571410.5625
-22.92,1597571410.578125
-25.46,1597571410.59375
-27.64,1597571410.609375
-29.41,1597571410.625
-30.96,1597571410.640625
-32.6,1597571410.65625
-34.61,1597571410.671875
-37.19,1597571410.6875
-40.48,1597571410.703125
-44.54,1597571410.71875
-49.39,1597571410.734375
-54.85,1597571410.75
-60.43,1597571410.765625
-65.33,1597571410.78125
-68.52,1597571410.796875
-69.04,1597571410.8125
-66.27,1597571410.828125
-60.17,1597571410.84375
-51.23,1597571410.859375
-40.41,1597571410.875
-28.85,1597571410.890625
-17.69,1597571410.90625
-7.85,1597571410.921875
0.05,1597571410.9375
5.73,1597571410.953125
9.27,1597571410.96875
11.05,1597571410.984375
11.65,1597571411.0
11.66,1597571411.015625
11.57,1597571411.03125
11.72,1597571411.046875
12.18,1597571411.0625
12.92,1597571411.078125
13.87,1597571411.09375
15.05,1597571411.109375
16.47,1597571411.125
18.21,1597571411.140625
20.24,1597571411.15625
22.43,1597571411.171875
24.51,1597571411.1875
26.23,1597571411.203125
27.44,1597571411.21875
28.08,1597571411.234375
28.22,1597571411.25
27.94,1597571411.265625
27.31,1597571411.28125
26.36,1597571411.296875
25.08,1597571411.3125
23.52,1597571411.328125
21.71,1597571411.34375
19.77,1597571411.359375
17.83,1597571411.375
15.96,1597571411.390625
14.2,1597571411.40625
12.52,1597571411.421875
10.88,1597571411.4375
9.23,1597571411.453125
7.51,1597571411.46875
5.72,1597571411.484375
3.85,1597571411.5
1.9,1597571411.515625
-0.15,1597571411.53125
-2.37,1597571411.546875
-4.88,1597571411.5625
-7.85,1597571411.578125
-11.44,1597571411.59375
-15.65,1597571411.609375
-20.36,1597571411.625
-25.27,1597571411.640625
-29.98,1597571411.65625
-34.13,1597571411.671875
-37.51,1597571411.6875
-40.15,1597571411.703125
-42.25,1597571411.71875
-44.17,1597571411.734375
-46.3,1597571411.75
-48.96,1597571411.765625
-52.31,1597571411.78125
-56.22,1597571411.796875
-60.21,1597571411.8125
-63.42,1597571411.828125
-64.77,1597571411.84375
-63.26,1597571411.859375
-58.29,1597571411.875
-50.01,1597571411.890625
-39.25,1597571411.90625
-27.39,1597571411.921875
-15.84,1597571411.9375
-5.67,1597571411.953125
2.52,1597571411.96875
8.64,1597571411.984375
12.93,1597571412.0
15.76,1597571412.015625
17.51,1597571412.03125
18.6,1597571412.046875
19.42,1597571412.0625
20.37,1597571412.078125
21.7,1597571412.09375
23.48,1597571412.109375
25.6,1597571412.125
27.79,1597571412.140625
29.74,1597571412.15625
31.24,1597571412.171875
32.2,1597571412.1875
32.71,1597571412.203125
32.95,1597571412.21875
33.13,1597571412.234375
33.37,1597571412.25
33.68,1597571412.265625
33.94,1597571412.28125
33.91,1597571412.296875
33.32,1597571412.3125
32.08,1597571412.328125
30.23,1597571412.34375
28.01,1597571412.359375
25.75,1597571412.375
23.72,1597571412.390625
22.1,1597571412.40625
20.84,1597571412.421875
19.76,1597571412.4375
18.64,1597571412.453125
17.29,1597571412.46875
15.56,1597571412.484375
13.46,1597571412.5
11.13,1597571412.515625
8.74,1597571412.53125
6.47,1597571412.546875
4.41,1597571412.5625
2.55,1597571412.578125
0.72,1597571412.59375
-1.28,1597571412.609375
-3.62,1597571412.625
-6.29,1597571412.640625
-9.18,1597571412.65625
-12.07,1597571412.671875
-14.74,1597571412.6875
-17.07,1597571412.703125
-19.02,1597571412.71875
-20.66,1597571412.734375
-22.15,1597571412.75
-23.73,1597571412.765625
-25.68,1597571412.78125
-28.34,1597571412.796875
-31.98,1597571412.8125
-36.6,1597571412.828125
-41.8,1597571412.84375
-46.67,1597571412.859375
-49.98,1597571412.875
-50.51,1597571412.890625
-47.46,1597571412.90625
-40.78,1597571412.921875
-31.27,1597571412.9375
-20.28,1597571412.953125
-9.28,1597571412.96875
0.58,1597571412.984375
8.63,1597571413.0
14.72,1597571413.015625
19.02,1597571413.03125
21.79,1597571413.046875
23.24,1597571413.0625
23.6,1597571413.078125
23.13,1597571413.09375
22.16,1597571413.109375
21.12,1597571413.125
20.39,1597571413.140625
20.19,1597571413.15625
20.59,1597571413.171875
21.42,1597571413.1875
22.47,1597571413.203125
23.56,1597571413.21875
24.61,1597571413.234375
25.63,1597571413.25
26.64,1597571413.265625
27.62,1597571413.28125
28.47,1597571413.296875
28.99,1597571413.3125
29.04,1597571413.328125
28.6,1597571413.34375
27.72,1597571413.359375
26.54,1597571413.375
25.17,1597571413.390625
23.65,1597571413.40625
22.0,1597571413.421875
20.28,1597571413.4375
18.61,1597571413.453125
17.12,1597571413.46875
15.9,1597571413.484375
14.94,1597571413.5
14.08,1597571413.515625
13.1,1597571413.53125
11.79,1597571413.546875
10.05,1597571413.5625
7.85,1597571413.578125
5.29,1597571413.59375
2.44,1597571413.609375
-0.57,1597571413.625
-3.59,1597571413.640625
-6.51,1597571413.65625
-9.21,1597571413.671875
-11.71,1597571413.6875
-14.14,1597571413.703125
-16.83,1597571413.71875
-20.19,1597571413.734375
-24.57,1597571413.75
-30.06,1597571413.765625
-36.35,1597571413.78125
-42.68,1597571413.796875
-48.0,1597571413.8125
-51.17,1597571413.828125
-51.33,1597571413.84375
-48.14,1597571413.859375
-41.93,1597571413.875
-33.57,1597571413.890625
-24.19,1597571413.90625
-14.91,1597571413.921875
-6.53,1597571413.9375
0.6,1597571413.953125
6.45,1597571413.96875
11.19,1597571413.984375
15.0,1597571414.0
18.05,1597571414.015625
20.43,1597571414.03125
22.3,1597571414.046875
23.82,1597571414.0625
25.19,1597571414.078125
26.47,1597571414.09375
27.6,1597571414.109375
28.46,1597571414.125
28.93,1597571414.140625
29.03,1597571414.15625
28.87,1597571414.171875
28.64,1597571414.1875
28.45,1597571414.203125
28.28,1597571414.21875
28.0,1597571414.234375
27.44,1597571414.25
26.48,1597571414.265625
