PPG GREEN,time
2137290.0,1597571336.827
2137770.0,1597571336.912
2138045.0,1597571336.952
2138482.0,1597571336.991
2138932.0,1597571337.032
2139364.0,1597571337.072
2139928.0,1597571337.112
2140335.0,1597571337.154
2140997.0,1597571337.192
2141499.0,1597571337.232
2141780.0,1597571337.273
2142416.0,1597571337.312
2142719.0,1597571337.353
2143304.0,1597571337.393
2143626.0,1597571337.432
2144098.0,1597571337.472
2144662.0,1597571337.514
2144823.0,1597571337.554
2145420.0,1597571337.593
2145663.0,1597571337.634
2145448.0,1597571337.673
2144854.0,1597571337.713
2144085.0,1597571337.755
2144374.0,1597571337.793
2144490.0,1597571337.833
2144789.0,1597571337.874
2145155.0,1597571337.913
2145824.0,1597571337.955
2145885.0,1597571337.995
2146329.0,1597571338.034
2146879.0,1597571338.074
2147044.0,1597571338.115
2147703.0,1597571338.155
2147987.0,1597571338.194
2148417.0,1597571338.235
2148683.0,1597571338.274
2149369.0,1597571338.314
2149806.0,1597571338.356
2149883.0,1597571338.395
2150464.0,1597571338.435
2150787.0,1597571338.476
2151004.0,1597571338.515
2151427.0,1597571338.556
2151804.0,1597571338.596
2151730.0,1597571338.635
2151326.0,1597571338.675
2150606.0,1597571338.716
2149794.0,1597571338.756
2149738.0,1597571338.796
2149586.0,1597571338.837
2149814.0,1597571338.876
2149945.0,1597571338.916
2150560.0,1597571338.958
2150572.0,1597571338.996
2150783.0,1597571339.036
2150947.0,1597571339.077
2151363.0,1597571339.116
2151764.0,1597571339.157
2152330.0,1597571339.198
2152674.0,1597571339.237
2153217.0,1597571339.277
2153703.0,1597571339.318
2154079.0,1597571339.358
2154579.0,1597571339.397
2154785.0,1597571339.438
2155389.0,1597571339.477
2156737.0,1597571339.598
2156032.0,1597571339.56
2155648.0,1597571339.517
2155474.0,1597571339.679
2154207.0,1597571339.759
2156623.0,1597571339.638
2154794.0,1597571339.718
2154330.0,1597571339.838
2154546.0,1597571339.878
2154420.0,1597571339.799
2154843.0,1597571339.919
2155098.0,1597571339.96
2155769.0,1597571340.04
2155670.0,1597571339.999
2156713.0,1597571340.119
2156242.0,1597571340.079
2157157.0,1597571340.161
2157651.0,1597571340.199
2158007.0,1597571340.239
2158970.0,1597571340.319
2158769.0,1597571340.28
2159410.0,1597571340.361
2160013.0,1597571340.401
2160527.0,1597571340.44
2160926.0,1597571340.48
2161468.0,1597571340.521
2161738.0,1597571340.561
2161986.0,1597571340.6
2162804.0,1597571340.641
2163022.0,1597571340.68
2163260.0,1597571340.721
2163066.0,1597571340.763
2161638.0,1597571340.801
2160563.0,1597571340.841
2160221.0,1597571340.882
2159733.0,1597571340.962
2159834.0,1597571340.921
2159877.0,1597571341.002
2160225.0,1597571341.042
2160375.0,1597571341.082
2160942.0,1597571341.123
2161198.0,1597571341.163
2161538.0,1597571341.202
2162395.0,1597571341.243
2162638.0,1597571341.282
2162911.0,1597571341.322
2163468.0,1597571341.364
2163674.0,1597571341.403
2164025.0,1597571341.443
2164240.0,1597571341.484
2164565.0,1597571341.523
2164920.0,1597571341.564
2165453.0,1597571341.604
2165672.0,1597571341.643
2166163.0,1597571341.684
2166491.0,1597571341.725
2166879.0,1597571341.765
2167183.0,1597571341.804
2167720.0,1597571341.845
2167996.0,1597571341.884
2167875.0,1597571341.924
2166577.0,1597571341.967
2165178.0,1597571342.005
2164165.0,1597571342.045
2163759.0,1597571342.086
2163339.0,1597571342.125
2163302.0,1597571342.166
2163763.0,1597571342.206
2163532.0,1597571342.246
2163808.0,1597571342.286
2164152.0,1597571342.327
2164354.0,1597571342.367
2164828.0,1597571342.406
2165244.0,1597571342.447
2165839.0,1597571342.486
2166283.0,1597571342.526
2166436.0,1597571342.569
2167036.0,1597571342.607
2167133.0,1597571342.647
2167718.0,1597571342.688
2168157.0,1597571342.727
2168603.0,1597571342.768
2169216.0,1597571342.808
2169711.0,1597571342.847
2170104.0,1597571342.887
2170554.0,1597571342.928
2171136.0,1597571342.968
2171164.0,1597571343.007
2169942.0,1597571343.048
2168327.0,1597571343.088
2167366.0,1597571343.128
2166670.0,1597571343.169
2166113.0,1597571343.208
2165988.0,1597571343.248
2166145.0,1597571343.289
2166307.0,1597571343.328
2166449.0,1597571343.369
2166571.0,1597571343.409
2166886.0,1597571343.448
2167103.0,1597571343.488
2167857.0,1597571343.529
2168326.0,1597571343.569
2169155.0,1597571343.609
2169316.0,1597571343.65
2169946.0,1597571343.689
2170364.0,1597571343.729
2170722.0,1597571343.771
2171551.0,1597571343.81
2171924.0,1597571343.85
2172392.0,1597571343.891
2172999.0,1597571343.93
2173658.0,1597571343.971
2173938.0,1597571344.012
2174390.0,1597571344.051
2174995.0,1597571344.091
2175415.0,1597571344.13
2175997.0,1597571344.17
2174859.0,1597571344.21
2173545.0,1597571344.251
2172006.0,1597571344.29
2171232.0,1597571344.331
2170686.0,1597571344.373
2170469.0,1597571344.411
2170035.0,1597571344.451
2170224.0,1597571344.493
2170420.0,1597571344.53
2170547.0,1597571344.571
2170670.0,1597571344.611
2171550.0,1597571344.65
2171842.0,1597571344.691
2172647.0,1597571344.732
2173124.0,1597571344.772
2173463.0,1597571344.811
2174045.0,1597571344.852
2174452.0,1597571344.891
2175181.0,1597571344.931
2175940.0,1597571344.973
2176254.0,1597571345.011
2176702.0,1597571345.052
2177492.0,1597571345.093
2177912.0,1597571345.13
2178163.0,1597571345.171
2178761.0,1597571345.211
2179242.0,1597571345.251
2179828.0,1597571345.291
2180287.0,1597571345.329
2180700.0,1597571345.37
2179835.0,1597571345.41
2178519.0,1597571345.451
2176887.0,1597571345.49
2176121.0,1597571345.53
2176044.0,1597571345.572
2175827.0,1597571345.611
2176052.0,1597571345.651
2176163.0,1597571345.692
2176170.0,1597571345.731
2176342.0,1597571345.772
2176394.0,1597571345.813
2176496.0,1597571345.852
2177272.0,1597571345.892
2177641.0,1597571345.931
2178075.0,1597571345.971
2178707.0,1597571346.011
2179240.0,1597571346.052
2179538.0,1597571346.091
2180142.0,1597571346.132
2180945.0,1597571346.173
2181086.0,1597571346.212
2181752.0,1597571346.252
2182320.0,1597571346.293
2182832.0,1597571346.331
2183197.0,1597571346.372
2183957.0,1597571346.412
2184342.0,1597571346.451
2183866.0,1597571346.492
2182619.0,1597571346.533
2181397.0,1597571346.573
2180518.0,1597571346.612
2180375.0,1597571346.653
2180173.0,1597571346.692
2180539.0,1597571346.732
2180858.0,1597571346.774
2181034.0,1597571346.812
2181027.0,1597571346.853
2181464.0,1597571346.894
2182014.0,1597571346.931
2182410.0,1597571346.972
2183156.0,1597571347.012
2183729.0,1597571347.051
2184523.0,1597571347.092
2184989.0,1597571347.133
2185401.0,1597571347.173
2186256.0,1597571347.212
2186443.0,1597571347.254
2187175.0,1597571347.293
2187508.0,1597571347.331
2188045.0,1597571347.373
2188586.0,1597571347.411
2188942.0,1597571347.452
2189261.0,1597571347.493
2189815.0,1597571347.532
2189581.0,1597571347.573
2188577.0,1597571347.614
2187188.0,1597571347.653
2186284.0,1597571347.693
2185887.0,1597571347.732
2186041.0,1597571347.772
2185935.0,1597571347.812
2186143.0,1597571347.853
2186403.0,1597571347.891
2186437.0,1597571347.932
2186519.0,1597571347.974
2186843.0,1597571348.013
2186997.0,1597571348.053
2187321.0,1597571348.094
2187642.0,1597571348.133
2187977.0,1597571348.172
2188466.0,1597571348.213
2188741.0,1597571348.252
2189625.0,1597571348.292
2190091.0,1597571348.334
2190806.0,1597571348.374
2191362.0,1597571348.413
2192524.0,1597571348.454
2193656.0,1597571348.493
2194840.0,1597571348.534
2195617.0,1597571348.574
2196137.0,1597571348.612
2196127.0,1597571348.652
2194737.0,1597571348.693
2194035.0,1597571348.733
2193514.0,1597571348.774
2193439.0,1597571348.814
2193581.0,1597571348.853
2193594.0,1597571348.894
2193475.0,1597571348.925
2193817.0,1597571348.965
2194064.0,1597571349.004
2194378.0,1597571349.045
2194860.0,1597571349.084
2195172.0,1597571349.125
2195596.0,1597571349.166
2196150.0,1597571349.205
2196584.0,1597571349.245
2196877.0,1597571349.286
2197606.0,1597571349.325
2197718.0,1597571349.366
2198069.0,1597571349.406
2198566.0,1597571349.445
2198864.0,1597571349.485
2199160.0,1597571349.526
2199508.0,1597571349.566
2199748.0,1597571349.607
2199705.0,1597571349.648
2198821.0,1597571349.687
2197672.0,1597571349.727
2196785.0,1597571349.769
2196453.0,1597571349.808
2196677.0,1597571349.848
2196746.0,1597571349.889
2197062.0,1597571349.928
2197029.0,1597571349.969
2197322.0,1597571350.01
2197671.0,1597571350.049
2197941.0,1597571350.089
2198479.0,1597571350.13
2198883.0,1597571350.168
2199488.0,1597571350.208
2199840.0,1597571350.249
2200386.0,1597571350.288
2200648.0,1597571350.329
2200911.0,1597571350.371
2201525.0,1597571350.408
2201991.0,1597571350.446
2202567.0,1597571350.488
2202933.0,1597571350.527
2203208.0,1597571350.568
2203237.0,1597571350.609
2201398.0,1597571350.648
2200143.0,1597571350.688
2198771.0,1597571350.729
2198002.0,1597571350.769
2197452.0,1597571350.809
2196978.0,1597571350.85
2197016.0,1597571350.888
2197335.0,1597571350.929
2197278.0,1597571350.971
2197476.0,1597571351.009
2197870.0,1597571351.049
2198184.0,1597571351.09
2198851.0,1597571351.13
2199265.0,1597571351.171
2199726.0,1597571351.209
2200375.0,1597571351.248
2201017.0,1597571351.289
2201673.0,1597571351.33
2201966.0,1597571351.37
2202778.0,1597571351.409
2202952.0,1597571351.451
2203634.0,1597571351.49
2203763.0,1597571351.53
2204497.0,1597571351.572
2203600.0,1597571351.649
2201969.0,1597571351.69
2201246.0,1597571351.729
2204577.0,1597571351.608
2200584.0,1597571351.77
2200338.0,1597571351.81
2200233.0,1597571351.85
2200206.0,1597571351.89
2200683.0,1597571351.971
2200909.0,1597571352.009
2200651.0,1597571351.931
2200995.0,1597571352.05
2201546.0,1597571352.089
2202220.0,1597571352.129
2202552.0,1597571352.171
2202828.0,1597571352.21
2203360.0,1597571352.25
2203685.0,1597571352.291
2204093.0,1597571352.33
2204268.0,1597571352.371
2204746.0,1597571352.41
2205714.0,1597571352.489
2206130.0,1597571352.53
2206221.0,1597571352.57
2206870.0,1597571352.61
2205411.0,1597571352.449
2207272.0,1597571352.651
2205384.0,1597571352.73
2207033.0,1597571352.689
2204218.0,1597571352.772
2203478.0,1597571352.81
2203017.0,1597571352.85
2203171.0,1597571352.931
2203385.0,1597571352.972
2203208.0,1597571353.009
2202922.0,1597571352.892
2203548.0,1597571353.049
2203655.0,1597571353.089
2203912.0,1597571353.13
2204564.0,1597571353.17
2205059.0,1597571353.21
2205674.0,1597571353.251
2206186.0,1597571353.29
2206499.0,1597571353.33
2207129.0,1597571353.372
2208300.0,1597571353.451
2209642.0,1597571353.57
2208403.0,1597571353.492
2209082.0,1597571353.529
2207630.0,1597571353.411
2209782.0,1597571353.611
2210258.0,1597571353.65
2210770.0,1597571353.69
2210908.0,1597571353.731
2211083.0,1597571353.771
2210203.0,1597571353.811
2208438.0,1597571353.852
2207070.0,1597571353.891
2206403.0,1597571353.93
2205792.0,1597571353.972
2205162.0,1597571354.01
2205226.0,1597571354.05
2205462.0,1597571354.091
2206334.0,1597571354.212
2206855.0,1597571354.251
2207596.0,1597571354.292
2207906.0,1597571354.331
2208726.0,1597571354.371
2205735.0,1597571354.131
2209274.0,1597571354.41
2210075.0,1597571354.451
2211644.0,1597571354.491
2212838.0,1597571354.531
2205979.0,1597571354.172
2213121.0,1597571354.573
2214193.0,1597571354.693
2213912.0,1597571354.652
2214420.0,1597571354.73
2213747.0,1597571354.611
2214627.0,1597571354.771
2215191.0,1597571354.811
2215420.0,1597571354.851
2215541.0,1597571354.891
2215394.0,1597571354.932
2214212.0,1597571354.972
2212472.0,1597571355.012
2211185.0,1597571355.092
2210921.0,1597571355.13
2211154.0,1597571355.172
2211753.0,1597571355.053
2211069.0,1597571355.211
2211296.0,1597571355.251
2211180.0,1597571355.331
2211411.0,1597571355.372
2211614.0,1597571355.413
2211167.0,1597571355.292
2212139.0,1597571355.452
2212420.0,1597571355.492
2212956.0,1597571355.535
2213231.0,1597571355.575
2213347.0,1597571355.615
2214207.0,1597571355.689
2215250.0,1597571355.772
2215662.0,1597571355.81
2214449.0,1597571355.73
2213919.0,1597571355.653
2215779.0,1597571355.851
2216045.0,1597571355.892
2216368.0,1597571355.931
2215390.0,1597571355.972
2213989.0,1597571356.012
2212722.0,1597571356.052
2212433.0,1597571356.133
2212500.0,1597571356.173
2212578.0,1597571356.213
2212736.0,1597571356.092
2212665.0,1597571356.252
2213330.0,1597571356.291
2212978.0,1597571356.331
2213483.0,1597571356.373
2213765.0,1597571356.412
2214210.0,1597571356.452
2214981.0,1597571356.493
2215251.0,1597571356.532
2215946.0,1597571356.573
2216256.0,1597571356.614
2216535.0,1597571356.651
2217399.0,1597571356.732
2217968.0,1597571356.772
2217972.0,1597571356.812
2218586.0,1597571356.853
2218881.0,1597571356.892
2219298.0,1597571356.933
2216846.0,1597571357.013
2218532.0,1597571356.975
2216935.0,1597571356.691
2215524.0,1597571357.051
2213857.0,1597571357.173
2213826.0,1597571357.252
2213988.0,1597571357.334
2214504.0,1597571357.374
2214368.0,1597571357.132
2213728.0,1597571357.213
2214810.0,1597571357.413
2213829.0,1597571357.293
2214587.0,1597571357.092
2215346.0,1597571357.452
2216077.0,1597571357.492
2216323.0,1597571357.532
2217056.0,1597571357.574
2217389.0,1597571357.612
2217909.0,1597571357.653
2218524.0,1597571357.694
2218542.0,1597571357.733
2219187.0,1597571357.774
2219595.0,1597571357.814
2219862.0,1597571357.851
2220337.0,1597571357.892
2221043.0,1597571357.933
2221616.0,1597571358.013
2221163.0,1597571357.973
2222127.0,1597571358.054
2222023.0,1597571358.093
2219519.0,1597571358.173
2220957.0,1597571358.13
2218704.0,1597571358.211
2218294.0,1597571358.252
2217868.0,1597571358.293
2218106.0,1597571358.332
2217931.0,1597571358.373
2218019.0,1597571358.413
2218068.0,1597571358.493
2218286.0,1597571358.453
2218289.0,1597571358.574
2218526.0,1597571358.614
2218850.0,1597571358.655
2219176.0,1597571358.692
2219762.0,1597571358.732
2220069.0,1597571358.774
2220528.0,1597571358.813
2221021.0,1597571358.853
2221375.0,1597571358.894
2221783.0,1597571358.933
2222068.0,1597571358.974
2222218.0,1597571359.015
2222822.0,1597571359.054
2223109.0,1597571359.092
2223381.0,1597571359.133
2218208.0,1597571358.534
2223480.0,1597571359.173
2224069.0,1597571359.213
2223493.0,1597571359.254
2222391.0,1597571359.293
2221112.0,1597571359.334
2220370.0,1597571359.376
2219980.0,1597571359.454
2219962.0,1597571359.414
2219925.0,1597571359.533
2219766.0,1597571359.493
2219831.0,1597571359.574
2220142.0,1597571359.614
2220073.0,1597571359.657
2220805.0,1597571359.735
2221557.0,1597571359.775
2220605.0,1597571359.694
2222077.0,1597571359.815
2222502.0,1597571359.854
2222904.0,1597571359.893
2223254.0,1597571359.933
2223688.0,1597571359.975
2224072.0,1597571360.013
2224532.0,1597571360.054
2225289.0,1597571360.134
2225011.0,1597571360.095
2225589.0,1597571360.175
2226489.0,1597571360.216
2226321.0,1597571360.253
2227032.0,1597571360.293
2226197.0,1597571360.374
2227080.0,1597571360.334
2225045.0,1597571360.414
2224084.0,1597571360.455
2223622.0,1597571360.535
2223705.0,1597571360.494
2223639.0,1597571360.576
2223815.0,1597571360.615
2224129.0,1597571360.655
2224346.0,1597571360.693
2224412.0,1597571360.733
2224498.0,1597571360.774
2224934.0,1597571360.814
2225416.0,1597571360.853
2225704.0,1597571360.894
2226006.0,1597571360.933
2226433.0,1597571360.972
2226404.0,1597571361.011
2227041.0,1597571361.05
2227352.0,1597571361.089
2227646.0,1597571361.128
2228265.0,1597571361.167
2228367.0,1597571361.206
2228817.0,1597571361.245
2229128.0,1597571361.284
2229244.0,1597571361.323
2229286.0,1597571361.401
2228166.0,1597571361.44
2229656.0,1597571361.362
2227615.0,1597571361.479
2227053.0,1597571361.518
2226831.0,1597571361.557
2227603.0,1597571361.674
2227729.0,1597571361.713
2227609.0,1597571361.752
2227825.0,1597571361.791
2227025.0,1597571361.596
2227945.0,1597571361.83
2228242.0,1597571361.869
2228612.0,1597571361.908
2227594.0,1597571361.635
2229091.0,1597571361.947
2229747.0,1597571361.986
2230084.0,1597571362.025
2230469.0,1597571362.064
2230962.0,1597571362.103
2231271.0,1597571362.142
2231918.0,1597571362.22
2231862.0,1597571362.259
2231525.0,1597571362.298
2230387.0,1597571362.337
2229069.0,1597571362.376
2228002.0,1597571362.415
2227431.0,1597571362.455
2226942.0,1597571362.495
2226729.0,1597571362.535
2226913.0,1597571362.575
2226793.0,1597571362.615
2226471.0,1597571362.655
2226653.0,1597571362.695
2226521.0,1597571362.735
2226878.0,1597571362.775
2231406.0,1597571362.181
2227348.0,1597571362.815
2227538.0,1597571362.855
2228266.0,1597571362.895
2228808.0,1597571362.935
2228979.0,1597571362.975
2229135.0,1597571363.015
2229541.0,1597571363.055
2229946.0,1597571363.095
2230278.0,1597571363.135
2230716.0,1597571363.175
2230939.0,1597571363.215
2230683.0,1597571363.255
2229361.0,1597571363.295
2227892.0,1597571363.335
2226950.0,1597571363.375
2226309.0,1597571363.415
2226213.0,1597571363.455
2226151.0,1597571363.575
2226169.0,1597571363.535
2226040.0,1597571363.495
2226346.0,1597571363.655
2226139.0,1597571363.615
2227168.0,1597571363.735
2227403.0,1597571363.775
2228138.0,1597571363.815
2226758.0,1597571363.695
2228458.0,1597571363.855
2228913.0,1597571363.895
2229455.0,1597571363.935
2229875.0,1597571363.975
2230234.0,1597571364.015
2230987.0,1597571364.095
2230717.0,1597571364.055
2232090.0,1597571364.175
2231539.0,1597571364.135
2232328.0,1597571364.215
2232903.0,1597571364.255
2232988.0,1597571364.295
2232498.0,1597571364.335
2231263.0,1597571364.375
2229902.0,1597571364.415
2229036.0,1597571364.455
2228577.0,1597571364.495
2228507.0,1597571364.535
2228476.0,1597571364.575
2228194.0,1597571364.615
2228223.0,1597571364.655
2228334.0,1597571364.695
2228354.0,1597571364.735
2228690.0,1597571364.775
2228751.0,1597571364.815
2229124.0,1597571364.855
2229710.0,1597571364.895
2230160.0,1597571364.935
2230459.0,1597571364.975
2230776.0,1597571365.015
2231016.0,1597571365.055
2231438.0,1597571365.095
2231868.0,1597571365.135
2232367.0,1597571365.175
2232508.0,1597571365.215
2233018.0,1597571365.255
2233751.0,1597571365.295
2233989.0,1597571365.335
2233125.0,1597571365.375
2231854.0,1597571365.415
2231048.0,1597571365.455
2230690.0,1597571365.535
2230345.0,1597571365.495
2230734.0,1597571365.575
2231098.0,1597571365.615
2231163.0,1597571365.695
2231406.0,1597571365.655
2231605.0,1597571365.735
2231918.0,1597571365.775
2232267.0,1597571365.815
2232694.0,1597571365.855
2232891.0,1597571365.895
2233395.0,1597571365.935
2233748.0,1597571365.975
2234045.0,1597571366.015
2234571.0,1597571366.055
2234453.0,1597571366.095
2234966.0,1597571366.135
2235361.0,1597571366.175
2235802.0,1597571366.255
2235319.0,1597571366.215
2236071.0,1597571366.295
2236499.0,1597571366.335
2236266.0,1597571366.375
2234477.0,1597571366.415
2233005.0,1597571366.455
2232061.0,1597571366.495
2231555.0,1597571366.535
2231437.0,1597571366.575
2231388.0,1597571366.615
2231652.0,1597571366.655
2231643.0,1597571366.695
2231429.0,1597571366.735
2231580.0,1597571366.775
2231951.0,1597571366.815
2232401.0,1597571366.855
2232847.0,1597571366.895
2233311.0,1597571366.935
2234020.0,1597571366.975
2234249.0,1597571367.015
2235057.0,1597571367.055
2235293.0,1597571367.095
2235737.0,1597571367.135
2236370.0,1597571367.175
2236901.0,1597571367.215
2237460.0,1597571367.255
2237333.0,1597571367.295
2235792.0,1597571367.335
2234321.0,1597571367.375
2232691.0,1597571367.415
2232481.0,1597571367.455
2231623.0,1597571367.495
2231685.0,1597571367.535
2231614.0,1597571367.575
2231957.0,1597571367.615
2231993.0,1597571367.655
2232091.0,1597571367.695
2232550.0,1597571367.735
2233016.0,1597571367.775
2234040.0,1597571367.815
2234405.0,1597571367.855
2234890.0,1597571367.895
2235556.0,1597571367.935
2235707.0,1597571367.975
2236623.0,1597571368.015
2237029.0,1597571368.055
2237594.0,1597571368.095
2238189.0,1597571368.135
2238695.0,1597571368.175
2239587.0,1597571368.215
2239899.0,1597571368.255
2240575.0,1597571368.295
2241011.0,1597571368.335
2241229.0,1597571368.375
2240064.0,1597571368.415
2238576.0,1597571368.455
2237318.0,1597571368.495
2236784.0,1597571368.535
2236564.0,1597571368.575
2236622.0,1597571368.615
2236539.0,1597571368.655
2236948.0,1597571368.695
2237061.0,1597571368.735
2237211.0,1597571368.775
2237335.0,1597571368.815
2237886.0,1597571368.855
2238789.0,1597571368.895
2238943.0,1597571368.935
2239422.0,1597571368.975
2239925.0,1597571369.015
2240637.0,1597571369.055
2241067.0,1597571369.095
2241352.0,1597571369.135
2242233.0,1597571369.175
2242429.0,1597571369.215
2242697.0,1597571369.255
2243281.0,1597571369.295
2244006.0,1597571369.335
2244001.0,1597571369.375
2244617.0,1597571369.415
2245143.0,1597571369.455
2245250.0,1597571369.495
2245649.0,1597571369.535
2245820.0,1597571369.575
2244931.0,1597571369.615
2243261.0,1597571369.655
2242126.0,1597571369.695
2241403.0,1597571369.735
2241241.0,1597571369.775
2240769.0,1597571369.815
2240984.0,1597571369.855
2241096.0,1597571369.895
2240984.0,1597571369.935
2240856.0,1597571369.975
2240944.0,1597571370.015
2241177.0,1597571370.055
2241141.0,1597571370.095
2241432.0,1597571370.135
2241948.0,1597571370.175
2242063.0,1597571370.215
2242277.0,1597571370.255
2242271.0,1597571370.295
2242453.0,1597571370.335
2242889.0,1597571370.375
2243184.0,1597571370.415
2243476.0,1597571370.455
2243794.0,1597571370.495
2244387.0,1597571370.535
2244458.0,1597571370.575
2244955.0,1597571370.615
2245390.0,1597571370.655
2245364.0,1597571370.695
2244178.0,1597571370.735
2243046.0,1597571370.775
2241931.0,1597571370.815
2241023.0,1597571370.855
2241101.0,1597571370.895
2241198.0,1597571370.935
2241639.0,1597571370.975
2241445.0,1597571371.015
2241655.0,1597571371.055
2241552.0,1597571371.095
2241547.0,1597571371.135
2242283.0,1597571371.175
2242631.0,1597571371.215
2243103.0,1597571371.255
2243310.0,1597571371.295
2243983.0,1597571371.335
2244090.0,1597571371.375
2244504.0,1597571371.415
2244715.0,1597571371.455
2244976.0,1597571371.495
2245535.0,1597571371.535
2245907.0,1597571371.575
2246293.0,1597571371.615
2246779.0,1597571371.655
2247070.0,1597571371.695
2245842.0,1597571371.735
2244145.0,1597571371.775
2242452.0,1597571371.815
2241470.0,1597571371.855
2240806.0,1597571371.895
2240268.0,1597571371.935
2240162.0,1597571371.975
2240229.0,1597571372.015
2240229.0,1597571372.055
2240647.0,1597571372.095
2240598.0,1597571372.135
2241215.0,1597571372.175
2241494.0,1597571372.215
2241826.0,1597571372.255
2242277.0,1597571372.295
2242815.0,1597571372.335
2242926.0,1597571372.375
2243720.0,1597571372.415
2243829.0,1597571372.455
2244216.0,1597571372.495
2244558.0,1597571372.535
2244816.0,1597571372.575
2245349.0,1597571372.615
2246095.0,1597571372.695
2245654.0,1597571372.655
2246974.0,1597571372.775
2246646.0,1597571372.735
2243872.0,1597571372.855
2242596.0,1597571372.948
2241900.0,1597571372.988
2241367.0,1597571373.028
2245684.0,1597571372.815
2240551.0,1597571373.148
2240796.0,1597571373.108
2240791.0,1597571373.069
2240420.0,1597571373.228
2240493.0,1597571373.309
2241202.0,1597571373.348
2240548.0,1597571373.19
2240431.0,1597571373.268
2241857.0,1597571373.429
2241691.0,1597571373.389
2242818.0,1597571373.509
2242298.0,1597571373.469
2243087.0,1597571373.55
2243605.0,1597571373.589
2244213.0,1597571373.629
2244503.0,1597571373.67
2244980.0,1597571373.709
2245095.0,1597571373.749
2245655.0,1597571373.791
2246102.0,1597571373.829
2246365.0,1597571373.869
2246309.0,1597571373.909
2244447.0,1597571373.948
2242555.0,1597571373.989
2241320.0,1597571374.03
2240146.0,1597571374.069
2239702.0,1597571374.107
2239608.0,1597571374.148
2239674.0,1597571374.188
2239945.0,1597571374.228
2239712.0,1597571374.269
2239611.0,1597571374.308
2239444.0,1597571374.349
2239504.0,1597571374.391
2239898.0,1597571374.429
2240211.0,1597571374.467
2240782.0,1597571374.508
2241612.0,1597571374.548
2241719.0,1597571374.589
2242401.0,1597571374.629
2242570.0,1597571374.668
2243006.0,1597571374.709
2243763.0,1597571374.75
2243822.0,1597571374.79
2244388.0,1597571374.827
2244652.0,1597571374.869
2245244.0,1597571374.908
2245058.0,1597571374.948
2243458.0,1597571374.99
2241066.0,1597571375.028
2239150.0,1597571375.069
2237951.0,1597571375.11
2237494.0,1597571375.149
2237733.0,1597571375.188
2237696.0,1597571375.229
2238318.0,1597571375.268
2238024.0,1597571375.308
2238296.0,1597571375.35
2238954.0,1597571375.429
2239958.0,1597571375.507
2239519.0,1597571375.47
2240579.0,1597571375.547
2241034.0,1597571375.589
2238600.0,1597571375.39
2241468.0,1597571375.628
2241926.0,1597571375.668
2242297.0,1597571375.709
2242633.0,1597571375.748
2243928.0,1597571375.83
2244056.0,1597571375.869
2244770.0,1597571375.909
2243405.0,1597571375.789
2244851.0,1597571375.951
2244030.0,1597571375.989
2242099.0,1597571376.027
2240297.0,1597571376.068
2238898.0,1597571376.107
2238331.0,1597571376.147
2237851.0,1597571376.19
2237891.0,1597571376.229
2238046.0,1597571376.269
2237877.0,1597571376.31
2238046.0,1597571376.349
2238122.0,1597571376.39
2238505.0,1597571376.431
2239147.0,1597571376.468
2239866.0,1597571376.508
2240552.0,1597571376.55
2241024.0,1597571376.59
2241644.0,1597571376.629
2241973.0,1597571376.67
2242615.0,1597571376.71
2243044.0,1597571376.75
2243658.0,1597571376.792
2244066.0,1597571376.828
2245057.0,1597571376.869
2245419.0,1597571376.91
2245879.0,1597571376.949
2244649.0,1597571376.99
2243053.0,1597571377.031
2241647.0,1597571377.07
2240429.0,1597571377.11
2240157.0,1597571377.151
2240671.0,1597571377.189
2240919.0,1597571377.229
2240912.0,1597571377.27
2240857.0,1597571377.309
2240974.0,1597571377.35
2241428.0,1597571377.392
2241723.0,1597571377.43
2241984.0,1597571377.47
2238884.0,1597571377.512
2212042.0,1597571377.549
2155470.0,1597571377.59
2115651.0,1597571377.63
2099708.0,1597571377.67
2092546.0,1597571377.71
2081812.0,1597571377.751
2072146.0,1597571377.791
2063026.0,1597571377.831
2052767.0,1597571377.872
2041110.0,1597571377.909
2026899.0,1597571377.949
1981492.0,1597571378.07
1970783.0,1597571378.111
1961875.0,1597571378.151
1956495.0,1597571378.191
1994946.0,1597571378.03
1953070.0,1597571378.232
1949238.0,1597571378.269
1940416.0,1597571378.31
1929690.0,1597571378.351
2010806.0,1597571377.991
1921156.0,1597571378.391
1917369.0,1597571378.43
1915326.0,1597571378.472
1919953.0,1597571378.592
1915698.0,1597571378.511
1924971.0,1597571378.631
1931851.0,1597571378.669
1917177.0,1597571378.551
1939092.0,1597571378.711
1947475.0,1597571378.75
1955428.0,1597571378.791
1962266.0,1597571378.831
1962754.0,1597571378.871
1962753.0,1597571378.911
1962821.0,1597571378.952
1968042.0,1597571379.03
1978513.0,1597571379.231
1965201.0,1597571378.99
1970801.0,1597571379.071
1975166.0,1597571379.151
1973015.0,1597571379.11
1984264.0,1597571379.35
1982326.0,1597571379.313
1986730.0,1597571379.391
1989314.0,1597571379.431
1976964.0,1597571379.193
1980402.0,1597571379.271
1991838.0,1597571379.47
1994339.0,1597571379.511
2005076.0,1597571379.677
1999673.0,1597571379.592
2007661.0,1597571379.71
2002247.0,1597571379.632
1997045.0,1597571379.552
2013559.0,1597571379.792
2010587.0,1597571379.75
2016029.0,1597571379.831
2019915.0,1597571379.912
2015252.0,1597571379.952
2018840.0,1597571379.871
2004920.0,1597571380.031
2008389.0,1597571379.993
2002092.0,1597571380.111
2001595.0,1597571380.192
2003297.0,1597571380.07
2001830.0,1597571380.152
2001484.0,1597571380.273
2001736.0,1597571380.312
2001504.0,1597571380.231
2002283.0,1597571380.35
2003299.0,1597571380.392
2005084.0,1597571380.431
2006682.0,1597571380.471
2008896.0,1597571380.512
2011029.0,1597571380.552
2013003.0,1597571380.593
2015261.0,1597571380.633
2017252.0,1597571380.67
2019827.0,1597571380.711
2024713.0,1597571380.792
2027046.0,1597571380.832
2029746.0,1597571380.873
2021983.0,1597571380.752
2032133.0,1597571380.912
2034373.0,1597571380.952
2036690.0,1597571380.994
2040842.0,1597571381.071
2038903.0,1597571381.031
2039839.0,1597571381.112
2029941.0,1597571381.191
2027815.0,1597571381.231
2034997.0,1597571381.15
2026301.0,1597571381.27
2025495.0,1597571381.312
2025440.0,1597571381.353
2025558.0,1597571381.393
2026120.0,1597571381.474
2026944.0,1597571381.511
2027764.0,1597571381.551
2025869.0,1597571381.433
2029685.0,1597571381.593
2031363.0,1597571381.632
2033538.0,1597571381.672
2035857.0,1597571381.713
2037926.0,1597571381.752
2040067.0,1597571381.793
2044334.0,1597571381.871
2046514.0,1597571381.911
2042024.0,1597571381.834
2053126.0,1597571382.032
2048819.0,1597571381.953
2051157.0,1597571381.993
2055391.0,1597571382.073
2057394.0,1597571382.112
2060945.0,1597571382.195
2059022.0,1597571382.153
2060791.0,1597571382.231
2058043.0,1597571382.271
2054478.0,1597571382.313
2052356.0,1597571382.352
2050494.0,1597571382.393
2048920.0,1597571382.433
2048122.0,1597571382.473
2047291.0,1597571382.513
2046483.0,1597571382.554
2045897.0,1597571382.673
2046578.0,1597571382.712
2047484.0,1597571382.752
2045771.0,1597571382.632
2045866.0,1597571382.592
2048587.0,1597571382.794
2050595.0,1597571382.833
2051990.0,1597571382.873
2053514.0,1597571382.914
2054924.0,1597571382.951
2060016.0,1597571383.072
2061921.0,1597571383.113
2064103.0,1597571383.154
2065877.0,1597571383.194
2067839.0,1597571383.233
2056543.0,1597571382.993
2069966.0,1597571383.274
2071166.0,1597571383.311
2058482.0,1597571383.033
2069689.0,1597571383.351
2066366.0,1597571383.393
2063085.0,1597571383.432
2059639.0,1597571383.513
2061254.0,1597571383.472
2058776.0,1597571383.634
2059383.0,1597571383.673
2059671.0,1597571383.712
2058895.0,1597571383.593
2058686.0,1597571383.552
2060646.0,1597571383.752
2062826.0,1597571383.832
2061346.0,1597571383.792
2066186.0,1597571383.911
2067792.0,1597571383.952
2064406.0,1597571383.873
2069728.0,1597571383.993
2072788.0,1597571384.072
2074483.0,1597571384.113
2076109.0,1597571384.153
2079229.0,1597571384.234
2080812.0,1597571384.273
2077878.0,1597571384.194
2071395.0,1597571384.032
2082253.0,1597571384.314
2083796.0,1597571384.355
2084961.0,1597571384.393
2086521.0,1597571384.433
2084900.0,1597571384.474
2082841.0,1597571384.513
2080707.0,1597571384.553
2078848.0,1597571384.595
2078141.0,1597571384.634
2077556.0,1597571384.674
2078048.0,1597571384.752
2077752.0,1597571384.715
2078029.0,1597571384.793
2078404.0,1597571384.834
2079072.0,1597571384.873
2079978.0,1597571384.914
2081093.0,1597571384.943
2082980.0,1597571384.982
2084682.0,1597571385.022
2085910.0,1597571385.063
2088889.0,1597571385.142
2090379.0,1597571385.184
2093005.0,1597571385.263
2087362.0,1597571385.102
2096103.0,1597571385.343
2094881.0,1597571385.304
2091707.0,1597571385.222
2097718.0,1597571385.383
2100492.0,1597571385.464
2099386.0,1597571385.425
2100048.0,1597571385.505
2097876.0,1597571385.546
2096272.0,1597571385.586
2094858.0,1597571385.626
2094567.0,1597571385.667
2094223.0,1597571385.705
2094852.0,1597571385.746
2095424.0,1597571385.788
2095899.0,1597571385.826
2097030.0,1597571385.908
2098054.0,1597571385.947
2096525.0,1597571385.866
2098961.0,1597571385.988
2100638.0,1597571386.028
2101839.0,1597571386.068
2103034.0,1597571386.108
2104110.0,1597571386.149
2105287.0,1597571386.187
2106885.0,1597571386.226
2108176.0,1597571386.267
2109416.0,1597571386.306
2112174.0,1597571386.387
2110644.0,1597571386.346
2113395.0,1597571386.427
2115904.0,1597571386.508
2114958.0,1597571386.467
2116643.0,1597571386.589
2117226.0,1597571386.547
2111303.0,1597571386.706
2112490.0,1597571386.668
2114625.0,1597571386.629
2110518.0,1597571386.748
2110601.0,1597571386.788
2110623.0,1597571386.827
2110933.0,1597571386.908
2111102.0,1597571386.948
2111794.0,1597571386.99
2110752.0,1597571386.868
2112485.0,1597571387.028
2113203.0,1597571387.067
2114915.0,1597571387.147
2115703.0,1597571387.188
2116312.0,1597571387.229
2113996.0,1597571387.108
2117454.0,1597571387.268
2118381.0,1597571387.308
2119245.0,1597571387.349
2120399.0,1597571387.389
2121408.0,1597571387.427
2123948.0,1597571387.507
2122765.0,1597571387.468
2125226.0,1597571387.548
2126317.0,1597571387.59
2127735.0,1597571387.628
2126012.0,1597571387.709
2128115.0,1597571387.668
2123666.0,1597571387.749
2122293.0,1597571387.788
2121489.0,1597571387.828
2121139.0,1597571387.867
2121538.0,1597571387.949
2121449.0,1597571387.908
2122298.0,1597571388.029
2122381.0,1597571388.07
2123173.0,1597571388.109
2123804.0,1597571388.147
2124822.0,1597571388.189
2125784.0,1597571388.228
2121758.0,1597571387.989
2127223.0,1597571388.268
2128153.0,1597571388.309
2129209.0,1597571388.349
2129976.0,1597571388.39
2131933.0,1597571388.469
2133055.0,1597571388.507
2130861.0,1597571388.43
2136087.0,1597571388.628
2134979.0,1597571388.589
2134062.0,1597571388.549
2137095.0,1597571388.669
2138879.0,1597571388.749
2138041.0,1597571388.791
2137863.0,1597571388.709
2136158.0,1597571388.828
2134354.0,1597571388.868
2133088.0,1597571388.909
2132588.0,1597571388.949
2131984.0,1597571388.988
2130752.0,1597571389.029
2111840.0,1597571389.068
2050030.0,1597571389.109
2020867.0,1597571389.15
2004684.0,1597571389.19
1992774.0,1597571389.229
1984124.0,1597571389.271
1978494.0,1597571389.31
1976235.0,1597571389.348
1974712.0,1597571389.39
1973494.0,1597571389.428
1971971.0,1597571389.469
1970411.0,1597571389.51
1968581.0,1597571389.549
1965269.0,1597571389.59
1960554.0,1597571389.631
1956193.0,1597571389.67
1952227.0,1597571389.708
1948388.0,1597571389.749
1935412.0,1597571389.87
1927066.0,1597571389.909
1919183.0,1597571389.95
1941903.0,1597571389.829
1945338.0,1597571389.789
1911779.0,1597571389.992
1905699.0,1597571390.03
1900608.0,1597571390.068
1891904.0,1597571390.149
1884307.0,1597571390.23
1879958.0,1597571390.31
1881922.0,1597571390.27
1887827.0,1597571390.19
1896203.0,1597571390.11
1878528.0,1597571390.351
1877785.0,1597571390.389
1877164.0,1597571390.429
1876696.0,1597571390.47
1876322.0,1597571390.509
1877769.0,1597571390.592
1876644.0,1597571390.55
1883273.0,1597571390.71
1879589.0,1597571390.63
1886305.0,1597571390.79
1884569.0,1597571390.749
1881609.0,1597571390.675
1885836.0,1597571390.83
1879660.0,1597571390.87
1874801.0,1597571390.91
1872110.0,1597571390.951
1869711.0,1597571390.991
1865375.0,1597571391.07
1860987.0,1597571391.15
1858821.0,1597571391.192
1853150.0,1597571391.312
1856477.0,1597571391.23
1852605.0,1597571391.349
1852651.0,1597571391.389
1852705.0,1597571391.429
1854554.0,1597571391.509
1867282.0,1597571391.029
1855090.0,1597571391.551
1863273.0,1597571391.109
1854608.0,1597571391.27
1853734.0,1597571391.468
1855614.0,1597571391.59
1855870.0,1597571391.63
1855464.0,1597571391.671
1856427.0,1597571391.751
1857015.0,1597571391.793
1856763.0,1597571391.869
1855994.0,1597571391.711
1851531.0,1597571391.911
1842545.0,1597571391.95
1817474.0,1597571392.111
1826391.0,1597571392.032
1803484.0,1597571392.19
1808472.0,1597571392.152
1802227.0,1597571392.23
1803088.0,1597571392.271
1804015.0,1597571392.31
1806561.0,1597571392.351
1807656.0,1597571392.393
1806050.0,1597571392.431
1804325.0,1597571392.471
1803082.0,1597571392.511
1833345.0,1597571391.991
1825232.0,1597571392.071
1857226.0,1597571391.829
1798711.0,1597571392.55
1795158.0,1597571392.591
1791776.0,1597571392.631
1789705.0,1597571392.671
1790423.0,1597571392.711
1796413.0,1597571392.792
1808991.0,1597571392.871
1791904.0,1597571392.752
1817994.0,1597571392.91
1841074.0,1597571393.031
1835746.0,1597571392.992
1846631.0,1597571393.071
1828135.0,1597571392.95
1802084.0,1597571392.832
1852911.0,1597571393.112
1867363.0,1597571393.193
1860667.0,1597571393.152
1873589.0,1597571393.231
1884829.0,1597571393.311
1896646.0,1597571393.431
1900368.0,1597571393.473
1904153.0,1597571393.512
1907661.0,1597571393.55
1911201.0,1597571393.592
1914089.0,1597571393.631
1917027.0,1597571393.675
1919839.0,1597571393.712
1922740.0,1597571393.752
1889636.0,1597571393.352
1893275.0,1597571393.392
1878986.0,1597571393.27
1928154.0,1597571393.833
1925500.0,1597571393.793
1935179.0,1597571393.951
1936528.0,1597571393.992
1930454.0,1597571393.87
1932802.0,1597571393.911
1935105.0,1597571394.031
1932353.0,1597571394.072
1931333.0,1597571394.112
1931462.0,1597571394.152
1930521.0,1597571394.194
1929637.0,1597571394.271
1929913.0,1597571394.232
1929135.0,1597571394.351
1929598.0,1597571394.392
1929332.0,1597571394.312
1929941.0,1597571394.433
1931274.0,1597571394.472
1935738.0,1597571394.591
1932522.0,1597571394.512
1934277.0,1597571394.554
1937801.0,1597571394.631
1942559.0,1597571394.752
1940965.0,1597571394.712
1939075.0,1597571394.672
1944555.0,1597571394.794
1945920.0,1597571394.832
1947555.0,1597571394.873
1949192.0,1597571394.914
1951011.0,1597571394.951
1941202.0,1597571395.112
1940022.0,1597571395.193
1942842.0,1597571395.072
1940767.0,1597571395.153
1951907.0,1597571394.992
1939858.0,1597571395.233
1946896.0,1597571395.032
1940069.0,1597571395.274
1939825.0,1597571395.311
1939194.0,1597571395.394
1939388.0,1597571395.352
1939802.0,1597571395.432
1940245.0,1597571395.472
1941614.0,1597571395.553
1940978.0,1597571395.514
1942588.0,1597571395.594
1943534.0,1597571395.632
1944334.0,1597571395.672
1945719.0,1597571395.712
1946846.0,1597571395.753
1949159.0,1597571395.833
1950530.0,1597571395.874
1951751.0,1597571395.913
1953104.0,1597571395.951
1947978.0,1597571395.793
1954290.0,1597571395.993
1955776.0,1597571396.032
1948260.0,1597571396.153
1945985.0,1597571396.194
1957287.0,1597571396.072
1952772.0,1597571396.114
1944851.0,1597571396.234
1943423.0,1597571396.273
1941893.0,1597571396.312
1941238.0,1597571396.353
1940027.0,1597571396.393
1939420.0,1597571396.432
1938507.0,1597571396.474
1938353.0,1597571396.514
1938650.0,1597571396.55
1939086.0,1597571396.592
1940327.0,1597571396.63
1940995.0,1597571396.67
1943263.0,1597571396.751
1944786.0,1597571396.792
1945883.0,1597571396.833
1947367.0,1597571396.872
1942217.0,1597571396.712
1948871.0,1597571396.912
1951957.0,1597571396.99
1952819.0,1597571397.029
1952701.0,1597571397.068
1951850.0,1597571397.107
1948826.0,1597571397.146
1941064.0,1597571397.185
1934981.0,1597571397.224
1927384.0,1597571397.263
1950419.0,1597571396.951
1919817.0,1597571397.302
1913352.0,1597571397.341
1908157.0,1597571397.38
1903827.0,1597571397.419
1899086.0,1597571397.458
1882728.0,1597571397.575
1876017.0,1597571397.614
1888220.0,1597571397.536
1894060.0,1597571397.497
1839549.0,1597571397.809
1836293.0,1597571397.848
1830416.0,1597571397.887
1820821.0,1597571397.926
1809795.0,1597571397.966
1798779.0,1597571398.006
1788140.0,1597571398.046
1777357.0,1597571398.086
1856668.0,1597571397.692
1843649.0,1597571397.77
1766938.0,1597571398.126
1848857.0,1597571397.731
1751395.0,1597571398.166
1730187.0,1597571398.206
1708057.0,1597571398.246
1687031.0,1597571398.286
1668862.0,1597571398.326
1652945.0,1597571398.366
1638717.0,1597571398.406
1612721.0,1597571398.486
1600230.0,1597571398.526
1587727.0,1597571398.566
1625317.0,1597571398.446
1577031.0,1597571398.606
1566697.0,1597571398.646
1577083.0,1597571399.086
1594230.0,1597571399.166
1602493.0,1597571399.206
1610009.0,1597571399.246
1585299.0,1597571399.126
1556927.0,1597571398.686
1551415.0,1597571398.726
1552095.0,1597571398.766
1551538.0,1597571398.886
1551555.0,1597571398.846
1555260.0,1597571398.926
1560084.0,1597571398.966
1565015.0,1597571399.006
1570311.0,1597571399.046
1866513.0,1597571397.653
1552895.0,1597571398.806
1617058.0,1597571399.286
1624321.0,1597571399.326
1632892.0,1597571399.366
1641859.0,1597571399.406
1650795.0,1597571399.446
1659296.0,1597571399.486
1667647.0,1597571399.526
1676146.0,1597571399.566
1682842.0,1597571399.606
1687585.0,1597571399.646
1691887.0,1597571399.686
1696398.0,1597571399.726
1701038.0,1597571399.766
1705617.0,1597571399.806
1710317.0,1597571399.846
1714969.0,1597571399.886
1719276.0,1597571399.926
1723628.0,1597571399.966
1727927.0,1597571400.006
1732191.0,1597571400.046
1741421.0,1597571400.126
1736478.0,1597571400.086
1746253.0,1597571400.166
1751092.0,1597571400.206
1755001.0,1597571400.246
1757732.0,1597571400.286
1759462.0,1597571400.326
1760883.0,1597571400.366
1762505.0,1597571400.406
1764876.0,1597571400.446
1767306.0,1597571400.486
1770172.0,1597571400.526
1772886.0,1597571400.566
1776449.0,1597571400.606
1779995.0,1597571400.646
1784563.0,1597571400.686
1790016.0,1597571400.726
1792562.0,1597571400.766
1794181.0,1597571400.806
1797221.0,1597571400.846
1800472.0,1597571400.886
1802559.0,1597571400.926
1804805.0,1597571400.966
1808189.0,1597571401.006
1811763.0,1597571401.046
1814870.0,1597571401.086
1818092.0,1597571401.126
1821554.0,1597571401.166
1825189.0,1597571401.206
1828113.0,1597571401.246
1828238.0,1597571401.286
1828103.0,1597571401.326
1831260.0,1597571401.446
1832254.0,1597571401.486
1829950.0,1597571401.406
1832698.0,1597571401.526
1832605.0,1597571401.566
1831555.0,1597571401.606
1830516.0,1597571401.646
1830779.0,1597571401.686
1833086.0,1597571401.726
1828304.0,1597571401.366
1835201.0,1597571401.766
1836649.0,1597571401.806
1838576.0,1597571401.846
1840629.0,1597571401.886
1842779.0,1597571401.926
1844733.0,1597571401.966
1847057.0,1597571402.006
1849068.0,1597571402.046
1852805.0,1597571402.126
1858342.0,1597571402.206
1854913.0,1597571402.166
1860791.0,1597571402.246
1863277.0,1597571402.286
1865434.0,1597571402.326
1850958.0,1597571402.086
1866166.0,1597571402.366
1866568.0,1597571402.446
1867452.0,1597571402.486
1865970.0,1597571402.406
1868576.0,1597571402.526
1870025.0,1597571402.566
1871553.0,1597571402.606
1872784.0,1597571402.646
1874354.0,1597571402.686
1876050.0,1597571402.726
1877868.0,1597571402.766
1879991.0,1597571402.806
1882499.0,1597571402.846
1884964.0,1597571402.886
1887470.0,1597571402.926
1892585.0,1597571403.006
1890280.0,1597571402.966
1895166.0,1597571403.046
1900693.0,1597571403.126
1906106.0,1597571403.206
1898070.0,1597571403.086
1903385.0,1597571403.166
1908994.0,1597571403.246
1910469.0,1597571403.286
1909284.0,1597571403.326
1907395.0,1597571403.366
1904426.0,1597571403.446
1905653.0,1597571403.406
1903900.0,1597571403.486
1903878.0,1597571403.566
1904114.0,1597571403.606
1903789.0,1597571403.526
1905109.0,1597571403.686
1904476.0,1597571403.646
1908587.0,1597571403.806
1910141.0,1597571403.846
1912048.0,1597571403.886
1907145.0,1597571403.766
1906030.0,1597571403.726
1915794.0,1597571403.966
1913739.0,1597571403.926
1917645.0,1597571404.006
1919586.0,1597571404.046
1921589.0,1597571404.086
1923793.0,1597571404.126
1925860.0,1597571404.166
1927967.0,1597571404.206
1929875.0,1597571404.246
1931772.0,1597571404.286
1933210.0,1597571404.326
1932527.0,1597571404.366
1929672.0,1597571404.406
1927007.0,1597571404.446
1924840.0,1597571404.486
1922822.0,1597571404.526
1921334.0,1597571404.566
1920233.0,1597571404.606
1919736.0,1597571404.646
1919068.0,1597571404.686
1918938.0,1597571404.726
1919219.0,1597571404.766
1919662.0,1597571404.806
1920208.0,1597571404.846
1920944.0,1597571404.886
1921782.0,1597571404.926
1923035.0,1597571404.966
1923984.0,1597571405.006
1925194.0,1597571405.046
1926714.0,1597571405.086
1928540.0,1597571405.126
1930562.0,1597571405.166
1932532.0,1597571405.206
1934299.0,1597571405.246
1936126.0,1597571405.286
1937990.0,1597571405.326
1939398.0,1597571405.366
1939291.0,1597571405.406
1937299.0,1597571405.446
1935129.0,1597571405.486
1933524.0,1597571405.526
1931999.0,1597571405.566
1930884.0,1597571405.606
1930255.0,1597571405.646
1929564.0,1597571405.686
1928963.0,1597571405.726
1928884.0,1597571405.766
1928970.0,1597571405.806
1928929.0,1597571405.846
1929966.0,1597571405.886
1930651.0,1597571405.926
1934499.0,1597571406.006
1937635.0,1597571406.046
1932089.0,1597571405.966
1940308.0,1597571406.086
1944962.0,1597571406.166
1942353.0,1597571406.126
1947200.0,1597571406.206
1947867.0,1597571406.246
1946185.0,1597571406.286
1943165.0,1597571406.326
1940695.0,1597571406.366
1939183.0,1597571406.406
1939301.0,1597571406.446
1941839.0,1597571406.526
1940660.0,1597571406.486
1942714.0,1597571406.606
1942586.0,1597571406.566
1943282.0,1597571406.646
1944475.0,1597571406.686
1945220.0,1597571406.726
1945965.0,1597571406.766
1946146.0,1597571406.806
1946790.0,1597571406.846
1947622.0,1597571406.886
1948788.0,1597571406.926
1952385.0,1597571407.006
1950166.0,1597571406.966
1954467.0,1597571407.046
1956859.0,1597571407.086
1959084.0,1597571407.126
1961471.0,1597571407.166
1963875.0,1597571407.206
1966327.0,1597571407.246
1968500.0,1597571407.286
1971194.0,1597571407.326
1973473.0,1597571407.366
1975940.0,1597571407.406
1978250.0,1597571407.446
1980530.0,1597571407.486
1982758.0,1597571407.526
1984590.0,1597571407.566
1984168.0,1597571407.606
1983558.0,1597571407.646
1984717.0,1597571407.686
1981097.0,1597571407.726
1973508.0,1597571407.766
1964819.0,1597571407.806
1954502.0,1597571407.846
1946026.0,1597571407.886
1937977.0,1597571407.926
1923135.0,1597571407.966
1913953.0,1597571408.006
1904938.0,1597571408.046
1898167.0,1597571408.086
1892891.0,1597571408.126
1888893.0,1597571408.166
1884150.0,1597571408.206
1880595.0,1597571408.246
1878113.0,1597571408.286
1875632.0,1597571408.326
1874262.0,1597571408.366
1873607.0,1597571408.406
1873288.0,1597571408.446
1873608.0,1597571408.486
1872409.0,1597571408.526
1869589.0,1597571408.566
1865089.0,1597571408.606
1860546.0,1597571408.646
1856437.0,1597571408.686
1853576.0,1597571408.726
1850745.0,1597571408.766
1848389.0,1597571408.806
1846039.0,1597571408.846
1844527.0,1597571408.886
1843160.0,1597571408.928
1841961.0,1597571408.968
1840782.0,1597571409.007
1839000.0,1597571409.049
1837204.0,1597571409.088
1835567.0,1597571409.128
1834533.0,1597571409.17
1834334.0,1597571409.208
1834875.0,1597571409.289
1834613.0,1597571409.248
1835653.0,1597571409.328
1836410.0,1597571409.369
1836983.0,1597571409.409
1837777.0,1597571409.448
1836925.0,1597571409.489
1834269.0,1597571409.53
1829987.0,1597571409.57
1825623.0,1597571409.609
1822054.0,1597571409.65
1818698.0,1597571409.689
1815685.0,1597571409.729
1815590.0,1597571410.45
1810379.0,1597571409.809
1805697.0,1597571409.929
1805515.0,1597571410.049
1804985.0,1597571410.09
1805116.0,1597571410.131
1805216.0,1597571410.171
1806358.0,1597571410.21
1807426.0,1597571410.251
1816287.0,1597571410.491
1808699.0,1597571410.29
1810377.0,1597571410.33
1811974.0,1597571410.372
1813041.0,1597571409.771
1807862.0,1597571409.849
1805904.0,1597571409.97
1805901.0,1597571410.01
1813850.0,1597571410.41
1806395.0,1597571409.89
1814866.0,1597571410.53
1811276.0,1597571410.572
1807842.0,1597571410.612
1804891.0,1597571410.651
1802682.0,1597571410.691
1800974.0,1597571410.732
1799672.0,1597571410.772
1796969.0,1597571410.852
1795688.0,1597571410.891
1798382.0,1597571410.811
1794972.0,1597571410.931
1794583.0,1597571410.974
1794892.0,1597571411.052
1794660.0,1597571411.012
1795636.0,1597571411.093
1796247.0,1597571411.132
1796686.0,1597571411.173
1797260.0,1597571411.213
1797945.0,1597571411.252
1798820.0,1597571411.292
1799711.0,1597571411.333
1800618.0,1597571411.373
1801228.0,1597571411.412
1802143.0,1597571411.454
1802637.0,1597571411.493
1802392.0,1597571411.533
1799663.0,1597571411.575
1795166.0,1597571411.613
1790794.0,1597571411.653
1784211.0,1597571411.733
1781954.0,1597571411.774
1779841.0,1597571411.814
1787231.0,1597571411.694
1775212.0,1597571411.893
1777379.0,1597571411.853
1773129.0,1597571411.935
1771216.0,1597571411.975
1769655.0,1597571412.014
1768532.0,1597571412.055
1767735.0,1597571412.094
1767101.0,1597571412.176
1767383.0,1597571412.134
1766702.0,1597571412.214
1766614.0,1597571412.254
1766902.0,1597571412.295
1766954.0,1597571412.334
1767390.0,1597571412.376
1767656.0,1597571412.416
1768195.0,1597571412.455
1768820.0,1597571412.495
1768583.0,1597571412.576
1765189.0,1597571412.615
1760154.0,1597571412.656
1769338.0,1597571412.536
1754703.0,1597571412.695
1750194.0,1597571412.735
1747378.0,1597571412.777
1745313.0,1597571412.815
1743872.0,1597571412.855
1742570.0,1597571412.897
1740573.0,1597571412.977
1740313.0,1597571413.017
1741515.0,1597571412.936
1740422.0,1597571413.056
1741275.0,1597571413.137
1744458.0,1597571413.216
1746167.0,1597571413.257
1747067.0,1597571413.297
1749169.0,1597571413.379
1748241.0,1597571413.337
1740675.0,1597571413.096
1742790.0,1597571413.177
1750029.0,1597571413.417
1750851.0,1597571413.457
1751259.0,1597571413.498
1749789.0,1597571413.537
1746311.0,1597571413.578
1741715.0,1597571413.618
1737874.0,1597571413.657
1730707.0,1597571413.739
1727758.0,1597571413.779
1734485.0,1597571413.698
1719470.0,1597571413.898
1725217.0,1597571413.818
1722231.0,1597571413.859
1717477.0,1597571413.938
1716101.0,1597571413.98
1714870.0,1597571414.058
1715397.0,1597571414.018
1714195.0,1597571414.139
1713947.0,1597571414.18
1714321.0,1597571414.1
1714027.0,1597571414.259
1713714.0,1597571414.22
1714144.0,1597571414.299
1713762.0,1597571414.38
1713876.0,1597571414.34
1714014.0,1597571414.419
1712692.0,1597571414.46
1708934.0,1597571414.499
1702358.0,1597571414.54
1695229.0,1597571414.582
1688392.0,1597571414.62
1681434.0,1597571414.66
1675490.0,1597571414.701
1670289.0,1597571414.74
1665219.0,1597571414.781
1660032.0,1597571414.821
1655904.0,1597571414.86
1652490.0,1597571414.9
1650103.0,1597571414.941
1648262.0,1597571414.981
1647871.0,1597571415.02
1647650.0,1597571415.062
1647254.0,1597571415.101
1646757.0,1597571415.183
1646721.0,1597571415.141
1646853.0,1597571415.221
1647105.0,1597571415.261
1647411.0,1597571415.302
1647874.0,1597571415.341
1648182.0,1597571415.382
1648347.0,1597571415.422
1648800.0,1597571415.461
1650312.0,1597571415.502
1652673.0,1597571415.543
1651539.0,1597571415.583
1649650.0,1597571415.622
1647446.0,1597571415.663
1646033.0,1597571415.742
1645883.0,1597571415.784
1647423.0,1597571415.822
1647511.0,1597571415.863
1647588.0,1597571415.904
1648595.0,1597571415.943
1648974.0,1597571415.984
1648906.0,1597571416.063
1649710.0,1597571416.024
1648273.0,1597571416.144
1648554.0,1597571416.103
1646497.0,1597571415.702
1646363.0,1597571416.223
1645516.0,1597571416.264
1647334.0,1597571416.184
1645089.0,1597571416.303
1645070.0,1597571416.344
1645654.0,1597571416.424
1645300.0,1597571416.386
1646303.0,1597571416.464
1647027.0,1597571416.505
1647328.0,1597571416.544
1645498.0,1597571416.585
1640277.0,1597571416.625
1630012.0,1597571416.665
1620920.0,1597571416.704
1613759.0,1597571416.746
1608673.0,1597571416.786
1604779.0,1597571416.825
1600941.0,1597571416.866
1596984.0,1597571416.905
1593411.0,1597571416.945
1591308.0,1597571416.987
1589847.0,1597571417.025
1589420.0,1597571417.065
1589370.0,1597571417.107
1589887.0,1597571417.146
1590905.0,1597571417.187
1592427.0,1597571417.227
1593881.0,1597571417.266
1596810.0,1597571417.347
1595075.0,1597571417.306
1598649.0,1597571417.387
1600765.0,1597571417.426
1604854.0,1597571417.507
1602645.0,1597571417.467
1609079.0,1597571417.589
1607467.0,1597571417.547
1605540.0,1597571417.627
1581563.0,1597571417.747
1575522.0,1597571417.788
1596976.0,1597571417.667
1588308.0,1597571417.708
1570312.0,1597571417.829
1566528.0,1597571417.868
1560114.0,1597571417.949
1563309.0,1597571417.908
1555353.0,1597571418.069
1555693.0,1597571418.108
1556547.0,1597571418.148
1555828.0,1597571418.028
1557681.0,1597571417.989
1557419.0,1597571418.191
1558959.0,1597571418.229
1560671.0,1597571418.269
1562719.0,1597571418.31
1564697.0,1597571418.349
1567104.0,1597571418.39
1569409.0,1597571418.43
1572033.0,1597571418.469
1574759.0,1597571418.509
1577757.0,1597571418.551
1580724.0,1597571418.591
1583587.0,1597571418.63
1586707.0,1597571418.671
1589437.0,1597571418.71
1587691.0,1597571418.75
1581171.0,1597571418.792
1572806.0,1597571418.83
1566632.0,1597571418.87
1561262.0,1597571418.912
1556787.0,1597571418.951
1553733.0,1597571418.992
1550944.0,1597571419.032
1548779.0,1597571419.071
1546568.0,1597571419.111
1545384.0,1597571419.152
1545210.0,1597571419.192
1546045.0,1597571419.231
1546778.0,1597571419.272
1547829.0,1597571419.312
1549609.0,1597571419.352
1551621.0,1597571419.394
1553799.0,1597571419.432
1555916.0,1597571419.472
1558170.0,1597571419.513
1560481.0,1597571419.552
1563003.0,1597571419.593
1565444.0,1597571419.634
1568195.0,1597571419.673
1571299.0,1597571419.713
1574535.0,1597571419.754
1577777.0,1597571419.794
1576633.0,1597571419.833
1571029.0,1597571419.874
1564550.0,1597571419.913
1559865.0,1597571419.953
1556817.0,1597571419.995
1554735.0,1597571420.034
1553482.0,1597571420.074
1553113.0,1597571420.115
1552673.0,1597571420.154
1552574.0,1597571420.195
1553330.0,1597571420.235
1554538.0,1597571420.274
1556257.0,1597571420.314
1558834.0,1597571420.355
1561783.0,1597571420.395
1565088.0,1597571420.434
1568673.0,1597571420.475
1572189.0,1597571420.514
1575895.0,1597571420.554
1579501.0,1597571420.597
1583211.0,1597571420.635
1587166.0,1597571420.675
1591412.0,1597571420.716
1596252.0,1597571420.755
1601167.0,1597571420.796
1606220.0,1597571420.836
1609221.0,1597571420.875
1608607.0,1597571420.915
1604950.0,1597571421.007
1601885.0,1597571421.047
1599898.0,1597571421.086
1598703.0,1597571421.128
1598537.0,1597571421.167
1598933.0,1597571421.207
1599358.0,1597571421.249
1599377.0,1597571421.287
1599568.0,1597571421.327
1600477.0,1597571421.368
1601459.0,1597571421.407
1603219.0,1597571421.448
1604895.0,1597571421.488
1606933.0,1597571421.527
1608862.0,1597571421.567
1611067.0,1597571421.609
1613174.0,1597571421.648
1615688.0,1597571421.688
1618394.0,1597571421.729
1621253.0,1597571421.768
1624615.0,1597571421.808
1626121.0,1597571421.85
1627216.0,1597571421.888
1626771.0,1597571421.928
1626127.0,1597571421.969
1625867.0,1597571422.008
1624602.0,1597571422.049
1625628.0,1597571422.09
1629266.0,1597571422.129
1632729.0,1597571422.169
1633482.0,1597571422.21
1631102.0,1597571422.25
1628677.0,1597571422.289
1627543.0,1597571422.33
1628880.0,1597571422.369
1631951.0,1597571422.409
1636723.0,1597571422.451
1642592.0,1597571422.489
1649011.0,1597571422.529
1655623.0,1597571422.571
1661851.0,1597571422.61
1667623.0,1597571422.65
1672676.0,1597571422.691
1677389.0,1597571422.73
1681723.0,1597571422.77
1680033.0,1597571422.811
1676011.0,1597571422.851
1673435.0,1597571422.89
1671662.0,1597571422.931
1670439.0,1597571422.97
1669664.0,1597571423.01
1670028.0,1597571423.052
1671742.0,1597571423.091
1674353.0,1597571423.131
1678426.0,1597571423.172
1683244.0,1597571423.211
1687922.0,1597571423.252
1692413.0,1597571423.292
1696405.0,1597571423.331
1700494.0,1597571423.371
1704562.0,1597571423.412
1708715.0,1597571423.452
1712761.0,1597571423.492
1716700.0,1597571423.533
1720511.0,1597571423.572
1723225.0,1597571423.612
1721927.0,1597571423.654
1721766.0,1597571423.692
1722534.0,1597571423.732
1722671.0,1597571423.773
1723424.0,1597571423.812
1723918.0,1597571423.853
1725457.0,1597571423.894
1726830.0,1597571423.933
1728890.0,1597571423.973
1731183.0,1597571424.014
1733455.0,1597571424.054
1736591.0,1597571424.093
1739757.0,1597571424.134
1741521.0,1597571424.173
1742849.0,1597571424.213
1744966.0,1597571424.255
1747130.0,1597571424.294
1749639.0,1597571424.335
1752738.0,1597571424.372
1755423.0,1597571424.409
1758733.0,1597571424.45
1761884.0,1597571424.49
1761151.0,1597571424.529
1756240.0,1597571424.57
1753374.0,1597571424.611
1749941.0,1597571424.651
1746940.0,1597571424.687
1744611.0,1597571424.729
1743631.0,1597571424.768
1743035.0,1597571424.809
1742484.0,1597571424.851
1742617.0,1597571424.889
1743124.0,1597571424.929
1743808.0,1597571424.971
1744954.0,1597571425.01
1746672.0,1597571425.051
1748268.0,1597571425.091
1748654.0,1597571425.131
1747761.0,1597571425.171
1746621.0,1597571425.21
1745713.0,1597571425.25
1745251.0,1597571425.29
1745906.0,1597571425.331
1746825.0,1597571425.37
1746302.0,1597571425.41
1745341.0,1597571425.452
1744744.0,1597571425.491
1744573.0,1597571425.531
1744386.0,1597571425.57
1738807.0,1597571425.61
1731952.0,1597571425.65
1723259.0,1597571425.691
1716463.0,1597571425.73
1711622.0,1597571425.77
1706807.0,1597571425.852
1708290.0,1597571425.812
1705887.0,1597571425.891
1704941.0,1597571425.93
1702842.0,1597571426.01
1703616.0,1597571425.97
1702401.0,1597571426.052
1702615.0,1597571426.09
1703791.0,1597571426.131
1708388.0,1597571426.252
1710254.0,1597571426.291
1712556.0,1597571426.33
1706868.0,1597571426.211
1715027.0,1597571426.37
1705339.0,1597571426.172
1717587.0,1597571426.411
1720422.0,1597571426.451
1723297.0,1597571426.491
1726135.0,1597571426.532
1729117.0,1597571426.571
1732026.0,1597571426.61
1731498.0,1597571426.652
1720370.0,1597571426.73
1712917.0,1597571426.772
1727344.0,1597571426.69
1706797.0,1597571426.811
1701190.0,1597571426.852
1696196.0,1597571426.893
1692727.0,1597571426.93
1690215.0,1597571426.97
1688350.0,1597571427.05
1689042.0,1597571427.09
1689920.0,1597571427.131
1688992.0,1597571427.011
1696491.0,1597571427.252
1694071.0,1597571427.21
1691894.0,1597571427.17
1702232.0,1597571427.33
1705031.0,1597571427.371
1699298.0,1597571427.29
1707866.0,1597571427.41
1709676.0,1597571427.452
1709237.0,1597571427.493
1707444.0,1597571427.532
1706958.0,1597571427.57
1707810.0,1597571427.611
1709230.0,1597571427.651
1710218.0,1597571427.691
1711264.0,1597571427.732
1709178.0,1597571427.771
1702742.0,1597571427.812
1675875.0,1597571427.93
1669712.0,1597571428.052
1669787.0,1597571428.093
1671967.0,1597571428.132
1675682.0,1597571428.172
1680893.0,1597571428.211
1681780.0,1597571427.89
1691054.0,1597571427.854
1670514.0,1597571428.011
1672463.0,1597571427.972
1687053.0,1597571428.251
1693155.0,1597571428.291
1706012.0,1597571428.372
1699786.0,1597571428.332
1712443.0,1597571428.412
1725530.0,1597571428.492
1718989.0,1597571428.454
1737355.0,1597571428.572
1731638.0,1597571428.531
1742781.0,1597571428.611
1748096.0,1597571428.652
1753280.0,1597571428.693
1758720.0,1597571428.732
1764043.0,1597571428.772
1768306.0,1597571428.813
1770742.0,1597571428.853
1772378.0,1597571428.891
1774073.0,1597571428.932
1776111.0,1597571428.971
1778379.0,1597571429.011
1784170.0,1597571429.092
1789924.0,1597571429.174
1792798.0,1597571429.211
1787199.0,1597571429.132
1781132.0,1597571429.053
1795628.0,1597571429.252
1799018.0,1597571429.292
1802469.0,1597571429.332
1806101.0,1597571429.372
1809453.0,1597571429.413
1813165.0,1597571429.453
1820183.0,1597571429.532
1823623.0,1597571429.571
1827026.0,1597571429.611
1830767.0,1597571429.653
1833379.0,1597571429.692
1833411.0,1597571429.732
1816769.0,1597571429.493
1831064.0,1597571429.774
1830084.0,1597571429.809
1830772.0,1597571429.851
1831037.0,1597571429.892
1833604.0,1597571430.012
1832466.0,1597571429.971
1831545.0,1597571429.931
1834710.0,1597571430.052
1837389.0,1597571430.133
1835986.0,1597571430.092
1843429.0,1597571430.255
1841260.0,1597571430.213
1839216.0,1597571430.172
1846038.0,1597571430.293
1848552.0,1597571430.333
1851154.0,1597571430.373
1853656.0,1597571430.412
1859325.0,1597571430.493
1856505.0,1597571430.453
1862007.0,1597571430.532
1867668.0,1597571430.614
1864945.0,1597571430.573
1865993.0,1597571430.691
1862762.0,1597571430.733
1869151.0,1597571430.654
1862256.0,1597571430.772
1862113.0,1597571430.812
1862043.0,1597571430.854
1862381.0,1597571430.893
1862681.0,1597571430.933
1863325.0,1597571430.974
1863921.0,1597571431.014
1864950.0,1597571431.052
1866012.0,1597571431.093
1867274.0,1597571431.132
1869119.0,1597571431.172
1871031.0,1597571431.214
1873317.0,1597571431.253
1875383.0,1597571431.293
1877771.0,1597571431.334
1880067.0,1597571431.373
1882380.0,1597571431.414
1884715.0,1597571431.454
1887313.0,1597571431.492
1890102.0,1597571431.532
1895021.0,1597571431.613
1897565.0,1597571431.654
1898903.0,1597571431.694
1895875.0,1597571431.733
1892305.0,1597571431.774
1891939.0,1597571431.815
1892531.0,1597571431.574
1892237.0,1597571431.853
1892480.0,1597571431.892
1892943.0,1597571431.933
1893906.0,1597571431.973
1894500.0,1597571432.013
1895456.0,1597571432.055
1896468.0,1597571432.093
1897858.0,1597571432.133
1899661.0,1597571432.175
1903589.0,1597571432.253
1905820.0,1597571432.293
1901470.0,1597571432.214
1908343.0,1597571432.332
1910603.0,1597571432.372
1912820.0,1597571432.414
1915270.0,1597571432.454
1917417.0,1597571432.493
1922000.0,1597571432.574
1924570.0,1597571432.614
1926490.0,1597571432.656
1927767.0,1597571432.732
1923473.0,1597571432.774
1919852.0,1597571432.534
1928839.0,1597571432.692
1922103.0,1597571432.894
1922486.0,1597571432.934
1921261.0,1597571432.813
1921759.0,1597571432.854
1923290.0,1597571432.974
1924077.0,1597571433.013
1925018.0,1597571433.052
1925759.0,1597571433.091
1926751.0,1597571433.13
1927957.0,1597571433.169
1929376.0,1597571433.208
1931238.0,1597571433.247
1932900.0,1597571433.286
1934689.0,1597571433.325
1936642.0,1597571433.364
1938598.0,1597571433.403
1940181.0,1597571433.442
1942040.0,1597571433.481
1943993.0,1597571433.52
1946057.0,1597571433.559
1948072.0,1597571433.598
1949760.0,1597571433.637
1951838.0,1597571433.676
1953679.0,1597571433.715
1954023.0,1597571433.754
1949126.0,1597571433.793
1945018.0,1597571433.832
1944861.0,1597571433.871
1945148.0,1597571433.91
1945398.0,1597571433.949
1945715.0,1597571433.988
1946708.0,1597571434.027
1947674.0,1597571434.066
1948394.0,1597571434.105
1949638.0,1597571434.144
1950937.0,1597571434.183
1953092.0,1597571434.222
1955384.0,1597571434.261
1957898.0,1597571434.3
1960484.0,1597571434.339
1963095.0,1597571434.378
1964914.0,1597571434.417
1967338.0,1597571434.456
1969316.0,1597571434.495
1971311.0,1597571434.534
1973680.0,1597571434.573
1975790.0,1597571434.612
1977758.0,1597571434.651
1979935.0,1597571434.69
1982206.0,1597571434.73
1983296.0,1597571434.77
1982620.0,1597571434.81
1980936.0,1597571434.85
1979980.0,1597571434.89
1979841.0,1597571434.93
1979986.0,1597571434.97
1980427.0,1597571435.01
1981304.0,1597571435.05
1981901.0,1597571435.09
1983016.0,1597571435.13
1983882.0,1597571435.17
1984995.0,1597571435.21
1987841.0,1597571435.29
1986437.0,1597571435.25
1989298.0,1597571435.33
1991249.0,1597571435.37
1993070.0,1597571435.41
1994595.0,1597571435.45
1996616.0,1597571435.49
1998478.0,1597571435.53
2003593.0,1597571435.65
2005651.0,1597571435.69
2006736.0,1597571435.73
2004422.0,1597571435.81
2005804.0,1597571435.77
2000145.0,1597571435.57
2002101.0,1597571435.61
2003581.0,1597571435.89
2004035.0,1597571435.85
2003443.0,1597571435.93
2004092.0,1597571435.97
2004672.0,1597571436.01
2005281.0,1597571436.05
2005869.0,1597571436.09
2006591.0,1597571436.13
2007564.0,1597571436.17
2008290.0,1597571436.21
2009560.0,1597571436.25
2010551.0,1597571436.29
2012026.0,1597571436.33
2013434.0,1597571436.37
2014946.0,1597571436.41
2016194.0,1597571436.45
2017715.0,1597571436.49
2019122.0,1597571436.53
2020768.0,1597571436.57
2022109.0,1597571436.61
2023740.0,1597571436.65
2025489.0,1597571436.69
2026228.0,1597571436.73
2024269.0,1597571436.77
2020760.0,1597571436.81
2018584.0,1597571436.85
2018015.0,1597571436.89
2017718.0,1597571436.93
2018014.0,1597571436.97
2018270.0,1597571437.01
2018728.0,1597571437.05
2019290.0,1597571437.09
2019936.0,1597571437.13
2020595.0,1597571437.17
2021604.0,1597571437.21
2022613.0,1597571437.25
2023822.0,1597571437.29
2025185.0,1597571437.33
2026457.0,1597571437.37
2027771.0,1597571437.41
2028818.0,1597571437.45
2030248.0,1597571437.49
2031398.0,1597571437.53
2032541.0,1597571437.57
2033696.0,1597571437.61
2035014.0,1597571437.65
2036221.0,1597571437.69
2037482.0,1597571437.73
2038700.0,1597571437.77
2037734.0,1597571437.81
2031248.0,1597571437.85
2027277.0,1597571437.89
2027011.0,1597571437.93
2027052.0,1597571437.97
2027024.0,1597571438.01
2027506.0,1597571438.05
2027957.0,1597571438.09
2028610.0,1597571438.13
2028847.0,1597571438.17
2029459.0,1597571438.21
2029775.0,1597571438.25
2030936.0,1597571438.29
2031990.0,1597571438.33
2032991.0,1597571438.37
2034720.0,1597571438.41
2036097.0,1597571438.45
2037720.0,1597571438.49
2039368.0,1597571438.53
2040751.0,1597571438.57
2042057.0,1597571438.61
2043968.0,1597571438.65
2045392.0,1597571438.69
2046834.0,1597571438.73
2048308.0,1597571438.77
2049501.0,1597571438.81
2050785.0,1597571438.85
2049620.0,1597571438.89
2044805.0,1597571438.93
2041239.0,1597571438.97
2040492.0,1597571439.01
2040366.0,1597571439.05
2040130.0,1597571439.09
2040420.0,1597571439.13
2040896.0,1597571439.17
2040992.0,1597571439.21
2041637.0,1597571439.25
2041956.0,1597571439.29
2042585.0,1597571439.33
2043684.0,1597571439.37
2044803.0,1597571439.41
2046048.0,1597571439.45
2047241.0,1597571439.49
2048687.0,1597571439.53
2050158.0,1597571439.57
2050976.0,1597571439.61
2052656.0,1597571439.65
2053497.0,1597571439.69
2054963.0,1597571439.73
2057373.0,1597571439.81
2055953.0,1597571439.77
2058844.0,1597571439.85
2058839.0,1597571439.89
2046067.0,1597571439.97
2053273.0,1597571439.93
2043915.0,1597571440.05
2044376.0,1597571440.01
2043715.0,1597571440.09
2043488.0,1597571440.13
2043803.0,1597571440.17
2044277.0,1597571440.25
2045243.0,1597571440.33
2044104.0,1597571440.21
2046106.0,1597571440.37
2044445.0,1597571440.29
2046729.0,1597571440.41
2048190.0,1597571440.45
2052337.0,1597571440.61
2051595.0,1597571440.57
2049163.0,1597571440.49
2050532.0,1597571440.53
2053668.0,1597571440.65
2054717.0,1597571440.69
2056127.0,1597571440.73
2057174.0,1597571440.77
2058023.0,1597571440.81
2059153.0,1597571440.85
2060245.0,1597571440.89
2061593.0,1597571440.93
2061983.0,1597571440.97
2056205.0,1597571441.01
2049508.0,1597571441.05
2047465.0,1597571441.09
2046674.0,1597571441.13
2046012.0,1597571441.17
2045947.0,1597571441.21
2046011.0,1597571441.25
2046295.0,1597571441.29
2046789.0,1597571441.33
2047473.0,1597571441.37
2048113.0,1597571441.41
2048557.0,1597571441.45
2049777.0,1597571441.49
2050941.0,1597571441.53
2053215.0,1597571441.61
2052082.0,1597571441.57
2054273.0,1597571441.65
2056883.0,1597571441.73
2055454.0,1597571441.69
2058177.0,1597571441.77
2059338.0,1597571441.81
2060674.0,1597571441.85
2061740.0,1597571441.89
2062997.0,1597571441.93
2064281.0,1597571441.97
2065482.0,1597571442.01
2066768.0,1597571442.05
2066797.0,1597571442.09
2061092.0,1597571442.13
2054751.0,1597571442.17
2053504.0,1597571442.21
2053016.0,1597571442.25
2052721.0,1597571442.29
2052570.0,1597571442.33
2052829.0,1597571442.37
2053408.0,1597571442.41
2053712.0,1597571442.45
2053810.0,1597571442.49
2054541.0,1597571442.53
2055437.0,1597571442.57
2056073.0,1597571442.61
2058481.0,1597571442.69
2057392.0,1597571442.65
2059478.0,1597571442.73
2060535.0,1597571442.77
2061395.0,1597571442.81
2062292.0,1597571442.85
2063403.0,1597571442.89
2064468.0,1597571442.93
2065559.0,1597571442.97
2066657.0,1597571443.01
2067806.0,1597571443.05
2068939.0,1597571443.09
2070053.0,1597571443.13
2070766.0,1597571443.17
2066209.0,1597571443.21
2059199.0,1597571443.25
2055844.0,1597571443.37
2056915.0,1597571443.29
2056361.0,1597571443.33
2055755.0,1597571443.41
2056186.0,1597571443.45
2056299.0,1597571443.49
2056416.0,1597571443.53
2055993.0,1597571443.57
2056420.0,1597571443.65
2056048.0,1597571443.61
2057726.0,1597571443.69
2058248.0,1597571443.73
2059580.0,1597571443.77
2060617.0,1597571443.81
2060909.0,1597571443.85
2061487.0,1597571443.89
2062593.0,1597571443.93
2063685.0,1597571443.97
2065417.0,1597571444.01
2068327.0,1597571444.09
2066596.0,1597571444.05
2069672.0,1597571444.13
2069566.0,1597571444.17
2062599.0,1597571444.21
2056791.0,1597571444.25
2054961.0,1597571444.29
2053922.0,1597571444.33
2053419.0,1597571444.37
2053405.0,1597571444.41
2053492.0,1597571444.49
2053779.0,1597571444.57
2054297.0,1597571444.61
2054971.0,1597571444.65
2055648.0,1597571444.69
2056994.0,1597571444.73
2053051.0,1597571444.45
2053443.0,1597571444.53
2057796.0,1597571444.77
2059206.0,1597571444.81
2060353.0,1597571444.85
2061571.0,1597571444.89
2062918.0,1597571444.93
2064113.0,1597571445.016
2065353.0,1597571445.056
2066860.0,1597571445.095
2068566.0,1597571445.136
2069448.0,1597571445.175
2070627.0,1597571445.215
2071782.0,1597571445.257
2067377.0,1597571445.296
2059376.0,1597571445.336
2056880.0,1597571445.377
2055349.0,1597571445.416
2054530.0,1597571445.458
2053912.0,1597571445.498
2052903.0,1597571445.537
2051818.0,1597571445.578
2050553.0,1597571445.619
2049950.0,1597571445.659
2049085.0,1597571445.698
2047938.0,1597571445.74
2047457.0,1597571445.779
2047539.0,1597571445.819
2048799.0,1597571445.898
2048982.0,1597571445.938
2048211.0,1597571445.861
2048512.0,1597571445.979
2048151.0,1597571446.019
2048611.0,1597571446.06
2050390.0,1597571446.139
2051336.0,1597571446.18
2052022.0,1597571446.221
2049271.0,1597571446.1
2053529.0,1597571446.259
2039327.0,1597571446.34
2032999.0,1597571446.379
2024757.0,1597571446.461
2049686.0,1597571446.298
2021902.0,1597571446.5
2019606.0,1597571446.54
2016969.0,1597571446.579
2028198.0,1597571446.419
2014183.0,1597571446.618
2011227.0,1597571446.704
2012159.0,1597571446.659
2010451.0,1597571446.78
2010453.0,1597571446.739
2011019.0,1597571446.821
2011471.0,1597571446.861
2011965.0,1597571446.898
2012945.0,1597571446.94
2013525.0,1597571446.979
2014458.0,1597571447.019
2015321.0,1597571447.061
2013295.0,1597571447.1
2003081.0,1597571447.14
1995025.0,1597571447.181
1991652.0,1597571447.22
1991735.0,1597571447.259
1991287.0,1597571447.3
1985118.0,1597571447.339
1977509.0,1597571447.421
1981066.0,1597571447.379
1973299.0,1597571447.461
1969197.0,1597571447.5
1965992.0,1597571447.541
1963583.0,1597571447.579
1961138.0,1597571447.619
1958980.0,1597571447.661
1956793.0,1597571447.739
1957694.0,1597571447.699
1956566.0,1597571447.82
1957326.0,1597571447.861
1956468.0,1597571447.781
1958399.0,1597571447.901
1960168.0,1597571447.941
1962257.0,1597571447.979
1963721.0,1597571448.02
1965778.0,1597571448.06
1967757.0,1597571448.1
1969990.0,1597571448.141
1972136.0,1597571448.18
1974482.0,1597571448.22
1975668.0,1597571448.301
1976897.0,1597571448.262
1967277.0,1597571448.339
1963165.0,1597571448.381
1959098.0,1597571448.42
1955775.0,1597571448.461
1952883.0,1597571448.501
1951104.0,1597571448.54
1949414.0,1597571448.622
1950036.0,1597571448.581
1948901.0,1597571448.662
1949528.0,1597571448.699
1949739.0,1597571448.74
1950281.0,1597571448.78
1950869.0,1597571448.82
1952199.0,1597571448.862
1953264.0,1597571448.9
1954754.0,1597571448.941
1956178.0,1597571448.982
1957249.0,1597571449.021
1957687.0,1597571449.06
1957680.0,1597571449.101
1957773.0,1597571449.14
1958571.0,1597571449.18
1960679.0,1597571449.222
1963882.0,1597571449.261
1966073.0,1597571449.301
1954701.0,1597571449.382
1959648.0,1597571449.342
1951994.0,1597571449.42
1949758.0,1597571449.462
1948767.0,1597571449.5
1948536.0,1597571449.54
1948645.0,1597571449.582
1948425.0,1597571449.621
1948428.0,1597571449.662
1948986.0,1597571449.702
1950050.0,1597571449.742
1951855.0,1597571449.78
1953492.0,1597571449.821
1954956.0,1597571449.861
1956776.0,1597571449.9
1958875.0,1597571449.942
1961070.0,1597571449.981
1963179.0,1597571450.021
1965301.0,1597571450.063
1967483.0,1597571450.102
1969710.0,1597571450.14
1971250.0,1597571450.181
1965812.0,1597571450.22
1959975.0,1597571450.264
1957899.0,1597571450.299
1955401.0,1597571450.34
1952903.0,1597571450.38
1950741.0,1597571450.421
1949427.0,1597571450.461
1945519.0,1597571450.501
1938990.0,1597571450.542
1932178.0,1597571450.581
1926317.0,1597571450.622
1922220.0,1597571450.664
1920873.0,1597571450.702
1921012.0,1597571450.74
1923995.0,1597571450.821
1922337.0,1597571450.782
1925624.0,1597571450.862
1927209.0,1597571450.902
1928796.0,1597571450.941
1929984.0,1597571450.982
1920586.0,1597571451.023
1898137.0,1597571451.063
1877444.0,1597571451.101
1860737.0,1597571451.142
1810118.0,1597571451.221
1767086.0,1597571451.263
1725704.0,1597571451.302
1842811.0,1597571451.181
1690018.0,1597571451.342
1659329.0,1597571451.383
1634064.0,1597571451.421
1595481.0,1597571451.502
1612845.0,1597571451.462
1583981.0,1597571451.541
1567813.0,1597571451.623
1577414.0,1597571451.582
1553611.0,1597571451.663
1538862.0,1597571451.703
1523991.0,1597571451.742
1511342.0,1597571451.781
1504109.0,1597571451.821
1499323.0,1597571451.863
1498036.0,1597571451.942
1502745.0,1597571451.984
1497008.0,1597571451.902
1523409.0,1597571452.062
1511760.0,1597571452.023
1534067.0,1597571452.102
1538080.0,1597571452.182
1541639.0,1597571452.223
1536933.0,1597571452.142
1546818.0,1597571452.263
1557310.0,1597571452.344
1560644.0,1597571452.383
1552441.0,1597571452.303
1569579.0,1597571452.463
1564684.0,1597571452.421
1574737.0,1597571452.502
1581703.0,1597571452.542
1587469.0,1597571452.583
1586128.0,1597571452.623
1576408.0,1597571452.704
1578857.0,1597571452.743
1579538.0,1597571452.664
1583625.0,1597571452.782
1592715.0,1597571452.822
1602880.0,1597571452.861
1611029.0,1597571452.902
1611221.0,1597571452.943
1606657.0,1597571452.982
1600422.0,1597571453.023
1592601.0,1597571453.065
1584432.0,1597571453.103
1575260.0,1597571453.143
1563923.0,1597571453.183
1556035.0,1597571453.222
1556279.0,1597571453.263
1550251.0,1597571453.303
1543797.0,1597571453.343
1535944.0,1597571453.383
1525349.0,1597571453.424
1512720.0,1597571453.464
1494322.0,1597571453.502
1472916.0,1597571453.543
1453038.0,1597571453.582
1436835.0,1597571453.623
1422969.0,1597571453.665
1408831.0,1597571453.703
1394668.0,1597571453.743
1381023.0,1597571453.785
1369130.0,1597571453.824
1360909.0,1597571453.863
1354242.0,1597571453.903
1348467.0,1597571453.942
1342669.0,1597571453.983
1331198.0,1597571454.024
1318094.0,1597571454.064
1307600.0,1597571454.104
1299680.0,1597571454.145
1291737.0,1597571454.184
1284507.0,1597571454.222
1278397.0,1597571454.264
1272469.0,1597571454.303
1266566.0,1597571454.343
1261398.0,1597571454.384
1259140.0,1597571454.424
1258183.0,1597571454.465
1258035.0,1597571454.505
1257598.0,1597571454.542
1257105.0,1597571454.583
1256765.0,1597571454.624
1256468.0,1597571454.664
1256278.0,1597571454.703
1255805.0,1597571454.745
1254761.0,1597571454.784
1252607.0,1597571454.824
1249602.0,1597571454.866
1247673.0,1597571454.902
1248003.0,1597571454.943
1252137.0,1597571454.984
1257934.0,1597571455.023
1260340.0,1597571455.064
1263103.0,1597571455.105
1267840.0,1597571455.144
1274327.0,1597571455.184
1282804.0,1597571455.226
1293878.0,1597571455.263
1307869.0,1597571455.303
1321507.0,1597571455.344
1336118.0,1597571455.387
1346280.0,1597571455.421
1342607.0,1597571455.464
1344703.0,1597571455.503
1355755.0,1597571455.543
1380293.0,1597571455.584
1415042.0,1597571455.623
1448110.0,1597571455.664
1469354.0,1597571455.705
1482589.0,1597571455.744
1495767.0,1597571455.784
1509504.0,1597571455.826
1522786.0,1597571455.866
1535380.0,1597571455.903
1547999.0,1597571455.944
1562094.0,1597571455.984
1574928.0,1597571456.024
1585017.0,1597571456.066
1591842.0,1597571456.104
1597848.0,1597571456.145
1602275.0,1597571456.186
1606939.0,1597571456.225
1617448.0,1597571456.264
1626871.0,1597571456.304
1621395.0,1597571456.344
1614844.0,1597571456.384
1608348.0,1597571456.425
1604100.0,1597571456.465
1604259.0,1597571456.505
1607888.0,1597571456.546
1612061.0,1597571456.583
1616842.0,1597571456.624
1620586.0,1597571456.666
1622761.0,1597571456.704
1625476.0,1597571456.744
1628894.0,1597571456.786
1632066.0,1597571456.825
1634417.0,1597571456.866
1636612.0,1597571456.906
1638942.0,1597571456.944
1638785.0,1597571456.984
1637554.0,1597571457.025
1633005.0,1597571457.065
1628841.0,1597571457.104
1627829.0,1597571457.145
1630970.0,1597571457.184
1633819.0,1597571457.224
1639001.0,1597571457.266
1645147.0,1597571457.305
1652638.0,1597571457.345
1659748.0,1597571457.386
1665962.0,1597571457.425
1671535.0,1597571457.466
1676119.0,1597571457.507
1679736.0,1597571457.546
1682922.0,1597571457.587
1686467.0,1597571457.628
1690201.0,1597571457.668
1693792.0,1597571457.707
1697472.0,1597571457.753
1701263.0,1597571457.788
1705261.0,1597571457.828
1709387.0,1597571457.87
1713487.0,1597571457.909
1717482.0,1597571457.946
1721161.0,1597571457.987
1724331.0,1597571458.026
1725157.0,1597571458.067
1725971.0,1597571458.107
1727289.0,1597571458.147
1728825.0,1597571458.187
1730269.0,1597571458.229
1731806.0,1597571458.269
1733567.0,1597571458.308
1735406.0,1597571458.349
1736893.0,1597571458.389
1739054.0,1597571458.429
1741459.0,1597571458.469
1743717.0,1597571458.508
1746386.0,1597571458.548
1748940.0,1597571458.589
1754267.0,1597571458.669
1751610.0,1597571458.628
1757238.0,1597571458.71
1759873.0,1597571458.749
1763022.0,1597571458.789
1765768.0,1597571458.829
1768858.0,1597571458.868
1771414.0,1597571458.908
1773715.0,1597571458.949
1774920.0,1597571458.989
1775636.0,1597571459.029
1777174.0,1597571459.071
1778599.0,1597571459.109
1780271.0,1597571459.148
1782068.0,1597571459.189
1783448.0,1597571459.228
1784815.0,1597571459.269
1785721.0,1597571459.31
1786437.0,1597571459.349
1787346.0,1597571459.389
1788283.0,1597571459.431
1789525.0,1597571459.469
1790805.0,1597571459.508
1792809.0,1597571459.549
1794548.0,1597571459.589
1797023.0,1597571459.629
1799265.0,1597571459.671
1801435.0,1597571459.709
1804231.0,1597571459.75
1806949.0,1597571459.791
1807870.0,1597571459.828
1805281.0,1597571459.869
1808485.0,1597571459.91
1816112.0,1597571459.949
1824604.0,1597571459.989
1838992.0,1597571460.03
1852138.0,1597571460.07
1857519.0,1597571460.11
1861559.0,1597571460.151
1865256.0,1597571460.188
1869579.0,1597571460.228
1873220.0,1597571460.27
1876669.0,1597571460.309
1879398.0,1597571460.349
1881263.0,1597571460.389
1882550.0,1597571460.429
1884320.0,1597571460.47
1885712.0,1597571460.51
1887149.0,1597571460.547
1888587.0,1597571460.588
1890114.0,1597571460.629
1891583.0,1597571460.669
1893380.0,1597571460.709
1894264.0,1597571460.75
1893500.0,1597571460.789
1892602.0,1597571460.829
1892601.0,1597571460.871
1892851.0,1597571460.91
1893632.0,1597571460.95
1894292.0,1597571460.992
1894626.0,1597571461.029
1895639.0,1597571461.07
1896047.0,1597571461.11
1897313.0,1597571461.149
1898423.0,1597571461.19
1899706.0,1597571461.231
1900826.0,1597571461.271
1902614.0,1597571461.31
1904162.0,1597571461.352
1905688.0,1597571461.389
1907499.0,1597571461.429
1909267.0,1597571461.471
1910939.0,1597571461.51
1912819.0,1597571461.55
1913974.0,1597571461.591
1913799.0,1597571461.631
1913002.0,1597571461.671
1913373.0,1597571461.71
1914211.0,1597571461.749
1915240.0,1597571461.79
1915845.0,1597571461.831
1916577.0,1597571461.871
1917624.0,1597571461.91
1918272.0,1597571461.952
1919401.0,1597571461.991
1920489.0,1597571462.029
1922394.0,1597571462.071
1924221.0,1597571462.11
1926267.0,1597571462.15
1927648.0,1597571462.191
1929976.0,1597571462.23
1933369.0,1597571462.271
1937075.0,1597571462.312
1939863.0,1597571462.351
1941077.0,1597571462.389
1942115.0,1597571462.431
1941257.0,1597571462.471
1936595.0,1597571462.51
1933993.0,1597571462.552
1932488.0,1597571462.591
1931414.0,1597571462.631
1931283.0,1597571462.673
1931212.0,1597571462.709
1931496.0,1597571462.75
1931217.0,1597571462.791
1931670.0,1597571462.83
1932862.0,1597571462.871
1932786.0,1597571462.912
1930954.0,1597571462.951
1929529.0,1597571462.991
1929363.0,1597571463.033
1929244.0,1597571463.069
1929316.0,1597571463.109
1929803.0,1597571463.151
1929906.0,1597571463.19
1929724.0,1597571463.23
1928633.0,1597571463.272
1927553.0,1597571463.311
1926273.0,1597571463.351
1923867.0,1597571463.392
1917292.0,1597571463.432
1915238.0,1597571463.471
1913055.0,1597571463.511
1911286.0,1597571463.55
1909871.0,1597571463.591
1908578.0,1597571463.632
1907335.0,1597571463.672
1905944.0,1597571463.711
1904028.0,1597571463.753
1902731.0,1597571463.792
1901815.0,1597571463.83
1900765.0,1597571463.872
1900166.0,1597571463.911
1899499.0,1597571463.951
1898767.0,1597571463.992
1898229.0,1597571464.031
1898043.0,1597571464.072
1897754.0,1597571464.113
1897691.0,1597571464.15
1897699.0,1597571464.19
1897713.0,1597571464.232
1898177.0,1597571464.272
1898483.0,1597571464.311
1895596.0,1597571464.353
1890433.0,1597571464.392
1888573.0,1597571464.432
1887290.0,1597571464.472
1886178.0,1597571464.511
1885540.0,1597571464.551
1884649.0,1597571464.592
1883882.0,1597571464.631
1883323.0,1597571464.672
1883076.0,1597571464.713
1882593.0,1597571464.752
1882668.0,1597571464.791
1882861.0,1597571464.832
1883092.0,1597571464.872
1883730.0,1597571464.911
1884624.0,1597571464.953
1885559.0,1597571464.992
1886767.0,1597571465.032
1887992.0,1597571465.074
1889155.0,1597571465.111
1890385.0,1597571465.151
1891707.0,1597571465.192
1892986.0,1597571465.231
1892692.0,1597571465.272
1886067.0,1597571465.313
1883296.0,1597571465.352
1881057.0,1597571465.393
1878825.0,1597571465.432
1877480.0,1597571465.472
1876952.0,1597571465.511
1876182.0,1597571465.553
1876118.0,1597571465.592
1875870.0,1597571465.631
1875616.0,1597571465.671
1876193.0,1597571465.709
1876098.0,1597571465.749
1876721.0,1597571465.791
1876884.0,1597571465.831
1877694.0,1597571465.872
1878039.0,1597571465.912
1878981.0,1597571465.951
1879884.0,1597571465.992
1880805.0,1597571466.033
1881724.0,1597571466.073
1883013.0,1597571466.112
1883825.0,1597571466.154
1885000.0,1597571466.193
1886380.0,1597571466.231
1886645.0,1597571466.273
1880565.0,1597571466.312
1877844.0,1597571466.352
1875167.0,1597571466.394
1872919.0,1597571466.433
1870689.0,1597571466.474
1869237.0,1597571466.514
1868053.0,1597571466.551
1867133.0,1597571466.592
1866338.0,1597571466.633
1865888.0,1597571466.673
1865620.0,1597571466.712
1865559.0,1597571466.754
1865756.0,1597571466.793
1866541.0,1597571466.833
1867135.0,1597571466.875
1867802.0,1597571466.912
1868633.0,1597571466.952
1869671.0,1597571466.993
1870845.0,1597571467.032
1871703.0,1597571467.073
1873021.0,1597571467.114
1874389.0,1597571467.153
1876102.0,1597571467.193
1877561.0,1597571467.235
1879319.0,1597571467.272
1879830.0,1597571467.312
1873971.0,1597571467.353
1870814.0,1597571467.392
1868305.0,1597571467.433
1865185.0,1597571467.475
1862687.0,1597571467.513
1860737.0,1597571467.554
1859349.0,1597571467.595
1858327.0,1597571467.632
1857211.0,1597571467.673
1856970.0,1597571467.713
1857180.0,1597571467.752
1857096.0,1597571467.793
1857465.0,1597571467.834
1858035.0,1597571467.874
1858987.0,1597571467.914
1860072.0,1597571467.955
1861515.0,1597571467.992
1862758.0,1597571468.032
1863927.0,1597571468.074
1865500.0,1597571468.113
1867254.0,1597571468.153
1868982.0,1597571468.193
1870858.0,1597571468.23
1873195.0,1597571468.271
1872427.0,1597571468.311
1867906.0,1597571468.351
1866096.0,1597571468.392
1864898.0,1597571468.433
1863535.0,1597571468.473
1862677.0,1597571468.513
1862179.0,1597571468.554
1862374.0,1597571468.593
1862514.0,1597571468.633
1862617.0,1597571468.675
1863035.0,1597571468.714
1863851.0,1597571468.754
1864696.0,1597571468.795
1865865.0,1597571468.832
1868215.0,1597571468.914
1866986.0,1597571468.873
1869661.0,1597571468.953
1872180.0,1597571469.028
1870863.0,1597571468.994
1873618.0,1597571469.068
1875036.0,1597571469.107
1878041.0,1597571469.187
1876645.0,1597571469.148
1879853.0,1597571469.227
1881556.0,1597571469.269
1883304.0,1597571469.307
1880311.0,1597571469.347
1875768.0,1597571469.388
1872205.0,1597571469.428
1868419.0,1597571469.468
1865364.0,1597571469.509
1863016.0,1597571469.549
1861432.0,1597571469.589
1860232.0,1597571469.63
1859081.0,1597571469.67
1858161.0,1597571469.71
1857944.0,1597571469.751
1857881.0,1597571469.79
1858587.0,1597571469.831
1859158.0,1597571469.872
1860959.0,1597571469.909
1863306.0,1597571469.949
1865224.0,1597571469.99
1865973.0,1597571470.03
1866611.0,1597571470.071
1867817.0,1597571470.111
1869216.0,1597571470.15
1871166.0,1597571470.191
1872597.0,1597571470.232
1874320.0,1597571470.27
1876239.0,1597571470.31
1878014.0,1597571470.351
1870635.0,1597571470.39
1864605.0,1597571470.43
1859474.0,1597571470.472
1856793.0,1597571470.511
1855306.0,1597571470.551
1854348.0,1597571470.592
1854457.0,1597571470.629
1854721.0,1597571470.67
1856468.0,1597571470.711
1858404.0,1597571470.749
1859540.0,1597571470.789
1860678.0,1597571470.83
1862035.0,1597571470.871
1863250.0,1597571470.91
1864623.0,1597571470.952
1866298.0,1597571470.991
1867776.0,1597571471.031
1869605.0,1597571471.073
1871078.0,1597571471.111
1872798.0,1597571471.15
1874818.0,1597571471.191
1876642.0,1597571471.23
1878464.0,1597571471.271
1880323.0,1597571471.312
1881938.0,1597571471.351
1883710.0,1597571471.391
1885674.0,1597571471.432
1881291.0,1597571471.472
1876970.0,1597571471.51
1873428.0,1597571471.551
1870317.0,1597571471.59
1867347.0,1597571471.631
1864481.0,1597571471.673
1862485.0,1597571471.711
1860097.0,1597571471.751
1858139.0,1597571471.793
1856572.0,1597571471.832
1855610.0,1597571471.871
1855164.0,1597571471.911
1854845.0,1597571471.95
1854851.0,1597571471.991
1855378.0,1597571472.032
1855708.0,1597571472.072
1856222.0,1597571472.112
1856409.0,1597571472.153
1856998.0,1597571472.191
1857429.0,1597571472.231
1857937.0,1597571472.273
1858418.0,1597571472.312
1859362.0,1597571472.352
1856994.0,1597571472.393
1850743.0,1597571472.43
1843630.0,1597571472.471
1837090.0,1597571472.512
1832271.0,1597571472.551
1828152.0,1597571472.591
1825574.0,1597571472.632
1823771.0,1597571472.672
1821997.0,1597571472.712
1820569.0,1597571472.753
1819388.0,1597571472.79
1818587.0,1597571472.831
1818269.0,1597571472.873
1818394.0,1597571472.911
1818956.0,1597571472.952
1820126.0,1597571472.993
1821451.0,1597571473.032
1823051.0,1597571473.073
1825229.0,1597571473.113
1827384.0,1597571473.151
1829858.0,1597571473.191
1832407.0,1597571473.232
1835203.0,1597571473.272
1837903.0,1597571473.311
1840447.0,1597571473.353
1839808.0,1597571473.392
1835585.0,1597571473.432
1830686.0,1597571473.474
1827164.0,1597571473.513
1824289.0,1597571473.551
1822037.0,1597571473.592
1820849.0,1597571473.631
1820227.0,1597571473.672
1819949.0,1597571473.713
1819810.0,1597571473.752
1820044.0,1597571473.792
1820866.0,1597571473.834
1821632.0,1597571473.874
1822701.0,1597571473.911
1823978.0,1597571473.952
1825283.0,1597571473.991
1826870.0,1597571474.032
1828549.0,1597571474.074
1830297.0,1597571474.112
1831841.0,1597571474.153
1833726.0,1597571474.194
1835359.0,1597571474.233
1837403.0,1597571474.272
1839256.0,1597571474.312
1841131.0,1597571474.352
1843075.0,1597571474.392
1845141.0,1597571474.433
1847365.0,1597571474.473
1849276.0,1597571474.513
1845519.0,1597571474.554
1841313.0,1597571474.59
1837245.0,1597571474.631
1834867.0,1597571474.673
1833431.0,1597571474.711
1832785.0,1597571474.752
1832697.0,1597571474.793
1832979.0,1597571474.832
1833445.0,1597571474.873
1833873.0,1597571474.914
1834978.0,1597571474.953
1836106.0,1597571474.993
1837650.0,1597571475.034
1839093.0,1597571475.072
1841050.0,1597571475.112
1842824.0,1597571475.153
1845031.0,1597571475.192
1846726.0,1597571475.233
1848677.0,1597571475.275
1850524.0,1597571475.313
1852735.0,1597571475.353
1854824.0,1597571475.395
1856640.0,1597571475.432
1858926.0,1597571475.473
1861055.0,1597571475.513
1862873.0,1597571475.552
1864166.0,1597571475.593
1858948.0,1597571475.634
1854096.0,1597571475.674
1850029.0,1597571475.714
1847001.0,1597571475.755
1844202.0,1597571475.792
1842617.0,1597571475.832
1841425.0,1597571475.873
1840060.0,1597571475.911
1839286.0,1597571475.951
1838689.0,1597571475.993
1838453.0,1597571476.033
1838945.0,1597571476.074
1839625.0,1597571476.114
1840479.0,1597571476.153
1840962.0,1597571476.194
1841251.0,1597571476.235
1841078.0,1597571476.275
1840632.0,1597571476.312
1840637.0,1597571476.353
1840895.0,1597571476.392
1841470.0,1597571476.432
1842281.0,1597571476.474
1843219.0,1597571476.513
1843990.0,1597571476.553
1844794.0,1597571476.594
1845620.0,1597571476.633
1845395.0,1597571476.674
1840343.0,1597571476.715
1832146.0,1597571476.754
1824429.0,1597571476.794
1817859.0,1597571476.834
1812522.0,1597571476.874
1808077.0,1597571476.913
1804480.0,1597571476.954
1801671.0,1597571476.994
1798826.0,1597571477.034
1796350.0,1597571477.076
1795076.0,1597571477.114
1795753.0,1597571477.194
1798736.0,1597571477.274
1797112.0,1597571477.233
1794823.0,1597571477.155
1800865.0,1597571477.314
1803385.0,1597571477.354
1806524.0,1597571477.394
1809188.0,1597571477.435
1811971.0,1597571477.475
1814893.0,1597571477.513
1817638.0,1597571477.554
1820220.0,1597571477.593
1823238.0,1597571477.634
1825998.0,1597571477.676
1828918.0,1597571477.714
1831953.0,1597571477.754
1832793.0,1597571477.796
1829363.0,1597571477.835
1825088.0,1597571477.874
1822189.0,1597571477.914
1820391.0,1597571477.954
1818808.0,1597571477.994
1818120.0,1597571478.035
1817481.0,1597571478.075
1816779.0,1597571478.115
1816443.0,1597571478.156
1815646.0,1597571478.195
1815302.0,1597571478.233
1814602.0,1597571478.275
1813774.0,1597571478.314
1813294.0,1597571478.354
1813670.0,1597571478.395
1814434.0,1597571478.435
1816000.0,1597571478.474
1817299.0,1597571478.514
1818620.0,1597571478.553
1820070.0,1597571478.594
1821944.0,1597571478.635
1823723.0,1597571478.675
1826335.0,1597571478.714
1828399.0,1597571478.756
1830528.0,1597571478.795
1832659.0,1597571478.835
1829641.0,1597571478.877
1824297.0,1597571478.914
1819998.0,1597571478.954
1817087.0,1597571478.995
1815428.0,1597571479.034
1814431.0,1597571479.075
1814248.0,1597571479.116
1814530.0,1597571479.155
1814603.0,1597571479.195
1815021.0,1597571479.237
1815978.0,1597571479.274
1816988.0,1597571479.314
1818571.0,1597571479.355
1820206.0,1597571479.394
1822146.0,1597571479.434
1824220.0,1597571479.476
1826131.0,1597571479.514
1828557.0,1597571479.555
1830793.0,1597571479.596
1833172.0,1597571479.635
1835294.0,1597571479.676
1837610.0,1597571479.717
1839830.0,1597571479.756
1842157.0,1597571479.794
1844651.0,1597571479.835
1847257.0,1597571479.875
1849036.0,1597571479.915
1844975.0,1597571479.956
1840449.0,1597571479.995
1837397.0,1597571480.036
1835294.0,1597571480.077
1833816.0,1597571480.116
1833056.0,1597571480.154
1832934.0,1597571480.195
1832931.0,1597571480.235
1833231.0,1597571480.276
1833714.0,1597571480.316
1834391.0,1597571480.355
1835306.0,1597571480.396
1835937.0,1597571480.437
1837345.0,1597571480.477
1838610.0,1597571480.514
1839929.0,1597571480.556
1841162.0,1597571480.595
1842691.0,1597571480.635
1843922.0,1597571480.677
1845344.0,1597571480.716
1846797.0,1597571480.756
1848324.0,1597571480.797
1850040.0,1597571480.836
1851735.0,1597571480.875
1853750.0,1597571480.916
1855378.0,1597571480.955
1851629.0,1597571480.994
1846692.0,1597571481.033
1842966.0,1597571481.073
1841388.0,1597571481.112
1840528.0,1597571481.153
1840277.0,1597571481.192
1840682.0,1597571481.232
1841145.0,1597571481.274
1841220.0,1597571481.313
1842172.0,1597571481.353
1843090.0,1597571481.394
1844123.0,1597571481.433
1845394.0,1597571481.474
1847205.0,1597571481.514
1848659.0,1597571481.553
1850538.0,1597571481.594
1852317.0,1597571481.635
1853973.0,1597571481.674
1855789.0,1597571481.715
1857721.0,1597571481.756
1859564.0,1597571481.796
1861548.0,1597571481.836
1863567.0,1597571481.878
1865342.0,1597571481.916
1861167.0,1597571481.957
1855927.0,1597571481.998
1851921.0,1597571482.037
1848868.0,1597571482.078
1846708.0,1597571482.119
1845101.0,1597571482.158
1843990.0,1597571482.198
1843311.0,1597571482.237
1842537.0,1597571482.277
1842196.0,1597571482.317
1842376.0,1597571482.358
1842937.0,1597571482.397
1843457.0,1597571482.438
1844743.0,1597571482.48
1845883.0,1597571482.518
1847288.0,1597571482.557
1848681.0,1597571482.598
1850071.0,1597571482.637
1851676.0,1597571482.678
1853180.0,1597571482.718
1854878.0,1597571482.758
1856615.0,1597571482.798
1858299.0,1597571482.839
1860089.0,1597571482.879
1861841.0,1597571482.917
1863714.0,1597571482.958
1861248.0,1597571482.997
1855885.0,1597571483.037
1849959.0,1597571483.079
1845753.0,1597571483.118
1842198.0,1597571483.158
1839276.0,1597571483.199
1837225.0,1597571483.239
1835394.0,1597571483.278
1833479.0,1597571483.318
1832032.0,1597571483.357
1830871.0,1597571483.398
1830777.0,1597571483.439
1831284.0,1597571483.479
1831973.0,1597571483.519
1833260.0,1597571483.559
1834367.0,1597571483.599
1836183.0,1597571483.639
1837867.0,1597571483.679
1839950.0,1597571483.717
1841887.0,1597571483.758
1843748.0,1597571483.799
1845984.0,1597571483.838
1848290.0,1597571483.879
1850550.0,1597571483.92
1852800.0,1597571483.959
1855143.0,1597571483.999
1851560.0,1597571484.038
1846663.0,1597571484.078
1842399.0,1597571484.118
1839464.0,1597571484.159
1836911.0,1597571484.198
1835043.0,1597571484.239
1834209.0,1597571484.281
1832940.0,1597571484.319
1831987.0,1597571484.359
1831205.0,1597571484.399
1831159.0,1597571484.438
1831200.0,1597571484.479
1832112.0,1597571484.519
1832843.0,1597571484.558
1833879.0,1597571484.599
1834711.0,1597571484.64
1836072.0,1597571484.68
1836659.0,1597571484.718
1837379.0,1597571484.759
1837521.0,1597571484.798
1837281.0,1597571484.838
1837374.0,1597571484.88
1838445.0,1597571484.919
1839447.0,1597571484.959
1840246.0,1597571485.0
1841460.0,1597571485.04
1839433.0,1597571485.079
1833078.0,1597571485.119
1824668.0,1597571485.158
1817802.0,1597571485.199
1812466.0,1597571485.24
1809056.0,1597571485.28
1806800.0,1597571485.319
1805887.0,1597571485.36
1805229.0,1597571485.4
1804733.0,1597571485.438
1804643.0,1597571485.48
1805406.0,1597571485.518
1806670.0,1597571485.559
1808233.0,1597571485.6
1810379.0,1597571485.639
1812759.0,1597571485.68
1815180.0,1597571485.721
1817829.0,1597571485.76
1820436.0,1597571485.798
1822963.0,1597571485.839
1825513.0,1597571485.879
1828301.0,1597571485.919
1830852.0,1597571485.96
1833580.0,1597571485.998
1836245.0,1597571486.039
1839018.0,1597571486.081
1841934.0,1597571486.118
1844383.0,1597571486.158
1840879.0,1597571486.199
1836180.0,1597571486.239
1832488.0,1597571486.28
1830056.0,1597571486.321
1828102.0,1597571486.36
1826413.0,1597571486.4
1825945.0,1597571486.441
1825701.0,1597571486.479
1825332.0,1597571486.519
1825714.0,1597571486.56
1826359.0,1597571486.599
1827518.0,1597571486.64
1828771.0,1597571486.681
1830207.0,1597571486.72
1831713.0,1597571486.76
1833474.0,1597571486.801
1835211.0,1597571486.839
1837075.0,1597571486.88
1838769.0,1597571486.92
1840968.0,1597571486.96
1842582.0,1597571487.0
1844656.0,1597571487.041
1846785.0,1597571487.081
1849043.0,1597571487.121
1850924.0,1597571487.162
1853338.0,1597571487.199
1855318.0,1597571487.239
1857917.0,1597571487.281
1856059.0,1597571487.32
1852005.0,1597571487.36
1848273.0,1597571487.401
1845952.0,1597571487.441
1844448.0,1597571487.481
1843323.0,1597571487.522
1843059.0,1597571487.559
1842976.0,1597571487.599
1843075.0,1597571487.641
1843291.0,1597571487.681
1844292.0,1597571487.72
1845821.0,1597571487.765
1847596.0,1597571487.801
1849456.0,1597571487.841
1851887.0,1597571487.881
1854250.0,1597571487.92
1856485.0,1597571487.96
1858878.0,1597571488.001
1861031.0,1597571488.041
1863546.0,1597571488.082
1865498.0,1597571488.122
1867756.0,1597571488.161
1870269.0,1597571488.2
1872409.0,1597571488.241
1875099.0,1597571488.281
1877336.0,1597571488.32
1876101.0,1597571488.362
1872765.0,1597571488.401
1869798.0,1597571488.441
1868176.0,1597571488.483
1867310.0,1597571488.52
1866554.0,1597571488.56
1866495.0,1597571488.601
1866725.0,1597571488.641
1867326.0,1597571488.68
1867576.0,1597571488.72
1868357.0,1597571488.759
1869493.0,1597571488.8
1870310.0,1597571488.841
1871454.0,1597571488.881
1872664.0,1597571488.92
1874152.0,1597571488.962
1875440.0,1597571489.001
1876924.0,1597571489.041
1878495.0,1597571489.083
1880155.0,1597571489.122
1881918.0,1597571489.162
1883480.0,1597571489.201
1885027.0,1597571489.24
1886769.0,1597571489.281
1888500.0,1597571489.322
1890412.0,1597571489.361
1892311.0,1597571489.402
1888856.0,1597571489.443
1884737.0,1597571489.483
1880878.0,1597571489.52
1878145.0,1597571489.562
1876356.0,1597571489.601
1875259.0,1597571489.641
1874619.0,1597571489.683
1874290.0,1597571489.721
1873848.0,1597571489.762
1873617.0,1597571489.803
1873740.0,1597571489.842
1874591.0,1597571489.881
1875790.0,1597571489.922
1878588.0,1597571490.001
1877045.0,1597571489.961
1880238.0,1597571490.043
1881839.0,1597571490.083
1883734.0,1597571490.122
1885484.0,1597571490.163
1887344.0,1597571490.201
1889285.0,1597571490.241
1891291.0,1597571490.283
1893023.0,1597571490.321
1895197.0,1597571490.362
1897275.0,1597571490.403
1894618.0,1597571490.442
1891022.0,1597571490.483
1887795.0,1597571490.522
1886273.0,1597571490.561
1885156.0,1597571490.601
1884600.0,1597571490.643
1884727.0,1597571490.683
1885147.0,1597571490.763
1884944.0,1597571490.722
1885570.0,1597571490.803
1885898.0,1597571490.843
1886862.0,1597571490.883
1887575.0,1597571490.921
1889524.0,1597571491.003
1888615.0,1597571490.961
1890701.0,1597571491.042
1892547.0,1597571491.124
1891444.0,1597571491.083
1893896.0,1597571491.163
1894958.0,1597571491.201
1897888.0,1597571491.28
1896482.0,1597571491.245
1899074.0,1597571491.32
1900786.0,1597571491.362
1902266.0,1597571491.401
1903464.0,1597571491.441
1898539.0,1597571491.483
1892840.0,1597571491.522
1888169.0,1597571491.562
1882793.0,1597571491.643
1885103.0,1597571491.603
1881551.0,1597571491.684
1880939.0,1597571491.724
1880444.0,1597571491.761
1880210.0,1597571491.802
1880354.0,1597571491.843
1880705.0,1597571491.883
1882422.0,1597571491.964
1881376.0,1597571491.923
1883713.0,1597571492.003
1885043.0,1597571492.043
1886569.0,1597571492.085
1888364.0,1597571492.122
1889922.0,1597571492.162
1891740.0,1597571492.203
1893375.0,1597571492.242
1895265.0,1597571492.283
1897350.0,1597571492.324
1899026.0,1597571492.363
1900631.0,1597571492.404
1901995.0,1597571492.443
1896730.0,1597571492.483
1891794.0,1597571492.522
1888339.0,1597571492.564
1885869.0,1597571492.603
1883852.0,1597571492.643
1882722.0,1597571492.685
1882089.0,1597571492.724
1881806.0,1597571492.762
1881885.0,1597571492.803
1881553.0,1597571492.842
1882283.0,1597571492.883
1882794.0,1597571492.924
1883922.0,1597571492.963
1885142.0,1597571493.004
1885955.0,1597571493.049
1887652.0,1597571493.089
1888820.0,1597571493.128
1890409.0,1597571493.169
1892020.0,1597571493.208
1893610.0,1597571493.248
1895378.0,1597571493.29
1896955.0,1597571493.328
1898802.0,1597571493.368
1900669.0,1597571493.41
1902410.0,1597571493.449
1904185.0,1597571493.489
1904848.0,1597571493.528
1899093.0,1597571493.568
1893234.0,1597571493.608
1888522.0,1597571493.649
1885326.0,1597571493.689
1882323.0,1597571493.729
1880279.0,1597571493.77
1878619.0,1597571493.806
1877144.0,1597571493.847
1875585.0,1597571493.889
1874337.0,1597571493.927
1874321.0,1597571493.968
1874601.0,1597571494.009
1875489.0,1597571494.048
1876653.0,1597571494.089
1878263.0,1597571494.13
1879653.0,1597571494.169
1881336.0,1597571494.209
1883334.0,1597571494.251
1885315.0,1597571494.289
1887181.0,1597571494.328
1889243.0,1597571494.369
1891548.0,1597571494.409
1893728.0,1597571494.449
1896075.0,1597571494.491
1898507.0,1597571494.529
1895281.0,1597571494.57
1891504.0,1597571494.609
1888518.0,1597571494.648
1886744.0,1597571494.689
1885632.0,1597571494.73
1884836.0,1597571494.769
1884543.0,1597571494.809
1883830.0,1597571494.851
1881344.0,1597571494.89
1878109.0,1597571494.93
1874988.0,1597571494.969
1872588.0,1597571495.008
1871210.0,1597571495.049
1870859.0,1597571495.091
1870643.0,1597571495.129
1870367.0,1597571495.169
1870575.0,1597571495.211
1871424.0,1597571495.25
1872396.0,1597571495.291
1874007.0,1597571495.329
1875880.0,1597571495.369
1878047.0,1597571495.409
1880817.0,1597571495.45
1883038.0,1597571495.49
1885978.0,1597571495.53
1888822.0,1597571495.571
1886205.0,1597571495.61
1881787.0,1597571495.648
1878346.0,1597571495.69
1875665.0,1597571495.729
1873371.0,1597571495.769
1871883.0,1597571495.811
1870950.0,1597571495.85
1871103.0,1597571495.891
1871068.0,1597571495.931
1871321.0,1597571495.971
1872264.0,1597571496.009
1873200.0,1597571496.05
1874585.0,1597571496.09
1876107.0,1597571496.13
1877933.0,1597571496.171
1879710.0,1597571496.21
1881776.0,1597571496.25
1883477.0,1597571496.292
1885293.0,1597571496.329
1887141.0,1597571496.368
1888898.0,1597571496.409
1890861.0,1597571496.448
1892746.0,1597571496.49
1894543.0,1597571496.531
1896346.0,1597571496.57
1898600.0,1597571496.61
1897341.0,1597571496.651
1893553.0,1597571496.691
1889593.0,1597571496.731
1887026.0,1597571496.77
1885034.0,1597571496.809
1883665.0,1597571496.85
1883016.0,1597571496.892
1882674.0,1597571496.93
1882228.0,1597571496.97
1882078.0,1597571497.012
1882492.0,1597571497.051
1883358.0,1597571497.09
1884302.0,1597571497.131
1885961.0,1597571497.17
1887654.0,1597571497.21
1889274.0,1597571497.251
1891263.0,1597571497.291
1893053.0,1597571497.331
1895121.0,1597571497.372
1896809.0,1597571497.412
1898855.0,1597571497.449
1903214.0,1597571497.53
1905539.0,1597571497.57
1901134.0,1597571497.491
1903871.0,1597571497.612
1900416.0,1597571497.651
1896002.0,1597571497.732
1897410.0,1597571497.692
1895145.0,1597571497.771
1894812.0,1597571497.81
1894984.0,1597571497.851
1895566.0,1597571497.891
1895910.0,1597571497.93
1896575.0,1597571497.972
1897366.0,1597571498.011
1899738.0,1597571498.093
1898632.0,1597571498.051
1902611.0,1597571498.17
1901166.0,1597571498.13
1903990.0,1597571498.211
1905454.0,1597571498.251
1906866.0,1597571498.292
1910541.0,1597571498.371
1908548.0,1597571498.332
1915772.0,1597571498.491
1913806.0,1597571498.451
1912028.0,1597571498.412
1917534.0,1597571498.53
1919310.0,1597571498.572
1921161.0,1597571498.611
1921843.0,1597571498.651
1916390.0,1597571498.693
1911935.0,1597571498.732
1908699.0,1597571498.77
1906353.0,1597571498.811
1904267.0,1597571498.851
1902282.0,1597571498.892
1901443.0,1597571498.929
1900265.0,1597571498.969
1899388.0,1597571499.01
1899126.0,1597571499.051
1898812.0,1597571499.091
1899303.0,1597571499.131
1899808.0,1597571499.172
1900731.0,1597571499.211
1901630.0,1597571499.251
1903116.0,1597571499.293
1904302.0,1597571499.332
1905323.0,1597571499.372
1906910.0,1597571499.414
1908257.0,1597571499.45
1910110.0,1597571499.491
1911489.0,1597571499.532
1913281.0,1597571499.571
1914949.0,1597571499.612
1916476.0,1597571499.653
1918087.0,1597571499.693
1919812.0,1597571499.732
1921793.0,1597571499.774
1917015.0,1597571499.811
1912665.0,1597571499.851
1909038.0,1597571499.893
1906456.0,1597571499.931
1904281.0,1597571499.972
1902835.0,1597571500.013
1901732.0,1597571500.052
1900879.0,1597571500.093
1899511.0,1597571500.132
1898673.0,1597571500.171
1898421.0,1597571500.211
1898249.0,1597571500.253
1898580.0,1597571500.293
1899129.0,1597571500.332
1899809.0,1597571500.373
1900373.0,1597571500.413
1901111.0,1597571500.451
1901196.0,1597571500.493
1901147.0,1597571500.531
1902169.0,1597571500.572
1903971.0,1597571500.613
1905503.0,1597571500.652
1907664.0,1597571500.693
1909553.0,1597571500.734
1911499.0,1597571500.773
1912367.0,1597571500.811
1908614.0,1597571500.852
1905472.0,1597571500.892
1903395.0,1597571500.932
1902440.0,1597571500.973
1901969.0,1597571501.013
1902166.0,1597571501.053
1902484.0,1597571501.095
1902439.0,1597571501.131
1902971.0,1597571501.172
1903790.0,1597571501.213
1904398.0,1597571501.252
1905271.0,1597571501.293
1906073.0,1597571501.334
1907299.0,1597571501.373
1908429.0,1597571501.413
1909706.0,1597571501.453
1910819.0,1597571501.491
1912394.0,1597571501.532
1913873.0,1597571501.573
1915459.0,1597571501.612
1916730.0,1597571501.653
1918327.0,1597571501.695
1920012.0,1597571501.733
1921618.0,1597571501.773
1923575.0,1597571501.815
1924270.0,1597571501.852
1919097.0,1597571501.893
1915118.0,1597571501.933
1911959.0,1597571501.972
1910258.0,1597571502.013
1908607.0,1597571502.054
1907735.0,1597571502.094
1906845.0,1597571502.134
1906311.0,1597571502.173
1905977.0,1597571502.212
1905864.0,1597571502.252
1906135.0,1597571502.294
1906326.0,1597571502.333
1906972.0,1597571502.373
1908003.0,1597571502.415
1908914.0,1597571502.454
1909655.0,1597571502.493
1911020.0,1597571502.533
1911972.0,1597571502.572
1913354.0,1597571502.613
1914461.0,1597571502.654
1915751.0,1597571502.694
1917362.0,1597571502.734
1919222.0,1597571502.775
1920580.0,1597571502.814
1922323.0,1597571502.852
1924165.0,1597571502.894
1924160.0,1597571502.933
1918586.0,1597571502.973
1914353.0,1597571503.014
1911277.0,1597571503.054
1909472.0,1597571503.095
1907266.0,1597571503.135
1906276.0,1597571503.172
1905401.0,1597571503.213
1904316.0,1597571503.254
1903528.0,1597571503.294
1902943.0,1597571503.333
1902847.0,1597571503.375
1902810.0,1597571503.414
1903190.0,1597571503.454
1903312.0,1597571503.494
1903889.0,1597571503.533
1904848.0,1597571503.573
1905484.0,1597571503.614
1906443.0,1597571503.654
1907639.0,1597571503.695
1908674.0,1597571503.735
1910250.0,1597571503.774
1911738.0,1597571503.815
1913290.0,1597571503.854
1915083.0,1597571503.894
1917223.0,1597571503.933
1916586.0,1597571503.975
1912456.0,1597571504.014
1908969.0,1597571504.051
1906591.0,1597571504.094
1905773.0,1597571504.132
1905173.0,1597571504.173
1905329.0,1597571504.214
1905305.0,1597571504.253
1905464.0,1597571504.294
1905762.0,1597571504.335
1906252.0,1597571504.374
1907163.0,1597571504.414
1908201.0,1597571504.455
1909170.0,1597571504.495
1910528.0,1597571504.535
1911554.0,1597571504.574
1913060.0,1597571504.613
1914323.0,1597571504.653
1915640.0,1597571504.695
1917169.0,1597571504.734
1918719.0,1597571504.774
1920540.0,1597571504.816
1922174.0,1597571504.855
1923934.0,1597571504.896
1925803.0,1597571504.934
1927519.0,1597571504.973
1928870.0,1597571505.014
1923597.0,1597571505.053
1919166.0,1597571505.092
1916155.0,1597571505.131
1913978.0,1597571505.17
1912078.0,1597571505.209
1910190.0,1597571505.248
1909341.0,1597571505.287
1908315.0,1597571505.326
1907774.0,1597571505.365
1907260.0,1597571505.404
1907435.0,1597571505.443
1907923.0,1597571505.482
1908325.0,1597571505.521
1909426.0,1597571505.56
1910453.0,1597571505.599
1911521.0,1597571505.638
1912734.0,1597571505.677
1914031.0,1597571505.716
1915159.0,1597571505.755
1916789.0,1597571505.794
1918614.0,1597571505.833
1920321.0,1597571505.872
1921878.0,1597571505.911
1923841.0,1597571505.95
1925890.0,1597571505.989
1927589.0,1597571506.028
1929595.0,1597571506.067
1926509.0,1597571506.106
1922566.0,1597571506.145
1918981.0,1597571506.184
1917305.0,1597571506.223
1915513.0,1597571506.262
1914229.0,1597571506.301
1913644.0,1597571506.34
1912987.0,1597571506.379
1912085.0,1597571506.418
1911857.0,1597571506.457
1911756.0,1597571506.496
1912152.0,1597571506.535
1912824.0,1597571506.574
1913367.0,1597571506.613
1914434.0,1597571506.652
1915521.0,1597571506.692
1916327.0,1597571506.732
1917827.0,1597571506.772
1918819.0,1597571506.812
1919975.0,1597571506.852
1921250.0,1597571506.892
1922716.0,1597571506.932
1924075.0,1597571506.972
1925537.0,1597571507.012
1927036.0,1597571507.052
1928807.0,1597571507.092
1930620.0,1597571507.132
1927297.0,1597571507.172
1923522.0,1597571507.212
1920815.0,1597571507.252
1919119.0,1597571507.292
1918164.0,1597571507.332
1917911.0,1597571507.372
1917877.0,1597571507.412
1918257.0,1597571507.452
1918412.0,1597571507.492
1918835.0,1597571507.532
1919643.0,1597571507.572
1920676.0,1597571507.612
1921566.0,1597571507.652
1922973.0,1597571507.692
1924275.0,1597571507.732
1925791.0,1597571507.772
1927329.0,1597571507.812
1928793.0,1597571507.852
1930324.0,1597571507.892
1931896.0,1597571507.932
1933681.0,1597571507.972
1935067.0,1597571508.012
1936907.0,1597571508.052
1938657.0,1597571508.092
1940397.0,1597571508.132
1942236.0,1597571508.172
1939018.0,1597571508.212
1934765.0,1597571508.252
1931403.0,1597571508.292
1929308.0,1597571508.332
1927520.0,1597571508.372
1925841.0,1597571508.412
1925092.0,1597571508.452
1924736.0,1597571508.492
1924165.0,1597571508.532
1923978.0,1597571508.572
1924130.0,1597571508.612
1924451.0,1597571508.652
1925366.0,1597571508.692
1926290.0,1597571508.732
1927375.0,1597571508.772
1928621.0,1597571508.812
1929870.0,1597571508.852
1930950.0,1597571508.892
1932134.0,1597571508.932
1933516.0,1597571508.972
1935290.0,1597571509.012
1936551.0,1597571509.052
1938033.0,1597571509.092
1939562.0,1597571509.132
1941278.0,1597571509.172
1942753.0,1597571509.212
1944503.0,1597571509.252
1946030.0,1597571509.292
1942041.0,1597571509.332
1937162.0,1597571509.372
1933459.0,1597571509.412
1931067.0,1597571509.452
1928998.0,1597571509.492
1926797.0,1597571509.532
1925488.0,1597571509.572
1924352.0,1597571509.612
1922783.0,1597571509.652
1922073.0,1597571509.692
1921499.0,1597571509.732
1921710.0,1597571509.772
1922072.0,1597571509.812
1922906.0,1597571509.852
1924005.0,1597571509.892
1925043.0,1597571509.932
1926240.0,1597571509.972
1927591.0,1597571510.012
1929290.0,1597571510.052
1930894.0,1597571510.092
1932496.0,1597571510.132
1934276.0,1597571510.172
1936257.0,1597571510.212
1937940.0,1597571510.252
1939920.0,1597571510.292
1941873.0,1597571510.332
1942379.0,1597571510.372
1938613.0,1597571510.412
1936349.0,1597571510.452
1935031.0,1597571510.492
1934162.0,1597571510.532
1933556.0,1597571510.572
1933085.0,1597571510.612
1932803.0,1597571510.652
1932640.0,1597571510.692
1932669.0,1597571510.732
1933028.0,1597571510.772
1933333.0,1597571510.812
1934015.0,1597571510.852
1935147.0,1597571510.892
1936129.0,1597571510.932
1937181.0,1597571510.972
1938404.0,1597571511.012
1939673.0,1597571511.052
1941103.0,1597571511.092
1942444.0,1597571511.132
1943978.0,1597571511.172
1945294.0,1597571511.212
1947109.0,1597571511.252
1948739.0,1597571511.292
1950125.0,1597571511.332
1951976.0,1597571511.372
1953646.0,1597571511.412
1951482.0,1597571511.452
1947032.0,1597571511.492
1943242.0,1597571511.532
1940843.0,1597571511.572
1939128.0,1597571511.612
1937600.0,1597571511.652
1936952.0,1597571511.692
1936602.0,1597571511.732
1936187.0,1597571511.772
1935762.0,1597571511.812
1935827.0,1597571511.852
1936076.0,1597571511.892
1936631.0,1597571511.932
1937242.0,1597571511.972
1938197.0,1597571512.012
1938978.0,1597571512.052
1939771.0,1597571512.092
1940736.0,1597571512.132
1941515.0,1597571512.172
1942641.0,1597571512.212
1943662.0,1597571512.252
1944834.0,1597571512.292
1946232.0,1597571512.332
1947378.0,1597571512.372
1948567.0,1597571512.412
1950151.0,1597571512.452
1951020.0,1597571512.492
1945919.0,1597571512.532
1941080.0,1597571512.572
1937288.0,1597571512.612
1934677.0,1597571512.652
1932625.0,1597571512.692
1931506.0,1597571512.732
1931257.0,1597571512.772
1930783.0,1597571512.812
1930360.0,1597571512.852
1930541.0,1597571512.892
1931065.0,1597571512.932
1931983.0,1597571512.972
1933081.0,1597571513.012
1934275.0,1597571513.052
1935637.0,1597571513.092
1937106.0,1597571513.132
1938472.0,1597571513.172
1940293.0,1597571513.212
1941898.0,1597571513.252
1943714.0,1597571513.292
1945412.0,1597571513.332
1947056.0,1597571513.372
1949181.0,1597571513.412
1951072.0,1597571513.452
1947007.0,1597571513.492
1943506.0,1597571513.532
1940949.0,1597571513.572
1939432.0,1597571513.612
1938590.0,1597571513.652
1938141.0,1597571513.692
1938145.0,1597571513.732
1937823.0,1597571513.772
1937706.0,1597571513.812
1937355.0,1597571513.852
1937378.0,1597571513.892
1937834.0,1597571513.932
1937919.0,1597571513.972
1938035.0,1597571514.012
1937923.0,1597571514.052
1937788.0,1597571514.092
1937701.0,1597571514.132
1938036.0,1597571514.172
1938852.0,1597571514.212
1939761.0,1597571514.252
1940881.0,1597571514.292
1941662.0,1597571514.332
1942590.0,1597571514.372
1944131.0,1597571514.412
1945118.0,1597571514.452
1940664.0,1597571514.492
1934439.0,1597571514.532
1928055.0,1597571514.572
1924160.0,1597571514.612
1921649.0,1597571514.652
1919690.0,1597571514.692
1918656.0,1597571514.732
1918158.0,1597571514.772
1917022.0,1597571514.812
1916020.0,1597571514.852
1915558.0,1597571514.892
1916198.0,1597571514.932
1916869.0,1597571514.972
1917742.0,1597571515.012
1919066.0,1597571515.052
1920453.0,1597571515.092
1921602.0,1597571515.132
1923154.0,1597571515.172
1924916.0,1597571515.212
1926393.0,1597571515.252
1928237.0,1597571515.292
1930210.0,1597571515.332
1932016.0,1597571515.372
1934348.0,1597571515.412
1936565.0,1597571515.452
1932423.0,1597571515.492
1928334.0,1597571515.532
1924805.0,1597571515.572
1922597.0,1597571515.612
1920872.0,1597571515.652
1919532.0,1597571515.692
1918543.0,1597571515.732
1917592.0,1597571515.772
1916074.0,1597571515.812
1914915.0,1597571515.852
1914158.0,1597571515.892
1914331.0,1597571515.932
1914462.0,1597571515.972
1914768.0,1597571516.012
1915508.0,1597571516.052
1916415.0,1597571516.092
1917507.0,1597571516.132
1918594.0,1597571516.172
1920075.0,1597571516.212
1921417.0,1597571516.252
1922611.0,1597571516.292
1924484.0,1597571516.332
1925904.0,1597571516.372
1927898.0,1597571516.412
1927222.0,1597571516.452
1923114.0,1597571516.492
1919260.0,1597571516.532
1917048.0,1597571516.572
1916087.0,1597571516.612
1915595.0,1597571516.652
1916079.0,1597571516.692
1916578.0,1597571516.732
1916606.0,1597571516.772
1917708.0,1597571516.852
1917124.0,1597571516.812
1920331.0,1597571516.932
1919057.0,1597571516.892
1921639.0,1597571516.972
1923174.0,1597571517.016
1924738.0,1597571517.055
1926408.0,1597571517.095
1928193.0,1597571517.136
1929706.0,1597571517.175
1931531.0,1597571517.215
1933383.0,1597571517.257
1935018.0,1597571517.295
1936916.0,1597571517.335
1934963.0,1597571517.377
1930349.0,1597571517.416
1926129.0,1597571517.456
1923644.0,1597571517.497
1921639.0,1597571517.536
1920003.0,1597571517.576
1919226.0,1597571517.617
1918524.0,1597571517.657
1918057.0,1597571517.696
1918011.0,1597571517.738
1918243.0,1597571517.776
1918590.0,1597571517.816
1919965.0,1597571517.858
1920868.0,1597571517.897
1922221.0,1597571517.937
1923530.0,1597571517.978
1925036.0,1597571518.017
1926113.0,1597571518.058
1927328.0,1597571518.098
1928750.0,1597571518.137
1930468.0,1597571518.177
1931902.0,1597571518.219
1933533.0,1597571518.258
1935378.0,1597571518.298
1936840.0,1597571518.339
1933164.0,1597571518.418
1928169.0,1597571518.46
1938042.0,1597571518.378
1924203.0,1597571518.498
1921710.0,1597571518.538
1919308.0,1597571518.579
1917610.0,1597571518.618
1916020.0,1597571518.7
1915422.0,1597571518.739
1916386.0,1597571518.659
1915131.0,1597571518.779
1915573.0,1597571518.82
1915730.0,1597571518.86
1916852.0,1597571518.899
1917661.0,1597571518.94
1919628.0,1597571519.019
1918640.0,1597571518.979
1920730.0,1597571519.061
1921482.0,1597571519.1
1922759.0,1597571519.14
1923434.0,1597571519.181
1924499.0,1597571519.22
1925515.0,1597571519.261
1926629.0,1597571519.301
1928739.0,1597571519.38
1929714.0,1597571519.421
1931011.0,1597571519.461
1927502.0,1597571519.34
1928330.0,1597571519.5
1922627.0,1597571519.542
1915389.0,1597571519.581
1909026.0,1597571519.621
1903353.0,1597571519.663
1898702.0,1597571519.701
1894954.0,1597571519.741
1891946.0,1597571519.782
1885345.0,1597571519.862
1882884.0,1597571519.902
1888656.0,1597571519.821
1880537.0,1597571519.982
1881182.0,1597571520.062
1881342.0,1597571519.942
1880629.0,1597571520.023
1881888.0,1597571520.102
1883287.0,1597571520.143
1884549.0,1597571520.182
1885912.0,1597571520.222
1887771.0,1597571520.264
1889530.0,1597571520.302
1891087.0,1597571520.342
1893196.0,1597571520.384
1896450.0,1597571520.463
1893351.0,1597571520.504
1887952.0,1597571520.543
1882665.0,1597571520.583
1894922.0,1597571520.423
