bvp,time
-37.92,1708002554.671875
-42.3,1708002554.6875
-45.15,1708002554.703125
-45.76,1708002554.71875
-43.54,1708002554.734375
-38.19,1708002554.75
-29.91,1708002554.765625
-19.44,1708002554.78125
-7.97,1708002554.796875
3.2,1708002554.8125
12.92,1708002554.828125
20.52,1708002554.84375
25.83,1708002554.859375
29.06,1708002554.875
30.55,1708002554.890625
30.59,1708002554.90625
29.29,1708002554.921875
26.67,1708002554.9375
22.89,1708002554.953125
18.25,1708002554.96875
13.32,1708002554.984375
8.72,1708002555.0
4.94,1708002555.015625
2.18,1708002555.03125
0.31,1708002555.046875
-1.06,1708002555.0625
-2.34,1708002555.078125
-3.84,1708002555.09375
-5.62,1708002555.109375
-7.56,1708002555.125
-9.52,1708002555.140625
-11.5,1708002555.15625
-13.67,1708002555.171875
-16.43,1708002555.1875
-20.25,1708002555.203125
-25.49,1708002555.21875
-32.38,1708002555.234375
-40.9,1708002555.25
-50.87,1708002555.265625
-61.9,1708002555.28125
-73.36,1708002555.296875
-84.48,1708002555.3125
-94.57,1708002555.328125
-103.34,1708002555.34375
-111.15,1708002555.359375
-119.02,1708002555.375
-128.1,1708002555.390625
-139.05,1708002555.40625
-151.58,1708002555.421875
-164.48,1708002555.4375
-176.18,1708002555.453125
-185.53,1708002555.46875
-192.34,1708002555.484375
-197.32,1708002555.5
-201.63,1708002555.515625
-206.36,1708002555.53125
-212.11,1708002555.546875
-218.97,1708002555.5625
-226.45,1708002555.578125
-233.65,1708002555.59375
-239.2,1708002555.609375
-241.47,1708002555.625
-238.9,1708002555.640625
-230.54,1708002555.65625
-216.3,1708002555.671875
-196.81,1708002555.6875
-172.99,1708002555.703125
-145.45,1708002555.71875
-114.32,1708002555.734375
-79.44,1708002555.75
-40.93,1708002555.765625
0.5,1708002555.78125
43.55,1708002555.796875
86.84,1708002555.8125
129.51,1708002555.828125
171.51,1708002555.84375
213.61,1708002555.859375
257.18,1708002555.875
303.86,1708002555.890625
355.09,1708002555.90625
411.36,1708002555.921875
471.39,1708002555.9375
531.47,1708002555.953125
585.75,1708002555.96875
627.42,1708002555.984375
650.85,1708002556.0
653.52,1708002556.015625
636.95,1708002556.03125
606.06,1708002556.046875
567.35,1708002556.0625
526.71,1708002556.078125
488.06,1708002556.09375
452.94,1708002556.109375
421.18,1708002556.125
391.82,1708002556.140625
363.73,1708002556.15625
335.8,1708002556.171875
306.85,1708002556.1875
275.73,1708002556.203125
241.42,1708002556.21875
203.47,1708002556.234375
162.19,1708002556.25
118.57,1708002556.265625
74.06,1708002556.28125
29.96,1708002556.296875
-13.08,1708002556.3125
-55.44,1708002556.328125
-98.26,1708002556.34375
-142.77,1708002556.359375
-189.06,1708002556.375
-235.28,1708002556.390625
-277.63,1708002556.40625
-311.37,1708002556.421875
-332.61,1708002556.4375
-339.89,1708002556.453125
-334.75,1708002556.46875
-321.03,1708002556.484375
-303.32,1708002556.5
-285.15,1708002556.515625
-268.23,1708002556.53125
-252.52,1708002556.546875
-237.22,1708002556.5625
-221.77,1708002556.578125
-206.27,1708002556.59375
-191.27,1708002556.609375
-177.28,1708002556.625
-164.33,1708002556.640625
-152.05,1708002556.65625
-139.98,1708002556.671875
-127.97,1708002556.6875
-116.26,1708002556.703125
-105.48,1708002556.71875
-96.28,1708002556.734375
-88.98,1708002556.75
-83.46,1708002556.765625
-79.2,1708002556.78125
-75.52,1708002556.796875
-71.85,1708002556.8125
-67.93,1708002556.828125
-63.87,1708002556.84375
-60.01,1708002556.859375
-56.8,1708002556.875
-54.58,1708002556.890625
-53.49,1708002556.90625
-53.46,1708002556.921875
-54.26,1708002556.9375
-55.56,1708002556.953125
-56.96,1708002556.96875
-58.03,1708002556.984375
-58.23,1708002557.0
-56.99,1708002557.015625
-53.81,1708002557.03125
-48.34,1708002557.046875
-40.58,1708002557.0625
-30.93,1708002557.078125
-20.16,1708002557.09375
-9.2,1708002557.109375
1.01,1708002557.125
9.78,1708002557.140625
16.72,1708002557.15625
21.79,1708002557.171875
25.19,1708002557.1875
27.17,1708002557.203125
28.01,1708002557.21875
27.89,1708002557.234375
26.93,1708002557.25
25.29,1708002557.265625
23.18,1708002557.28125
20.88,1708002557.296875
18.69,1708002557.3125
16.9,1708002557.328125
15.68,1708002557.34375
15.17,1708002557.359375
15.39,1708002557.375
16.27,1708002557.390625
17.67,1708002557.40625
19.27,1708002557.421875
20.76,1708002557.4375
21.8,1708002557.453125
22.19,1708002557.46875
21.89,1708002557.484375
20.97,1708002557.5
19.57,1708002557.515625
17.81,1708002557.53125
15.76,1708002557.546875
13.46,1708002557.5625
10.95,1708002557.578125
8.26,1708002557.59375
5.44,1708002557.609375
2.48,1708002557.625
-0.68,1708002557.640625
-4.09,1708002557.65625
-7.72,1708002557.671875
-11.4,1708002557.6875
-14.9,1708002557.703125
-18.01,1708002557.71875
-20.61,1708002557.734375
-22.78,1708002557.75
-24.71,1708002557.765625
-26.69,1708002557.78125
-29.01,1708002557.796875
-31.91,1708002557.8125
-35.49,1708002557.828125
-39.63,1708002557.84375
-43.83,1708002557.859375
-47.25,1708002557.875
-48.86,1708002557.890625
-47.69,1708002557.90625
-43.22,1708002557.921875
-35.57,1708002557.9375
-25.53,1708002557.953125
-14.29,1708002557.96875
-3.12,1708002557.984375
6.96,1708002558.0
15.33,1708002558.015625
21.78,1708002558.03125
26.35,1708002558.046875
29.22,1708002558.0625
30.64,1708002558.078125
30.83,1708002558.09375
30.0,1708002558.109375
28.43,1708002558.125
26.42,1708002558.140625
24.3,1708002558.15625
22.37,1708002558.171875
20.87,1708002558.1875
19.91,1708002558.203125
19.51,1708002558.21875
19.67,1708002558.234375
20.36,1708002558.25
21.55,1708002558.265625
23.21,1708002558.28125
25.21,1708002558.296875
27.3,1708002558.3125
29.2,1708002558.328125
30.6,1708002558.34375
31.3,1708002558.359375
31.2,1708002558.375
30.31,1708002558.390625
28.66,1708002558.40625
26.31,1708002558.421875
23.33,1708002558.4375
19.84,1708002558.453125
16.06,1708002558.46875
12.25,1708002558.484375
8.66,1708002558.5
5.39,1708002558.515625
2.32,1708002558.53125
-0.81,1708002558.546875
-4.27,1708002558.5625
-8.16,1708002558.578125
-12.34,1708002558.59375
-16.48,1708002558.609375
-20.2,1708002558.625
-23.29,1708002558.640625
-25.76,1708002558.65625
-27.92,1708002558.671875
-30.19,1708002558.6875
-32.93,1708002558.703125
-36.41,1708002558.71875
-40.65,1708002558.734375
-45.41,1708002558.75
-50.18,1708002558.765625
-54.19,1708002558.78125
-56.5,1708002558.796875
-56.26,1708002558.8125
-52.86,1708002558.828125
-46.22,1708002558.84375
-36.76,1708002558.859375
-25.34,1708002558.875
-13.01,1708002558.890625
-0.84,1708002558.90625
10.28,1708002558.921875
19.71,1708002558.9375
27.03,1708002558.953125
32.12,1708002558.96875
35.12,1708002558.984375
36.37,1708002559.0
36.36,1708002559.015625
35.52,1708002559.03125
34.15,1708002559.046875
32.41,1708002559.0625
30.46,1708002559.078125
28.5,1708002559.09375
26.87,1708002559.109375
25.92,1708002559.125
25.85,1708002559.140625
26.65,1708002559.15625
28.05,1708002559.171875
29.65,1708002559.1875
31.13,1708002559.203125
32.29,1708002559.21875
33.1,1708002559.234375
33.58,1708002559.25
33.71,1708002559.265625
33.43,1708002559.28125
32.62,1708002559.296875
31.16,1708002559.3125
29.07,1708002559.328125
26.43,1708002559.34375
23.36,1708002559.359375
20.01,1708002559.375
16.49,1708002559.390625
12.89,1708002559.40625
9.32,1708002559.421875
5.93,1708002559.4375
2.84,1708002559.453125
0.15,1708002559.46875
-2.18,1708002559.484375
-4.31,1708002559.5
-6.52,1708002559.515625
-9.04,1708002559.53125
-12.03,1708002559.546875
-15.46,1708002559.5625
-19.13,1708002559.578125
-22.78,1708002559.59375
-26.19,1708002559.609375
-29.27,1708002559.625
-32.22,1708002559.640625
-35.4,1708002559.65625
-39.22,1708002559.671875
-43.89,1708002559.6875
-49.13,1708002559.703125
-54.12,1708002559.71875
-57.6,1708002559.734375
-58.24,1708002559.75
-55.06,1708002559.765625
-47.82,1708002559.78125
-37.05,1708002559.796875
-23.94,1708002559.8125
-9.9,1708002559.828125
3.69,1708002559.84375
15.81,1708002559.859375
25.8,1708002559.875
33.39,1708002559.890625
38.56,1708002559.90625
41.5,1708002559.921875
42.53,1708002559.9375
42.03,1708002559.953125
40.4,1708002559.96875
38.03,1708002559.984375
35.26,1708002560.0
32.42,1708002560.015625
29.79,1708002560.03125
27.64,1708002560.046875
26.14,1708002560.0625
25.39,1708002560.078125
25.39,1708002560.09375
26.1,1708002560.109375
27.43,1708002560.125
29.27,1708002560.140625
31.4,1708002560.15625
33.53,1708002560.171875
35.27,1708002560.1875
36.23,1708002560.203125
36.18,1708002560.21875
35.08,1708002560.234375
33.16,1708002560.25
30.74,1708002560.265625
28.11,1708002560.28125
25.43,1708002560.296875
22.72,1708002560.3125
19.86,1708002560.328125
16.8,1708002560.34375
13.56,1708002560.359375
10.21,1708002560.375
6.85,1708002560.390625
3.54,1708002560.40625
0.3,1708002560.421875
-2.87,1708002560.4375
-5.95,1708002560.453125
-8.97,1708002560.46875
-11.96,1708002560.484375
-14.98,1708002560.5
-18.05,1708002560.515625
-21.12,1708002560.53125
-24.07,1708002560.546875
-26.76,1708002560.5625
-29.15,1708002560.578125
-31.42,1708002560.59375
-33.84,1708002560.609375
-36.74,1708002560.625
-40.21,1708002560.640625
-43.91,1708002560.65625
-47.1,1708002560.671875
-48.71,1708002560.6875
-47.72,1708002560.703125
-43.49,1708002560.71875
-35.96,1708002560.734375
-25.77,1708002560.75
-14.05,1708002560.765625
-2.15,1708002560.78125
8.71,1708002560.796875
17.67,1708002560.8125
24.34,1708002560.828125
28.7,1708002560.84375
31.0,1708002560.859375
31.58,1708002560.875
30.88,1708002560.890625
29.29,1708002560.90625
27.23,1708002560.921875
25.04,1708002560.9375
22.96,1708002560.953125
21.17,1708002560.96875
19.74,1708002560.984375
18.71,1708002561.0
18.19,1708002561.015625
18.3,1708002561.03125
19.16,1708002561.046875
20.74,1708002561.0625
22.85,1708002561.078125
25.14,1708002561.09375
27.16,1708002561.109375
28.57,1708002561.125
29.2,1708002561.140625
29.07,1708002561.15625
28.3,1708002561.171875
27.09,1708002561.1875
25.56,1708002561.203125
23.8,1708002561.21875
21.85,1708002561.234375
19.73,1708002561.25
17.48,1708002561.265625
15.1,1708002561.28125
12.56,1708002561.296875
9.85,1708002561.3125
6.98,1708002561.328125
4.02,1708002561.34375
1.06,1708002561.359375
-1.8,1708002561.375
-4.54,1708002561.390625
-7.24,1708002561.40625
-9.98,1708002561.421875
-12.81,1708002561.4375
-15.69,1708002561.453125
-18.47,1708002561.46875
-21.06,1708002561.484375
-23.42,1708002561.5
-25.62,1708002561.515625
-27.82,1708002561.53125
-30.17,1708002561.546875
-32.78,1708002561.5625
-35.7,1708002561.578125
-38.92,1708002561.59375
-42.41,1708002561.609375
-45.97,1708002561.625
-49.17,1708002561.640625
-51.32,1708002561.65625
-51.61,1708002561.671875
-49.32,1708002561.6875
-44.13,1708002561.703125
-36.21,1708002561.71875
-26.3,1708002561.734375
-15.44,1708002561.75
-4.76,1708002561.765625
4.79,1708002561.78125
12.6,1708002561.796875
18.45,1708002561.8125
22.39,1708002561.828125
24.71,1708002561.84375
25.73,1708002561.859375
25.8,1708002561.875
25.17,1708002561.890625
24.02,1708002561.90625
22.52,1708002561.921875
20.8,1708002561.9375
19.02,1708002561.953125
17.36,1708002561.96875
15.97,1708002561.984375
15.02,1708002562.0
14.67,1708002562.015625
14.99,1708002562.03125
15.99,1708002562.046875
17.51,1708002562.0625
19.28,1708002562.078125
20.95,1708002562.09375
22.23,1708002562.109375
22.91,1708002562.125
22.97,1708002562.140625
22.42,1708002562.15625
21.37,1708002562.171875
19.88,1708002562.1875
18.01,1708002562.203125
15.86,1708002562.21875
13.47,1708002562.234375
10.93,1708002562.25
8.28,1708002562.265625
5.55,1708002562.28125
2.78,1708002562.296875
0.02,1708002562.3125
-2.61,1708002562.328125
-5.05,1708002562.34375
-7.25,1708002562.359375
-9.28,1708002562.375
-11.27,1708002562.390625
-13.34,1708002562.40625
-15.54,1708002562.421875
-17.86,1708002562.4375
-20.22,1708002562.453125
-22.53,1708002562.46875
-24.76,1708002562.484375
-26.91,1708002562.5
-29.07,1708002562.515625
-31.4,1708002562.53125
-34.05,1708002562.546875
-37.08,1708002562.5625
-40.39,1708002562.578125
-43.6,1708002562.59375
-46.07,1708002562.609375
-47.04,1708002562.625
-45.79,1708002562.640625
-41.9,1708002562.65625
-35.43,1708002562.671875
-26.87,1708002562.6875
-17.1,1708002562.703125
-7.14,1708002562.71875
2.09,1708002562.734375
9.92,1708002562.75
15.99,1708002562.765625
20.25,1708002562.78125
22.82,1708002562.796875
23.91,1708002562.8125
23.74,1708002562.828125
22.51,1708002562.84375
20.41,1708002562.859375
17.77,1708002562.875
14.96,1708002562.890625
12.43,1708002562.90625
10.56,1708002562.921875
9.57,1708002562.9375
9.43,1708002562.953125
9.96,1708002562.96875
10.9,1708002562.984375
11.99,1708002563.0
13.08,1708002563.015625
14.04,1708002563.03125
14.79,1708002563.046875
15.19,1708002563.0625
15.15,1708002563.078125
14.56,1708002563.09375
13.39,1708002563.109375
11.72,1708002563.125
9.62,1708002563.140625
7.23,1708002563.15625
4.65,1708002563.171875
1.99,1708002563.1875
-0.64,1708002563.203125
-3.13,1708002563.21875
-5.46,1708002563.234375
-7.7,1708002563.25
-10.01,1708002563.265625
-12.53,1708002563.28125
-15.38,1708002563.296875
-18.54,1708002563.3125
-21.95,1708002563.328125
-25.52,1708002563.34375
-29.18,1708002563.359375
-32.97,1708002563.375
-36.96,1708002563.390625
-41.16,1708002563.40625
-45.53,1708002563.421875
-50.0,1708002563.4375
-54.51,1708002563.453125
-59.13,1708002563.46875
-64.05,1708002563.484375
-69.47,1708002563.5
-75.32,1708002563.515625
-81.13,1708002563.53125
-86.02,1708002563.546875
-88.96,1708002563.5625
-89.08,1708002563.578125
-86.14,1708002563.59375
-80.63,1708002563.609375
-73.76,1708002563.625
-67.07,1708002563.640625
-62.0,1708002563.65625
-59.41,1708002563.671875
-59.36,1708002563.6875
-61.07,1708002563.703125
-63.28,1708002563.71875
-64.63,1708002563.734375
-64.26,1708002563.75
-62.11,1708002563.765625
-58.95,1708002563.78125
-56.03,1708002563.796875
-54.4,1708002563.8125
-54.34,1708002563.828125
-55.02,1708002563.84375
-54.75,1708002563.859375
-51.59,1708002563.875
-43.94,1708002563.890625
-30.94,1708002563.90625
-12.61,1708002563.921875
10.19,1708002563.9375
35.74,1708002563.953125
61.53,1708002563.96875
84.58,1708002563.984375
102.26,1708002564.0
113.25,1708002564.015625
118.25,1708002564.03125
119.84,1708002564.046875
121.3,1708002564.0625
124.98,1708002564.078125
131.17,1708002564.09375
138.03,1708002564.109375
142.84,1708002564.125
143.59,1708002564.140625
140.1,1708002564.15625
133.86,1708002564.171875
126.9,1708002564.1875
120.55,1708002564.203125
114.86,1708002564.21875
109.01,1708002564.234375
102.28,1708002564.25
94.81,1708002564.265625
87.64,1708002564.28125
81.95,1708002564.296875
78.14,1708002564.3125
75.38,1708002564.328125
71.84,1708002564.34375
65.62,1708002564.359375
55.69,1708002564.375
42.46,1708002564.390625
27.62,1708002564.40625
13.45,1708002564.421875
2.07,1708002564.4375
-5.23,1708002564.453125
-8.14,1708002564.46875
-7.16,1708002564.484375
-3.28,1708002564.5
2.35,1708002564.515625
8.6,1708002564.53125
14.49,1708002564.546875
19.17,1708002564.5625
22.07,1708002564.578125
23.01,1708002564.59375
22.39,1708002564.609375
21.08,1708002564.625
19.99,1708002564.640625
19.55,1708002564.65625
19.28,1708002564.671875
17.92,1708002564.6875
14.06,1708002564.703125
6.9,1708002564.71875
-3.12,1708002564.734375
-14.44,1708002564.75
-25.22,1708002564.765625
-34.16,1708002564.78125
-41.16,1708002564.796875
-47.07,1708002564.8125
-52.96,1708002564.828125
-59.37,1708002564.84375
-65.96,1708002564.859375
-71.84,1708002564.875
-76.18,1708002564.890625
-78.73,1708002564.90625
-79.77,1708002564.921875
-79.8,1708002564.9375
-79.05,1708002564.953125
-77.37,1708002564.96875
-74.37,1708002564.984375
-69.76,1708002565.0
-63.34,1708002565.015625
-54.96,1708002565.03125
-44.25,1708002565.046875
-30.65,1708002565.0625
-13.73,1708002565.078125
6.34,1708002565.09375
28.48,1708002565.109375
50.88,1708002565.125
71.58,1708002565.140625
89.23,1708002565.15625
103.42,1708002565.171875
114.39,1708002565.1875
122.46,1708002565.203125
127.36,1708002565.21875
128.21,1708002565.234375
124.13,1708002565.25
115.04,1708002565.265625
102.06,1708002565.28125
87.15,1708002565.296875
72.26,1708002565.3125
58.41,1708002565.328125
45.46,1708002565.34375
32.67,1708002565.359375
19.59,1708002565.375
6.65,1708002565.390625
-4.99,1708002565.40625
-14.2,1708002565.421875
-20.65,1708002565.4375
-25.04,1708002565.453125
-28.6,1708002565.46875
-32.23,1708002565.484375
-36.08,1708002565.5
-39.62,1708002565.515625
-42.24,1708002565.53125
-43.87,1708002565.546875
-45.01,1708002565.5625
-46.39,1708002565.578125
-48.4,1708002565.59375
-50.79,1708002565.609375
-52.86,1708002565.625
-53.96,1708002565.640625
-53.84,1708002565.65625
-52.77,1708002565.671875
-51.25,1708002565.6875
-49.63,1708002565.703125
-47.91,1708002565.71875
-45.81,1708002565.734375
-43.02,1708002565.75
-39.49,1708002565.765625
-35.52,1708002565.78125
-31.63,1708002565.796875
-28.25,1708002565.8125
-25.51,1708002565.828125
-23.16,1708002565.84375
-20.74,1708002565.859375
-17.88,1708002565.875
-14.57,1708002565.890625
-11.18,1708002565.90625
-8.35,1708002565.921875
-6.67,1708002565.9375
-6.36,1708002565.953125
-7.22,1708002565.96875
-8.73,1708002565.984375
-10.37,1708002566.0
-11.84,1708002566.015625
-13.2,1708002566.03125
-14.77,1708002566.046875
-16.9,1708002566.0625
-19.68,1708002566.078125
-22.9,1708002566.09375
-26.07,1708002566.109375
-28.73,1708002566.125
-30.69,1708002566.140625
-32.14,1708002566.15625
-33.65,1708002566.171875
-35.76,1708002566.1875
-38.71,1708002566.203125
-42.14,1708002566.21875
-45.16,1708002566.234375
-46.7,1708002566.25
-45.93,1708002566.265625
-42.55,1708002566.28125
-36.89,1708002566.296875
-29.6,1708002566.3125
-21.4,1708002566.328125
-12.82,1708002566.34375
-4.22,1708002566.359375
4.04,1708002566.375
11.43,1708002566.390625
17.28,1708002566.40625
20.97,1708002566.421875
22.19,1708002566.4375
21.13,1708002566.453125
18.44,1708002566.46875
14.96,1708002566.484375
11.39,1708002566.5
8.22,1708002566.515625
5.61,1708002566.53125
3.62,1708002566.546875
2.29,1708002566.5625
1.67,1708002566.578125
1.78,1708002566.59375
2.57,1708002566.609375
3.88,1708002566.625
5.47,1708002566.640625
7.13,1708002566.65625
8.62,1708002566.671875
9.69,1708002566.6875
10.07,1708002566.703125
9.54,1708002566.71875
7.99,1708002566.734375
5.59,1708002566.75
2.68,1708002566.765625
-0.27,1708002566.78125
-2.86,1708002566.796875
-4.84,1708002566.8125
-6.14,1708002566.828125
-6.85,1708002566.84375
-7.15,1708002566.859375
-7.27,1708002566.875
-7.5,1708002566.890625
-8.08,1708002566.90625
-9.15,1708002566.921875
-10.69,1708002566.9375
-12.56,1708002566.953125
-14.56,1708002566.96875
-16.58,1708002566.984375
-18.71,1708002567.0
-21.21,1708002567.015625
-24.39,1708002567.03125
-28.36,1708002567.046875
-32.87,1708002567.0625
-37.21,1708002567.078125
-40.39,1708002567.09375
-41.39,1708002567.109375
-39.48,1708002567.125
-34.51,1708002567.140625
-26.96,1708002567.15625
-17.78,1708002567.171875
-8.16,1708002567.1875
0.84,1708002567.203125
8.51,1708002567.21875
14.6,1708002567.234375
19.19,1708002567.25
22.58,1708002567.265625
25.03,1708002567.28125
26.71,1708002567.296875
27.69,1708002567.3125
27.96,1708002567.328125
27.51,1708002567.34375
26.38,1708002567.359375
24.64,1708002567.375
22.46,1708002567.390625
20.07,1708002567.40625
17.76,1708002567.421875
15.86,1708002567.4375
14.61,1708002567.453125
14.12,1708002567.46875
14.28,1708002567.484375
14.82,1708002567.5
15.34,1708002567.515625
15.5,1708002567.53125
15.1,1708002567.546875
14.13,1708002567.5625
12.7,1708002567.578125
11.05,1708002567.59375
9.4,1708002567.609375
7.95,1708002567.625
6.84,1708002567.640625
6.03,1708002567.65625
5.37,1708002567.671875
4.58,1708002567.6875
3.4,1708002567.703125
1.66,1708002567.71875
-0.57,1708002567.734375
-3.04,1708002567.75
-5.4,1708002567.765625
-7.36,1708002567.78125
-8.87,1708002567.796875
-10.06,1708002567.8125
-11.23,1708002567.828125
-12.65,1708002567.84375
-14.41,1708002567.859375
-16.42,1708002567.875
-18.51,1708002567.890625
-20.55,1708002567.90625
-22.52,1708002567.921875
-24.62,1708002567.9375
-27.16,1708002567.953125
-30.44,1708002567.96875
-34.62,1708002567.984375
-39.54,1708002568.0
-44.63,1708002568.015625
-48.94,1708002568.03125
-51.31,1708002568.046875
-50.68,1708002568.0625
-46.45,1708002568.078125
-38.76,1708002568.09375
-28.48,1708002568.109375
-16.98,1708002568.125
-5.66,1708002568.140625
4.35,1708002568.15625
12.48,1708002568.171875
18.63,1708002568.1875
22.97,1708002568.203125
25.8,1708002568.21875
27.41,1708002568.234375
28.05,1708002568.25
27.98,1708002568.265625
27.45,1708002568.28125
26.67,1708002568.296875
25.82,1708002568.3125
25.03,1708002568.328125
24.38,1708002568.34375
23.97,1708002568.359375
23.9,1708002568.375
24.24,1708002568.390625
25.05,1708002568.40625
26.27,1708002568.421875
27.76,1708002568.4375
29.33,1708002568.453125
30.74,1708002568.46875
31.78,1708002568.484375
32.33,1708002568.5
32.37,1708002568.515625
31.94,1708002568.53125
31.15,1708002568.546875
30.08,1708002568.5625
28.73,1708002568.578125
27.1,1708002568.59375
25.16,1708002568.609375
22.98,1708002568.625
20.68,1708002568.640625
18.38,1708002568.65625
16.17,1708002568.671875
14.04,1708002568.6875
11.89,1708002568.703125
9.63,1708002568.71875
7.22,1708002568.734375
4.75,1708002568.75
2.44,1708002568.765625
0.52,1708002568.78125
-0.81,1708002568.796875
-1.57,1708002568.8125
-1.96,1708002568.828125
-2.3,1708002568.84375
-2.98,1708002568.859375
-4.24,1708002568.875
-6.17,1708002568.890625
-8.59,1708002568.90625
-11.2,1708002568.921875
-13.6,1708002568.9375
-15.51,1708002568.953125
-16.85,1708002568.96875
-17.86,1708002568.984375
-18.97,1708002569.0
-20.72,1708002569.015625
-23.51,1708002569.03125
-27.42,1708002569.046875
-32.1,1708002569.0625
-36.78,1708002569.078125
-40.4,1708002569.09375
-41.86,1708002569.109375
-40.32,1708002569.125
-35.47,1708002569.140625
-27.66,1708002569.15625
-17.86,1708002569.171875
-7.4,1708002569.1875
2.41,1708002569.203125
10.59,1708002569.21875
16.7,1708002569.234375
20.78,1708002569.25
23.14,1708002569.265625
24.16,1708002569.28125
24.11,1708002569.296875
23.24,1708002569.3125
21.76,1708002569.328125
20.01,1708002569.34375
18.34,1708002569.359375
17.06,1708002569.375
16.33,1708002569.390625
16.09,1708002569.40625
16.17,1708002569.421875
16.44,1708002569.4375
16.89,1708002569.453125
17.64,1708002569.46875
18.84,1708002569.484375
20.5,1708002569.5
22.44,1708002569.515625
24.26,1708002569.53125
25.49,1708002569.546875
25.8,1708002569.5625
25.09,1708002569.578125
23.6,1708002569.59375
21.67,1708002569.609375
19.63,1708002569.625
17.69,1708002569.640625
15.85,1708002569.65625
14.01,1708002569.671875
12.12,1708002569.6875
10.19,1708002569.703125
8.31,1708002569.71875
6.53,1708002569.734375
4.83,1708002569.75
3.1,1708002569.765625
1.27,1708002569.78125
-0.64,1708002569.796875
-2.44,1708002569.8125
-3.85,1708002569.828125
-4.7,1708002569.84375
-5.07,1708002569.859375
-5.27,1708002569.875
-5.73,1708002569.890625
-6.81,1708002569.90625
-8.6,1708002569.921875
-10.91,1708002569.9375
-13.39,1708002569.953125
-15.72,1708002569.96875
-17.72,1708002569.984375
-19.4,1708002570.0
-20.9,1708002570.015625
-22.4,1708002570.03125
-24.01,1708002570.046875
-25.83,1708002570.0625
-27.91,1708002570.078125
-30.28,1708002570.09375
-32.82,1708002570.109375
-35.21,1708002570.125
-36.79,1708002570.140625
-36.75,1708002570.15625
-34.37,1708002570.171875
-29.28,1708002570.1875
-21.75,1708002570.203125
-12.61,1708002570.21875
-3.09,1708002570.234375
5.58,1708002570.25
12.57,1708002570.265625
17.55,1708002570.28125
20.71,1708002570.296875
22.44,1708002570.3125
23.15,1708002570.328125
23.12,1708002570.34375
22.46,1708002570.359375
21.26,1708002570.375
19.63,1708002570.390625
17.76,1708002570.40625
15.89,1708002570.421875
14.25,1708002570.4375
13.02,1708002570.453125
12.29,1708002570.46875
12.14,1708002570.484375
12.54,1708002570.5
13.43,1708002570.515625
14.66,1708002570.53125
16.01,1708002570.546875
17.16,1708002570.5625
17.92,1708002570.578125
18.12,1708002570.59375
17.76,1708002570.609375
16.95,1708002570.625
15.8,1708002570.640625
14.42,1708002570.65625
12.84,1708002570.671875
11.1,1708002570.6875
9.27,1708002570.703125
7.47,1708002570.71875
5.84,1708002570.734375
4.48,1708002570.75
3.33,1708002570.765625
2.19,1708002570.78125
0.85,1708002570.796875
-0.81,1708002570.8125
-2.67,1708002570.828125
-4.44,1708002570.84375
-5.84,1708002570.859375
-6.72,1708002570.875
-7.25,1708002570.890625
-7.78,1708002570.90625
-8.7,1708002570.921875
-10.17,1708002570.9375
-12.15,1708002570.953125
-14.39,1708002570.96875
-16.61,1708002570.984375
-18.63,1708002571.0
-20.37,1708002571.015625
-21.86,1708002571.03125
-23.13,1708002571.046875
-24.23,1708002571.0625
-25.31,1708002571.078125
-26.62,1708002571.09375
-28.4,1708002571.109375
-30.74,1708002571.125
-33.33,1708002571.140625
-35.46,1708002571.15625
-36.15,1708002571.171875
-34.59,1708002571.1875
-30.37,1708002571.203125
-23.79,1708002571.21875
-15.69,1708002571.234375
-7.18,1708002571.25
0.71,1708002571.265625
7.29,1708002571.28125
12.27,1708002571.296875
15.68,1708002571.3125
17.67,1708002571.328125
18.41,1708002571.34375
18.08,1708002571.359375
16.9,1708002571.375
15.14,1708002571.390625
13.15,1708002571.40625
11.3,1708002571.421875
9.83,1708002571.4375
8.84,1708002571.453125
8.3,1708002571.46875
8.09,1708002571.484375
8.13,1708002571.5
8.48,1708002571.515625
9.21,1708002571.53125
10.36,1708002571.546875
11.84,1708002571.5625
13.42,1708002571.578125
14.79,1708002571.59375
15.68,1708002571.609375
15.97,1708002571.625
15.69,1708002571.640625
14.96,1708002571.65625
13.92,1708002571.671875
12.64,1708002571.6875
11.19,1708002571.703125
9.66,1708002571.71875
8.22,1708002571.734375
7.01,1708002571.75
6.11,1708002571.765625
5.41,1708002571.78125
4.63,1708002571.796875
3.5,1708002571.8125
1.91,1708002571.828125
0.02,1708002571.84375
-1.82,1708002571.859375
-3.28,1708002571.875
-4.16,1708002571.890625
-4.59,1708002571.90625
-4.9,1708002571.921875
-5.51,1708002571.9375
-6.68,1708002571.953125
-8.44,1708002571.96875
-10.7,1708002571.984375
-13.19,1708002572.0
-15.64,1708002572.015625
-17.8,1708002572.03125
-19.41,1708002572.046875
-20.36,1708002572.0625
-20.69,1708002572.078125
-20.74,1708002572.09375
-21.07,1708002572.109375
-22.28,1708002572.125
-24.74,1708002572.140625
-28.36,1708002572.15625
-32.55,1708002572.171875
-36.35,1708002572.1875
-38.75,1708002572.203125
-38.95,1708002572.21875
-36.65,1708002572.234375
-32.02,1708002572.25
-25.56,1708002572.265625
-17.95,1708002572.28125
-9.87,1708002572.296875
-1.97,1708002572.3125
5.1,1708002572.328125
10.61,1708002572.34375
13.88,1708002572.359375
14.43,1708002572.375
12.26,1708002572.390625
7.94,1708002572.40625
2.51,1708002572.421875
-2.84,1708002572.4375
-7.22,1708002572.453125
-10.25,1708002572.46875
-12.23,1708002572.484375
-13.82,1708002572.5
-15.7,1708002572.515625
-18.19,1708002572.53125
-21.09,1708002572.546875
-23.66,1708002572.5625
-24.97,1708002572.578125
-24.35,1708002572.59375
-21.75,1708002572.609375
-18.09,1708002572.625
-15.12,1708002572.640625
-14.96,1708002572.65625
-19.18,1708002572.671875
-28.0,1708002572.6875
-40.0,1708002572.703125
-52.27,1708002572.71875
-61.5,1708002572.734375
-65.2,1708002572.75
-62.64,1708002572.765625
-55.22,1708002572.78125
-46.12,1708002572.796875
-39.42,1708002572.8125
-38.62,1708002572.828125
-45.18,1708002572.84375
-57.24,1708002572.859375
-69.28,1708002572.875
-73.28,1708002572.890625
-61.2,1708002572.90625
-28.14,1708002572.921875
24.81,1708002572.9375
89.94,1708002572.953125
154.53,1708002572.96875
204.62,1708002572.984375
229.27,1708002573.0
223.9,1708002573.015625
191.34,1708002573.03125
140.38,1708002573.046875
82.6,1708002573.0625
28.7,1708002573.078125
-14.25,1708002573.09375
-43.88,1708002573.109375
-61.8,1708002573.125
-71.77,1708002573.140625
-77.7,1708002573.15625
-82.14,1708002573.171875
-86.07,1708002573.1875
-89.28,1708002573.203125
-91.07,1708002573.21875
-90.66,1708002573.234375
-87.31,1708002573.25
-80.23,1708002573.265625
-68.74,1708002573.28125
-52.64,1708002573.296875
-32.62,1708002573.3125
-10.45,1708002573.328125
11.45,1708002573.34375
30.66,1708002573.359375
45.57,1708002573.375
55.71,1708002573.390625
61.66,1708002573.40625
64.69,1708002573.421875
66.04,1708002573.4375
66.55,1708002573.453125
66.37,1708002573.46875
65.11,1708002573.484375
62.12,1708002573.5
56.97,1708002573.515625
49.74,1708002573.53125
41.14,1708002573.546875
32.33,1708002573.5625
24.63,1708002573.578125
19.14,1708002573.59375
16.39,1708002573.609375
16.24,1708002573.625
17.96,1708002573.640625
20.47,1708002573.65625
22.67,1708002573.671875
23.8,1708002573.6875
23.71,1708002573.703125
22.83,1708002573.71875
21.95,1708002573.734375
21.78,1708002573.75
22.69,1708002573.765625
24.53,1708002573.78125
26.8,1708002573.796875
28.85,1708002573.8125
30.19,1708002573.828125
30.6,1708002573.84375
30.12,1708002573.859375
28.89,1708002573.875
27.15,1708002573.890625
25.2,1708002573.90625
23.35,1708002573.921875
21.86,1708002573.9375
20.83,1708002573.953125
20.17,1708002573.96875
19.56,1708002573.984375
18.62,1708002574.0
17.1,1708002574.015625
15.02,1708002574.03125
12.54,1708002574.046875
9.79,1708002574.0625
6.7,1708002574.078125
2.95,1708002574.09375
-1.83,1708002574.109375
-7.87,1708002574.125
-15.11,1708002574.140625
-23.17,1708002574.15625
-31.53,1708002574.171875
-39.59,1708002574.1875
-46.71,1708002574.203125
-52.23,1708002574.21875
-55.54,1708002574.234375
-56.26,1708002574.25
-54.41,1708002574.265625
-50.46,1708002574.28125
-45.13,1708002574.296875
-39.13,1708002574.3125
-32.94,1708002574.328125
-26.82,1708002574.34375
-20.94,1708002574.359375
-15.66,1708002574.375
-11.46,1708002574.390625
-8.72,1708002574.40625
-7.32,1708002574.421875
-6.43,1708002574.4375
-4.76,1708002574.453125
-1.0,1708002574.46875
5.55,1708002574.484375
14.73,1708002574.5
25.44,1708002574.515625
36.12,1708002574.53125
45.02,1708002574.546875
50.63,1708002574.5625
51.96,1708002574.578125
48.75,1708002574.59375
41.77,1708002574.609375
32.77,1708002574.625
24.09,1708002574.640625
17.85,1708002574.65625
15.07,1708002574.671875
15.24,1708002574.6875
16.52,1708002574.703125
16.59,1708002574.71875
13.73,1708002574.734375
7.48,1708002574.75
-1.41,1708002574.765625
-11.61,1708002574.78125
-21.95,1708002574.796875
-31.85,1708002574.8125
-41.19,1708002574.828125
-49.94,1708002574.84375
-57.75,1708002574.859375
-64.06,1708002574.875
-68.38,1708002574.890625
-70.77,1708002574.90625
-71.99,1708002574.921875
-73.21,1708002574.9375
-75.55,1708002574.953125
-79.49,1708002574.96875
-84.6,1708002574.984375
-89.61,1708002575.0
-92.88,1708002575.015625
-92.95,1708002575.03125
-89.08,1708002575.046875
-81.42,1708002575.0625
-70.87,1708002575.078125
-58.69,1708002575.09375
-46.11,1708002575.109375
-34.01,1708002575.125
-22.89,1708002575.140625
-12.96,1708002575.15625
-4.28,1708002575.171875
3.01,1708002575.1875
8.85,1708002575.203125
13.15,1708002575.21875
15.95,1708002575.234375
17.44,1708002575.25
18.0,1708002575.265625
18.14,1708002575.28125
18.36,1708002575.296875
19.1,1708002575.3125
20.58,1708002575.328125
22.85,1708002575.34375
25.81,1708002575.359375
29.36,1708002575.375
33.54,1708002575.390625
38.5,1708002575.40625
44.36,1708002575.421875
51.06,1708002575.4375
58.23,1708002575.453125
65.2,1708002575.46875
71.15,1708002575.484375
75.36,1708002575.5
77.39,1708002575.515625
77.19,1708002575.53125
75.08,1708002575.546875
71.68,1708002575.5625
67.7,1708002575.578125
63.82,1708002575.59375
60.45,1708002575.609375
57.65,1708002575.625
55.1,1708002575.640625
52.22,1708002575.65625
48.39,1708002575.671875
43.16,1708002575.6875
36.4,1708002575.703125
28.31,1708002575.71875
19.33,1708002575.734375
10.01,1708002575.75
0.8,1708002575.765625
-8.01,1708002575.78125
-16.32,1708002575.796875
-24.23,1708002575.8125
-31.88,1708002575.828125
-39.33,1708002575.84375
-46.36,1708002575.859375
-52.5,1708002575.875
-56.97,1708002575.890625
-58.91,1708002575.90625
-57.71,1708002575.921875
-53.11,1708002575.9375
-45.45,1708002575.953125
-35.46,1708002575.96875
-24.1,1708002575.984375
-12.27,1708002576.0
-0.68,1708002576.015625
10.23,1708002576.03125
20.18,1708002576.046875
28.93,1708002576.0625
36.28,1708002576.078125
42.08,1708002576.09375
46.28,1708002576.109375
49.02,1708002576.125
50.59,1708002576.140625
51.36,1708002576.15625
51.67,1708002576.171875
51.78,1708002576.1875
51.79,1708002576.203125
51.72,1708002576.21875
51.43,1708002576.234375
50.72,1708002576.25
49.36,1708002576.265625
47.13,1708002576.28125
43.96,1708002576.296875
39.94,1708002576.3125
35.36,1708002576.328125
30.6,1708002576.34375
26.04,1708002576.359375
21.89,1708002576.375
18.22,1708002576.390625
14.89,1708002576.40625
11.66,1708002576.421875
8.34,1708002576.4375
4.8,1708002576.453125
1.09,1708002576.46875
-2.6,1708002576.484375
-5.99,1708002576.5
-8.91,1708002576.515625
-11.29,1708002576.53125
-13.22,1708002576.546875
-14.95,1708002576.5625
-16.72,1708002576.578125
-18.76,1708002576.59375
-21.14,1708002576.609375
-23.81,1708002576.625
-26.61,1708002576.640625
-29.26,1708002576.65625
-31.47,1708002576.671875
-33.02,1708002576.6875
-33.89,1708002576.703125
-34.28,1708002576.71875
-34.63,1708002576.734375
-35.49,1708002576.75
-37.36,1708002576.765625
-40.51,1708002576.78125
-44.8,1708002576.796875
-49.69,1708002576.8125
-54.22,1708002576.828125
-57.24,1708002576.84375
-57.68,1708002576.859375
-54.89,1708002576.875
-48.92,1708002576.890625
-40.55,1708002576.90625
-31.11,1708002576.921875
-22.02,1708002576.9375
-14.31,1708002576.953125
-8.42,1708002576.96875
-4.15,1708002576.984375
-0.99,1708002577.0
1.48,1708002577.015625
3.38,1708002577.03125
4.54,1708002577.046875
4.68,1708002577.0625
3.62,1708002577.078125
1.5,1708002577.09375
-1.27,1708002577.109375
-4.14,1708002577.125
-6.63,1708002577.140625
-8.47,1708002577.15625
-9.67,1708002577.171875
-10.45,1708002577.1875
-11.21,1708002577.203125
-12.29,1708002577.21875
-13.93,1708002577.234375
-16.21,1708002577.25
-19.03,1708002577.265625
-22.31,1708002577.28125
-26.12,1708002577.296875
-30.74,1708002577.3125
-36.62,1708002577.328125
-44.14,1708002577.34375
-53.39,1708002577.359375
-63.94,1708002577.375
-74.87,1708002577.390625
-85.09,1708002577.40625
-93.73,1708002577.421875
-100.47,1708002577.4375
-105.52,1708002577.453125
-109.31,1708002577.46875
-112.03,1708002577.484375
-113.39,1708002577.5
-112.68,1708002577.515625
-109.18,1708002577.53125
-102.61,1708002577.546875
-93.14,1708002577.5625
-81.16,1708002577.578125
-66.72,1708002577.59375
-49.24,1708002577.609375
-27.73,1708002577.625
-1.88,1708002577.640625
27.21,1708002577.65625
57.03,1708002577.671875
84.69,1708002577.6875
108.51,1708002577.703125
128.91,1708002577.71875
148.01,1708002577.734375
167.96,1708002577.75
189.25,1708002577.765625
209.99,1708002577.78125
226.9,1708002577.796875
237.3,1708002577.8125
240.66,1708002577.828125
238.9,1708002577.84375
234.94,1708002577.859375
230.71,1708002577.875
225.91,1708002577.890625
218.3,1708002577.90625
205.32,1708002577.921875
185.97,1708002577.9375
161.6,1708002577.953125
135.34,1708002577.96875
110.66,1708002577.984375
89.93,1708002578.0
73.82,1708002578.015625
61.53,1708002578.03125
51.56,1708002578.046875
42.68,1708002578.0625
34.33,1708002578.078125
26.48,1708002578.09375
19.22,1708002578.109375
12.4,1708002578.125
5.56,1708002578.140625
-1.82,1708002578.15625
-9.96,1708002578.171875
-18.63,1708002578.1875
-27.23,1708002578.203125
-35.06,1708002578.21875
-41.7,1708002578.234375
-47.1,1708002578.25
-51.54,1708002578.265625
-55.49,1708002578.28125
-59.37,1708002578.296875
-63.47,1708002578.3125
-67.91,1708002578.328125
-72.6,1708002578.34375
-77.33,1708002578.359375
-81.77,1708002578.375
-85.5,1708002578.390625
-88.19,1708002578.40625
-89.76,1708002578.421875
-90.33,1708002578.4375
-90.18,1708002578.453125
-89.55,1708002578.46875
-88.45,1708002578.484375
-86.72,1708002578.5
-84.15,1708002578.515625
-80.72,1708002578.53125
-76.74,1708002578.546875
-72.8,1708002578.5625
-69.55,1708002578.578125
-67.48,1708002578.59375
-66.72,1708002578.609375
-66.9,1708002578.625
-67.27,1708002578.640625
-66.88,1708002578.65625
-64.85,1708002578.671875
-60.52,1708002578.6875
-53.67,1708002578.703125
-44.51,1708002578.71875
-33.63,1708002578.734375
-21.89,1708002578.75
-10.18,1708002578.765625
0.72,1708002578.78125
10.27,1708002578.796875
18.25,1708002578.8125
24.66,1708002578.828125
29.64,1708002578.84375
33.33,1708002578.859375
35.84,1708002578.875
37.28,1708002578.890625
37.77,1708002578.90625
37.54,1708002578.921875
36.9,1708002578.9375
36.19,1708002578.953125
35.63,1708002578.96875
35.38,1708002578.984375
35.5,1708002579.0
36.07,1708002579.015625
37.14,1708002579.03125
38.78,1708002579.046875
40.89,1708002579.0625
43.27,1708002579.078125
45.56,1708002579.09375
47.42,1708002579.109375
48.63,1708002579.125
49.11,1708002579.140625
48.97,1708002579.15625
48.35,1708002579.171875
47.47,1708002579.1875
46.5,1708002579.203125
45.61,1708002579.21875
44.83,1708002579.234375
44.1,1708002579.25
43.27,1708002579.265625
42.09,1708002579.28125
40.41,1708002579.296875
38.21,1708002579.3125
35.66,1708002579.328125
33.04,1708002579.34375
30.59,1708002579.359375
28.4,1708002579.375
26.36,1708002579.390625
24.24,1708002579.40625
21.81,1708002579.421875
18.94,1708002579.4375
15.67,1708002579.453125
12.07,1708002579.46875
8.26,1708002579.484375
4.24,1708002579.5
-0.03,1708002579.515625
-4.73,1708002579.53125
-10.04,1708002579.546875
-16.16,1708002579.5625
-23.24,1708002579.578125
-31.29,1708002579.59375
-40.05,1708002579.609375
-49.0,1708002579.625
-57.29,1708002579.640625
-64.03,1708002579.65625
-68.52,1708002579.671875
-70.52,1708002579.6875
-70.32,1708002579.703125
-68.6,1708002579.71875
-66.12,1708002579.734375
-63.48,1708002579.75
-60.96,1708002579.765625
-58.6,1708002579.78125
-56.37,1708002579.796875
-54.33,1708002579.8125
-52.69,1708002579.828125
-51.68,1708002579.84375
-51.43,1708002579.859375
-51.87,1708002579.875
-52.71,1708002579.890625
-53.63,1708002579.90625
-54.43,1708002579.921875
-55.06,1708002579.9375
-55.65,1708002579.953125
-56.25,1708002579.96875
-56.76,1708002579.984375
-56.84,1708002580.0
-55.96,1708002580.015625
-53.56,1708002580.03125
-49.25,1708002580.046875
-42.96,1708002580.0625
-35.05,1708002580.078125
-26.24,1708002580.09375
-17.45,1708002580.109375
-9.57,1708002580.125
-3.22,1708002580.140625
1.41,1708002580.15625
4.39,1708002580.171875
5.87,1708002580.1875
5.9,1708002580.203125
4.3,1708002580.21875
0.68,1708002580.234375
-5.27,1708002580.25
-13.67,1708002580.265625
-24.43,1708002580.28125
-37.32,1708002580.296875
-51.91,1708002580.3125
-67.4,1708002580.328125
-82.48,1708002580.34375
-95.57,1708002580.359375
-105.37,1708002580.375
-111.49,1708002580.390625
-114.77,1708002580.40625
-116.77,1708002580.421875
-118.74,1708002580.4375
-120.64,1708002580.453125
-120.86,1708002580.46875
-116.95,1708002580.484375
-107.02,1708002580.5
-90.87,1708002580.515625
-70.11,1708002580.53125
-47.09,1708002580.546875
-23.25,1708002580.5625
1.83,1708002580.578125
30.02,1708002580.59375
63.29,1708002580.609375
102.14,1708002580.625
145.14,1708002580.640625
189.58,1708002580.65625
232.51,1708002580.671875
271.47,1708002580.6875
304.52,1708002580.703125
329.91,1708002580.71875
345.81,1708002580.734375
350.7,1708002580.75
344.16,1708002580.765625
327.29,1708002580.78125
302.59,1708002580.796875
272.91,1708002580.8125
240.38,1708002580.828125
205.97,1708002580.84375
169.76,1708002580.859375
131.82,1708002580.875
93.04,1708002580.890625
55.22,1708002580.90625
20.54,1708002580.921875
-9.2,1708002580.9375
-33.07,1708002580.953125
-51.19,1708002580.96875
-64.43,1708002580.984375
-74.05,1708002581.0
-81.33,1708002581.015625
-87.31,1708002581.03125
-92.65,1708002581.046875
-97.74,1708002581.0625
-102.8,1708002581.078125
-107.92,1708002581.09375
-113.05,1708002581.109375
-117.83,1708002581.125
-121.53,1708002581.140625
-123.08,1708002581.15625
-121.46,1708002581.171875
-116.08,1708002581.1875
-107.19,1708002581.203125
-95.89,1708002581.21875
-83.91,1708002581.234375
-73.04,1708002581.25
-64.55,1708002581.265625
-58.83,1708002581.28125
-55.45,1708002581.296875
-53.41,1708002581.3125
-51.74,1708002581.328125
-49.82,1708002581.34375
-47.48,1708002581.359375
-44.88,1708002581.375
-42.19,1708002581.390625
-39.49,1708002581.40625
-36.71,1708002581.421875
-33.82,1708002581.4375
-30.97,1708002581.453125
-28.45,1708002581.46875
-26.65,1708002581.484375
-25.86,1708002581.5
-26.2,1708002581.515625
-27.61,1708002581.53125
-29.96,1708002581.546875
-33.02,1708002581.5625
-36.52,1708002581.578125
-40.04,1708002581.59375
-43.04,1708002581.609375
-44.95,1708002581.625
-45.27,1708002581.640625
-43.73,1708002581.65625
-40.33,1708002581.671875
-35.29,1708002581.6875
-28.96,1708002581.703125
-21.8,1708002581.71875
-14.26,1708002581.734375
-6.87,1708002581.75
-0.1,1708002581.765625
5.69,1708002581.78125
10.35,1708002581.796875
13.9,1708002581.8125
16.52,1708002581.828125
18.36,1708002581.84375
19.47,1708002581.859375
19.8,1708002581.875
19.31,1708002581.890625
18.07,1708002581.90625
16.35,1708002581.921875
14.54,1708002581.9375
13.09,1708002581.953125
12.37,1708002581.96875
12.6,1708002581.984375
13.78,1708002582.0
15.8,1708002582.015625
18.47,1708002582.03125
21.55,1708002582.046875
24.82,1708002582.0625
28.12,1708002582.078125
31.29,1708002582.09375
34.17,1708002582.109375
36.63,1708002582.125
38.53,1708002582.140625
39.81,1708002582.15625
40.51,1708002582.171875
40.76,1708002582.1875
40.7,1708002582.203125
40.42,1708002582.21875
39.87,1708002582.234375
38.93,1708002582.25
37.49,1708002582.265625
35.5,1708002582.28125
32.98,1708002582.296875
30.01,1708002582.3125
26.63,1708002582.328125
22.84,1708002582.34375
18.68,1708002582.359375
14.21,1708002582.375
9.61,1708002582.390625
5.12,1708002582.40625
0.9,1708002582.421875
-3.03,1708002582.4375
-6.73,1708002582.453125
-10.33,1708002582.46875
-13.92,1708002582.484375
-17.46,1708002582.5
-20.93,1708002582.515625
-24.35,1708002582.53125
-27.93,1708002582.546875
-32.02,1708002582.5625
-36.85,1708002582.578125
-42.42,1708002582.59375
-48.31,1708002582.609375
-53.75,1708002582.625
-57.79,1708002582.640625
-59.53,1708002582.65625
-58.35,1708002582.671875
-54.03,1708002582.6875
-46.77,1708002582.703125
-37.21,1708002582.71875
-26.28,1708002582.734375
-15.13,1708002582.75
-4.86,1708002582.765625
3.68,1708002582.78125
10.08,1708002582.796875
14.38,1708002582.8125
17.0,1708002582.828125
18.41,1708002582.84375
19.06,1708002582.859375
19.15,1708002582.875
18.77,1708002582.890625
17.97,1708002582.90625
16.89,1708002582.921875
15.75,1708002582.9375
14.85,1708002582.953125
14.44,1708002582.96875
14.65,1708002582.984375
15.5,1708002583.0
16.94,1708002583.015625
18.9,1708002583.03125
21.31,1708002583.046875
24.01,1708002583.0625
26.77,1708002583.078125
29.23,1708002583.09375
30.99,1708002583.109375
31.8,1708002583.125
31.61,1708002583.140625
30.63,1708002583.15625
29.14,1708002583.171875
27.42,1708002583.1875
25.53,1708002583.203125
23.4,1708002583.21875
20.84,1708002583.234375
17.74,1708002583.25
14.05,1708002583.265625
9.89,1708002583.28125
5.49,1708002583.296875
1.1,1708002583.3125
-3.03,1708002583.328125
-6.83,1708002583.34375
-10.6,1708002583.359375
-15.19,1708002583.375
-21.75,1708002583.390625
-31.24,1708002583.40625
-43.68,1708002583.421875
-57.68,1708002583.4375
-70.84,1708002583.453125
-80.64,1708002583.46875
-85.43,1708002583.484375
-84.65,1708002583.5
-78.46,1708002583.515625
-67.07,1708002583.53125
-50.47,1708002583.546875
-28.74,1708002583.5625
-2.7,1708002583.578125
25.66,1708002583.59375
53.54,1708002583.609375
78.06,1708002583.625
97.18,1708002583.640625
109.93,1708002583.65625
115.98,1708002583.671875
115.09,1708002583.6875
106.94,1708002583.703125
91.48,1708002583.71875
69.69,1708002583.734375
43.99,1708002583.75
17.75,1708002583.765625
-5.57,1708002583.78125
-23.45,1708002583.796875
-34.87,1708002583.8125
-40.26,1708002583.828125
-40.89,1708002583.84375
-38.32,1708002583.859375
-33.93,1708002583.875
-28.63,1708002583.890625
-23.02,1708002583.90625
-17.52,1708002583.921875
-12.58,1708002583.9375
-8.67,1708002583.953125
-6.13,1708002583.96875
-4.93,1708002583.984375
-4.58,1708002584.0
-4.31,1708002584.015625
-3.42,1708002584.03125
-1.68,1708002584.046875
0.58,1708002584.0625
2.65,1708002584.078125
3.91,1708002584.09375
4.15,1708002584.109375
3.68,1708002584.125
3.15,1708002584.140625
3.15,1708002584.15625
3.95,1708002584.171875
5.38,1708002584.1875
6.97,1708002584.203125
8.19,1708002584.21875
8.68,1708002584.234375
8.37,1708002584.25
7.45,1708002584.265625
6.22,1708002584.28125
4.92,1708002584.296875
3.65,1708002584.3125
2.36,1708002584.328125
0.89,1708002584.34375
-0.81,1708002584.359375
-2.66,1708002584.375
-4.45,1708002584.390625
-5.98,1708002584.40625
-7.16,1708002584.421875
-8.13,1708002584.4375
-9.17,1708002584.453125
-10.6,1708002584.46875
-12.65,1708002584.484375
-15.37,1708002584.5
-18.6,1708002584.515625
-21.98,1708002584.53125
-25.0,1708002584.546875
-27.05,1708002584.5625
-27.57,1708002584.578125
-26.17,1708002584.59375
-22.83,1708002584.609375
-17.88,1708002584.625
-11.97,1708002584.640625
-5.81,1708002584.65625
-0.02,1708002584.671875
4.99,1708002584.6875
9.05,1708002584.703125
12.13,1708002584.71875
14.23,1708002584.734375
15.4,1708002584.75
15.72,1708002584.765625
15.38,1708002584.78125
14.65,1708002584.796875
13.88,1708002584.8125
13.28,1708002584.828125
12.98,1708002584.84375
12.84,1708002584.859375
12.71,1708002584.875
12.43,1708002584.890625
12.04,1708002584.90625
11.76,1708002584.921875
11.89,1708002584.9375
12.66,1708002584.953125
14.02,1708002584.96875
15.73,1708002584.984375
17.4,1708002585.0
18.73,1708002585.015625
19.59,1708002585.03125
20.01,1708002585.046875
20.05,1708002585.0625
19.73,1708002585.078125
18.96,1708002585.09375
17.62,1708002585.109375
15.72,1708002585.125
13.45,1708002585.140625
11.09,1708002585.15625
8.97,1708002585.171875
7.25,1708002585.1875
5.88,1708002585.203125
4.65,1708002585.21875
3.32,1708002585.234375
1.71,1708002585.25
-0.19,1708002585.265625
-2.29,1708002585.28125
-4.42,1708002585.296875
-6.41,1708002585.3125
-8.16,1708002585.328125
-9.61,1708002585.34375
-10.77,1708002585.359375
-11.73,1708002585.375
-12.66,1708002585.390625
-13.78,1708002585.40625
-15.26,1708002585.421875
-17.09,1708002585.4375
-19.0,1708002585.453125
-20.49,1708002585.46875
-20.95,1708002585.484375
-19.83,1708002585.5
-16.89,1708002585.515625
-12.19,1708002585.53125
-6.14,1708002585.546875
0.67,1708002585.5625
7.71,1708002585.578125
14.55,1708002585.59375
20.92,1708002585.609375
26.7,1708002585.625
31.77,1708002585.640625
35.96,1708002585.65625
39.16,1708002585.671875
41.26,1708002585.6875
42.38,1708002585.703125
42.82,1708002585.71875
43.0,1708002585.734375
43.32,1708002585.75
43.99,1708002585.765625
45.04,1708002585.78125
46.4,1708002585.796875
48.1,1708002585.8125
50.32,1708002585.828125
53.34,1708002585.84375
57.34,1708002585.859375
62.19,1708002585.875
67.47,1708002585.890625
72.57,1708002585.90625
76.98,1708002585.921875
80.44,1708002585.9375
82.98,1708002585.953125
84.7,1708002585.96875
85.49,1708002585.984375
84.96,1708002586.0
82.45,1708002586.015625
77.4,1708002586.03125
69.56,1708002586.046875
59.05,1708002586.0625
46.16,1708002586.078125
31.05,1708002586.09375
13.65,1708002586.109375
-6.25,1708002586.125
-28.6,1708002586.140625
-52.81,1708002586.15625
-77.64,1708002586.171875
-101.48,1708002586.1875
-122.86,1708002586.203125
-140.69,1708002586.21875
-154.45,1708002586.234375
-163.94,1708002586.25
-169.08,1708002586.265625
-169.9,1708002586.28125
-166.65,1708002586.296875
-160.03,1708002586.3125
-151.09,1708002586.328125
-141.04,1708002586.34375
-130.74,1708002586.359375
-120.4,1708002586.375
-109.57,1708002586.390625
-97.46,1708002586.40625
-83.53,1708002586.421875
-68.0,1708002586.4375
-51.73,1708002586.453125
-35.84,1708002586.46875
-21.0,1708002586.484375
-7.1,1708002586.5
6.5,1708002586.515625
20.3,1708002586.53125
34.24,1708002586.546875
47.61,1708002586.5625
59.51,1708002586.578125
69.5,1708002586.59375
77.74,1708002586.609375
84.62,1708002586.625
90.06,1708002586.640625
93.16,1708002586.65625
92.4,1708002586.671875
86.67,1708002586.6875
76.17,1708002586.703125
62.74,1708002586.71875
49.25,1708002586.734375
38.33,1708002586.75
31.31,1708002586.765625
27.87,1708002586.78125
26.61,1708002586.796875
25.9,1708002586.8125
24.71,1708002586.828125
22.76,1708002586.84375
20.32,1708002586.859375
17.71,1708002586.875
15.06,1708002586.890625
12.22,1708002586.90625
9.01,1708002586.921875
5.38,1708002586.9375
1.49,1708002586.953125
-2.4,1708002586.96875
-6.04,1708002586.984375
-9.38,1708002587.0
-12.46,1708002587.015625
-15.44,1708002587.03125
-18.49,1708002587.046875
-21.7,1708002587.0625
-25.12,1708002587.078125
-28.69,1708002587.09375
-32.27,1708002587.109375
-35.58,1708002587.125
-38.32,1708002587.140625
-40.26,1708002587.15625
-41.39,1708002587.171875
-41.95,1708002587.1875
-42.42,1708002587.203125
-43.32,1708002587.21875
-45.03,1708002587.234375
-47.58,1708002587.25
-50.64,1708002587.265625
-53.53,1708002587.28125
-55.51,1708002587.296875
-55.97,1708002587.3125
-54.65,1708002587.328125
-51.61,1708002587.34375
-47.16,1708002587.359375
-41.7,1708002587.375
-35.55,1708002587.390625
-28.99,1708002587.40625
-22.26,1708002587.421875
-15.66,1708002587.4375
-9.56,1708002587.453125
-4.29,1708002587.46875
-0.05,1708002587.484375
3.17,1708002587.5
5.48,1708002587.515625
7.02,1708002587.53125
7.87,1708002587.546875
8.07,1708002587.5625
7.72,1708002587.578125
7.07,1708002587.59375
6.5,1708002587.609375
6.41,1708002587.625
7.04,1708002587.640625
8.39,1708002587.65625
10.24,1708002587.671875
12.25,1708002587.6875
14.14,1708002587.703125
15.82,1708002587.71875
17.31,1708002587.734375
18.65,1708002587.75
19.78,1708002587.765625
20.53,1708002587.78125
20.7,1708002587.796875
20.2,1708002587.8125
19.16,1708002587.828125
17.9,1708002587.84375
16.77,1708002587.859375
15.99,1708002587.875
15.46,1708002587.890625
14.9,1708002587.90625
13.91,1708002587.921875
12.31,1708002587.9375
10.19,1708002587.953125
7.89,1708002587.96875
5.75,1708002587.984375
3.96,1708002588.0
2.44,1708002588.015625
0.9,1708002588.03125
-0.96,1708002588.046875
-3.26,1708002588.0625
-5.91,1708002588.078125
-8.7,1708002588.09375
-11.4,1708002588.109375
-13.94,1708002588.125
-16.37,1708002588.140625
-18.82,1708002588.15625
-21.42,1708002588.171875
-24.16,1708002588.1875
-27.03,1708002588.203125
-29.96,1708002588.21875
-32.94,1708002588.234375
-35.97,1708002588.25
-39.01,1708002588.265625
-41.86,1708002588.28125
-44.11,1708002588.296875
-45.18,1708002588.3125
-44.45,1708002588.328125
-41.53,1708002588.34375
-36.43,1708002588.359375
-29.6,1708002588.375
-21.85,1708002588.390625
-14.11,1708002588.40625
-7.18,1708002588.421875
-1.62,1708002588.4375
2.36,1708002588.453125
4.74,1708002588.46875
5.63,1708002588.484375
5.22,1708002588.5
3.74,1708002588.515625
1.46,1708002588.53125
-1.29,1708002588.546875
-4.28,1708002588.5625
-7.38,1708002588.578125
-10.6,1708002588.59375
-14.12,1708002588.609375
-18.14,1708002588.625
-22.75,1708002588.640625
-27.75,1708002588.65625
-32.71,1708002588.671875
-37.03,1708002588.6875
-40.32,1708002588.703125
-42.68,1708002588.71875
-44.75,1708002588.734375
-47.47,1708002588.75
-51.55,1708002588.765625
-57.15,1708002588.78125
-63.63,1708002588.796875
-69.93,1708002588.8125
-74.99,1708002588.828125
-78.09,1708002588.84375
-78.93,1708002588.859375
-77.31,1708002588.875
-72.96,1708002588.890625
-65.6,1708002588.90625
-55.13,1708002588.921875
-41.78,1708002588.9375
-26.14,1708002588.953125
-8.75,1708002588.96875
10.31,1708002588.984375
31.52,1708002589.0
55.43,1708002589.015625
81.91,1708002589.03125
109.58,1708002589.046875
135.81,1708002589.0625
157.68,1708002589.078125
173.1,1708002589.09375
181.58,1708002589.109375
184.21,1708002589.125
182.66,1708002589.140625
178.15,1708002589.15625
170.73,1708002589.171875
159.55,1708002589.1875
143.68,1708002589.203125
122.97,1708002589.21875
98.41,1708002589.234375
71.9,1708002589.25
45.5,1708002589.265625
20.65,1708002589.28125
-1.96,1708002589.296875
-22.18,1708002589.3125
-40.01,1708002589.328125
-55.2,1708002589.34375
-67.29,1708002589.359375
-75.8,1708002589.375
-80.41,1708002589.390625
-81.17,1708002589.40625
-78.58,1708002589.421875
-73.41,1708002589.4375
-66.61,1708002589.453125
-59.06,1708002589.46875
-51.42,1708002589.484375
-44.03,1708002589.5
-36.98,1708002589.515625
-30.25,1708002589.53125
-23.93,1708002589.546875
-18.28,1708002589.5625
-13.62,1708002589.578125
-10.18,1708002589.59375
-7.87,1708002589.609375
-6.25,1708002589.625
-4.63,1708002589.640625
-2.33,1708002589.65625
1.06,1708002589.671875
5.44,1708002589.6875
10.34,1708002589.703125
15.13,1708002589.71875
19.28,1708002589.734375
22.59,1708002589.75
25.21,1708002589.765625
27.46,1708002589.78125
29.61,1708002589.796875
31.77,1708002589.8125
33.79,1708002589.828125
35.39,1708002589.84375
36.29,1708002589.859375
36.35,1708002589.875
35.59,1708002589.890625
34.16,1708002589.90625
32.27,1708002589.921875
30.06,1708002589.9375
27.62,1708002589.953125
24.99,1708002589.96875
22.19,1708002589.984375
19.23,1708002590.0
16.22,1708002590.015625
13.28,1708002590.03125
10.56,1708002590.046875
8.12,1708002590.0625
5.92,1708002590.078125
3.81,1708002590.09375
1.57,1708002590.109375
-0.95,1708002590.125
-3.81,1708002590.140625
-6.86,1708002590.15625
-9.84,1708002590.171875
-12.53,1708002590.1875
-14.86,1708002590.203125
-16.98,1708002590.21875
-19.2,1708002590.234375
-21.84,1708002590.25
-25.06,1708002590.265625
-28.72,1708002590.28125
-32.41,1708002590.296875
-35.44,1708002590.3125
-37.1,1708002590.328125
-36.76,1708002590.34375
-34.08,1708002590.359375
-29.06,1708002590.375
-22.11,1708002590.390625
-13.91,1708002590.40625
-5.35,1708002590.421875
2.7,1708002590.4375
9.54,1708002590.453125
14.8,1708002590.46875
18.41,1708002590.484375
20.61,1708002590.5
21.71,1708002590.515625
21.98,1708002590.53125
21.63,1708002590.546875
20.78,1708002590.5625
19.56,1708002590.578125
18.23,1708002590.59375
17.13,1708002590.609375
16.64,1708002590.625
17.06,1708002590.640625
18.5,1708002590.65625
20.82,1708002590.671875
23.76,1708002590.6875
26.93,1708002590.703125
29.98,1708002590.71875
32.65,1708002590.734375
34.76,1708002590.75
36.2,1708002590.765625
36.91,1708002590.78125
36.9,1708002590.796875
36.19,1708002590.8125
34.87,1708002590.828125
33.03,1708002590.84375
30.87,1708002590.859375
28.59,1708002590.875
26.41,1708002590.890625
24.41,1708002590.90625
22.55,1708002590.921875
20.66,1708002590.9375
18.46,1708002590.953125
15.81,1708002590.96875
12.73,1708002590.984375
9.41,1708002591.0
6.22,1708002591.015625
3.46,1708002591.03125
1.32,1708002591.046875
-0.3,1708002591.0625
-1.68,1708002591.078125
-3.27,1708002591.09375
-5.49,1708002591.109375
-8.67,1708002591.125
-12.92,1708002591.140625
-18.16,1708002591.15625
-24.1,1708002591.171875
-30.27,1708002591.1875
-36.09,1708002591.203125
-40.99,1708002591.21875
-44.48,1708002591.234375
-46.17,1708002591.25
-45.97,1708002591.265625
-44.0,1708002591.28125
-40.58,1708002591.296875
-36.19,1708002591.3125
-31.28,1708002591.328125
-26.27,1708002591.34375
-21.5,1708002591.359375
-17.31,1708002591.375
-13.99,1708002591.390625
-11.83,1708002591.40625
-10.94,1708002591.421875
-11.21,1708002591.4375
-12.26,1708002591.453125
-13.57,1708002591.46875
-14.7,1708002591.484375
-15.42,1708002591.5
-15.74,1708002591.515625
-15.84,1708002591.53125
-15.84,1708002591.546875
-15.73,1708002591.5625
-15.3,1708002591.578125
-14.32,1708002591.59375
-12.66,1708002591.609375
-10.39,1708002591.625
-7.72,1708002591.640625
-4.91,1708002591.65625
-2.13,1708002591.671875
0.53,1708002591.6875
3.05,1708002591.703125
5.34,1708002591.71875
7.22,1708002591.734375
8.43,1708002591.75
8.72,1708002591.765625
7.96,1708002591.78125
6.22,1708002591.796875
3.77,1708002591.8125
0.99,1708002591.828125
-1.72,1708002591.84375
-4.08,1708002591.859375
-5.98,1708002591.875
-7.5,1708002591.890625
-8.86,1708002591.90625
-10.27,1708002591.921875
-11.89,1708002591.9375
-13.73,1708002591.953125
-15.68,1708002591.96875
-17.59,1708002591.984375
-19.3,1708002592.0
-20.8,1708002592.015625
-22.14,1708002592.03125
-23.46,1708002592.046875
-24.95,1708002592.0625
-26.73,1708002592.078125
-28.84,1708002592.09375
-31.3,1708002592.109375
-34.09,1708002592.125
-37.18,1708002592.140625
-40.48,1708002592.15625
-43.78,1708002592.171875
-46.67,1708002592.1875
-48.63,1708002592.203125
-49.03,1708002592.21875
-47.4,1708002592.234375
-43.55,1708002592.25
-37.65,1708002592.265625
-30.21,1708002592.28125
-21.94,1708002592.296875
-13.52,1708002592.3125
-5.46,1708002592.328125
1.93,1708002592.34375
8.5,1708002592.359375
14.17,1708002592.375
18.85,1708002592.390625
22.43,1708002592.40625
24.83,1708002592.421875
26.05,1708002592.4375
26.3,1708002592.453125
25.91,1708002592.46875
25.28,1708002592.484375
24.76,1708002592.5
24.54,1708002592.515625
24.72,1708002592.53125
25.29,1708002592.546875
26.29,1708002592.5625
27.73,1708002592.578125
29.61,1708002592.59375
31.82,1708002592.609375
34.17,1708002592.625
36.36,1708002592.640625
38.17,1708002592.65625
39.42,1708002592.671875
40.06,1708002592.6875
40.15,1708002592.703125
39.75,1708002592.71875
38.94,1708002592.734375
37.79,1708002592.75
36.33,1708002592.765625
34.61,1708002592.78125
32.62,1708002592.796875
30.36,1708002592.8125
27.85,1708002592.828125
25.17,1708002592.84375
22.46,1708002592.859375
19.87,1708002592.875
17.49,1708002592.890625
15.28,1708002592.90625
13.08,1708002592.921875
10.7,1708002592.9375
8.03,1708002592.953125
5.06,1708002592.96875
1.96,1708002592.984375
-1.07,1708002593.0
-3.84,1708002593.015625
-6.27,1708002593.03125
-8.4,1708002593.046875
-10.36,1708002593.0625
-12.23,1708002593.078125
-14.08,1708002593.09375
-15.94,1708002593.109375
-17.85,1708002593.125
-19.92,1708002593.140625
-22.24,1708002593.15625
-24.8,1708002593.171875
-27.29,1708002593.1875
-29.09,1708002593.203125
-29.29,1708002593.21875
-27.06,1708002593.234375
-21.96,1708002593.25
-14.15,1708002593.265625
-4.36,1708002593.28125
6.31,1708002593.296875
16.78,1708002593.3125
26.26,1708002593.328125
34.32,1708002593.34375
40.83,1708002593.359375
45.8,1708002593.375
49.23,1708002593.390625
51.18,1708002593.40625
51.75,1708002593.421875
51.21,1708002593.4375
49.97,1708002593.453125
48.47,1708002593.46875
47.1,1708002593.484375
46.1,1708002593.5
45.58,1708002593.515625
45.48,1708002593.53125
45.65,1708002593.546875
45.84,1708002593.5625
45.81,1708002593.578125
45.3,1708002593.59375
44.18,1708002593.609375
42.26,1708002593.625
39.39,1708002593.640625
35.36,1708002593.65625
30.03,1708002593.671875
23.57,1708002593.6875
16.44,1708002593.703125
9.34,1708002593.71875
2.79,1708002593.734375
-3.14,1708002593.75
-9.0,1708002593.765625
-15.67,1708002593.78125
-23.75,1708002593.796875
-33.12,1708002593.8125
-42.84,1708002593.828125
-51.46,1708002593.84375
-57.84,1708002593.859375
-61.64,1708002593.875
-63.58,1708002593.890625
-65.07,1708002593.90625
-67.39,1708002593.921875
-71.21,1708002593.9375
-76.21,1708002593.953125
-81.39,1708002593.96875
-85.66,1708002593.984375
-88.27,1708002594.0
-89.25,1708002594.015625
-89.2,1708002594.03125
-89.05,1708002594.046875
-89.59,1708002594.0625
-91.22,1708002594.078125
-93.9,1708002594.09375
-97.06,1708002594.109375
-99.67,1708002594.125
-100.28,1708002594.140625
-97.1,1708002594.15625
-88.4,1708002594.171875
-72.94,1708002594.1875
-50.31,1708002594.203125
-21.25,1708002594.21875
12.28,1708002594.234375
47.37,1708002594.25
80.87,1708002594.265625
110.18,1708002594.28125
134.0,1708002594.296875
152.4,1708002594.3125
166.34,1708002594.328125
176.63,1708002594.34375
183.15,1708002594.359375
184.56,1708002594.375
178.98,1708002594.390625
165.02,1708002594.40625
142.84,1708002594.421875
114.48,1708002594.4375
83.32,1708002594.453125
53.05,1708002594.46875
26.54,1708002594.484375
5.36,1708002594.5
-10.24,1708002594.515625
-20.86,1708002594.53125
-27.45,1708002594.546875
-31.08,1708002594.5625
-32.71,1708002594.578125
-33.24,1708002594.59375
-33.47,1708002594.609375
-34.15,1708002594.625
-35.9,1708002594.640625
-39.02,1708002594.65625
-43.35,1708002594.671875
-48.19,1708002594.6875
-52.49,1708002594.703125
-55.25,1708002594.71875
-55.9,1708002594.734375
-54.63,1708002594.75
-52.21,1708002594.765625
-49.7,1708002594.78125
-47.91,1708002594.796875
-47.12,1708002594.8125
-47.05,1708002594.828125
-47.09,1708002594.84375
-46.65,1708002594.859375
-45.41,1708002594.875
-43.48,1708002594.890625
-41.24,1708002594.90625
-39.17,1708002594.921875
-37.63,1708002594.9375
-36.79,1708002594.953125
-36.64,1708002594.96875
-37.1,1708002594.984375
-38.09,1708002595.0
-39.59,1708002595.015625
-41.53,1708002595.03125
-43.74,1708002595.046875
-45.79,1708002595.0625
-47.03,1708002595.078125
-46.74,1708002595.09375
-44.35,1708002595.109375
-39.63,1708002595.125
-32.82,1708002595.140625
-24.5,1708002595.15625
-15.44,1708002595.171875
-6.37,1708002595.1875
2.13,1708002595.203125
9.67,1708002595.21875
16.03,1708002595.234375
21.06,1708002595.25
24.72,1708002595.265625
27.06,1708002595.28125
28.28,1708002595.296875
28.7,1708002595.3125
28.67,1708002595.328125
28.47,1708002595.34375
28.21,1708002595.359375
27.86,1708002595.375
27.3,1708002595.390625
26.47,1708002595.40625
25.5,1708002595.421875
24.66,1708002595.4375
24.31,1708002595.453125
24.76,1708002595.46875
26.1,1708002595.484375
28.16,1708002595.5
30.52,1708002595.515625
32.65,1708002595.53125
34.09,1708002595.546875
34.49,1708002595.5625
33.78,1708002595.578125
32.1,1708002595.59375
29.77,1708002595.609375
27.21,1708002595.625
24.77,1708002595.640625
22.64,1708002595.65625
20.81,1708002595.671875
19.11,1708002595.6875
17.27,1708002595.703125
15.07,1708002595.71875
12.39,1708002595.734375
9.27,1708002595.75
5.91,1708002595.765625
2.59,1708002595.78125
-0.43,1708002595.796875
-3.01,1708002595.8125
-5.16,1708002595.828125
-7.04,1708002595.84375
-8.92,1708002595.859375
-11.01,1708002595.875
-13.41,1708002595.890625
-16.1,1708002595.90625
-18.96,1708002595.921875
-21.88,1708002595.9375
-24.86,1708002595.953125
-28.05,1708002595.96875
-31.71,1708002595.984375
-36.11,1708002596.0
-41.39,1708002596.015625
-47.5,1708002596.03125
-54.11,1708002596.046875
-60.7,1708002596.0625
-66.52,1708002596.078125
-70.74,1708002596.09375
-72.58,1708002596.109375
-71.49,1708002596.125
-67.36,1708002596.140625
-60.62,1708002596.15625
-52.16,1708002596.171875
-43.16,1708002596.1875
-34.75,1708002596.203125
-27.72,1708002596.21875
-22.43,1708002596.234375
-18.78,1708002596.25
-16.44,1708002596.265625
-15.02,1708002596.28125
-14.15,1708002596.296875
-13.56,1708002596.3125
-13.05,1708002596.328125
-12.46,1708002596.34375
-11.59,1708002596.359375
-10.21,1708002596.375
-8.05,1708002596.390625
-4.76,1708002596.40625
0.03,1708002596.421875
6.66,1708002596.4375
15.28,1708002596.453125
25.68,1708002596.46875
37.21,1708002596.484375
48.91,1708002596.5
59.68,1708002596.515625
68.69,1708002596.53125
75.59,1708002596.546875
80.6,1708002596.5625
84.34,1708002596.578125
87.56,1708002596.59375
90.88,1708002596.609375
94.71,1708002596.625
99.36,1708002596.640625
104.86,1708002596.65625
110.95,1708002596.671875
116.97,1708002596.6875
122.17,1708002596.703125
126.12,1708002596.71875
129.02,1708002596.734375
131.58,1708002596.75
134.39,1708002596.765625
137.17,1708002596.78125
138.44,1708002596.796875
135.8,1708002596.8125
126.94,1708002596.828125
110.72,1708002596.84375
87.66,1708002596.859375
59.78,1708002596.875
29.73,1708002596.890625
-0.04,1708002596.90625
-27.76,1708002596.921875
-52.32,1708002596.9375
-73.06,1708002596.953125
-89.63,1708002596.96875
-101.95,1708002596.984375
-110.42,1708002597.0
-115.88,1708002597.015625
-119.42,1708002597.03125
-122.13,1708002597.046875
-124.79,1708002597.0625
-127.67,1708002597.078125
-130.5,1708002597.09375
-132.48,1708002597.109375
-132.51,1708002597.125
-129.58,1708002597.140625
-123.09,1708002597.15625
-113.07,1708002597.171875
-100.21,1708002597.1875
-85.65,1708002597.203125
-70.61,1708002597.21875
-56.07,1708002597.234375
-42.68,1708002597.25
-30.74,1708002597.265625
-20.34,1708002597.28125
-11.56,1708002597.296875
-4.47,1708002597.3125
0.81,1708002597.328125
4.31,1708002597.34375
6.27,1708002597.359375
7.13,1708002597.375
7.48,1708002597.390625
7.81,1708002597.40625
8.44,1708002597.421875
9.48,1708002597.4375
10.88,1708002597.453125
12.58,1708002597.46875
14.56,1708002597.484375
16.94,1708002597.5
19.86,1708002597.515625
23.42,1708002597.53125
27.52,1708002597.546875
31.92,1708002597.5625
36.21,1708002597.578125
39.98,1708002597.59375
42.86,1708002597.609375
44.69,1708002597.625
45.44,1708002597.640625
45.24,1708002597.65625
44.21,1708002597.671875
42.45,1708002597.6875
40.02,1708002597.703125
37.03,1708002597.71875
33.69,1708002597.734375
30.31,1708002597.75
27.21,1708002597.765625
24.59,1708002597.78125
22.42,1708002597.796875
20.46,1708002597.8125
18.36,1708002597.828125
15.85,1708002597.84375
12.81,1708002597.859375
9.3,1708002597.875
5.55,1708002597.890625
1.83,1708002597.90625
-1.58,1708002597.921875
-4.5,1708002597.9375
-6.89,1708002597.953125
-8.88,1708002597.96875
-10.78,1708002597.984375
-12.92,1708002598.0
-15.61,1708002598.015625
-18.98,1708002598.03125
-22.96,1708002598.046875
-27.24,1708002598.0625
-31.32,1708002598.078125
-34.49,1708002598.09375
-35.91,1708002598.109375
-34.76,1708002598.125
-30.45,1708002598.140625
-22.84,1708002598.15625
-12.32,1708002598.171875
0.16,1708002598.1875
13.4,1708002598.203125
26.21,1708002598.21875
37.68,1708002598.234375
47.26,1708002598.25
54.74,1708002598.265625
60.11,1708002598.28125
63.47,1708002598.296875
64.99,1708002598.3125
64.89,1708002598.328125
63.47,1708002598.34375
61.05,1708002598.359375
57.99,1708002598.375
54.62,1708002598.390625
51.26,1708002598.40625
48.27,1708002598.421875
45.98,1708002598.4375
44.67,1708002598.453125
44.44,1708002598.46875
45.14,1708002598.484375
46.35,1708002598.5
47.48,1708002598.515625
47.91,1708002598.53125
47.13,1708002598.546875
44.86,1708002598.5625
41.03,1708002598.578125
35.77,1708002598.59375
29.36,1708002598.609375
22.18,1708002598.625
14.71,1708002598.640625
7.37,1708002598.65625
0.5,1708002598.671875
-5.79,1708002598.6875
-11.65,1708002598.703125
-17.37,1708002598.71875
-23.26,1708002598.734375
-29.47,1708002598.75
-35.87,1708002598.765625
-42.11,1708002598.78125
-47.9,1708002598.796875
-53.2,1708002598.8125
-58.19,1708002598.828125
-63.23,1708002598.84375
-68.46,1708002598.859375
-73.73,1708002598.875
-78.63,1708002598.890625
-82.7,1708002598.90625
-85.76,1708002598.921875
-88.04,1708002598.9375
-90.08,1708002598.953125
-92.45,1708002598.96875
-95.55,1708002598.984375
-99.33,1708002599.0
-103.43,1708002599.015625
-107.35,1708002599.03125
-110.75,1708002599.046875
-113.56,1708002599.0625
-116.0,1708002599.078125
-118.3,1708002599.09375
-120.3,1708002599.109375
-121.11,1708002599.125
-119.3,1708002599.140625
-113.27,1708002599.15625
-101.98,1708002599.171875
-85.26,1708002599.1875
-63.61,1708002599.203125
-37.52,1708002599.21875
-6.96,1708002599.234375
28.49,1708002599.25
68.71,1708002599.265625
112.04,1708002599.28125
155.14,1708002599.296875
194.01,1708002599.3125
225.73,1708002599.328125
249.68,1708002599.34375
267.34,1708002599.359375
280.71,1708002599.375
290.35,1708002599.390625
294.6,1708002599.40625
290.43,1708002599.421875
275.49,1708002599.4375
249.91,1708002599.453125
216.61,1708002599.46875
179.96,1708002599.484375
143.78,1708002599.5
109.97,1708002599.515625
78.53,1708002599.53125
48.58,1708002599.546875
19.81,1708002599.5625
-7.04,1708002599.578125
-30.53,1708002599.59375
-49.46,1708002599.609375
-63.52,1708002599.625
-73.48,1708002599.640625
-80.7,1708002599.65625
-86.49,1708002599.671875
-91.63,1708002599.6875
-96.21,1708002599.703125
-99.93,1708002599.71875
-102.36,1708002599.734375
-103.28,1708002599.75
-102.77,1708002599.765625
-101.17,1708002599.78125
-98.99,1708002599.796875
-96.66,1708002599.8125
-94.41,1708002599.828125
-92.18,1708002599.84375
-89.66,1708002599.859375
-86.52,1708002599.875
-82.54,1708002599.890625
-77.79,1708002599.90625
-72.66,1708002599.921875
-67.76,1708002599.9375
-63.7,1708002599.953125
-60.82,1708002599.96875
-59.09,1708002599.984375
-58.15,1708002600.0
-57.48,1708002600.015625
-56.66,1708002600.03125
-55.6,1708002600.046875
-54.56,1708002600.0625
-54.02,1708002600.078125
-54.4,1708002600.09375
-55.75,1708002600.109375
-57.66,1708002600.125
-59.33,1708002600.140625
-59.79,1708002600.15625
-58.26,1708002600.171875
-54.38,1708002600.1875
-48.24,1708002600.203125
-40.22,1708002600.21875
-30.82,1708002600.234375
-20.44,1708002600.25
-9.49,1708002600.265625
1.65,1708002600.28125
12.44,1708002600.296875
22.26,1708002600.3125
30.51,1708002600.328125
36.86,1708002600.34375
41.29,1708002600.359375
44.05,1708002600.375
45.47,1708002600.390625
45.73,1708002600.40625
44.94,1708002600.421875
43.14,1708002600.4375
40.59,1708002600.453125
37.75,1708002600.46875
35.21,1708002600.484375
33.48,1708002600.5
32.79,1708002600.515625
33.06,1708002600.53125
34.03,1708002600.546875
35.47,1708002600.5625
37.23,1708002600.578125
39.22,1708002600.59375
41.32,1708002600.609375
43.28,1708002600.625
44.76,1708002600.640625
45.44,1708002600.65625
45.16,1708002600.671875
43.96,1708002600.6875
42.05,1708002600.703125
39.71,1708002600.71875
37.15,1708002600.734375
34.52,1708002600.75
31.86,1708002600.765625
29.21,1708002600.78125
26.59,1708002600.796875
24.02,1708002600.8125
21.54,1708002600.828125
19.17,1708002600.84375
16.96,1708002600.859375
14.85,1708002600.875
12.76,1708002600.890625
10.5,1708002600.90625
7.83,1708002600.921875
4.55,1708002600.9375
0.54,1708002600.953125
-4.15,1708002600.96875
-9.46,1708002600.984375
-15.33,1708002601.0
-21.89,1708002601.015625
-29.42,1708002601.03125
-38.31,1708002601.046875
-48.9,1708002601.0625
-61.23,1708002601.078125
-74.93,1708002601.09375
-89.11,1708002601.109375
-102.55,1708002601.125
-113.89,1708002601.140625
-122.08,1708002601.15625
-126.66,1708002601.171875
-127.98,1708002601.1875
-126.94,1708002601.203125
-124.73,1708002601.21875
-122.3,1708002601.234375
-120.05,1708002601.25
-117.88,1708002601.265625
-115.41,1708002601.28125
-112.39,1708002601.296875
-108.93,1708002601.3125
-105.55,1708002601.328125
-102.96,1708002601.34375
-101.77,1708002601.359375
-102.28,1708002601.375
-104.42,1708002601.390625
-107.71,1708002601.40625
-111.07,1708002601.421875
-112.88,1708002601.4375
-111.0,1708002601.453125
-103.28,1708002601.46875
-88.26,1708002601.484375
-65.71,1708002601.5
-36.9,1708002601.515625
-4.11,1708002601.53125
30.19,1708002601.546875
64.26,1708002601.5625
97.47,1708002601.578125
130.14,1708002601.59375
162.83,1708002601.609375
195.54,1708002601.625
227.42,1708002601.640625
256.95,1708002601.65625
282.37,1708002601.671875
302.31,1708002601.6875
316.13,1708002601.703125
324.05,1708002601.71875
326.91,1708002601.734375
325.86,1708002601.75
321.8,1708002601.765625
314.94,1708002601.78125
304.62,1708002601.796875
289.61,1708002601.8125
268.84,1708002601.828125
242.09,1708002601.84375
210.45,1708002601.859375
175.97,1708002601.875
140.74,1708002601.890625
105.9,1708002601.90625
71.19,1708002601.921875
35.44,1708002601.9375
-2.33,1708002601.953125
-41.78,1708002601.96875
-80.9,1708002601.984375
-116.62,1708002602.0
-146.03,1708002602.015625
-167.58,1708002602.03125
-181.48,1708002602.046875
-189.18,1708002602.0625
-192.52,1708002602.078125
-192.71,1708002602.09375
-190.16,1708002602.109375
-184.78,1708002602.125
-176.74,1708002602.140625
-166.76,1708002602.15625
-156.13,1708002602.171875
-146.11,1708002602.1875
-137.37,1708002602.203125
-129.74,1708002602.21875
-122.44,1708002602.234375
-114.57,1708002602.25
-105.61,1708002602.265625
-95.66,1708002602.28125
-85.25,1708002602.296875
-75.01,1708002602.3125
-65.39,1708002602.328125
-56.47,1708002602.34375
-48.03,1708002602.359375
-39.74,1708002602.375
-31.3,1708002602.390625
-22.64,1708002602.40625
-13.98,1708002602.421875
-5.86,1708002602.4375
1.01,1708002602.453125
6.01,1708002602.46875
8.87,1708002602.484375
9.86,1708002602.5
9.62,1708002602.515625
8.94,1708002602.53125
8.38,1708002602.546875
8.05,1708002602.5625
7.61,1708002602.578125
6.57,1708002602.59375
4.62,1708002602.609375
1.75,1708002602.625
-1.72,1708002602.640625
-5.37,1708002602.65625
-8.87,1708002602.671875
-12.07,1708002602.6875
-15.04,1708002602.703125
-18.01,1708002602.71875
-21.27,1708002602.734375
-25.1,1708002602.75
-29.68,1708002602.765625
-34.96,1708002602.78125
-40.57,1708002602.796875
-45.69,1708002602.8125
-49.25,1708002602.828125
-50.13,1708002602.84375
-47.53,1708002602.859375
-41.18,1708002602.875
-31.5,1708002602.890625
-19.48,1708002602.90625
-6.42,1708002602.921875
6.35,1708002602.9375
17.75,1708002602.953125
27.19,1708002602.96875
34.5,1708002602.984375
39.92,1708002603.0
43.81,1708002603.015625
46.47,1708002603.03125
48.01,1708002603.046875
48.4,1708002603.0625
47.6,1708002603.078125
45.8,1708002603.09375
43.47,1708002603.109375
41.21,1708002603.125
39.63,1708002603.140625
39.09,1708002603.15625
39.69,1708002603.171875
41.26,1708002603.1875
43.54,1708002603.203125
46.25,1708002603.21875
49.13,1708002603.234375
51.88,1708002603.25
54.19,1708002603.265625
55.73,1708002603.28125
56.25,1708002603.296875
55.68,1708002603.3125
54.11,1708002603.328125
51.81,1708002603.34375
49.02,1708002603.359375
45.96,1708002603.375
42.71,1708002603.390625
39.25,1708002603.40625
35.53,1708002603.421875
31.52,1708002603.4375
27.3,1708002603.453125
22.98,1708002603.46875
18.75,1708002603.484375
14.75,1708002603.5
11.06,1708002603.515625
7.65,1708002603.53125
4.4,1708002603.546875
1.23,1708002603.5625
-1.87,1708002603.578125
-4.81,1708002603.59375
-7.51,1708002603.609375
-10.06,1708002603.625
-12.77,1708002603.640625
-16.22,1708002603.65625
-20.96,1708002603.671875
-27.23,1708002603.6875
-34.74,1708002603.703125
-42.62,1708002603.71875
-49.6,1708002603.734375
-54.37,1708002603.75
-55.93,1708002603.765625
-53.78,1708002603.78125
-47.97,1708002603.796875
-39.07,1708002603.8125
-28.05,1708002603.828125
-16.04,1708002603.84375
-4.22,1708002603.859375
6.46,1708002603.875
15.38,1708002603.890625
22.24,1708002603.90625
26.98,1708002603.921875
29.62,1708002603.9375
30.18,1708002603.953125
28.74,1708002603.96875
25.51,1708002603.984375
21.04,1708002604.0
16.04,1708002604.015625
11.26,1708002604.03125
7.22,1708002604.046875
4.08,1708002604.0625
1.68,1708002604.078125
-0.25,1708002604.09375
-1.82,1708002604.109375
-2.96,1708002604.125
-3.4,1708002604.140625
-2.98,1708002604.15625
-1.72,1708002604.171875
0.06,1708002604.1875
1.9,1708002604.203125
3.36,1708002604.21875
4.22,1708002604.234375
4.5,1708002604.25
4.36,1708002604.265625
3.94,1708002604.28125
3.26,1708002604.296875
2.29,1708002604.3125
0.95,1708002604.328125
-0.64,1708002604.34375
-2.26,1708002604.359375
-3.68,1708002604.375
-4.82,1708002604.390625
-5.81,1708002604.40625
-6.96,1708002604.421875
-8.63,1708002604.4375
-11.01,1708002604.453125
-14.04,1708002604.46875
-17.5,1708002604.484375
-21.04,1708002604.5
-24.41,1708002604.515625
-27.49,1708002604.53125
-30.24,1708002604.546875
-32.66,1708002604.5625
-34.77,1708002604.578125
-36.63,1708002604.59375
-38.4,1708002604.609375
-40.4,1708002604.625
-43.0,1708002604.640625
-46.52,1708002604.65625
-51.08,1708002604.671875
-56.48,1708002604.6875
-62.24,1708002604.703125
-67.63,1708002604.71875
-71.77,1708002604.734375
-73.7,1708002604.75
-72.56,1708002604.765625
-67.74,1708002604.78125
-59.17,1708002604.796875
-47.36,1708002604.8125
-33.45,1708002604.828125
-18.81,1708002604.84375
-4.71,1708002604.859375
8.05,1708002604.875
19.12,1708002604.890625
28.52,1708002604.90625
36.25,1708002604.921875
42.15,1708002604.9375
45.94,1708002604.953125
47.44,1708002604.96875
46.83,1708002604.984375
44.76,1708002605.0
42.12,1708002605.015625
39.79,1708002605.03125
38.32,1708002605.046875
37.85,1708002605.0625
38.24,1708002605.078125
39.26,1708002605.09375
40.74,1708002605.109375
42.6,1708002605.125
44.75,1708002605.140625
47.02,1708002605.15625
49.09,1708002605.171875
50.57,1708002605.1875
51.11,1708002605.203125
50.57,1708002605.21875
48.98,1708002605.234375
46.6,1708002605.25
43.77,1708002605.265625
40.81,1708002605.28125
37.92,1708002605.296875
35.12,1708002605.3125
32.28,1708002605.328125
29.16,1708002605.34375
25.57,1708002605.359375
21.44,1708002605.375
16.91,1708002605.390625
12.25,1708002605.40625
7.74,1708002605.421875
3.57,1708002605.4375
-0.27,1708002605.453125
-3.87,1708002605.46875
-7.41,1708002605.484375
-10.97,1708002605.5
-14.55,1708002605.515625
-18.06,1708002605.53125
-21.41,1708002605.546875
-24.55,1708002605.5625
-27.57,1708002605.578125
-30.62,1708002605.59375
-33.91,1708002605.609375
-37.64,1708002605.625
-41.93,1708002605.640625
-46.75,1708002605.65625
-51.78,1708002605.671875
-56.34,1708002605.6875
-59.38,1708002605.703125
-59.71,1708002605.71875
-56.32,1708002605.734375
-48.72,1708002605.75
-37.24,1708002605.765625
-22.95,1708002605.78125
-7.46,1708002605.796875
7.6,1708002605.8125
20.94,1708002605.828125
31.86,1708002605.84375
40.19,1708002605.859375
46.18,1708002605.875
50.15,1708002605.890625
52.44,1708002605.90625
53.27,1708002605.921875
52.81,1708002605.9375
51.22,1708002605.953125
48.78,1708002605.96875
45.79,1708002605.984375
42.66,1708002606.0
39.77,1708002606.015625
37.45,1708002606.03125
35.86,1708002606.046875
35.04,1708002606.0625
34.85,1708002606.078125
35.05,1708002606.09375
35.4,1708002606.109375
35.66,1708002606.125
35.69,1708002606.140625
35.34,1708002606.15625
34.52,1708002606.171875
33.06,1708002606.1875
30.83,1708002606.203125
27.8,1708002606.21875
24.09,1708002606.234375
19.97,1708002606.25
15.8,1708002606.265625
11.9,1708002606.28125
8.44,1708002606.296875
5.41,1708002606.3125
2.66,1708002606.328125
0.01,1708002606.34375
-2.61,1708002606.359375
-5.19,1708002606.375
-7.64,1708002606.390625
-9.87,1708002606.40625
-11.86,1708002606.421875
-13.57,1708002606.4375
-14.94,1708002606.453125
-15.86,1708002606.46875
-16.19,1708002606.484375
-15.86,1708002606.5
-14.92,1708002606.515625
-13.55,1708002606.53125
-12.02,1708002606.546875
-10.62,1708002606.5625
-9.53,1708002606.578125
-8.75,1708002606.59375
-8.06,1708002606.609375
-7.16,1708002606.625
-5.83,1708002606.640625
-4.03,1708002606.65625
-2.02,1708002606.671875
-0.27,1708002606.6875
0.7,1708002606.703125
0.6,1708002606.71875
-0.48,1708002606.734375
-1.94,1708002606.75
-2.8,1708002606.765625
-1.96,1708002606.78125
1.45,1708002606.796875
7.83,1708002606.8125
17.03,1708002606.828125
28.27,1708002606.84375
40.33,1708002606.859375
51.77,1708002606.875
61.15,1708002606.890625
67.31,1708002606.90625
69.43,1708002606.921875
67.32,1708002606.9375
61.5,1708002606.953125
53.33,1708002606.96875
44.69,1708002606.984375
37.38,1708002607.0
32.31,1708002607.015625
29.01,1708002607.03125
25.63,1708002607.046875
19.62,1708002607.0625
8.78,1708002607.078125
-7.68,1708002607.09375
-28.82,1708002607.109375
-52.25,1708002607.125
-75.06,1708002607.140625
-94.68,1708002607.15625
-109.49,1708002607.171875
-118.94,1708002607.1875
-123.16,1708002607.203125
-122.6,1708002607.21875
-117.84,1708002607.234375
-109.59,1708002607.25
-98.82,1708002607.265625
-86.76,1708002607.28125
-74.76,1708002607.296875
-63.95,1708002607.3125
-54.96,1708002607.328125
-47.69,1708002607.34375
-41.52,1708002607.359375
-35.67,1708002607.375
-29.63,1708002607.390625
-23.4,1708002607.40625
-17.38,1708002607.421875
-12.15,1708002607.4375
-8.12,1708002607.453125
-5.27,1708002607.46875
-3.23,1708002607.484375
-1.47,1708002607.5
0.4,1708002607.515625
2.47,1708002607.53125
4.52,1708002607.546875
6.16,1708002607.5625
7.03,1708002607.578125
6.95,1708002607.59375
5.97,1708002607.609375
4.3,1708002607.625
2.2,1708002607.640625
-0.1,1708002607.65625
-2.46,1708002607.671875
-4.86,1708002607.6875
-7.38,1708002607.703125
-10.23,1708002607.71875
-13.64,1708002607.734375
-17.87,1708002607.75
-23.02,1708002607.765625
-29.02,1708002607.78125
-35.49,1708002607.796875
-41.76,1708002607.8125
-46.97,1708002607.828125
-50.17,1708002607.84375
-50.53,1708002607.859375
-47.51,1708002607.875
-41.04,1708002607.890625
-31.57,1708002607.90625
-20.08,1708002607.921875
-7.84,1708002607.9375
3.82,1708002607.953125
13.84,1708002607.96875
21.66,1708002607.984375
27.19,1708002608.0
30.69,1708002608.015625
32.56,1708002608.03125
33.13,1708002608.046875
32.58,1708002608.0625
31.04,1708002608.078125
28.67,1708002608.09375
25.81,1708002608.109375
22.91,1708002608.125
20.47,1708002608.140625
18.9,1708002608.15625
18.38,1708002608.171875
18.85,1708002608.1875
20.1,1708002608.203125
21.86,1708002608.21875
23.96,1708002608.234375
26.34,1708002608.25
28.95,1708002608.265625
31.66,1708002608.28125
34.2,1708002608.296875
36.21,1708002608.3125
37.34,1708002608.328125
37.41,1708002608.34375
36.49,1708002608.359375
34.83,1708002608.375
32.78,1708002608.390625
30.61,1708002608.40625
28.4,1708002608.421875
26.12,1708002608.4375
23.6,1708002608.453125
20.79,1708002608.46875
17.66,1708002608.484375
14.2,1708002608.5
10.36,1708002608.515625
6.23,1708002608.53125
1.96,1708002608.546875
-2.31,1708002608.5625
-6.5,1708002608.578125
-10.53,1708002608.59375
-14.33,1708002608.609375
-17.91,1708002608.625
-21.48,1708002608.640625
-25.4,1708002608.65625
-29.96,1708002608.671875
-35.29,1708002608.6875
-41.3,1708002608.703125
-47.68,1708002608.71875
-54.02,1708002608.734375
-59.87,1708002608.75
-65.17,1708002608.765625
-70.49,1708002608.78125
-76.84,1708002608.796875
-84.7,1708002608.8125
-93.81,1708002608.828125
-103.06,1708002608.84375
-110.69,1708002608.859375
-114.85,1708002608.875
-113.75,1708002608.890625
-107.05,1708002608.90625
-96.31,1708002608.921875
-84.69,1708002608.9375
-74.8,1708002608.953125
-68.24,1708002608.96875
-65.48,1708002608.984375
-65.75,1708002609.0
-67.51,1708002609.015625
-67.72,1708002609.03125
-64.15,1708002609.046875
-56.45,1708002609.0625
-46.49,1708002609.078125
-35.5,1708002609.09375
-24.45,1708002609.109375
-14.2,1708002609.125
-5.22,1708002609.140625
3.1,1708002609.15625
14.32,1708002609.171875
31.87,1708002609.1875
57.36,1708002609.203125
89.26,1708002609.21875
126.91,1708002609.234375
168.87,1708002609.25
212.08,1708002609.265625
252.21,1708002609.28125
285.32,1708002609.296875
311.6,1708002609.3125
332.57,1708002609.328125
349.26,1708002609.34375
360.2,1708002609.359375
365.74,1708002609.375
365.51,1708002609.390625
357.48,1708002609.40625
338.84,1708002609.421875
293.55,1708002609.4375
218.61,1708002609.453125
126.64,1708002609.46875
46.73,1708002609.484375
-16.65,1708002609.5
-67.23,1708002609.515625
-109.61,1708002609.53125
-145.22,1708002609.546875
-174.26,1708002609.5625
-196.2,1708002609.578125
-208.3,1708002609.59375
-209.92,1708002609.609375
-203.79,1708002609.625
-196.22,1708002609.640625
-190.2,1708002609.65625
-186.49,1708002609.671875
-184.54,1708002609.6875
-183.32,1708002609.703125
-181.44,1708002609.71875
-175.89,1708002609.734375
-165.28,1708002609.75
-150.97,1708002609.765625
-137.3,1708002609.78125
-126.42,1708002609.796875
-119.0,1708002609.8125
-114.77,1708002609.828125
-112.92,1708002609.84375
-112.04,1708002609.859375
-109.28,1708002609.875
-102.59,1708002609.890625
-91.62,1708002609.90625
-78.19,1708002609.921875
-63.26,1708002609.9375
-47.39,1708002609.953125
-31.23,1708002609.96875
-15.54,1708002609.984375
-1.05,1708002610.0
12.25,1708002610.015625
24.2,1708002610.03125
34.31,1708002610.046875
41.61,1708002610.0625
46.01,1708002610.078125
47.99,1708002610.09375
48.14,1708002610.109375
47.05,1708002610.125
45.23,1708002610.140625
43.4,1708002610.15625
42.07,1708002610.171875
41.42,1708002610.1875
41.2,1708002610.203125
41.32,1708002610.21875
41.79,1708002610.234375
42.63,1708002610.25
43.86,1708002610.265625
45.51,1708002610.28125
47.47,1708002610.296875
49.55,1708002610.3125
51.35,1708002610.328125
52.5,1708002610.34375
52.71,1708002610.359375
51.83,1708002610.375
49.95,1708002610.390625
47.32,1708002610.40625
44.22,1708002610.421875
40.9,1708002610.4375
37.53,1708002610.453125
34.16,1708002610.46875
30.83,1708002610.484375
27.55,1708002610.5
24.36,1708002610.515625
21.28,1708002610.53125
18.27,1708002610.546875
15.26,1708002610.5625
12.19,1708002610.578125
9.07,1708002610.59375
6.03,1708002610.609375
3.26,1708002610.625
0.89,1708002610.640625
-1.07,1708002610.65625
-2.82,1708002610.671875
-4.61,1708002610.6875
-6.65,1708002610.703125
-8.96,1708002610.71875
-11.39,1708002610.734375
-13.69,1708002610.75
-15.62,1708002610.765625
-17.18,1708002610.78125
-18.58,1708002610.796875
-20.26,1708002610.8125
-22.72,1708002610.828125
-26.31,1708002610.84375
-31.05,1708002610.859375
-36.47,1708002610.875
-41.62,1708002610.890625
-45.28,1708002610.90625
-46.24,1708002610.921875
-43.7,1708002610.9375
-37.46,1708002610.953125
-28.02,1708002610.96875
-16.39,1708002610.984375
-3.84,1708002611.0
8.39,1708002611.015625
19.3,1708002611.03125
28.24,1708002611.046875
34.95,1708002611.0625
39.44,1708002611.078125
41.96,1708002611.09375
42.83,1708002611.109375
42.42,1708002611.125
41.06,1708002611.140625
39.06,1708002611.15625
36.74,1708002611.171875
34.42,1708002611.1875
32.46,1708002611.203125
31.16,1708002611.21875
30.67,1708002611.234375
30.95,1708002611.25
31.75,1708002611.265625
32.75,1708002611.28125
33.66,1708002611.296875
34.4,1708002611.3125
35.13,1708002611.328125
36.07,1708002611.34375
37.4,1708002611.359375
38.98,1708002611.375
40.35,1708002611.390625
40.82,1708002611.40625
39.63,1708002611.421875
36.31,1708002611.4375
30.88,1708002611.453125
24.0,1708002611.46875
17.04,1708002611.484375
11.63,1708002611.5
9.22,1708002611.515625
10.54,1708002611.53125
15.44,1708002611.546875
23.22,1708002611.5625
33.33,1708002611.578125
45.6,1708002611.59375
59.91,1708002611.609375
75.69,1708002611.625
91.56,1708002611.640625
105.62,1708002611.65625
116.26,1708002611.671875
122.79,1708002611.6875
125.38,1708002611.703125
124.35,1708002611.71875
119.31,1708002611.734375
108.81,1708002611.75
91.02,1708002611.765625
64.94,1708002611.78125
31.31,1708002611.796875
-7.34,1708002611.8125
-47.68,1708002611.828125
-86.82,1708002611.84375
-122.95,1708002611.859375
-155.21,1708002611.875
-182.85,1708002611.890625
-204.7,1708002611.90625
-219.19,1708002611.921875
-225.01,1708002611.9375
-221.83,1708002611.953125
-210.62,1708002611.96875
-193.47,1708002611.984375
-173.04,1708002612.0
-151.84,1708002612.015625
-131.66,1708002612.03125
-113.36,1708002612.046875
-97.06,1708002612.0625
-82.51,1708002612.078125
-69.48,1708002612.09375
-57.95,1708002612.109375
-48.08,1708002612.125
-40.0,1708002612.140625
-33.57,1708002612.15625
-28.31,1708002612.171875
-23.52,1708002612.1875
-18.53,1708002612.203125
-12.94,1708002612.21875
-6.73,1708002612.234375
-0.23,1708002612.25
6.12,1708002612.265625
11.95,1708002612.28125
17.15,1708002612.296875
21.78,1708002612.3125
25.96,1708002612.328125
29.66,1708002612.34375
32.71,1708002612.359375
34.82,1708002612.375
35.77,1708002612.390625
35.5,1708002612.40625
34.14,1708002612.421875
31.95,1708002612.4375
29.18,1708002612.453125
25.99,1708002612.46875
22.46,1708002612.484375
18.7,1708002612.5
14.94,1708002612.515625
11.55,1708002612.53125
8.8,1708002612.546875
6.85,1708002612.5625
5.5,1708002612.578125
4.36,1708002612.59375
2.88,1708002612.609375
0.67,1708002612.625
-2.35,1708002612.640625
-5.98,1708002612.65625
-9.77,1708002612.671875
-13.29,1708002612.6875
-16.25,1708002612.703125
-18.66,1708002612.71875
-20.74,1708002612.734375
-22.82,1708002612.75
-25.22,1708002612.765625
-28.23,1708002612.78125
-32.05,1708002612.796875
-36.79,1708002612.8125
-42.34,1708002612.828125
-48.25,1708002612.84375
-53.65,1708002612.859375
-57.31,1708002612.875
-57.96,1708002612.890625
-54.72,1708002612.90625
-47.39,1708002612.921875
-36.61,1708002612.9375
-23.65,1708002612.953125
-10.01,1708002612.96875
3.0,1708002612.984375
14.53,1708002613.0
24.15,1708002613.015625
31.75,1708002613.03125
37.28,1708002613.046875
40.73,1708002613.0625
42.08,1708002613.078125
41.52,1708002613.09375
39.45,1708002613.109375
36.45,1708002613.125
33.13,1708002613.140625
30.01,1708002613.15625
27.37,1708002613.171875
25.35,1708002613.1875
24.03,1708002613.203125
23.5,1708002613.21875
23.82,1708002613.234375
24.98,1708002613.25
26.74,1708002613.265625
28.68,1708002613.28125
30.25,1708002613.296875
30.91,1708002613.3125
30.33,1708002613.328125
28.4,1708002613.34375
25.26,1708002613.359375
21.19,1708002613.375
16.53,1708002613.390625
11.65,1708002613.40625
6.91,1708002613.421875
2.71,1708002613.4375
-0.72,1708002613.453125
-3.37,1708002613.46875
-5.5,1708002613.484375
-7.55,1708002613.5
-9.9,1708002613.515625
-12.62,1708002613.53125
-15.32,1708002613.546875
-17.32,1708002613.5625
-17.92,1708002613.578125
-16.78,1708002613.59375
-14.07,1708002613.609375
-10.5,1708002613.625
-6.92,1708002613.640625
-4.09,1708002613.65625
-2.38,1708002613.671875
-1.78,1708002613.6875
-1.96,1708002613.703125
-2.43,1708002613.71875
-2.72,1708002613.734375
-2.48,1708002613.75
-1.6,1708002613.765625
-0.37,1708002613.78125
0.59,1708002613.796875
0.45,1708002613.8125
-1.43,1708002613.828125
-5.17,1708002613.84375
-10.17,1708002613.859375
-15.16,1708002613.875
-18.64,1708002613.890625
-19.36,1708002613.90625
-16.81,1708002613.921875
-11.37,1708002613.9375
-4.02,1708002613.953125
4.02,1708002613.96875
11.75,1708002613.984375
18.68,1708002614.0
24.76,1708002614.015625
30.14,1708002614.03125
34.82,1708002614.046875
38.47,1708002614.0625
40.43,1708002614.078125
40.0,1708002614.09375
36.92,1708002614.109375
31.59,1708002614.125
25.12,1708002614.140625
19.01,1708002614.15625
14.56,1708002614.171875
12.33,1708002614.1875
12.09,1708002614.203125
12.85,1708002614.21875
13.48,1708002614.234375
13.11,1708002614.25
11.44,1708002614.265625
8.71,1708002614.28125
5.68,1708002614.296875
3.48,1708002614.3125
3.81,1708002614.328125
9.04,1708002614.34375
21.73,1708002614.359375
43.81,1708002614.375
75.32,1708002614.390625
113.65,1708002614.40625
154.0,1708002614.421875
190.87,1708002614.4375
219.93,1708002614.453125
239.26,1708002614.46875
249.27,1708002614.484375
251.42,1708002614.5
246.76,1708002614.515625
235.18,1708002614.53125
215.88,1708002614.546875
188.75,1708002614.5625
155.32,1708002614.578125
118.93,1708002614.59375
83.49,1708002614.609375
51.83,1708002614.625
24.5,1708002614.640625
-0.21,1708002614.65625
-24.98,1708002614.671875
-51.81,1708002614.6875
-80.77,1708002614.703125
-109.95,1708002614.71875
-136.41,1708002614.734375
-157.5,1708002614.75
-172.07,1708002614.765625
-180.76,1708002614.78125
-185.33,1708002614.796875
-187.68,1708002614.8125
-189.02,1708002614.828125
-189.56,1708002614.84375
-188.93,1708002614.859375
-186.79,1708002614.875
-183.25,1708002614.890625
-178.86,1708002614.90625
-174.19,1708002614.921875
-169.32,1708002614.9375
-163.7,1708002614.953125
-156.3,1708002614.96875
-146.0,1708002614.984375
-132.15,1708002615.0
-114.87,1708002615.015625
-95.1,1708002615.03125
-74.37,1708002615.046875
-54.34,1708002615.0625
-36.42,1708002615.078125
-21.47,1708002615.09375
-9.7,1708002615.109375
-0.86,1708002615.125
5.55,1708002615.140625
10.08,1708002615.15625
13.21,1708002615.171875
15.27,1708002615.1875
16.63,1708002615.203125
17.65,1708002615.21875
18.74,1708002615.234375
20.29,1708002615.25
22.56,1708002615.265625
25.59,1708002615.28125
29.25,1708002615.296875
33.26,1708002615.3125
37.33,1708002615.328125
41.19,1708002615.34375
44.69,1708002615.359375
47.72,1708002615.375
50.19,1708002615.390625
51.94,1708002615.40625
52.8,1708002615.421875
52.63,1708002615.4375
51.42,1708002615.453125
49.33,1708002615.46875
46.6,1708002615.484375
43.53,1708002615.5
40.33,1708002615.515625
37.17,1708002615.53125
34.11,1708002615.546875
31.24,1708002615.5625
28.61,1708002615.578125
26.2,1708002615.59375
23.95,1708002615.609375
21.67,1708002615.625
19.19,1708002615.640625
16.4,1708002615.65625
13.34,1708002615.671875
10.23,1708002615.6875
7.33,1708002615.703125
4.82,1708002615.71875
2.69,1708002615.734375
0.72,1708002615.75
-1.41,1708002615.765625
-3.9,1708002615.78125
-6.77,1708002615.796875
-9.83,1708002615.8125
-12.8,1708002615.828125
-15.47,1708002615.84375
-17.83,1708002615.859375
-20.1,1708002615.875
-22.66,1708002615.890625
-25.91,1708002615.90625
-30.13,1708002615.921875
-35.35,1708002615.9375
-41.27,1708002615.953125
-47.15,1708002615.96875
-51.92,1708002615.984375
-54.31,1708002616.0
-53.19,1708002616.015625
-47.92,1708002616.03125
-38.59,1708002616.046875
-26.09,1708002616.0625
-11.9,1708002616.078125
2.35,1708002616.09375
15.25,1708002616.109375
25.95,1708002616.125
34.14,1708002616.140625
39.98,1708002616.15625
43.77,1708002616.171875
45.78,1708002616.1875
46.18,1708002616.203125
45.05,1708002616.21875
42.57,1708002616.234375
39.1,1708002616.25
35.19,1708002616.265625
31.45,1708002616.28125
28.45,1708002616.296875
26.55,1708002616.3125
25.86,1708002616.328125
26.24,1708002616.34375
27.47,1708002616.359375
29.29,1708002616.375
31.5,1708002616.390625
33.98,1708002616.40625
36.57,1708002616.421875
39.04,1708002616.4375
41.18,1708002616.453125
42.88,1708002616.46875
44.34,1708002616.484375
46.14,1708002616.5
49.09,1708002616.515625
53.83,1708002616.53125
60.48,1708002616.546875
68.46,1708002616.5625
76.71,1708002616.578125
84.2,1708002616.59375
90.33,1708002616.609375
95.1,1708002616.625
98.77,1708002616.640625
101.34,1708002616.65625
102.24,1708002616.671875
100.4,1708002616.6875
94.87,1708002616.703125
85.43,1708002616.71875
72.85,1708002616.734375
58.7,1708002616.75
44.67,1708002616.765625
31.9,1708002616.78125
20.66,1708002616.796875
10.46,1708002616.8125
0.51,1708002616.828125
-9.91,1708002616.84375
-21.25,1708002616.859375
-33.58,1708002616.875
-46.89,1708002616.890625
-61.01,1708002616.90625
-75.66,1708002616.921875
-90.14,1708002616.9375
-103.24,1708002616.953125
-113.6,1708002616.96875
-120.24,1708002616.984375
-123.36,1708002617.0
-124.53,1708002617.015625
-126.37,1708002617.03125
-131.5,1708002617.046875
-141.39,1708002617.0625
-155.68,1708002617.078125
-172.23,1708002617.09375
-187.94,1708002617.109375
-199.76,1708002617.125
-205.65,1708002617.140625
-204.78,1708002617.15625
-197.43,1708002617.171875
-184.55,1708002617.1875
-167.44,1708002617.203125
-147.59,1708002617.21875
-126.54,1708002617.234375
-105.71,1708002617.25
-86.14,1708002617.265625
-68.35,1708002617.28125
-52.38,1708002617.296875
-38.0,1708002617.3125
-24.92,1708002617.328125
-12.94,1708002617.34375
-1.95,1708002617.359375
8.12,1708002617.375
17.37,1708002617.390625
25.95,1708002617.40625
33.91,1708002617.421875
41.26,1708002617.4375
47.98,1708002617.453125
54.03,1708002617.46875
59.51,1708002617.484375
64.57,1708002617.5
69.36,1708002617.515625
73.92,1708002617.53125
78.1,1708002617.546875
81.53,1708002617.5625
83.81,1708002617.578125
84.64,1708002617.59375
83.97,1708002617.609375
82.01,1708002617.625
79.12,1708002617.640625
75.71,1708002617.65625
72.13,1708002617.671875
68.56,1708002617.6875
65.06,1708002617.703125
61.52,1708002617.71875
57.81,1708002617.734375
53.78,1708002617.75
49.35,1708002617.765625
44.65,1708002617.78125
39.93,1708002617.796875
35.49,1708002617.8125
31.56,1708002617.828125
28.2,1708002617.84375
25.16,1708002617.859375
22.07,1708002617.875
18.54,1708002617.890625
14.31,1708002617.90625
9.46,1708002617.921875
4.28,1708002617.9375
-0.79,1708002617.953125
-5.4,1708002617.96875
-9.43,1708002617.984375
-12.96,1708002618.0
-16.26,1708002618.015625
-19.65,1708002618.03125
-23.42,1708002618.046875
-27.79,1708002618.0625
-32.89,1708002618.078125
-38.65,1708002618.09375
-44.79,1708002618.109375
-50.68,1708002618.125
-55.35,1708002618.140625
-57.69,1708002618.15625
-56.69,1708002618.171875
-51.81,1708002618.1875
-43.17,1708002618.203125
-31.58,1708002618.21875
-18.36,1708002618.234375
-4.91,1708002618.25
7.53,1708002618.265625
18.1,1708002618.28125
26.37,1708002618.296875
32.23,1708002618.3125
35.84,1708002618.328125
37.47,1708002618.34375
37.51,1708002618.359375
36.4,1708002618.375
34.67,1708002618.390625
32.78,1708002618.40625
31.17,1708002618.421875
30.1,1708002618.4375
29.76,1708002618.453125
30.24,1708002618.46875
31.57,1708002618.484375
33.76,1708002618.5
36.74,1708002618.515625
40.35,1708002618.53125
44.36,1708002618.546875
48.38,1708002618.5625
52.02,1708002618.578125
54.9,1708002618.59375
56.74,1708002618.609375
57.39,1708002618.625
56.88,1708002618.640625
55.34,1708002618.65625
52.92,1708002618.671875
49.82,1708002618.6875
46.21,1708002618.703125
42.31,1708002618.71875
38.34,1708002618.734375
34.51,1708002618.75
30.94,1708002618.765625
27.66,1708002618.78125
24.61,1708002618.796875
21.69,1708002618.8125
18.87,1708002618.828125
16.16,1708002618.84375
13.61,1708002618.859375
11.17,1708002618.875
8.71,1708002618.890625
6.13,1708002618.90625
3.45,1708002618.921875
0.9,1708002618.9375
-1.13,1708002618.953125
-2.38,1708002618.96875
-2.84,1708002618.984375
-2.85,1708002619.0
-2.87,1708002619.015625
-3.22,1708002619.03125
-3.89,1708002619.046875
-4.6,1708002619.0625
-4.98,1708002619.078125
-4.97,1708002619.09375
-4.84,1708002619.109375
-5.13,1708002619.125
-6.3,1708002619.140625
-8.52,1708002619.15625
-11.52,1708002619.171875
-14.75,1708002619.1875
-17.58,1708002619.203125
-19.47,1708002619.21875
-20.03,1708002619.234375
-19.0,1708002619.25
-16.17,1708002619.265625
-11.47,1708002619.28125
-5.0,1708002619.296875
2.8,1708002619.3125
10.98,1708002619.328125
18.32,1708002619.34375
23.76,1708002619.359375
26.85,1708002619.375
27.88,1708002619.390625
27.46,1708002619.40625
25.85,1708002619.421875
22.5,1708002619.4375
16.16,1708002619.453125
5.53,1708002619.46875
-9.83,1708002619.484375
-29.04,1708002619.5
-50.03,1708002619.515625
-70.31,1708002619.53125
-87.91,1708002619.546875
-101.82,1708002619.5625
-112.0,1708002619.578125
-118.74,1708002619.59375
-122.21,1708002619.609375
-122.25,1708002619.625
-118.58,1708002619.640625
-111.24,1708002619.65625
-100.75,1708002619.671875
-88.17,1708002619.6875
-74.8,1708002619.703125
-61.88,1708002619.71875
-50.33,1708002619.734375
-40.45,1708002619.75
-32.06,1708002619.765625
-24.62,1708002619.78125
-17.59,1708002619.796875
-10.63,1708002619.8125
-3.77,1708002619.828125
2.72,1708002619.84375
8.49,1708002619.859375
13.33,1708002619.875
17.26,1708002619.890625
20.49,1708002619.90625
23.18,1708002619.921875
25.38,1708002619.9375
27.02,1708002619.953125
27.91,1708002619.96875
27.93,1708002619.984375
27.13,1708002620.0
25.75,1708002620.015625
24.16,1708002620.03125
22.67,1708002620.046875
21.36,1708002620.0625
20.08,1708002620.078125
18.49,1708002620.09375
16.24,1708002620.109375
13.1,1708002620.125
9.1,1708002620.140625
4.46,1708002620.15625
-0.47,1708002620.171875
-5.4,1708002620.1875
-10.11,1708002620.203125
-14.61,1708002620.21875
-19.06,1708002620.234375
-23.7,1708002620.25
-28.8,1708002620.265625
-34.43,1708002620.28125
-40.38,1708002620.296875
-46.04,1708002620.3125
-50.5,1708002620.328125
-52.69,1708002620.34375
-51.72,1708002620.359375
-47.13,1708002620.375
-39.09,1708002620.390625
-28.39,1708002620.40625
-16.24,1708002620.421875
-3.99,1708002620.4375
7.21,1708002620.453125
16.59,1708002620.46875
23.81,1708002620.484375
28.89,1708002620.5
32.01,1708002620.515625
33.46,1708002620.53125
33.51,1708002620.546875
32.43,1708002620.5625
30.56,1708002620.578125
28.29,1708002620.59375
25.99,1708002620.609375
24.0,1708002620.625
22.55,1708002620.640625
21.75,1708002620.65625
21.64,1708002620.671875
22.26,1708002620.6875
23.58,1708002620.703125
25.53,1708002620.71875
27.94,1708002620.734375
30.49,1708002620.75
32.83,1708002620.765625
34.58,1708002620.78125
35.46,1708002620.796875
35.45,1708002620.8125
34.69,1708002620.828125
33.36,1708002620.84375
31.57,1708002620.859375
29.38,1708002620.875
26.84,1708002620.890625
23.96,1708002620.90625
20.73,1708002620.921875
17.18,1708002620.9375
13.47,1708002620.953125
9.71,1708002620.96875
5.89,1708002620.984375
1.87,1708002621.0
-2.5,1708002621.015625
-7.19,1708002621.03125
-12.02,1708002621.046875
-16.8,1708002621.0625
-21.37,1708002621.078125
-25.54,1708002621.09375
-29.35,1708002621.109375
-33.23,1708002621.125
-37.75,1708002621.140625
-43.37,1708002621.15625
-50.08,1708002621.171875
-57.55,1708002621.1875
-65.28,1708002621.203125
-72.84,1708002621.21875
-79.32,1708002621.234375
-84.46,1708002621.25
-88.87,1708002621.265625
-93.72,1708002621.28125
-100.08,1708002621.296875
-107.68,1708002621.3125
-115.33,1708002621.328125
-121.18,1708002621.34375
-123.38,1708002621.359375
-119.15,1708002621.375
-107.25,1708002621.390625
-88.77,1708002621.40625
-66.67,1708002621.421875
-44.74,1708002621.4375
-24.92,1708002621.453125
-8.09,1708002621.46875
5.93,1708002621.484375
18.09,1708002621.5
32.04,1708002621.515625
50.74,1708002621.53125
75.03,1708002621.546875
103.79,1708002621.5625
134.73,1708002621.578125
167.43,1708002621.59375
201.06,1708002621.609375
233.8,1708002621.625
262.95,1708002621.640625
288.82,1708002621.65625
311.88,1708002621.671875
331.87,1708002621.6875
347.7,1708002621.703125
357.4,1708002621.71875
360.97,1708002621.734375
357.58,1708002621.75
345.65,1708002621.765625
307.44,1708002621.78125
237.73,1708002621.796875
147.18,1708002621.8125
55.71,1708002621.828125
-16.55,1708002621.84375
-73.2,1708002621.859375
-120.05,1708002621.875
-161.06,1708002621.890625
-195.63,1708002621.90625
-221.73,1708002621.921875
-235.55,1708002621.9375
-236.32,1708002621.953125
-227.46,1708002621.96875
-214.81,1708002621.984375
-204.15,1708002622.0
-196.5,1708002622.015625
-190.87,1708002622.03125
-185.78,1708002622.046875
-180.29,1708002622.0625
-172.15,1708002622.078125
-160.34,1708002622.09375
-145.93,1708002622.109375
-131.34,1708002622.125
-119.37,1708002622.140625
-110.21,1708002622.15625
-103.42,1708002622.171875
-98.51,1708002622.1875
-95.17,1708002622.203125
-91.56,1708002622.21875
-86.08,1708002622.234375
-78.15,1708002622.25
-68.15,1708002622.265625
-57.12,1708002622.28125
-44.93,1708002622.296875
-31.54,1708002622.3125
-17.27,1708002622.328125
-2.87,1708002622.34375
11.37,1708002622.359375
24.99,1708002622.375
37.13,1708002622.390625
46.79,1708002622.40625
53.1,1708002622.421875
56.29,1708002622.4375
56.96,1708002622.453125
55.8,1708002622.46875
53.36,1708002622.484375
50.29,1708002622.5
47.08,1708002622.515625
43.98,1708002622.53125
41.18,1708002622.546875
38.8,1708002622.5625
37.24,1708002622.578125
36.76,1708002622.59375
37.36,1708002622.609375
38.73,1708002622.625
40.41,1708002622.640625
41.96,1708002622.65625
43.1,1708002622.671875
43.68,1708002622.6875
43.67,1708002622.703125
43.04,1708002622.71875
41.72,1708002622.734375
39.68,1708002622.75
36.96,1708002622.765625
33.68,1708002622.78125
30.06,1708002622.796875
26.25,1708002622.8125
22.29,1708002622.828125
18.15,1708002622.84375
13.77,1708002622.859375
9.19,1708002622.875
4.58,1708002622.890625
0.23,1708002622.90625
-3.63,1708002622.921875
-6.91,1708002622.9375
-9.79,1708002622.953125
-12.56,1708002622.96875
-15.56,1708002622.984375
-18.9,1708002623.0
-22.48,1708002623.015625
-25.98,1708002623.03125
-29.08,1708002623.046875
-31.61,1708002623.0625
-33.71,1708002623.078125
-35.75,1708002623.09375
-38.25,1708002623.109375
-41.62,1708002623.125
-45.97,1708002623.140625
-51.03,1708002623.15625
-56.16,1708002623.171875
-60.42,1708002623.1875
-62.77,1708002623.203125
-62.24,1708002623.21875
-58.19,1708002623.234375
-50.49,1708002623.25
-39.66,1708002623.265625
-26.82,1708002623.28125
-13.45,1708002623.296875
-0.98,1708002623.3125
9.49,1708002623.328125
17.49,1708002623.34375
23.08,1708002623.359375
26.7,1708002623.375
28.83,1708002623.390625
29.75,1708002623.40625
29.52,1708002623.421875
28.14,1708002623.4375
25.7,1708002623.453125
22.49,1708002623.46875
18.93,1708002623.484375
15.35,1708002623.5
11.92,1708002623.515625
8.65,1708002623.53125
5.55,1708002623.546875
2.8,1708002623.5625
0.81,1708002623.578125
0.15,1708002623.59375
1.19,1708002623.609375
3.93,1708002623.625
7.97,1708002623.640625
12.57,1708002623.65625
16.98,1708002623.671875
20.71,1708002623.6875
23.66,1708002623.703125
26.19,1708002623.71875
28.9,1708002623.734375
32.41,1708002623.75
37.13,1708002623.765625
43.15,1708002623.78125
50.25,1708002623.796875
57.99,1708002623.8125
65.82,1708002623.828125
73.16,1708002623.84375
79.46,1708002623.859375
84.29,1708002623.875
87.43,1708002623.890625
88.92,1708002623.90625
89.1,1708002623.921875
88.37,1708002623.9375
86.97,1708002623.953125
84.73,1708002623.96875
81.16,1708002623.984375
75.72,1708002624.0
68.27,1708002624.015625
59.3,1708002624.03125
49.85,1708002624.046875
41.25,1708002624.0625
34.64,1708002624.078125
30.67,1708002624.09375
29.49,1708002624.109375
30.78,1708002624.125
34.03,1708002624.140625
38.69,1708002624.15625
44.25,1708002624.171875
50.2,1708002624.1875
56.02,1708002624.203125
61.4,1708002624.21875
66.65,1708002624.234375
72.75,1708002624.25
80.87,1708002624.265625
91.34,1708002624.28125
102.71,1708002624.296875
111.64,1708002624.3125
113.81,1708002624.328125
105.71,1708002624.34375
86.04,1708002624.359375
56.12,1708002624.375
19.01,1708002624.390625
-21.99,1708002624.40625
-64.44,1708002624.421875
-106.77,1708002624.4375
-147.4,1708002624.453125
-183.91,1708002624.46875
-213.09,1708002624.484375
-232.03,1708002624.5
-239.49,1708002624.515625
-236.66,1708002624.53125
-226.51,1708002624.546875
-212.43,1708002624.5625
-196.84,1708002624.578125
-180.64,1708002624.59375
-163.66,1708002624.609375
-145.49,1708002624.625
-126.23,1708002624.640625
-106.66,1708002624.65625
-87.92,1708002624.671875
-70.9,1708002624.6875
-56.03,1708002624.703125
-43.31,1708002624.71875
-32.55,1708002624.734375
-23.59,1708002624.75
-16.34,1708002624.765625
-10.71,1708002624.78125
-6.41,1708002624.796875
-3.02,1708002624.8125
-0.06,1708002624.828125
2.83,1708002624.84375
5.73,1708002624.859375
8.53,1708002624.875
11.02,1708002624.890625
13.07,1708002624.90625
14.7,1708002624.921875
16.05,1708002624.9375
17.2,1708002624.953125
18.18,1708002624.96875
18.81,1708002624.984375
18.88,1708002625.0
18.21,1708002625.015625
16.8,1708002625.03125
14.79,1708002625.046875
12.42,1708002625.0625
9.89,1708002625.078125
7.27,1708002625.09375
4.56,1708002625.109375
1.63,1708002625.125
-1.6,1708002625.140625
-5.21,1708002625.15625
-9.3,1708002625.171875
-13.99,1708002625.1875
-19.38,1708002625.203125
-25.44,1708002625.21875
-31.83,1708002625.234375
-37.86,1708002625.25
-42.54,1708002625.265625
-44.81,1708002625.28125
-43.84,1708002625.296875
-39.29,1708002625.3125
-31.43,1708002625.328125
-21.05,1708002625.34375
-9.26,1708002625.359375
2.77,1708002625.375
14.03,1708002625.390625
23.81,1708002625.40625
31.65,1708002625.421875
37.36,1708002625.4375
40.97,1708002625.453125
42.7,1708002625.46875
42.9,1708002625.484375
42.01,1708002625.5
40.45,1708002625.515625
38.56,1708002625.53125
36.62,1708002625.546875
34.9,1708002625.5625
33.71,1708002625.578125
33.38,1708002625.59375
34.12,1708002625.609375
35.95,1708002625.625
38.63,1708002625.640625
41.79,1708002625.65625
45.06,1708002625.671875
48.2,1708002625.6875
51.12,1708002625.703125
53.75,1708002625.71875
55.94,1708002625.734375
57.33,1708002625.75
57.59,1708002625.765625
56.56,1708002625.78125
54.41,1708002625.796875
51.63,1708002625.8125
48.8,1708002625.828125
46.3,1708002625.84375
44.18,1708002625.859375
42.23,1708002625.875
40.15,1708002625.890625
37.76,1708002625.90625
35.08,1708002625.921875
32.35,1708002625.9375
29.83,1708002625.953125
27.71,1708002625.96875
25.96,1708002625.984375
24.42,1708002626.0
22.93,1708002626.015625
21.4,1708002626.03125
19.85,1708002626.046875
18.32,1708002626.0625
16.84,1708002626.078125
15.45,1708002626.09375
14.18,1708002626.109375
13.0,1708002626.125
11.94,1708002626.140625
11.05,1708002626.15625
10.35,1708002626.171875
9.7,1708002626.1875
8.89,1708002626.203125
7.74,1708002626.21875
6.33,1708002626.234375
4.93,1708002626.25
3.43,1708002626.265625
1.72,1708002626.28125
-0.41,1708002626.296875
-3.07,1708002626.3125
-6.29,1708002626.328125
-9.77,1708002626.34375
-12.74,1708002626.359375
-14.16,1708002626.375
-13.07,1708002626.390625
-9.86,1708002626.40625
-5.27,1708002626.421875
-0.04,1708002626.4375
5.43,1708002626.453125
10.87,1708002626.46875
15.93,1708002626.484375
19.99,1708002626.5
22.12,1708002626.515625
21.26,1708002626.53125
15.44,1708002626.546875
4.01,1708002626.5625
-11.88,1708002626.578125
-29.87,1708002626.59375
-48.19,1708002626.609375
-66.61,1708002626.625
-86.37,1708002626.640625
-108.93,1708002626.65625
-134.65,1708002626.671875
-163.56,1708002626.6875
-193.53,1708002626.703125
-220.81,1708002626.71875
-241.49,1708002626.734375
-253.32,1708002626.75
-256.08,1708002626.765625
-250.86,1708002626.78125
-239.03,1708002626.796875
-211.32,1708002626.8125
-164.74,1708002626.828125
-105.02,1708002626.84375
-44.43,1708002626.859375
6.09,1708002626.875
41.9,1708002626.890625
64.05,1708002626.90625
76.77,1708002626.921875
84.72,1708002626.9375
90.54,1708002626.953125
93.78,1708002626.96875
93.79,1708002626.984375
90.98,1708002627.0
87.16,1708002627.015625
82.97,1708002627.03125
79.3,1708002627.046875
76.61,1708002627.0625
74.86,1708002627.078125
73.67,1708002627.09375
71.37,1708002627.109375
66.84,1708002627.125
60.17,1708002627.140625
52.52,1708002627.15625
45.18,1708002627.171875
39.13,1708002627.1875
34.6,1708002627.203125
31.38,1708002627.21875
29.06,1708002627.234375
26.5,1708002627.25
23.0,1708002627.265625
18.53,1708002627.28125
13.67,1708002627.296875
8.99,1708002627.3125
4.92,1708002627.328125
1.48,1708002627.34375
-1.5,1708002627.359375
-4.22,1708002627.375
-7.21,1708002627.390625
-10.78,1708002627.40625
-14.95,1708002627.421875
-19.47,1708002627.4375
-24.1,1708002627.453125
-28.55,1708002627.46875
-32.61,1708002627.484375
-35.9,1708002627.5
-37.87,1708002627.515625
-37.91,1708002627.53125
-35.35,1708002627.546875
-29.83,1708002627.5625
-21.39,1708002627.578125
-10.7,1708002627.59375
1.11,1708002627.609375
12.68,1708002627.625
22.85,1708002627.640625
30.91,1708002627.65625
36.69,1708002627.671875
40.42,1708002627.6875
42.49,1708002627.703125
43.24,1708002627.71875
42.89,1708002627.734375
41.57,1708002627.75
39.45,1708002627.765625
36.83,1708002627.78125
34.09,1708002627.796875
31.65,1708002627.8125
29.86,1708002627.828125
28.9,1708002627.84375
28.78,1708002627.859375
29.39,1708002627.875
30.57,1708002627.890625
32.13,1708002627.90625
33.95,1708002627.921875
35.91,1708002627.9375
37.87,1708002627.953125
39.65,1708002627.96875
41.03,1708002627.984375
41.81,1708002628.0
41.86,1708002628.015625
41.14,1708002628.03125
39.77,1708002628.046875
37.89,1708002628.0625
35.68,1708002628.078125
33.26,1708002628.09375
30.72,1708002628.109375
28.09,1708002628.125
25.41,1708002628.140625
22.77,1708002628.15625
20.26,1708002628.171875
17.98,1708002628.1875
15.97,1708002628.203125
14.19,1708002628.21875
12.57,1708002628.234375
10.99,1708002628.25
9.29,1708002628.265625
7.27,1708002628.28125
4.74,1708002628.296875
1.59,1708002628.3125
-2.16,1708002628.328125
-6.33,1708002628.34375
-10.64,1708002628.359375
-14.77,1708002628.375
-18.49,1708002628.390625
-21.71,1708002628.40625
-24.49,1708002628.421875
-26.95,1708002628.4375
-29.25,1708002628.453125
-31.55,1708002628.46875
-33.96,1708002628.484375
-36.57,1708002628.5
-39.41,1708002628.515625
-42.42,1708002628.53125
-45.52,1708002628.546875
-48.6,1708002628.5625
-51.57,1708002628.578125
-54.3,1708002628.59375
-56.47,1708002628.609375
-57.44,1708002628.625
-56.24,1708002628.640625
-51.78,1708002628.65625
-43.29,1708002628.671875
-30.81,1708002628.6875
-15.37,1708002628.703125
1.2,1708002628.71875
16.8,1708002628.734375
29.92,1708002628.75
40.07,1708002628.765625
47.92,1708002628.78125
54.77,1708002628.796875
61.96,1708002628.8125
70.3,1708002628.828125
80.01,1708002628.84375
90.95,1708002628.859375
102.99,1708002628.875
115.86,1708002628.890625
128.89,1708002628.90625
140.8,1708002628.921875
150.07,1708002628.9375
155.72,1708002628.953125
158.0,1708002628.96875
158.19,1708002628.984375
157.71,1708002629.0
156.86,1708002629.015625
154.17,1708002629.03125
146.71,1708002629.046875
131.42,1708002629.0625
106.61,1708002629.078125
72.75,1708002629.09375
32.26,1708002629.109375
-11.34,1708002629.125
-54.5,1708002629.140625
-94.27,1708002629.15625
-128.44,1708002629.171875
-155.52,1708002629.1875
-174.63,1708002629.203125
-185.69,1708002629.21875
-189.43,1708002629.234375
-187.24,1708002629.25
-180.86,1708002629.265625
-172.02,1708002629.28125
-162.32,1708002629.296875
-152.98,1708002629.3125
-144.74,1708002629.328125
-137.61,1708002629.34375
-130.99,1708002629.359375
-123.94,1708002629.375
-115.68,1708002629.390625
-106.02,1708002629.40625
-95.52,1708002629.421875
-85.26,1708002629.4375
-76.28,1708002629.453125
-69.2,1708002629.46875
-63.96,1708002629.484375
-60.06,1708002629.5
-56.89,1708002629.515625
-54.06,1708002629.53125
-51.62,1708002629.546875
-49.9,1708002629.5625
-49.28,1708002629.578125
-49.84,1708002629.59375
-51.25,1708002629.609375
-52.76,1708002629.625
-53.46,1708002629.640625
-52.42,1708002629.65625
-48.96,1708002629.671875
-42.77,1708002629.6875
-33.92,1708002629.703125
-22.9,1708002629.71875
-10.53,1708002629.734375
2.15,1708002629.75
14.12,1708002629.765625
24.53,1708002629.78125
32.92,1708002629.796875
39.2,1708002629.8125
43.52,1708002629.828125
46.15,1708002629.84375
47.27,1708002629.859375
47.01,1708002629.875
45.49,1708002629.890625
42.97,1708002629.90625
39.92,1708002629.921875
36.9,1708002629.9375
34.45,1708002629.953125
32.89,1708002629.96875
32.26,1708002629.984375
32.35,1708002630.0
32.91,1708002630.015625
33.73,1708002630.03125
34.77,1708002630.046875
36.14,1708002630.0625
37.89,1708002630.078125
39.93,1708002630.09375
41.89,1708002630.109375
43.29,1708002630.125
43.7,1708002630.140625
42.9,1708002630.15625
41.02,1708002630.171875
38.42,1708002630.1875
35.53,1708002630.203125
32.6,1708002630.21875
29.74,1708002630.234375
26.87,1708002630.25
23.93,1708002630.265625
20.91,1708002630.28125
17.89,1708002630.296875
15.02,1708002630.3125
12.33,1708002630.328125
9.77,1708002630.34375
7.2,1708002630.359375
4.49,1708002630.375
1.51,1708002630.390625
-1.74,1708002630.40625
-5.19,1708002630.421875
-8.77,1708002630.4375
-12.43,1708002630.453125
-16.13,1708002630.46875
-19.9,1708002630.484375
-23.69,1708002630.5
-27.45,1708002630.515625
-31.14,1708002630.53125
-34.81,1708002630.546875
-38.67,1708002630.5625
-43.09,1708002630.578125
-48.51,1708002630.59375
-55.22,1708002630.609375
-63.16,1708002630.625
-71.82,1708002630.640625
-80.26,1708002630.65625
-87.28,1708002630.671875
-91.69,1708002630.6875
-92.58,1708002630.703125
-89.5,1708002630.71875
-82.59,1708002630.734375
-72.63,1708002630.75
-60.84,1708002630.765625
-48.71,1708002630.78125
-37.68,1708002630.796875
-28.82,1708002630.8125
-22.64,1708002630.828125
-19.07,1708002630.84375
-17.55,1708002630.859375
-17.33,1708002630.875
-17.78,1708002630.890625
-18.48,1708002630.90625
-19.34,1708002630.921875
-20.48,1708002630.9375
-22.0,1708002630.953125
-23.74,1708002630.96875
-25.21,1708002630.984375
-25.56,1708002631.0
-23.92,1708002631.015625
-19.68,1708002631.03125
-12.71,1708002631.046875
-3.36,1708002631.0625
7.83,1708002631.078125
20.37,1708002631.09375
34.06,1708002631.109375
48.85,1708002631.125
64.64,1708002631.140625
81.13,1708002631.15625
97.95,1708002631.171875
115.12,1708002631.1875
133.25,1708002631.203125
153.17,1708002631.21875
175.09,1708002631.234375
198.02,1708002631.25
219.89,1708002631.265625
238.35,1708002631.28125
251.83,1708002631.296875
259.85,1708002631.3125
262.66,1708002631.328125
260.3,1708002631.34375
251.88,1708002631.359375
235.73,1708002631.375
210.28,1708002631.390625
175.08,1708002631.40625
131.45,1708002631.421875
82.26,1708002631.4375
31.03,1708002631.453125
-18.81,1708002631.46875
-64.54,1708002631.484375
-104.25,1708002631.5
-136.69,1708002631.515625
-161.36,1708002631.53125
-178.57,1708002631.546875
-189.44,1708002631.5625
-195.48,1708002631.578125
-198.23,1708002631.59375
