bvp,time
-39.66,1551189102.171875
-45.6,1551189102.1875
-48.4,1551189102.203125
-48.15,1551189102.21875
-45.3,1551189102.234375
-40.63,1551189102.25
-34.98,1551189102.265625
-29.14,1551189102.28125
-23.69,1551189102.296875
-19.02,1551189102.3125
-15.31,1551189102.328125
-12.7,1551189102.34375
-11.29,1551189102.359375
-11.16,1551189102.375
-12.28,1551189102.390625
-14.41,1551189102.40625
-17.21,1551189102.421875
-20.24,1551189102.4375
-23.23,1551189102.453125
-26.19,1551189102.46875
-29.36,1551189102.484375
-33.15,1551189102.5
-37.83,1551189102.515625
-43.4,1551189102.53125
-49.44,1551189102.546875
-55.29,1551189102.5625
-60.17,1551189102.578125
-63.43,1551189102.59375
-64.7,1551189102.609375
-63.95,1551189102.625
-61.54,1551189102.640625
-58.07,1551189102.65625
-54.29,1551189102.671875
-50.82,1551189102.6875
-48.12,1551189102.703125
-46.39,1551189102.71875
-45.61,1551189102.734375
-45.62,1551189102.75
-46.03,1551189102.765625
-46.25,1551189102.78125
-45.45,1551189102.796875
-42.71,1551189102.8125
-37.33,1551189102.828125
-29.11,1551189102.84375
-18.57,1551189102.859375
-6.81,1551189102.875
4.8,1551189102.890625
15.19,1551189102.90625
23.92,1551189102.921875
31.3,1551189102.9375
38.06,1551189102.953125
44.9,1551189102.96875
52.12,1551189102.984375
59.45,1551189103.0
66.21,1551189103.015625
71.66,1551189103.03125
75.34,1551189103.046875
77.16,1551189103.0625
77.39,1551189103.078125
76.41,1551189103.09375
74.51,1551189103.109375
71.85,1551189103.125
68.58,1551189103.140625
64.96,1551189103.15625
61.39,1551189103.171875
58.35,1551189103.1875
56.12,1551189103.203125
54.68,1551189103.21875
53.84,1551189103.234375
53.44,1551189103.25
53.66,1551189103.265625
55.09,1551189103.28125
58.47,1551189103.296875
64.28,1551189103.3125
72.32,1551189103.328125
81.63,1551189103.34375
90.81,1551189103.359375
98.59,1551189103.375
104.31,1551189103.390625
108.12,1551189103.40625
110.77,1551189103.421875
113.16,1551189103.4375
115.96,1551189103.453125
119.41,1551189103.46875
123.38,1551189103.484375
127.61,1551189103.5
131.82,1551189103.515625
135.85,1551189103.53125
139.56,1551189103.546875
142.88,1551189103.5625
145.78,1551189103.578125
148.27,1551189103.59375
150.32,1551189103.609375
151.54,1551189103.625
151.03,1551189103.640625
147.23,1551189103.65625
138.28,1551189103.671875
122.47,1551189103.6875
98.98,1551189103.703125
68.33,1551189103.71875
32.45,1551189103.734375
-5.66,1551189103.75
-42.62,1551189103.765625
-75.42,1551189103.78125
-101.97,1551189103.796875
-121.43,1551189103.8125
-134.1,1551189103.828125
-141.12,1551189103.84375
-144.03,1551189103.859375
-144.28,1551189103.875
-142.96,1551189103.890625
-140.71,1551189103.90625
-137.82,1551189103.921875
-134.4,1551189103.9375
-130.59,1551189103.953125
-126.55,1551189103.96875
-122.39,1551189103.984375
-118.15,1551189104.0
-113.79,1551189104.015625
-109.19,1551189104.03125
-104.32,1551189104.046875
-99.24,1551189104.0625
-94.09,1551189104.078125
-88.98,1551189104.09375
-83.96,1551189104.109375
-79.02,1551189104.125
-74.11,1551189104.140625
-69.24,1551189104.15625
-64.46,1551189104.171875
-59.92,1551189104.1875
-55.77,1551189104.203125
-52.1,1551189104.21875
-48.95,1551189104.234375
-46.28,1551189104.25
-43.96,1551189104.265625
-41.86,1551189104.28125
-39.83,1551189104.296875
-37.83,1551189104.3125
-35.94,1551189104.328125
-34.34,1551189104.34375
-33.25,1551189104.359375
-32.83,1551189104.375
-33.06,1551189104.390625
-33.72,1551189104.40625
-34.44,1551189104.421875
-34.96,1551189104.4375
-35.2,1551189104.453125
-35.36,1551189104.46875
-35.76,1551189104.484375
-36.71,1551189104.5
-38.32,1551189104.515625
-40.4,1551189104.53125
-42.65,1551189104.546875
-44.72,1551189104.5625
-46.47,1551189104.578125
-48.0,1551189104.59375
-49.61,1551189104.609375
-51.69,1551189104.625
-54.58,1551189104.640625
-58.32,1551189104.65625
-62.58,1551189104.671875
-66.59,1551189104.6875
-69.29,1551189104.703125
-69.65,1551189104.71875
-67.05,1551189104.734375
-61.54,1551189104.75
-53.88,1551189104.765625
-45.26,1551189104.78125
-36.86,1551189104.796875
-29.55,1551189104.8125
-23.63,1551189104.828125
-19.04,1551189104.84375
-15.44,1551189104.859375
-12.5,1551189104.875
-9.92,1551189104.890625
-7.56,1551189104.90625
-5.31,1551189104.921875
-3.13,1551189104.9375
-1.0,1551189104.953125
1.13,1551189104.96875
3.32,1551189104.984375
5.6,1551189105.0
7.92,1551189105.015625
10.13,1551189105.03125
11.93,1551189105.046875
13.14,1551189105.0625
13.7,1551189105.078125
13.79,1551189105.09375
13.75,1551189105.109375
13.81,1551189105.125
13.94,1551189105.140625
13.83,1551189105.15625
12.95,1551189105.171875
10.91,1551189105.1875
7.71,1551189105.203125
3.85,1551189105.21875
0.12,1551189105.234375
-2.62,1551189105.25
-3.91,1551189105.265625
-3.77,1551189105.28125
-2.72,1551189105.296875
-1.42,1551189105.3125
-0.37,1551189105.328125
0.36,1551189105.34375
1.01,1551189105.359375
1.98,1551189105.375
3.42,1551189105.390625
5.13,1551189105.40625
6.6,1551189105.421875
7.27,1551189105.4375
6.83,1551189105.453125
5.31,1551189105.46875
3.06,1551189105.484375
0.52,1551189105.5
-2.0,1551189105.515625
-4.36,1551189105.53125
-6.69,1551189105.546875
-9.15,1551189105.5625
-11.95,1551189105.578125
-15.27,1551189105.59375
-19.26,1551189105.609375
-23.96,1551189105.625
-29.23,1551189105.640625
-34.63,1551189105.65625
-39.33,1551189105.671875
-42.35,1551189105.6875
-42.78,1551189105.703125
-40.11,1551189105.71875
-34.49,1551189105.734375
-26.69,1551189105.75
-17.88,1551189105.765625
-9.35,1551189105.78125
-2.12,1551189105.796875
3.3,1551189105.8125
6.9,1551189105.828125
9.17,1551189105.84375
10.8,1551189105.859375
12.44,1551189105.875
14.43,1551189105.890625
16.79,1551189105.90625
19.24,1551189105.921875
21.47,1551189105.9375
23.31,1551189105.953125
24.84,1551189105.96875
26.34,1551189105.984375
28.06,1551189106.0
30.08,1551189106.015625
32.3,1551189106.03125
34.43,1551189106.046875
36.19,1551189106.0625
37.44,1551189106.078125
38.26,1551189106.09375
38.88,1551189106.109375
39.57,1551189106.125
40.49,1551189106.140625
41.54,1551189106.15625
42.47,1551189106.171875
42.93,1551189106.1875
42.71,1551189106.203125
41.92,1551189106.21875
40.91,1551189106.234375
40.19,1551189106.25
40.25,1551189106.265625
41.3,1551189106.28125
43.24,1551189106.296875
45.73,1551189106.3125
48.28,1551189106.328125
50.37,1551189106.34375
51.58,1551189106.359375
51.58,1551189106.375
50.14,1551189106.390625
47.14,1551189106.40625
42.61,1551189106.421875
36.73,1551189106.4375
29.82,1551189106.453125
22.2,1551189106.46875
14.09,1551189106.484375
5.47,1551189106.5
-3.83,1551189106.515625
-14.04,1551189106.53125
-25.07,1551189106.546875
-36.45,1551189106.5625
-47.19,1551189106.578125
-56.06,1551189106.59375
-61.98,1551189106.609375
-64.37,1551189106.625
-63.33,1551189106.640625
-59.61,1551189106.65625
-54.28,1551189106.671875
-48.41,1551189106.6875
-42.82,1551189106.703125
-37.96,1551189106.71875
-33.91,1551189106.734375
-30.48,1551189106.75
-27.36,1551189106.765625
-24.26,1551189106.78125
-21.01,1551189106.796875
-17.64,1551189106.8125
-14.28,1551189106.828125
-11.04,1551189106.84375
-7.97,1551189106.859375
-4.95,1551189106.875
-1.82,1551189106.890625
1.51,1551189106.90625
5.08,1551189106.921875
8.75,1551189106.9375
12.39,1551189106.953125
15.81,1551189106.96875
18.92,1551189106.984375
21.61,1551189107.0
23.82,1551189107.015625
25.42,1551189107.03125
26.28,1551189107.046875
26.29,1551189107.0625
25.44,1551189107.078125
23.86,1551189107.09375
21.81,1551189107.109375
19.64,1551189107.125
17.64,1551189107.140625
15.88,1551189107.15625
14.2,1551189107.171875
12.3,1551189107.1875
9.92,1551189107.203125
7.08,1551189107.21875
4.05,1551189107.234375
1.25,1551189107.25
-1.07,1551189107.265625
-2.95,1551189107.28125
-4.7,1551189107.296875
-6.72,1551189107.3125
-9.19,1551189107.328125
-11.96,1551189107.34375
-14.64,1551189107.359375
-16.89,1551189107.375
-18.65,1551189107.390625
-20.18,1551189107.40625
-22.0,1551189107.421875
-24.63,1551189107.4375
-28.38,1551189107.453125
-33.19,1551189107.46875
-38.68,1551189107.484375
-44.17,1551189107.5
-48.8,1551189107.515625
-51.67,1551189107.53125
-51.97,1551189107.546875
-49.31,1551189107.5625
-43.77,1551189107.578125
-36.05,1551189107.59375
-27.32,1551189107.609375
-18.86,1551189107.625
-11.75,1551189107.640625
-6.51,1551189107.65625
-3.08,1551189107.671875
-0.86,1551189107.6875
0.96,1551189107.703125
3.13,1551189107.71875
6.09,1551189107.734375
9.86,1551189107.75
14.1,1551189107.765625
18.28,1551189107.78125
21.91,1551189107.796875
24.7,1551189107.8125
26.63,1551189107.828125
27.91,1551189107.84375
28.87,1551189107.859375
29.79,1551189107.875
30.81,1551189107.890625
31.95,1551189107.90625
33.11,1551189107.921875
34.13,1551189107.9375
34.85,1551189107.953125
35.11,1551189107.96875
34.88,1551189107.984375
34.19,1551189108.0
33.17,1551189108.015625
31.96,1551189108.03125
30.6,1551189108.046875
29.02,1551189108.0625
27.11,1551189108.078125
24.75,1551189108.09375
22.0,1551189108.109375
19.04,1551189108.125
16.12,1551189108.140625
13.38,1551189108.15625
10.88,1551189108.171875
8.47,1551189108.1875
6.04,1551189108.203125
3.49,1551189108.21875
0.81,1551189108.234375
-1.95,1551189108.25
-4.72,1551189108.265625
-7.51,1551189108.28125
-10.36,1551189108.296875
-13.39,1551189108.3125
-16.66,1551189108.328125
-20.21,1551189108.34375
-24.0,1551189108.359375
-28.0,1551189108.375
-32.23,1551189108.390625
-36.7,1551189108.40625
-41.36,1551189108.421875
-45.86,1551189108.4375
-49.53,1551189108.453125
-51.37,1551189108.46875
-50.43,1551189108.484375
-46.18,1551189108.5
-38.83,1551189108.515625
-29.33,1551189108.53125
-19.16,1551189108.546875
-9.72,1551189108.5625
-1.93,1551189108.578125
3.98,1551189108.59375
8.38,1551189108.609375
11.86,1551189108.625
14.96,1551189108.640625
17.88,1551189108.65625
20.56,1551189108.671875
22.86,1551189108.6875
24.72,1551189108.703125
26.22,1551189108.71875
27.56,1551189108.734375
28.9,1551189108.75
30.3,1551189108.765625
31.72,1551189108.78125
33.15,1551189108.796875
34.61,1551189108.8125
36.18,1551189108.828125
37.91,1551189108.84375
39.67,1551189108.859375
41.19,1551189108.875
42.1,1551189108.890625
42.13,1551189108.90625
41.21,1551189108.921875
39.48,1551189108.9375
37.2,1551189108.953125
34.64,1551189108.96875
32.0,1551189108.984375
29.43,1551189109.0
27.03,1551189109.015625
24.87,1551189109.03125
22.87,1551189109.046875
20.85,1551189109.0625
18.57,1551189109.078125
15.88,1551189109.09375
12.89,1551189109.109375
9.89,1551189109.125
7.29,1551189109.140625
5.32,1551189109.15625
3.9,1551189109.171875
2.65,1551189109.1875
1.07,1551189109.203125
-1.17,1551189109.21875
-4.12,1551189109.234375
-7.56,1551189109.25
-11.1,1551189109.265625
-14.49,1551189109.28125
-17.64,1551189109.296875
-20.72,1551189109.3125
-24.03,1551189109.328125
-27.87,1551189109.34375
-32.47,1551189109.359375
-37.89,1551189109.375
-43.85,1551189109.390625
-49.74,1551189109.40625
-54.61,1551189109.421875
-57.44,1551189109.4375
-57.35,1551189109.453125
-53.95,1551189109.46875
-47.48,1551189109.484375
-38.75,1551189109.5
-28.95,1551189109.515625
-19.26,1551189109.53125
-10.61,1551189109.546875
-3.48,1551189109.5625
2.14,1551189109.578125
6.61,1551189109.59375
10.49,1551189109.609375
14.29,1551189109.625
18.3,1551189109.640625
22.55,1551189109.65625
26.86,1551189109.671875
30.99,1551189109.6875
34.78,1551189109.703125
38.12,1551189109.71875
40.99,1551189109.734375
43.34,1551189109.75
45.05,1551189109.765625
45.99,1551189109.78125
46.11,1551189109.796875
45.54,1551189109.8125
44.48,1551189109.828125
43.18,1551189109.84375
41.78,1551189109.859375
40.3,1551189109.875
38.65,1551189109.890625
36.75,1551189109.90625
34.62,1551189109.921875
32.31,1551189109.9375
29.92,1551189109.953125
27.49,1551189109.96875
25.02,1551189109.984375
22.4,1551189110.0
19.54,1551189110.015625
16.34,1551189110.03125
12.74,1551189110.046875
8.74,1551189110.0625
4.34,1551189110.078125
-0.32,1551189110.09375
-5.07,1551189110.109375
-9.73,1551189110.125
-14.16,1551189110.140625
-18.34,1551189110.15625
-22.39,1551189110.171875
-26.54,1551189110.1875
-30.97,1551189110.203125
-35.77,1551189110.21875
-40.78,1551189110.234375
-45.61,1551189110.25
-49.67,1551189110.265625
-52.29,1551189110.28125
-52.88,1551189110.296875
-51.04,1551189110.3125
-46.77,1551189110.328125
-40.44,1551189110.34375
-32.8,1551189110.359375
-24.78,1551189110.375
-17.32,1551189110.390625
-11.06,1551189110.40625
-6.22,1551189110.421875
-2.67,1551189110.4375
0.0,1551189110.453125
2.21,1551189110.46875
4.22,1551189110.484375
6.1,1551189110.5
7.7,1551189110.515625
8.8,1551189110.53125
9.28,1551189110.546875
9.18,1551189110.5625
8.71,1551189110.578125
8.21,1551189110.59375
7.97,1551189110.609375
8.21,1551189110.625
8.94,1551189110.640625
10.07,1551189110.65625
11.46,1551189110.671875
12.96,1551189110.6875
14.48,1551189110.703125
15.91,1551189110.71875
17.1,1551189110.734375
17.82,1551189110.75
17.85,1551189110.765625
17.07,1551189110.78125
15.57,1551189110.796875
13.64,1551189110.8125
11.67,1551189110.828125
9.98,1551189110.84375
8.74,1551189110.859375
7.87,1551189110.875
7.13,1551189110.890625
6.17,1551189110.90625
4.78,1551189110.921875
2.91,1551189110.9375
0.7,1551189110.953125
-1.58,1551189110.96875
-3.64,1551189110.984375
-5.37,1551189111.0
-6.86,1551189111.015625
-8.45,1551189111.03125
-10.59,1551189111.046875
-13.66,1551189111.0625
-17.86,1551189111.078125
-23.02,1551189111.09375
-28.59,1551189111.109375
-33.71,1551189111.125
-37.38,1551189111.140625
-38.66,1551189111.15625
-37.0,1551189111.171875
-32.37,1551189111.1875
-25.36,1551189111.203125
-16.96,1551189111.21875
-8.39,1551189111.234375
-0.6,1551189111.25
5.84,1551189111.265625
10.91,1551189111.28125
14.97,1551189111.296875
18.48,1551189111.3125
21.84,1551189111.328125
25.17,1551189111.34375
28.44,1551189111.359375
31.46,1551189111.375
34.01,1551189111.390625
35.94,1551189111.40625
37.17,1551189111.421875
37.71,1551189111.4375
37.64,1551189111.453125
37.17,1551189111.46875
36.6,1551189111.484375
36.23,1551189111.5
36.26,1551189111.515625
36.69,1551189111.53125
37.28,1551189111.546875
37.64,1551189111.5625
37.42,1551189111.578125
36.45,1551189111.59375
34.78,1551189111.609375
32.63,1551189111.625
30.25,1551189111.640625
27.83,1551189111.65625
25.43,1551189111.671875
23.03,1551189111.6875
20.7,1551189111.703125
18.53,1551189111.71875
16.7,1551189111.734375
15.26,1551189111.75
14.13,1551189111.765625
13.07,1551189111.78125
11.81,1551189111.796875
10.18,1551189111.8125
8.16,1551189111.828125
5.87,1551189111.84375
3.45,1551189111.859375
1.0,1551189111.875
-1.51,1551189111.890625
-4.1,1551189111.90625
-6.75,1551189111.921875
-9.33,1551189111.9375
-11.71,1551189111.953125
-13.83,1551189111.96875
-15.81,1551189111.984375
-18.0,1551189112.0
-20.84,1551189112.015625
-24.62,1551189112.03125
-29.35,1551189112.046875
-34.59,1551189112.0625
-39.51,1551189112.078125
-43.11,1551189112.09375
-44.48,1551189112.109375
-43.1,1551189112.125
-38.99,1551189112.140625
-32.73,1551189112.15625
-25.28,1551189112.171875
-17.69,1551189112.1875
-10.83,1551189112.203125
-5.15,1551189112.21875
-0.63,1551189112.234375
3.09,1551189112.25
6.46,1551189112.265625
9.9,1551189112.28125
13.51,1551189112.296875
17.16,1551189112.3125
20.48,1551189112.328125
23.15,1551189112.34375
24.96,1551189112.359375
25.98,1551189112.375
26.55,1551189112.390625
27.02,1551189112.40625
27.68,1551189112.421875
28.53,1551189112.4375
29.4,1551189112.453125
29.99,1551189112.46875
30.17,1551189112.484375
29.98,1551189112.5
29.67,1551189112.515625
29.45,1551189112.53125
29.35,1551189112.546875
29.18,1551189112.5625
28.62,1551189112.578125
27.41,1551189112.59375
25.58,1551189112.609375
23.4,1551189112.625
21.23,1551189112.640625
19.34,1551189112.65625
17.77,1551189112.671875
16.39,1551189112.6875
15.01,1551189112.703125
13.53,1551189112.71875
11.93,1551189112.734375
10.31,1551189112.75
8.73,1551189112.765625
7.15,1551189112.78125
5.49,1551189112.796875
3.67,1551189112.8125
1.67,1551189112.828125
-0.46,1551189112.84375
-2.66,1551189112.859375
-4.89,1551189112.875
-7.18,1551189112.890625
-9.55,1551189112.90625
-11.98,1551189112.921875
-14.39,1551189112.9375
-16.69,1551189112.953125
-18.82,1551189112.96875
-20.88,1551189112.984375
-23.11,1551189113.0
-25.81,1551189113.015625
-29.22,1551189113.03125
-33.36,1551189113.046875
-38.0,1551189113.0625
-42.63,1551189113.078125
-46.55,1551189113.09375
-49.04,1551189113.109375
-49.49,1551189113.125
-47.54,1551189113.140625
-43.25,1551189113.15625
-37.14,1551189113.171875
-30.14,1551189113.1875
-23.32,1551189113.203125
-17.56,1551189113.21875
-13.25,1551189113.234375
-10.25,1551189113.25
-7.98,1551189113.265625
-5.81,1551189113.28125
-3.35,1551189113.296875
-0.62,1551189113.3125
2.04,1551189113.328125
4.2,1551189113.34375
5.63,1551189113.359375
6.39,1551189113.375
6.81,1551189113.390625
7.31,1551189113.40625
8.18,1551189113.421875
9.46,1551189113.4375
10.98,1551189113.453125
12.52,1551189113.46875
13.9,1551189113.484375
15.08,1551189113.5
16.11,1551189113.515625
17.03,1551189113.53125
17.78,1551189113.546875
18.16,1551189113.5625
17.95,1551189113.578125
17.03,1551189113.59375
15.51,1551189113.609375
13.74,1551189113.625
12.11,1551189113.640625
10.91,1551189113.65625
10.18,1551189113.671875
9.72,1551189113.6875
9.23,1551189113.703125
8.5,1551189113.71875
7.48,1551189113.734375
6.29,1551189113.75
5.15,1551189113.765625
4.19,1551189113.78125
3.45,1551189113.796875
2.85,1551189113.8125
2.21,1551189113.828125
1.37,1551189113.84375
0.2,1551189113.859375
-1.44,1551189113.875
-3.62,1551189113.890625
-6.33,1551189113.90625
-9.44,1551189113.921875
-12.77,1551189113.9375
-16.08,1551189113.953125
-19.27,1551189113.96875
-22.38,1551189113.984375
-25.63,1551189114.0
-29.18,1551189114.015625
-32.95,1551189114.03125
-36.51,1551189114.046875
-39.1,1551189114.0625
-39.94,1551189114.078125
-38.47,1551189114.09375
-34.69,1551189114.109375
-29.17,1551189114.125
-22.79,1551189114.140625
-16.54,1551189114.15625
-11.1,1551189114.171875
-6.83,1551189114.1875
-3.69,1551189114.203125
-1.37,1551189114.21875
0.53,1551189114.234375
2.33,1551189114.25
4.25,1551189114.265625
6.32,1551189114.28125
8.4,1551189114.296875
10.34,1551189114.3125
11.99,1551189114.328125
13.33,1551189114.34375
14.42,1551189114.359375
15.44,1551189114.375
16.52,1551189114.390625
17.73,1551189114.40625
19.0,1551189114.421875
20.2,1551189114.4375
21.23,1551189114.453125
22.04,1551189114.46875
22.67,1551189114.484375
23.23,1551189114.5
23.77,1551189114.515625
24.27,1551189114.53125
24.6,1551189114.546875
24.63,1551189114.5625
24.23,1551189114.578125
23.48,1551189114.59375
22.53,1551189114.609375
21.63,1551189114.625
20.92,1551189114.640625
20.41,1551189114.65625
19.9,1551189114.671875
19.13,1551189114.6875
17.88,1551189114.703125
16.06,1551189114.71875
13.82,1551189114.734375
11.41,1551189114.75
9.08,1551189114.765625
7.0,1551189114.78125
5.16,1551189114.796875
3.38,1551189114.8125
1.4,1551189114.828125
-1.02,1551189114.84375
-3.96,1551189114.859375
-7.33,1551189114.875
-10.91,1551189114.890625
-14.45,1551189114.90625
-17.72,1551189114.921875
-20.63,1551189114.9375
-23.24,1551189114.953125
-25.67,1551189114.96875
-28.2,1551189114.984375
-31.08,1551189115.0
-34.54,1551189115.015625
-38.65,1551189115.03125
-43.21,1551189115.046875
-47.7,1551189115.0625
-51.37,1551189115.078125
-53.37,1551189115.09375
-53.05,1551189115.109375
-50.21,1551189115.125
-45.21,1551189115.140625
-38.85,1551189115.15625
-32.16,1551189115.171875
-25.98,1551189115.1875
-20.84,1551189115.203125
-16.8,1551189115.21875
-13.58,1551189115.234375
-10.78,1551189115.25
-8.07,1551189115.265625
-5.31,1551189115.28125
-2.53,1551189115.296875
0.11,1551189115.3125
2.43,1551189115.328125
4.3,1551189115.34375
5.72,1551189115.359375
6.74,1551189115.375
7.52,1551189115.390625
8.24,1551189115.40625
9.03,1551189115.421875
9.95,1551189115.4375
10.98,1551189115.453125
12.0,1551189115.46875
12.92,1551189115.484375
13.68,1551189115.5
14.29,1551189115.515625
14.81,1551189115.53125
15.22,1551189115.546875
15.42,1551189115.5625
15.34,1551189115.578125
14.89,1551189115.59375
14.15,1551189115.609375
13.3,1551189115.625
12.56,1551189115.640625
12.06,1551189115.65625
11.75,1551189115.671875
11.44,1551189115.6875
10.9,1551189115.703125
9.92,1551189115.71875
8.48,1551189115.734375
6.69,1551189115.75
4.8,1551189115.765625
2.99,1551189115.78125
1.39,1551189115.796875
-0.01,1551189115.8125
-1.38,1551189115.828125
-2.92,1551189115.84375
-4.81,1551189115.859375
-7.12,1551189115.875
-9.75,1551189115.890625
-12.52,1551189115.90625
-15.19,1551189115.921875
-17.6,1551189115.9375
-19.73,1551189115.953125
-21.65,1551189115.96875
-23.51,1551189115.984375
-25.51,1551189116.0
-27.84,1551189116.015625
-30.65,1551189116.03125
-34.01,1551189116.046875
-37.75,1551189116.0625
-41.49,1551189116.078125
-44.57,1551189116.09375
-46.24,1551189116.109375
-45.87,1551189116.125
-43.21,1551189116.140625
-38.42,1551189116.15625
-32.1,1551189116.171875
-25.11,1551189116.1875
-18.27,1551189116.203125
-12.22,1551189116.21875
-7.25,1551189116.234375
-3.35,1551189116.25
-0.27,1551189116.265625
2.35,1551189116.28125
4.78,1551189116.296875
7.14,1551189116.3125
9.41,1551189116.328125
11.5,1551189116.34375
13.33,1551189116.359375
14.93,1551189116.375
16.39,1551189116.390625
17.86,1551189116.40625
19.41,1551189116.421875
21.02,1551189116.4375
22.57,1551189116.453125
23.93,1551189116.46875
25.03,1551189116.484375
25.9,1551189116.5
26.64,1551189116.515625
27.3,1551189116.53125
27.84,1551189116.546875
28.13,1551189116.5625
27.96,1551189116.578125
27.23,1551189116.59375
25.95,1551189116.609375
24.29,1551189116.625
22.49,1551189116.640625
20.76,1551189116.65625
19.16,1551189116.671875
17.62,1551189116.6875
15.98,1551189116.703125
14.11,1551189116.71875
11.98,1551189116.734375
9.69,1551189116.75
7.38,1551189116.765625
5.2,1551189116.78125
3.25,1551189116.796875
1.45,1551189116.8125
-0.33,1551189116.828125
-2.25,1551189116.84375
-4.43,1551189116.859375
-6.83,1551189116.875
-9.36,1551189116.890625
-11.89,1551189116.90625
-14.36,1551189116.921875
-16.84,1551189116.9375
-19.51,1551189116.953125
-22.6,1551189116.96875
-26.31,1551189116.984375
-30.73,1551189117.0
-35.68,1551189117.015625
-40.75,1551189117.03125
-45.24,1551189117.046875
-48.29,1551189117.0625
-49.07,1551189117.078125
-47.07,1551189117.09375
-42.35,1551189117.109375
-35.51,1551189117.125
-27.59,1551189117.140625
-19.74,1551189117.15625
-12.82,1551189117.171875
-7.24,1551189117.1875
-2.9,1551189117.203125
0.64,1551189117.21875
3.85,1551189117.234375
7.09,1551189117.25
10.45,1551189117.265625
13.85,1551189117.28125
17.09,1551189117.296875
19.96,1551189117.3125
22.3,1551189117.328125
24.03,1551189117.34375
25.16,1551189117.359375
25.81,1551189117.375
26.18,1551189117.390625
26.57,1551189117.40625
27.23,1551189117.421875
28.34,1551189117.4375
29.88,1551189117.453125
31.67,1551189117.46875
33.36,1551189117.484375
34.61,1551189117.5
35.12,1551189117.515625
34.73,1551189117.53125
33.45,1551189117.546875
31.42,1551189117.5625
28.94,1551189117.578125
26.35,1551189117.59375
23.98,1551189117.609375
22.01,1551189117.625
20.46,1551189117.640625
19.12,1551189117.65625
17.75,1551189117.671875
16.08,1551189117.6875
13.98,1551189117.703125
11.44,1551189117.71875
8.6,1551189117.734375
5.68,1551189117.75
2.99,1551189117.765625
0.73,1551189117.78125
-1.0,1551189117.796875
-2.33,1551189117.8125
-3.61,1551189117.828125
-5.24,1551189117.84375
-7.49,1551189117.859375
-10.35,1551189117.875
-13.56,1551189117.890625
-16.65,1551189117.90625
-19.33,1551189117.921875
-21.56,1551189117.9375
-23.62,1551189117.953125
-26.02,1551189117.96875
-29.23,1551189117.984375
-33.41,1551189118.0
-38.29,1551189118.015625
-43.14,1551189118.03125
-46.94,1551189118.046875
-48.67,1551189118.0625
-47.69,1551189118.078125
-43.9,1551189118.09375
-37.84,1551189118.109375
-30.44,1551189118.125
-22.72,1551189118.140625
-15.54,1551189118.15625
-9.36,1551189118.171875
-4.31,1551189118.1875
-0.24,1551189118.203125
3.11,1551189118.21875
6.07,1551189118.234375
8.89,1551189118.25
11.77,1551189118.265625
14.65,1551189118.28125
17.36,1551189118.296875
19.63,1551189118.3125
21.22,1551189118.328125
22.13,1551189118.34375
22.53,1551189118.359375
22.71,1551189118.375
22.9,1551189118.390625
23.23,1551189118.40625
23.72,1551189118.421875
24.31,1551189118.4375
24.99,1551189118.453125
25.7,1551189118.46875
26.32,1551189118.484375
26.67,1551189118.5
26.5,1551189118.515625
25.64,1551189118.53125
24.07,1551189118.546875
21.95,1551189118.5625
19.6,1551189118.578125
17.3,1551189118.59375
15.25,1551189118.609375
13.48,1551189118.625
11.89,1551189118.640625
10.3,1551189118.65625
8.59,1551189118.671875
6.67,1551189118.6875
4.63,1551189118.703125
2.58,1551189118.71875
0.65,1551189118.734375
-1.09,1551189118.75
-2.68,1551189118.765625
-4.27,1551189118.78125
-6.06,1551189118.796875
-8.19,1551189118.8125
-10.71,1551189118.828125
-13.51,1551189118.84375
-16.43,1551189118.859375
-19.27,1551189118.875
-21.86,1551189118.890625
-24.12,1551189118.90625
-26.08,1551189118.921875
-27.93,1551189118.9375
-29.94,1551189118.953125
-32.42,1551189118.96875
-35.53,1551189118.984375
-39.16,1551189119.0
-42.75,1551189119.015625
-45.44,1551189119.03125
-46.23,1551189119.046875
-44.38,1551189119.0625
-39.68,1551189119.078125
-32.61,1551189119.09375
-24.14,1551189119.109375
-15.45,1551189119.125
-7.53,1551189119.140625
-0.97,1551189119.15625
4.09,1551189119.171875
7.84,1551189119.1875
10.59,1551189119.203125
12.62,1551189119.21875
14.13,1551189119.234375
15.24,1551189119.25
16.1,1551189119.265625
16.85,1551189119.28125
17.65,1551189119.296875
18.65,1551189119.3125
19.95,1551189119.328125
21.52,1551189119.34375
23.28,1551189119.359375
25.06,1551189119.375
26.71,1551189119.390625
28.08,1551189119.40625
29.11,1551189119.421875
29.74,1551189119.4375
29.98,1551189119.453125
29.84,1551189119.46875
29.37,1551189119.484375
28.63,1551189119.5
27.68,1551189119.515625
26.6,1551189119.53125
25.44,1551189119.546875
24.24,1551189119.5625
22.96,1551189119.578125
21.56,1551189119.59375
19.94,1551189119.609375
18.02,1551189119.625
15.72,1551189119.640625
13.01,1551189119.65625
9.94,1551189119.671875
6.59,1551189119.6875
3.03,1551189119.703125
-0.74,1551189119.71875
-4.79,1551189119.734375
-9.15,1551189119.75
-13.74,1551189119.765625
-18.33,1551189119.78125
-22.57,1551189119.796875
-26.13,1551189119.8125
-28.83,1551189119.828125
-30.84,1551189119.84375
-32.52,1551189119.859375
-34.42,1551189119.875
-37.01,1551189119.890625
-40.53,1551189119.90625
-44.83,1551189119.921875
-49.41,1551189119.9375
-53.46,1551189119.953125
-56.03,1551189119.96875
-56.28,1551189119.984375
-53.67,1551189120.0
-48.17,1551189120.015625
-40.32,1551189120.03125
-31.1,1551189120.046875
-21.68,1551189120.0625
-13.15,1551189120.078125
-6.16,1551189120.09375
-0.85,1551189120.109375
3.09,1551189120.125
6.21,1551189120.140625
9.04,1551189120.15625
11.9,1551189120.171875
14.83,1551189120.1875
17.66,1551189120.203125
20.14,1551189120.21875
22.11,1551189120.234375
23.55,1551189120.25
24.58,1551189120.265625
25.37,1551189120.28125
26.09,1551189120.296875
26.81,1551189120.3125
27.59,1551189120.328125
28.4,1551189120.34375
29.26,1551189120.359375
30.19,1551189120.375
31.15,1551189120.390625
32.02,1551189120.40625
32.55,1551189120.421875
32.48,1551189120.4375
31.63,1551189120.453125
30.02,1551189120.46875
27.93,1551189120.484375
25.75,1551189120.5
23.86,1551189120.515625
22.42,1551189120.53125
21.33,1551189120.546875
20.31,1551189120.5625
19.05,1551189120.578125
17.37,1551189120.59375
15.25,1551189120.609375
12.87,1551189120.625
10.43,1551189120.640625
8.1,1551189120.65625
5.95,1551189120.671875
3.96,1551189120.6875
2.05,1551189120.703125
0.1,1551189120.71875
-1.97,1551189120.734375
-4.23,1551189120.75
-6.68,1551189120.765625
-9.24,1551189120.78125
-11.79,1551189120.796875
-14.16,1551189120.8125
-16.28,1551189120.828125
-18.24,1551189120.84375
-20.3,1551189120.859375
-22.81,1551189120.875
-26.03,1551189120.890625
-29.96,1551189120.90625
-34.16,1551189120.921875
-37.78,1551189120.9375
-39.75,1551189120.953125
-39.1,1551189120.96875
-35.35,1551189120.984375
-28.66,1551189121.0
-19.82,1551189121.015625
-10.03,1551189121.03125
-0.54,1551189121.046875
7.67,1551189121.0625
14.03,1551189121.078125
18.43,1551189121.09375
21.02,1551189121.109375
22.18,1551189121.125
22.3,1551189121.140625
21.78,1551189121.15625
21.0,1551189121.171875
20.24,1551189121.1875
19.71,1551189121.203125
19.47,1551189121.21875
19.52,1551189121.234375
19.79,1551189121.25
20.25,1551189121.265625
20.88,1551189121.28125
21.67,1551189121.296875
22.62,1551189121.3125
23.7,1551189121.328125
24.97,1551189121.34375
26.53,1551189121.359375
28.52,1551189121.375
31.03,1551189121.390625
33.95,1551189121.40625
36.9,1551189121.421875
39.23,1551189121.4375
40.14,1551189121.453125
38.91,1551189121.46875
35.26,1551189121.484375
29.38,1551189121.5
21.93,1551189121.515625
13.82,1551189121.53125
5.94,1551189121.546875
-1.1,1551189121.5625
-7.0,1551189121.578125
-11.73,1551189121.59375
-15.33,1551189121.609375
-17.85,1551189121.625
-19.38,1551189121.640625
-20.09,1551189121.65625
-20.31,1551189121.671875
-20.53,1551189121.6875
-21.15,1551189121.703125
-22.42,1551189121.71875
-24.24,1551189121.734375
-26.31,1551189121.75
-28.28,1551189121.765625
-29.89,1551189121.78125
-31.19,1551189121.796875
-32.37,1551189121.8125
-33.8,1551189121.828125
-35.83,1551189121.84375
-38.69,1551189121.859375
-42.37,1551189121.875
-46.51,1551189121.890625
-50.41,1551189121.90625
-53.1,1551189121.921875
-53.61,1551189121.9375
-51.28,1551189121.953125
-46.09,1551189121.96875
-38.73,1551189121.984375
-30.38,1551189122.0
-22.32,1551189122.015625
-15.46,1551189122.03125
-10.17,1551189122.046875
-6.22,1551189122.0625
-3.15,1551189122.078125
-0.53,1551189122.09375
1.83,1551189122.109375
3.86,1551189122.125
5.45,1551189122.140625
6.55,1551189122.15625
7.34,1551189122.171875
8.13,1551189122.1875
9.23,1551189122.203125
10.78,1551189122.21875
12.72,1551189122.234375
14.83,1551189122.25
16.88,1551189122.265625
18.71,1551189122.28125
20.31,1551189122.296875
21.7,1551189122.3125
22.93,1551189122.328125
23.98,1551189122.34375
24.79,1551189122.359375
25.28,1551189122.375
25.44,1551189122.390625
25.27,1551189122.40625
24.81,1551189122.421875
24.08,1551189122.4375
23.1,1551189122.453125
21.95,1551189122.46875
20.75,1551189122.484375
19.72,1551189122.5
19.03,1551189122.515625
18.77,1551189122.53125
18.83,1551189122.546875
18.88,1551189122.5625
18.43,1551189122.578125
17.0,1551189122.59375
14.28,1551189122.609375
10.25,1551189122.625
5.2,1551189122.640625
-0.39,1551189122.65625
-6.03,1551189122.671875
-11.4,1551189122.6875
-16.38,1551189122.703125
-21.05,1551189122.71875
-25.57,1551189122.734375
-30.1,1551189122.75
-34.79,1551189122.765625
-39.76,1551189122.78125
-45.08,1551189122.796875
-50.65,1551189122.8125
-56.01,1551189122.828125
-60.32,1551189122.84375
-62.47,1551189122.859375
-61.5,1551189122.875
-57.0,1551189122.890625
-49.36,1551189122.90625
-39.73,1551189122.921875
-29.65,1551189122.9375
-20.53,1551189122.953125
-13.27,1551189122.96875
-8.07,1551189122.984375
-4.61,1551189123.0
-2.21,1551189123.015625
-0.2,1551189123.03125
1.91,1551189123.046875
4.3,1551189123.0625
6.88,1551189123.078125
9.4,1551189123.09375
11.52,1551189123.109375
13.1,1551189123.125
14.17,1551189123.140625
15.0,1551189123.15625
15.87,1551189123.171875
17.02,1551189123.1875
18.45,1551189123.203125
19.97,1551189123.21875
21.36,1551189123.234375
22.42,1551189123.25
23.13,1551189123.265625
23.58,1551189123.28125
23.87,1551189123.296875
24.05,1551189123.3125
24.04,1551189123.328125
23.7,1551189123.34375
22.92,1551189123.359375
21.72,1551189123.375
20.29,1551189123.390625
18.95,1551189123.40625
17.93,1551189123.421875
17.27,1551189123.4375
16.78,1551189123.453125
16.11,1551189123.46875
14.99,1551189123.484375
13.39,1551189123.5
11.52,1551189123.515625
9.72,1551189123.53125
8.23,1551189123.546875
7.04,1551189123.5625
5.89,1551189123.578125
4.41,1551189123.59375
2.36,1551189123.609375
-0.27,1551189123.625
-3.2,1551189123.640625
-6.12,1551189123.65625
-8.78,1551189123.671875
-11.19,1551189123.6875
-13.55,1551189123.703125
-16.21,1551189123.71875
-19.5,1551189123.734375
-23.52,1551189123.75
-28.11,1551189123.765625
-32.76,1551189123.78125
-36.72,1551189123.796875
-39.14,1551189123.8125
-39.34,1551189123.828125
-37.0,1551189123.84375
-32.28,1551189123.859375
-25.84,1551189123.875
-18.65,1551189123.890625
-11.7,1551189123.90625
-5.73,1551189123.921875
-1.07,1551189123.9375
2.39,1551189123.953125
5.02,1551189123.96875
7.29,1551189123.984375
9.52,1551189124.0
11.81,1551189124.015625
14.07,1551189124.03125
16.13,1551189124.046875
17.86,1551189124.0625
19.16,1551189124.078125
20.05,1551189124.09375
20.54,1551189124.109375
20.74,1551189124.125
20.8,1551189124.140625
20.94,1551189124.15625
21.38,1551189124.171875
22.26,1551189124.1875
23.61,1551189124.203125
25.25,1551189124.21875
26.87,1551189124.234375
28.11,1551189124.25
28.68,1551189124.265625
28.48,1551189124.28125
27.56,1551189124.296875
26.16,1551189124.3125
24.55,1551189124.328125
22.91,1551189124.34375
21.29,1551189124.359375
19.62,1551189124.375
17.79,1551189124.390625
15.72,1551189124.40625
13.4,1551189124.421875
10.96,1551189124.4375
8.56,1551189124.453125
6.34,1551189124.46875
4.38,1551189124.484375
2.68,1551189124.5
1.16,1551189124.515625
-0.33,1551189124.53125
-1.89,1551189124.546875
-3.64,1551189124.5625
-5.65,1551189124.578125
-7.84,1551189124.59375
-10.1,1551189124.609375
-12.3,1551189124.625
-14.37,1551189124.640625
-16.36,1551189124.65625
-18.42,1551189124.671875
-20.75,1551189124.6875
-23.52,1551189124.703125
-26.83,1551189124.71875
-30.68,1551189124.734375
-34.9,1551189124.75
-39.1,1551189124.765625
-42.59,1551189124.78125
-44.61,1551189124.796875
-44.48,1551189124.8125
-41.91,1551189124.828125
-37.23,1551189124.84375
-31.24,1551189124.859375
-24.98,1551189124.875
-19.3,1551189124.890625
-14.61,1551189124.90625
-10.9,1551189124.921875
-7.87,1551189124.9375
-5.25,1551189124.953125
-2.86,1551189124.96875
-0.7,1551189124.984375
1.25,1551189125.0
3.01,1551189125.015625
4.66,1551189125.03125
6.28,1551189125.046875
7.88,1551189125.0625
9.45,1551189125.078125
10.95,1551189125.09375
12.4,1551189125.109375
13.81,1551189125.125
15.18,1551189125.140625
16.48,1551189125.15625
17.65,1551189125.171875
18.63,1551189125.1875
19.39,1551189125.203125
19.95,1551189125.21875
20.32,1551189125.234375
20.47,1551189125.25
20.33,1551189125.265625
19.8,1551189125.28125
18.84,1551189125.296875
17.52,1551189125.3125
15.96,1551189125.328125
14.33,1551189125.34375
12.78,1551189125.359375
11.38,1551189125.375
10.11,1551189125.390625
8.92,1551189125.40625
7.74,1551189125.421875
6.51,1551189125.4375
5.22,1551189125.453125
3.86,1551189125.46875
2.37,1551189125.484375
0.64,1551189125.5
-1.4,1551189125.515625
-3.77,1551189125.53125
-6.35,1551189125.546875
-8.91,1551189125.5625
-11.25,1551189125.578125
-13.26,1551189125.59375
-15.05,1551189125.609375
-16.92,1551189125.625
-19.22,1551189125.640625
-22.17,1551189125.65625
-25.75,1551189125.671875
-29.63,1551189125.6875
-33.2,1551189125.703125
-35.8,1551189125.71875
-36.77,1551189125.734375
-35.69,1551189125.75
-32.44,1551189125.765625
-27.27,1551189125.78125
-20.79,1551189125.796875
-13.87,1551189125.8125
-7.42,1551189125.828125
-2.15,1551189125.84375
1.63,1551189125.859375
4.11,1551189125.875
5.84,1551189125.890625
7.45,1551189125.90625
9.4,1551189125.921875
11.75,1551189125.9375
14.23,1551189125.953125
16.38,1551189125.96875
17.82,1551189125.984375
18.45,1551189126.0
18.46,1551189126.015625
18.24,1551189126.03125
18.15,1551189126.046875
18.38,1551189126.0625
18.84,1551189126.078125
19.34,1551189126.09375
19.67,1551189126.109375
19.75,1551189126.125
19.64,1551189126.140625
19.45,1551189126.15625
19.23,1551189126.171875
18.9,1551189126.1875
18.3,1551189126.203125
17.29,1551189126.21875
15.9,1551189126.234375
14.36,1551189126.25
12.98,1551189126.265625
12.0,1551189126.28125
11.42,1551189126.296875
11.0,1551189126.3125
10.33,1551189126.328125
9.1,1551189126.34375
7.24,1551189126.359375
4.99,1551189126.375
2.73,1551189126.390625
0.79,1551189126.40625
-0.75,1551189126.421875
-2.03,1551189126.4375
-3.33,1551189126.453125
-4.87,1551189126.46875
-6.69,1551189126.484375
-8.66,1551189126.5
-10.62,1551189126.515625
-12.44,1551189126.53125
-14.18,1551189126.546875
-15.94,1551189126.5625
-17.9,1551189126.578125
-20.17,1551189126.59375
-22.81,1551189126.609375
-25.89,1551189126.625
-29.43,1551189126.640625
-33.29,1551189126.65625
-37.07,1551189126.671875
-40.03,1551189126.6875
-41.28,1551189126.703125
-40.1,1551189126.71875
-36.25,1551189126.734375
-30.19,1551189126.75
-22.92,1551189126.765625
-15.65,1551189126.78125
-9.32,1551189126.796875
-4.34,1551189126.8125
-0.53,1551189126.828125
2.64,1551189126.84375
5.71,1551189126.859375
8.95,1551189126.875
12.29,1551189126.890625
15.48,1551189126.90625
18.18,1551189126.921875
20.19,1551189126.9375
21.51,1551189126.953125
22.29,1551189126.96875
22.79,1551189126.984375
23.2,1551189127.0
23.68,1551189127.015625
24.23,1551189127.03125
24.83,1551189127.046875
25.42,1551189127.0625
25.96,1551189127.078125
26.41,1551189127.09375
26.73,1551189127.109375
26.82,1551189127.125
26.56,1551189127.140625
25.82,1551189127.15625
24.55,1551189127.171875
22.83,1551189127.1875
20.85,1551189127.203125
18.9,1551189127.21875
17.23,1551189127.234375
15.98,1551189127.25
15.06,1551189127.265625
14.24,1551189127.28125
13.27,1551189127.296875
11.89,1551189127.3125
10.03,1551189127.328125
7.81,1551189127.34375
5.47,1551189127.359375
3.26,1551189127.375
1.36,1551189127.390625
-0.24,1551189127.40625
-1.69,1551189127.421875
-3.26,1551189127.4375
-5.17,1551189127.453125
-7.51,1551189127.46875
-10.16,1551189127.484375
-12.89,1551189127.5
-15.45,1551189127.515625
-17.74,1551189127.53125
-19.8,1551189127.546875
-21.86,1551189127.5625
-24.12,1551189127.578125
-26.72,1551189127.59375
-29.66,1551189127.609375
-32.89,1551189127.625
-36.26,1551189127.640625
-39.57,1551189127.65625
-42.45,1551189127.671875
-44.33,1551189127.6875
-44.57,1551189127.703125
-42.7,1551189127.71875
-38.58,1551189127.734375
-32.69,1551189127.75
-25.89,1551189127.765625
-19.25,1551189127.78125
-13.56,1551189127.796875
-9.18,1551189127.8125
-5.95,1551189127.828125
-3.41,1551189127.84375
-1.13,1551189127.859375
1.15,1551189127.875
3.4,1551189127.890625
5.43,1551189127.90625
7.1,1551189127.921875
8.42,1551189127.9375
9.59,1551189127.953125
10.87,1551189127.96875
12.46,1551189127.984375
14.3,1551189128.0
16.18,1551189128.015625
17.8,1551189128.03125
18.95,1551189128.046875
19.67,1551189128.0625
20.14,1551189128.078125
20.57,1551189128.09375
21.07,1551189128.109375
21.53,1551189128.125
21.77,1551189128.140625
21.59,1551189128.15625
20.95,1551189128.171875
19.97,1551189128.1875
18.8,1551189128.203125
17.57,1551189128.21875
16.25,1551189128.234375
14.77,1551189128.25
13.05,1551189128.265625
11.15,1551189128.28125
9.24,1551189128.296875
7.53,1551189128.3125
6.12,1551189128.328125
5.0,1551189128.34375
4.03,1551189128.359375
3.0,1551189128.375
1.71,1551189128.390625
0.05,1551189128.40625
-2.05,1551189128.421875
-4.53,1551189128.4375
-7.3,1551189128.453125
-10.1,1551189128.46875
-12.68,1551189128.484375
-14.76,1551189128.5
-16.28,1551189128.515625
-17.35,1551189128.53125
-18.39,1551189128.546875
-19.85,1551189128.5625
-22.18,1551189128.578125
-25.53,1551189128.59375
-29.61,1551189128.609375
-33.82,1551189128.625
-37.23,1551189128.640625
-38.97,1551189128.65625
-38.39,1551189128.671875
-35.34,1551189128.6875
-30.16,1551189128.703125
-23.61,1551189128.71875
-16.65,1551189128.734375
-10.17,1551189128.75
-4.8,1551189128.765625
-0.78,1551189128.78125
2.0,1551189128.796875
3.91,1551189128.8125
5.42,1551189128.828125
6.94,1551189128.84375
8.68,1551189128.859375
10.64,1551189128.875
12.68,1551189128.890625
14.55,1551189128.90625
16.07,1551189128.921875
17.16,1551189128.9375
17.86,1551189128.953125
18.29,1551189128.96875
18.51,1551189128.984375
18.63,1551189129.0
18.73,1551189129.015625
18.9,1551189129.03125
19.25,1551189129.046875
19.88,1551189129.0625
20.74,1551189129.078125
21.65,1551189129.09375
22.37,1551189129.109375
22.64,1551189129.125
22.31,1551189129.140625
21.43,1551189129.15625
20.24,1551189129.171875
19.03,1551189129.1875
18.02,1551189129.203125
17.24,1551189129.21875
16.54,1551189129.234375
15.7,1551189129.25
14.54,1551189129.265625
13.06,1551189129.28125
11.44,1551189129.296875
9.84,1551189129.3125
8.39,1551189129.328125
7.05,1551189129.34375
5.62,1551189129.359375
3.88,1551189129.375
1.7,1551189129.390625
-0.88,1551189129.40625
-3.66,1551189129.421875
-6.37,1551189129.4375
-8.78,1551189129.453125
-10.79,1551189129.46875
-12.43,1551189129.484375
-13.89,1551189129.5
-15.43,1551189129.515625
-17.35,1551189129.53125
-19.9,1551189129.546875
-23.23,1551189129.5625
-27.25,1551189129.578125
-31.58,1551189129.59375
-35.58,1551189129.609375
-38.44,1551189129.625
-39.42,1551189129.640625
-38.13,1551189129.65625
-34.62,1551189129.671875
-29.48,1551189129.6875
-23.56,1551189129.703125
-17.77,1551189129.71875
-12.75,1551189129.734375
-8.78,1551189129.75
-5.79,1551189129.765625
-3.49,1551189129.78125
-1.54,1551189129.796875
0.29,1551189129.8125
2.08,1551189129.828125
3.82,1551189129.84375
5.38,1551189129.859375
6.61,1551189129.875
7.42,1551189129.890625
7.77,1551189129.90625
7.75,1551189129.921875
7.53,1551189129.9375
7.36,1551189129.953125
7.44,1551189129.96875
7.91,1551189129.984375
8.71,1551189130.0
9.68,1551189130.015625
10.57,1551189130.03125
11.17,1551189130.046875
11.35,1551189130.0625
11.1,1551189130.078125
10.49,1551189130.09375
9.59,1551189130.109375
8.45,1551189130.125
7.13,1551189130.140625
5.73,1551189130.15625
4.41,1551189130.171875
3.34,1551189130.1875
2.62,1551189130.203125
2.26,1551189130.21875
2.11,1551189130.234375
1.98,1551189130.25
1.73,1551189130.265625
1.26,1551189130.28125
0.53,1551189130.296875
-0.43,1551189130.3125
-1.58,1551189130.328125
-2.86,1551189130.34375
-4.18,1551189130.359375
-5.49,1551189130.375
-6.75,1551189130.390625
-8.04,1551189130.40625
-9.51,1551189130.421875
-11.33,1551189130.4375
-13.67,1551189130.453125
-16.61,1551189130.46875
-20.14,1551189130.484375
-24.16,1551189130.5
-28.4,1551189130.515625
-32.34,1551189130.53125
-35.25,1551189130.546875
-36.35,1551189130.5625
-35.03,1551189130.578125
-31.23,1551189130.59375
-25.49,1551189130.609375
-18.81,1551189130.625
-12.32,1551189130.640625
-6.87,1551189130.65625
-2.8,1551189130.671875
0.02,1551189130.6875
2.01,1551189130.703125
3.62,1551189130.71875
5.14,1551189130.734375
6.7,1551189130.75
8.26,1551189130.765625
9.76,1551189130.78125
11.07,1551189130.796875
12.15,1551189130.8125
13.02,1551189130.828125
13.71,1551189130.84375
14.33,1551189130.859375
14.94,1551189130.875
15.6,1551189130.890625
16.33,1551189130.90625
17.12,1551189130.921875
17.98,1551189130.9375
18.89,1551189130.953125
19.8,1551189130.96875
20.57,1551189130.984375
21.04,1551189131.0
21.03,1551189131.015625
20.49,1551189131.03125
19.51,1551189131.046875
18.29,1551189131.0625
17.05,1551189131.078125
15.95,1551189131.09375
14.97,1551189131.109375
13.99,1551189131.125
12.85,1551189131.140625
11.43,1551189131.15625
9.75,1551189131.171875
7.95,1551189131.1875
6.2,1551189131.203125
4.61,1551189131.21875
3.14,1551189131.234375
1.62,1551189131.25
-0.15,1551189131.265625
-2.26,1551189131.28125
-4.65,1551189131.296875
-7.11,1551189131.3125
-9.46,1551189131.328125
-11.6,1551189131.34375
-13.63,1551189131.359375
-15.76,1551189131.375
-18.22,1551189131.390625
-21.18,1551189131.40625
-24.66,1551189131.421875
-28.62,1551189131.4375
-32.83,1551189131.453125
-36.95,1551189131.46875
-40.37,1551189131.484375
-42.39,1551189131.5
-42.33,1551189131.515625
-39.79,1551189131.53125
-34.92,1551189131.546875
-28.39,1551189131.5625
-21.25,1551189131.578125
-14.57,1551189131.59375
-9.09,1551189131.609375
-5.06,1551189131.625
-2.23,1551189131.640625
-0.04,1551189131.65625
2.09,1551189131.671875
4.52,1551189131.6875
7.33,1551189131.703125
10.33,1551189131.71875
13.19,1551189131.734375
15.59,1551189131.75
17.34,1551189131.765625
18.48,1551189131.78125
19.14,1551189131.796875
19.53,1551189131.8125
19.8,1551189131.828125
20.07,1551189131.84375
20.38,1551189131.859375
20.79,1551189131.875
21.37,1551189131.890625
22.13,1551189131.90625
22.99,1551189131.921875
23.76,1551189131.9375
24.21,1551189131.953125
24.16,1551189131.96875
23.56,1551189131.984375
22.54,1551189132.0
21.35,1551189132.015625
20.21,1551189132.03125
19.29,1551189132.046875
18.62,1551189132.0625
18.08,1551189132.078125
17.5,1551189132.09375
16.65,1551189132.109375
15.42,1551189132.125
13.74,1551189132.140625
11.73,1551189132.15625
9.57,1551189132.171875
7.5,1551189132.1875
5.66,1551189132.203125
4.04,1551189132.21875
2.46,1551189132.234375
0.65,1551189132.25
-1.6,1551189132.265625
-4.27,1551189132.28125
-7.13,1551189132.296875
-9.78,1551189132.3125
-11.92,1551189132.328125
-13.46,1551189132.34375
-14.62,1551189132.359375
-15.87,1551189132.375
-17.73,1551189132.390625
-20.54,1551189132.40625
-24.31,1551189132.421875
-28.74,1551189132.4375
-33.23,1551189132.453125
-37.06,1551189132.46875
-39.5,1551189132.484375
-39.95,1551189132.5
-38.07,1551189132.515625
-33.91,1551189132.53125
-28.01,1551189132.546875
-21.22,1551189132.5625
-14.55,1551189132.578125
-8.81,1551189132.59375
-4.39,1551189132.609375
-1.18,1551189132.625
1.26,1551189132.640625
3.43,1551189132.65625
5.6,1551189132.671875
7.78,1551189132.6875
9.8,1551189132.703125
11.45,1551189132.71875
12.64,1551189132.734375
13.42,1551189132.75
13.91,1551189132.765625
14.22,1551189132.78125
14.43,1551189132.796875
14.55,1551189132.8125
14.63,1551189132.828125
14.73,1551189132.84375
14.92,1551189132.859375
15.27,1551189132.875
15.76,1551189132.890625
16.3,1551189132.90625
16.71,1551189132.921875
16.83,1551189132.9375
16.51,1551189132.953125
15.75,1551189132.96875
14.59,1551189132.984375
13.15,1551189133.0
11.57,1551189133.015625
9.94,1551189133.03125
8.34,1551189133.046875
6.8,1551189133.0625
5.37,1551189133.078125
4.08,1551189133.09375
2.93,1551189133.109375
1.84,1551189133.125
0.69,1551189133.140625
-0.63,1551189133.15625
-2.23,1551189133.171875
-4.08,1551189133.1875
-6.1,1551189133.203125
-8.17,1551189133.21875
-10.15,1551189133.234375
-11.97,1551189133.25
-13.6,1551189133.265625
-15.06,1551189133.28125
-16.43,1551189133.296875
-17.82,1551189133.3125
-19.44,1551189133.328125
-21.5,1551189133.34375
-24.19,1551189133.359375
-27.51,1551189133.375
-31.21,1551189133.390625
-34.69,1551189133.40625
-37.14,1551189133.421875
-37.74,1551189133.4375
-35.98,1551189133.453125
-31.78,1551189133.46875
-25.67,1551189133.484375
-18.54,1551189133.5
-11.4,1551189133.515625
-5.08,1551189133.53125
0.03,1551189133.546875
3.92,1551189133.5625
6.94,1551189133.578125
9.48,1551189133.59375
11.82,1551189133.609375
14.03,1551189133.625
16.02,1551189133.640625
17.61,1551189133.65625
18.71,1551189133.671875
19.39,1551189133.6875
19.83,1551189133.703125
20.27,1551189133.71875
20.89,1551189133.734375
21.74,1551189133.75
22.73,1551189133.765625
23.68,1551189133.78125
24.41,1551189133.796875
24.83,1551189133.8125
24.96,1551189133.828125
24.91,1551189133.84375
24.75,1551189133.859375
24.49,1551189133.875
23.94,1551189133.890625
22.92,1551189133.90625
21.31,1551189133.921875
19.2,1551189133.9375
16.92,1551189133.953125
14.87,1551189133.96875
13.38,1551189133.984375
12.51,1551189134.0
12.0,1551189134.015625
11.43,1551189134.03125
10.43,1551189134.046875
8.86,1551189134.0625
6.88,1551189134.078125
4.79,1551189134.09375
2.85,1551189134.109375
1.11,1551189134.125
-0.6,1551189134.140625
-2.49,1551189134.15625
-4.7,1551189134.171875
-7.14,1551189134.1875
-9.57,1551189134.203125
-11.74,1551189134.21875
-13.59,1551189134.234375
-15.34,1551189134.25
-17.36,1551189134.265625
-20.04,1551189134.28125
-23.51,1551189134.296875
-27.69,1551189134.3125
-32.2,1551189134.328125
-36.51,1551189134.34375
-40.01,1551189134.359375
-42.06,1551189134.375
-42.12,1551189134.390625
-39.83,1551189134.40625
-35.25,1551189134.421875
-28.87,1551189134.4375
-21.55,1551189134.453125
-14.3,1551189134.46875
-7.9,1551189134.484375
-2.78,1551189134.5
1.13,1551189134.515625
4.2,1551189134.53125
6.88,1551189134.546875
9.52,1551189134.5625
12.26,1551189134.578125
15.01,1551189134.59375
17.55,1551189134.609375
19.64,1551189134.625
21.12,1551189134.640625
22.01,1551189134.65625
22.49,1551189134.671875
22.84,1551189134.6875
23.34,1551189134.703125
24.12,1551189134.71875
25.13,1551189134.734375
26.22,1551189134.75
27.2,1551189134.765625
27.94,1551189134.78125
28.34,1551189134.796875
28.33,1551189134.8125
27.81,1551189134.828125
26.75,1551189134.84375
25.21,1551189134.859375
23.4,1551189134.875
21.65,1551189134.890625
20.2,1551189134.90625
19.17,1551189134.921875
18.39,1551189134.9375
17.51,1551189134.953125
16.11,1551189134.96875
13.88,1551189134.984375
10.75,1551189135.0
6.94,1551189135.015625
2.85,1551189135.03125
-1.05,1551189135.046875
-4.42,1551189135.0625
-7.15,1551189135.078125
-9.4,1551189135.09375
-11.49,1551189135.109375
-13.74,1551189135.125
-16.25,1551189135.140625
-18.89,1551189135.15625
-21.36,1551189135.171875
-23.4,1551189135.1875
-24.93,1551189135.203125
-26.08,1551189135.21875
-27.2,1551189135.234375
-28.64,1551189135.25
-30.68,1551189135.265625
-33.35,1551189135.28125
-36.45,1551189135.296875
-39.43,1551189135.3125
-41.56,1551189135.328125
-42.04,1551189135.34375
-40.29,1551189135.359375
-36.19,1551189135.375
-30.14,1551189135.390625
-22.95,1551189135.40625
-15.53,1551189135.421875
-8.66,1551189135.4375
-2.73,1551189135.453125
2.11,1551189135.46875
5.86,1551189135.484375
8.55,1551189135.5
10.2,1551189135.515625
10.91,1551189135.53125
10.91,1551189135.546875
10.48,1551189135.5625
9.89,1551189135.578125
9.32,1551189135.59375
8.84,1551189135.609375
8.47,1551189135.625
8.29,1551189135.640625
8.42,1551189135.65625
8.98,1551189135.671875
9.94,1551189135.6875
11.16,1551189135.703125
12.42,1551189135.71875
13.55,1551189135.734375
14.49,1551189135.75
15.25,1551189135.765625
15.82,1551189135.78125
16.11,1551189135.796875
15.92,1551189135.8125
15.1,1551189135.828125
13.69,1551189135.84375
11.94,1551189135.859375
10.29,1551189135.875
9.11,1551189135.890625
8.54,1551189135.90625
8.41,1551189135.921875
8.29,1551189135.9375
7.75,1551189135.953125
6.57,1551189135.96875
4.92,1551189135.984375
3.16,1551189136.0
1.73,1551189136.015625
0.8,1551189136.03125
0.17,1551189136.046875
-0.58,1551189136.0625
-1.9,1551189136.078125
-3.98,1551189136.09375
-6.69,1551189136.109375
-9.63,1551189136.125
-12.44,1551189136.140625
-14.9,1551189136.15625
-17.1,1551189136.171875
-19.29,1551189136.1875
-21.77,1551189136.203125
-24.76,1551189136.21875
-28.33,1551189136.234375
-32.34,1551189136.25
-36.43,1551189136.265625
-40.0,1551189136.28125
-42.25,1551189136.296875
-42.36,1551189136.3125
-39.82,1551189136.328125
-34.65,1551189136.34375
-27.51,1551189136.359375
-19.49,1551189136.375
-11.76,1551189136.390625
-5.21,1551189136.40625
-0.22,1551189136.421875
3.36,1551189136.4375
5.97,1551189136.453125
8.16,1551189136.46875
10.32,1551189136.484375
12.61,1551189136.5
14.96,1551189136.515625
17.16,1551189136.53125
18.99,1551189136.546875
20.36,1551189136.5625
21.32,1551189136.578125
22.05,1551189136.59375
22.76,1551189136.609375
23.59,1551189136.625
24.57,1551189136.640625
25.65,1551189136.65625
26.78,1551189136.671875
27.91,1551189136.6875
29.01,1551189136.703125
30.02,1551189136.71875
30.84,1551189136.734375
31.3,1551189136.75
31.28,1551189136.765625
30.78,1551189136.78125
29.93,1551189136.796875
28.97,1551189136.8125
28.12,1551189136.828125
27.48,1551189136.84375
27.0,1551189136.859375
26.48,1551189136.875
25.67,1551189136.890625
24.48,1551189136.90625
23.0,1551189136.921875
21.47,1551189136.9375
20.18,1551189136.953125
19.28,1551189136.96875
18.62,1551189136.984375
17.81,1551189137.0
16.35,1551189137.015625
13.77,1551189137.03125
9.84,1551189137.046875
4.57,1551189137.0625
-1.72,1551189137.078125
-8.55,1551189137.09375
-15.39,1551189137.109375
-21.73,1551189137.125
-27.33,1551189137.140625
-32.17,1551189137.15625
-36.49,1551189137.171875
-40.7,1551189137.1875
-45.14,1551189137.203125
-49.93,1551189137.21875
-54.79,1551189137.234375
-59.11,1551189137.25
-62.1,1551189137.265625
-62.96,1551189137.28125
-61.2,1551189137.296875
-56.7,1551189137.3125
-49.87,1551189137.328125
-41.52,1551189137.34375
-32.68,1551189137.359375
-24.37,1551189137.375
-17.36,1551189137.390625
-11.98,1551189137.40625
-8.09,1551189137.421875
-5.25,1551189137.4375
-2.89,1551189137.453125
-0.5,1551189137.46875
2.12,1551189137.484375
4.94,1551189137.5
7.69,1551189137.515625
10.09,1551189137.53125
11.96,1551189137.546875
13.34,1551189137.5625
14.42,1551189137.578125
15.45,1551189137.59375
16.59,1551189137.609375
17.87,1551189137.625
19.16,1551189137.640625
20.32,1551189137.65625
21.26,1551189137.671875
21.92,1551189137.6875
22.3,1551189137.703125
22.4,1551189137.71875
22.18,1551189137.734375
21.65,1551189137.75
20.79,1551189137.765625
19.62,1551189137.78125
18.2,1551189137.796875
16.61,1551189137.8125
14.94,1551189137.828125
13.28,1551189137.84375
11.78,1551189137.859375
10.54,1551189137.875
9.57,1551189137.890625
8.77,1551189137.90625
7.95,1551189137.921875
6.82,1551189137.9375
5.22,1551189137.953125
3.1,1551189137.96875
0.59,1551189137.984375
-2.1,1551189138.0
-4.75,1551189138.015625
-7.24,1551189138.03125
-9.51,1551189138.046875
-11.62,1551189138.0625
-13.7,1551189138.078125
-15.92,1551189138.09375
-18.52,1551189138.109375
-21.71,1551189138.125
-25.58,1551189138.140625
-29.95,1551189138.15625
-34.36,1551189138.171875
-38.04,1551189138.1875
-40.09,1551189138.203125
-39.73,1551189138.21875
-36.61,1551189138.234375
-30.97,1551189138.25
-23.59,1551189138.265625
-15.6,1551189138.28125
-8.1,1551189138.296875
-1.87,1551189138.3125
2.86,1551189138.328125
6.33,1551189138.34375
9.08,1551189138.359375
11.65,1551189138.375
14.26,1551189138.390625
16.82,1551189138.40625
19.0,1551189138.421875
20.51,1551189138.4375
21.28,1551189138.453125
21.52,1551189138.46875
21.6,1551189138.484375
21.87,1551189138.5
22.46,1551189138.515625
23.29,1551189138.53125
24.21,1551189138.546875
25.04,1551189138.5625
25.77,1551189138.578125
26.46,1551189138.59375
27.15,1551189138.609375
27.75,1551189138.625
27.99,1551189138.640625
27.65,1551189138.65625
26.62,1551189138.671875
25.01,1551189138.6875
23.13,1551189138.703125
21.31,1551189138.71875
19.72,1551189138.734375
18.33,1551189138.75
16.97,1551189138.765625
15.46,1551189138.78125
13.72,1551189138.796875
11.81,1551189138.8125
9.82,1551189138.828125
7.86,1551189138.84375
5.94,1551189138.859375
4.03,1551189138.875
2.08,1551189138.890625
0.06,1551189138.90625
-2.04,1551189138.921875
-4.24,1551189138.9375
-6.55,1551189138.953125
-9.0,1551189138.96875
-11.53,1551189138.984375
-14.05,1551189139.0
-16.5,1551189139.015625
-18.86,1551189139.03125
-21.26,1551189139.046875
-23.9,1551189139.0625
-26.99,1551189139.078125
-30.59,1551189139.09375
-34.48,1551189139.109375
-38.18,1551189139.125
-40.97,1551189139.140625
-42.05,1551189139.15625
-40.74,1551189139.171875
-36.79,1551189139.1875
-30.45,1551189139.203125
-22.45,1551189139.21875
-13.8,1551189139.234375
-5.43,1551189139.25
2.05,1551189139.265625
8.41,1551189139.28125
13.72,1551189139.296875
18.11,1551189139.3125
21.57,1551189139.328125
23.98,1551189139.34375
25.12,1551189139.359375
24.95,1551189139.375
23.66,1551189139.390625
21.65,1551189139.40625
19.42,1551189139.421875
17.38,1551189139.4375
15.77,1551189139.453125
14.65,1551189139.46875
13.96,1551189139.484375
13.61,1551189139.5
13.53,1551189139.515625
13.69,1551189139.53125
14.08,1551189139.546875
14.66,1551189139.5625
15.34,1551189139.578125
15.93,1551189139.59375
16.26,1551189139.609375
16.17,1551189139.625
15.6,1551189139.640625
14.6,1551189139.65625
13.32,1551189139.671875
11.97,1551189139.6875
10.76,1551189139.703125
9.85,1551189139.71875
9.25,1551189139.734375
8.87,1551189139.75
8.5,1551189139.765625
7.93,1551189139.78125
7.01,1551189139.796875
5.76,1551189139.8125
4.32,1551189139.828125
2.81,1551189139.84375
1.3,1551189139.859375
-0.34,1551189139.875
-2.28,1551189139.890625
-4.64,1551189139.90625
-7.4,1551189139.921875
-10.34,1551189139.9375
-13.26,1551189139.953125
-15.99,1551189139.96875
-18.55,1551189139.984375
-21.06,1551189140.0
-23.63,1551189140.015625
-26.39,1551189140.03125
-29.45,1551189140.046875
-32.93,1551189140.0625
-36.93,1551189140.078125
-41.37,1551189140.09375
-45.83,1551189140.109375
-49.5,1551189140.125
-51.34,1551189140.140625
-50.53,1551189140.15625
-46.77,1551189140.171875
-40.57,1551189140.1875
-33.02,1551189140.203125
-25.38,1551189140.21875
-18.67,1551189140.234375
-13.33,1551189140.25
-9.25,1551189140.265625
-5.97,1551189140.28125
-2.98,1551189140.296875
0.03,1551189140.3125
3.14,1551189140.328125
6.23,1551189140.34375
9.09,1551189140.359375
11.51,1551189140.375
13.32,1551189140.390625
14.53,1551189140.40625
15.24,1551189140.421875
15.7,1551189140.4375
16.22,1551189140.453125
16.99,1551189140.46875
18.06,1551189140.484375
19.29,1551189140.5
20.46,1551189140.515625
21.34,1551189140.53125
21.85,1551189140.546875
22.0,1551189140.5625
21.81,1551189140.578125
21.29,1551189140.59375
20.38,1551189140.609375
19.12,1551189140.625
17.63,1551189140.640625
16.12,1551189140.65625
14.82,1551189140.671875
13.82,1551189140.6875
13.07,1551189140.703125
12.32,1551189140.71875
11.34,1551189140.734375
9.98,1551189140.75
8.28,1551189140.765625
6.41,1551189140.78125
4.56,1551189140.796875
2.9,1551189140.8125
1.42,1551189140.828125
0.04,1551189140.84375
-1.43,1551189140.859375
-3.13,1551189140.875
-5.19,1551189140.890625
-7.63,1551189140.90625
-10.35,1551189140.921875
-13.21,1551189140.9375
-16.01,1551189140.953125
-18.66,1551189140.96875
-21.2,1551189140.984375
-23.89,1551189141.0
-27.12,1551189141.015625
-31.21,1551189141.03125
-36.19,1551189141.046875
-41.58,1551189141.0625
-46.42,1551189141.078125
-49.45,1551189141.09375
-49.59,1551189141.109375
-46.29,1551189141.125
-39.81,1551189141.140625
-31.19,1551189141.15625
-21.79,1551189141.171875
-12.98,1551189141.1875
-5.61,1551189141.203125
0.07,1551189141.21875
4.33,1551189141.234375
7.67,1551189141.25
10.55,1551189141.265625
13.21,1551189141.28125
15.69,1551189141.296875
17.95,1551189141.3125
19.98,1551189141.328125
21.77,1551189141.34375
23.32,1551189141.359375
24.62,1551189141.375
25.62,1551189141.390625
26.28,1551189141.40625
26.66,1551189141.421875
26.92,1551189141.4375
27.21,1551189141.453125
27.66,1551189141.46875
28.28,1551189141.484375
28.95,1551189141.5
29.52,1551189141.515625
29.82,1551189141.53125
29.74,1551189141.546875
29.22,1551189141.5625
28.22,1551189141.578125
26.79,1551189141.59375
25.04,1551189141.609375
23.18,1551189141.625
21.42,1551189141.640625
19.9,1551189141.65625
18.6,1551189141.671875
17.35,1551189141.6875
15.92,1551189141.703125
14.17,1551189141.71875
12.04,1551189141.734375
9.68,1551189141.75
7.23,1551189141.765625
4.87,1551189141.78125
2.67,1551189141.796875
0.57,1551189141.8125
-1.53,1551189141.828125
-3.8,1551189141.84375
-6.33,1551189141.859375
-9.15,1551189141.875
-12.1,1551189141.890625
-14.95,1551189141.90625
-17.43,1551189141.921875
-19.41,1551189141.9375
-20.95,1551189141.953125
-22.39,1551189141.96875
-24.21,1551189141.984375
-26.87,1551189142.0
-30.61,1551189142.015625
-35.3,1551189142.03125
-40.41,1551189142.046875
-45.11,1551189142.0625
-48.41,1551189142.078125
-49.39,1551189142.09375
-47.45,1551189142.109375
-42.54,1551189142.125
-35.2,1551189142.140625
-26.49,1551189142.15625
-17.65,1551189142.171875
-9.81,1551189142.1875
-3.61,1551189142.203125
0.9,1551189142.21875
4.13,1551189142.234375
6.75,1551189142.25
9.34,1551189142.265625
12.17,1551189142.28125
15.17,1551189142.296875
17.98,1551189142.3125
20.19,1551189142.328125
21.61,1551189142.34375
22.32,1551189142.359375
22.62,1551189142.375
22.92,1551189142.390625
23.49,1551189142.40625
24.4,1551189142.421875
25.54,1551189142.4375
26.72,1551189142.453125
27.76,1551189142.46875
28.59,1551189142.484375
29.11,1551189142.5
29.22,1551189142.515625
28.71,1551189142.53125
27.42,1551189142.546875
25.34,1551189142.5625
22.67,1551189142.578125
19.81,1551189142.59375
17.18,1551189142.609375
15.08,1551189142.625
13.55,1551189142.640625
12.37,1551189142.65625
11.22,1551189142.671875
9.8,1551189142.6875
7.95,1551189142.703125
5.71,1551189142.71875
3.28,1551189142.734375
0.82,1551189142.75
-1.6,1551189142.765625
-4.09,1551189142.78125
-6.82,1551189142.796875
-9.91,1551189142.8125
-13.34,1551189142.828125
-16.92,1551189142.84375
-20.42,1551189142.859375
-23.64,1551189142.875
-26.55,1551189142.890625
-29.22,1551189142.90625
-31.77,1551189142.921875
-34.32,1551189142.9375
-36.98,1551189142.953125
-39.89,1551189142.96875
-43.24,1551189142.984375
-47.03,1551189143.0
-51.03,1551189143.015625
-54.58,1551189143.03125
-56.66,1551189143.046875
-56.25,1551189143.0625
-52.71,1551189143.078125
-46.13,1551189143.09375
-37.36,1551189143.109375
-27.7,1551189143.125
-18.48,1551189143.140625
-10.6,1551189143.15625
-4.38,1551189143.171875
0.36,1551189143.1875
4.04,1551189143.203125
7.0,1551189143.21875
9.47,1551189143.234375
11.51,1551189143.25
13.14,1551189143.265625
14.47,1551189143.28125
15.63,1551189143.296875
16.8,1551189143.3125
18.03,1551189143.328125
19.33,1551189143.34375
20.63,1551189143.359375
21.89,1551189143.375
23.17,1551189143.390625
24.49,1551189143.40625
25.86,1551189143.421875
27.14,1551189143.4375
28.13,1551189143.453125
28.58,1551189143.46875
28.39,1551189143.484375
27.62,1551189143.5
26.47,1551189143.515625
25.15,1551189143.53125
23.77,1551189143.546875
22.3,1551189143.5625
20.63,1551189143.578125
18.68,1551189143.59375
16.51,1551189143.609375
14.27,1551189143.625
12.15,1551189143.640625
10.24,1551189143.65625
8.51,1551189143.671875
6.87,1551189143.6875
5.21,1551189143.703125
3.46,1551189143.71875
1.59,1551189143.734375
-0.4,1551189143.75
-2.57,1551189143.765625
-4.97,1551189143.78125
-7.64,1551189143.796875
-10.53,1551189143.8125
-13.55,1551189143.828125
-16.56,1551189143.84375
-19.53,1551189143.859375
-22.61,1551189143.875
-26.09,1551189143.890625
-30.35,1551189143.90625
-35.61,1551189143.921875
-41.69,1551189143.9375
-47.89,1551189143.953125
-53.08,1551189143.96875
-55.99,1551189143.984375
-55.63,1551189144.0
-51.71,1551189144.015625
-44.68,1551189144.03125
-35.69,1551189144.046875
-26.13,1551189144.0625
-17.24,1551189144.078125
-9.77,1551189144.09375
-3.94,1551189144.109375
0.51,1551189144.125
4.03,1551189144.140625
7.1,1551189144.15625
10.03,1551189144.171875
12.98,1551189144.1875
15.95,1551189144.203125
18.84,1551189144.21875
21.52,1551189144.234375
23.84,1551189144.25
25.68,1551189144.265625
27.01,1551189144.28125
27.92,1551189144.296875
28.56,1551189144.3125
29.17,1551189144.328125
29.93,1551189144.34375
30.92,1551189144.359375
32.05,1551189144.375
33.09,1551189144.390625
33.8,1551189144.40625
33.99,1551189144.421875
33.62,1551189144.4375
32.79,1551189144.453125
31.65,1551189144.46875
30.34,1551189144.484375
28.92,1551189144.5
27.43,1551189144.515625
25.81,1551189144.53125
24.02,1551189144.546875
21.99,1551189144.5625
19.7,1551189144.578125
17.16,1551189144.59375
14.45,1551189144.609375
11.67,1551189144.625
8.95,1551189144.640625
6.34,1551189144.65625
3.81,1551189144.671875
1.2,1551189144.6875
-1.62,1551189144.703125
-4.71,1551189144.71875
-7.94,1551189144.734375
-11.08,1551189144.75
-13.92,1551189144.765625
-16.4,1551189144.78125
-18.68,1551189144.796875
-21.1,1551189144.8125
-24.06,1551189144.828125
-27.84,1551189144.84375
-32.56,1551189144.859375
-38.11,1551189144.875
-44.09,1551189144.890625
-49.78,1551189144.90625
-54.2,1551189144.921875
-56.29,1551189144.9375
-55.19,1551189144.953125
-50.62,1551189144.96875
-43.04,1551189144.984375
-33.61,1551189145.0
-23.78,1551189145.015625
-14.84,1551189145.03125
-7.55,1551189145.046875
-2.02,1551189145.0625
2.13,1551189145.078125
5.46,1551189145.09375
8.42,1551189145.109375
11.25,1551189145.125
13.94,1551189145.140625
16.37,1551189145.15625
18.4,1551189145.171875
19.98,1551189145.1875
21.16,1551189145.203125
22.02,1551189145.21875
22.71,1551189145.234375
23.29,1551189145.25
23.8,1551189145.265625
24.25,1551189145.28125
24.6,1551189145.296875
24.85,1551189145.3125
24.96,1551189145.328125
24.89,1551189145.34375
24.58,1551189145.359375
23.96,1551189145.375
22.99,1551189145.390625
21.64,1551189145.40625
19.94,1551189145.421875
17.95,1551189145.4375
15.76,1551189145.453125
13.48,1551189145.46875
11.25,1551189145.484375
9.2,1551189145.5
7.39,1551189145.515625
5.86,1551189145.53125
4.55,1551189145.546875
3.32,1551189145.5625
2.01,1551189145.578125
0.5,1551189145.59375
-1.31,1551189145.609375
-3.38,1551189145.625
-5.64,1551189145.640625
-7.93,1551189145.65625
-10.11,1551189145.671875
-12.1,1551189145.6875
-13.87,1551189145.703125
-15.52,1551189145.71875
-17.2,1551189145.734375
-19.18,1551189145.75
-21.73,1551189145.765625
-25.14,1551189145.78125
-29.52,1551189145.796875
-34.62,1551189145.8125
-39.76,1551189145.828125
-43.81,1551189145.84375
-45.55,1551189145.859375
-44.09,1551189145.875
-39.25,1551189145.890625
-31.73,1551189145.90625
-22.83,1551189145.921875
-13.97,1551189145.9375
-6.17,1551189145.953125
0.19,1551189145.96875
5.26,1551189145.984375
9.47,1551189146.0
13.15,1551189146.015625
16.43,1551189146.03125
19.24,1551189146.046875
21.55,1551189146.0625
23.41,1551189146.078125
24.95,1551189146.09375
26.3,1551189146.109375
27.53,1551189146.125
28.61,1551189146.140625
29.55,1551189146.15625
30.39,1551189146.171875
31.24,1551189146.1875
32.17,1551189146.203125
33.19,1551189146.21875
34.15,1551189146.234375
34.82,1551189146.25
34.96,1551189146.265625
34.45,1551189146.28125
33.28,1551189146.296875
31.58,1551189146.3125
29.55,1551189146.328125
27.41,1551189146.34375
25.29,1551189146.359375
23.21,1551189146.375
21.13,1551189146.390625
18.96,1551189146.40625
16.66,1551189146.421875
14.25,1551189146.4375
11.82,1551189146.453125
9.46,1551189146.46875
7.22,1551189146.484375
5.09,1551189146.5
2.98,1551189146.515625
0.8,1551189146.53125
-1.58,1551189146.546875
-4.19,1551189146.5625
-7.01,1551189146.578125
-9.98,1551189146.59375
-12.96,1551189146.609375
-15.77,1551189146.625
-18.31,1551189146.640625
-20.61,1551189146.65625
-22.86,1551189146.671875
-25.38,1551189146.6875
-28.54,1551189146.703125
-32.57,1551189146.71875
-37.43,1551189146.734375
-42.74,1551189146.75
-47.73,1551189146.765625
-51.45,1551189146.78125
-52.91,1551189146.796875
-51.36,1551189146.8125
-46.57,1551189146.828125
-38.9,1551189146.84375
-29.27,1551189146.859375
-18.97,1551189146.875
-9.28,1551189146.890625
-1.1,1551189146.90625
5.25,1551189146.921875
10.01,1551189146.9375
13.84,1551189146.953125
17.44,1551189146.96875
21.32,1551189146.984375
25.57,1551189147.0
29.93,1551189147.015625
33.93,1551189147.03125
37.15,1551189147.046875
39.46,1551189147.0625
41.03,1551189147.078125
42.31,1551189147.09375
43.77,1551189147.109375
45.69,1551189147.125
47.95,1551189147.140625
50.16,1551189147.15625
51.83,1551189147.171875
52.57,1551189147.1875
52.3,1551189147.203125
51.13,1551189147.21875
49.28,1551189147.234375
46.86,1551189147.25
43.82,1551189147.265625
40.07,1551189147.28125
35.61,1551189147.296875
30.78,1551189147.3125
26.08,1551189147.328125
22.11,1551189147.34375
19.18,1551189147.359375
17.2,1551189147.375
15.69,1551189147.390625
14.01,1551189147.40625
11.71,1551189147.421875
8.74,1551189147.4375
5.42,1551189147.453125
2.22,1551189147.46875
-0.49,1551189147.484375
-2.64,1551189147.5
-4.52,1551189147.515625
-6.55,1551189147.53125
-9.04,1551189147.546875
-12.09,1551189147.5625
-15.5,1551189147.578125
-18.94,1551189147.59375
-22.11,1551189147.609375
-24.91,1551189147.625
-27.46,1551189147.640625
-30.02,1551189147.65625
-32.95,1551189147.671875
-36.51,1551189147.6875
-40.8,1551189147.703125
-45.67,1551189147.71875
-50.65,1551189147.734375
-55.03,1551189147.75
-57.97,1551189147.765625
-58.69,1551189147.78125
-56.77,1551189147.796875
-52.26,1551189147.8125
-45.76,1551189147.828125
-38.22,1551189147.84375
-30.63,1551189147.859375
-23.83,1551189147.875
-18.24,1551189147.890625
-13.92,1551189147.90625
-10.61,1551189147.921875
-7.98,1551189147.9375
-5.71,1551189147.953125
-3.62,1551189147.96875
-1.65,1551189147.984375
0.18,1551189148.0
1.89,1551189148.015625
3.55,1551189148.03125
5.25,1551189148.046875
7.12,1551189148.0625
9.17,1551189148.078125
11.32,1551189148.09375
13.42,1551189148.109375
15.34,1551189148.125
16.97,1551189148.140625
18.29,1551189148.15625
19.35,1551189148.171875
20.23,1551189148.1875
21.04,1551189148.203125
21.86,1551189148.21875
22.7,1551189148.234375
23.47,1551189148.25
24.01,1551189148.265625
24.1,1551189148.28125
23.63,1551189148.296875
22.61,1551189148.3125
21.19,1551189148.328125
19.58,1551189148.34375
17.92,1551189148.359375
16.22,1551189148.375
14.41,1551189148.390625
12.41,1551189148.40625
10.25,1551189148.421875
8.0,1551189148.4375
5.72,1551189148.453125
3.35,1551189148.46875
0.69,1551189148.484375
-2.46,1551189148.5
-6.16,1551189148.515625
-10.24,1551189148.53125
-14.33,1551189148.546875
-18.05,1551189148.5625
-21.14,1551189148.578125
-23.7,1551189148.59375
-26.1,1551189148.609375
-28.8,1551189148.625
-32.17,1551189148.640625
-36.21,1551189148.65625
-40.56,1551189148.671875
-44.48,1551189148.6875
-47.13,1551189148.703125
-47.71,1551189148.71875
-45.78,1551189148.734375
-41.35,1551189148.75
-34.93,1551189148.765625
-27.41,1551189148.78125
-19.77,1551189148.796875
-12.85,1551189148.8125
-7.1,1551189148.828125
-2.53,1551189148.84375
1.15,1551189148.859375
4.4,1551189148.875
7.51,1551189148.890625
10.59,1551189148.90625
13.5,1551189148.921875
15.98,1551189148.9375
17.81,1551189148.953125
18.95,1551189148.96875
19.56,1551189148.984375
19.96,1551189149.0
20.48,1551189149.015625
21.31,1551189149.03125
22.45,1551189149.046875
23.68,1551189149.0625
24.76,1551189149.078125
25.53,1551189149.09375
26.02,1551189149.109375
26.36,1551189149.125
26.71,1551189149.140625
27.09,1551189149.15625
27.33,1551189149.171875
27.26,1551189149.1875
26.78,1551189149.203125
26.01,1551189149.21875
25.28,1551189149.234375
24.97,1551189149.25
25.32,1551189149.265625
26.3,1551189149.28125
27.58,1551189149.296875
28.68,1551189149.3125
29.16,1551189149.328125
28.85,1551189149.34375
27.89,1551189149.359375
26.74,1551189149.375
25.93,1551189149.390625
25.9,1551189149.40625
26.84,1551189149.421875
28.68,1551189149.4375
31.19,1551189149.453125
34.01,1551189149.46875
36.77,1551189149.484375
39.07,1551189149.5
40.57,1551189149.515625
40.96,1551189149.53125
40.06,1551189149.546875
37.79,1551189149.5625
34.14,1551189149.578125
29.04,1551189149.59375
22.35,1551189149.609375
13.97,1551189149.625
3.96,1551189149.640625
-7.2,1551189149.65625
-18.59,1551189149.671875
-29.03,1551189149.6875
-37.45,1551189149.703125
-43.27,1551189149.71875
-46.57,1551189149.734375
-48.03,1551189149.75
-48.58,1551189149.765625
-49.02,1551189149.78125
-49.83,1551189149.796875
-51.0,1551189149.8125
-52.33,1551189149.828125
-53.49,1551189149.84375
-54.26,1551189149.859375
-54.57,1551189149.875
-54.41,1551189149.890625
-53.76,1551189149.90625
-52.59,1551189149.921875
-50.89,1551189149.9375
-48.67,1551189149.953125
-46.08,1551189149.96875
-43.27,1551189149.984375
-40.38,1551189150.0
-37.44,1551189150.015625
-34.33,1551189150.03125
-30.93,1551189150.046875
-27.11,1551189150.0625
-22.8,1551189150.078125
-18.03,1551189150.09375
-12.86,1551189150.109375
-7.45,1551189150.125
-2.1,1551189150.140625
2.76,1551189150.15625
6.65,1551189150.171875
9.16,1551189150.1875
10.14,1551189150.203125
9.79,1551189150.21875
8.55,1551189150.234375
6.88,1551189150.25
5.06,1551189150.265625
3.06,1551189150.28125
0.69,1551189150.296875
-2.15,1551189150.3125
-5.35,1551189150.328125
-8.48,1551189150.34375
-11.08,1551189150.359375
-12.85,1551189150.375
-13.9,1551189150.390625
-14.66,1551189150.40625
-15.74,1551189150.421875
-17.55,1551189150.4375
-20.11,1551189150.453125
-23.08,1551189150.46875
-25.9,1551189150.484375
-28.12,1551189150.5
-29.58,1551189150.515625
-30.46,1551189150.53125
-31.14,1551189150.546875
-32.1,1551189150.5625
-33.64,1551189150.578125
-35.85,1551189150.59375
-38.56,1551189150.609375
-41.33,1551189150.625
-43.56,1551189150.640625
-44.57,1551189150.65625
-43.78,1551189150.671875
-40.85,1551189150.6875
-35.81,1551189150.703125
-29.09,1551189150.71875
-21.5,1551189150.734375
-13.96,1551189150.75
-7.32,1551189150.765625
-2.09,1551189150.78125
1.61,1551189150.796875
4.06,1551189150.8125
5.72,1551189150.828125
7.05,1551189150.84375
8.29,1551189150.859375
9.5,1551189150.875
10.6,1551189150.890625
11.55,1551189150.90625
12.39,1551189150.921875
13.26,1551189150.9375
14.27,1551189150.953125
15.41,1551189150.96875
16.57,1551189150.984375
17.62,1551189151.0
18.51,1551189151.015625
19.32,1551189151.03125
20.16,1551189151.046875
21.1,1551189151.0625
22.07,1551189151.078125
22.84,1551189151.09375
23.2,1551189151.109375
23.03,1551189151.125
22.31,1551189151.140625
21.19,1551189151.15625
19.82,1551189151.171875
18.36,1551189151.1875
16.93,1551189151.203125
15.6,1551189151.21875
14.41,1551189151.234375
13.43,1551189151.25
12.65,1551189151.265625
12.05,1551189151.28125
11.53,1551189151.296875
11.0,1551189151.3125
10.37,1551189151.328125
9.56,1551189151.34375
8.54,1551189151.359375
7.23,1551189151.375
5.57,1551189151.390625
3.55,1551189151.40625
1.2,1551189151.421875
-1.31,1551189151.4375
-3.77,1551189151.453125
-5.97,1551189151.46875
-7.83,1551189151.484375
-9.49,1551189151.5
-11.33,1551189151.515625
-13.8,1551189151.53125
-17.22,1551189151.546875
-21.48,1551189151.5625
-25.95,1551189151.578125
-29.58,1551189151.59375
-31.22,1551189151.609375
-30.03,1551189151.625
-25.81,1551189151.640625
-19.07,1551189151.65625
-10.86,1551189151.671875
-2.41,1551189151.6875
5.29,1551189151.703125
11.66,1551189151.71875
16.6,1551189151.734375
20.33,1551189151.75
23.19,1551189151.765625
25.46,1551189151.78125
27.28,1551189151.796875
28.66,1551189151.8125
29.49,1551189151.828125
29.66,1551189151.84375
29.08,1551189151.859375
27.77,1551189151.875
25.84,1551189151.890625
23.51,1551189151.90625
21.02,1551189151.921875
18.58,1551189151.9375
16.4,1551189151.953125
14.59,1551189151.96875
13.23,1551189151.984375
12.34,1551189152.0
11.86,1551189152.015625
11.69,1551189152.03125
11.64,1551189152.046875
11.54,1551189152.0625
11.26,1551189152.078125
10.72,1551189152.09375
9.98,1551189152.109375
9.2,1551189152.125
8.55,1551189152.140625
8.17,1551189152.15625
8.17,1551189152.171875
8.52,1551189152.1875
9.14,1551189152.203125
9.91,1551189152.21875
10.7,1551189152.234375
11.42,1551189152.25
12.0,1551189152.265625
12.32,1551189152.28125
12.18,1551189152.296875
11.39,1551189152.3125
9.71,1551189152.328125
7.1,1551189152.34375
3.67,1551189152.359375
-0.28,1551189152.375
-4.39,1551189152.390625
-8.35,1551189152.40625
-12.03,1551189152.421875
-15.44,1551189152.4375
-18.65,1551189152.453125
-21.78,1551189152.46875
-24.96,1551189152.484375
-28.32,1551189152.5
-31.98,1551189152.515625
-35.95,1551189152.53125
-40.0,1551189152.546875
-43.61,1551189152.5625
-46.0,1551189152.578125
-46.38,1551189152.59375
-44.3,1551189152.609375
-39.89,1551189152.625
-33.91,1551189152.640625
-27.47,1551189152.65625
-21.67,1551189152.671875
-17.22,1551189152.6875
-14.28,1551189152.703125
-12.48,1551189152.71875
-11.24,1551189152.734375
-10.05,1551189152.75
-8.65,1551189152.765625
-7.08,1551189152.78125
-5.56,1551189152.796875
-4.24,1551189152.8125
-3.19,1551189152.828125
-2.31,1551189152.84375
-1.47,1551189152.859375
-0.52,1551189152.875
0.58,1551189152.890625
1.84,1551189152.90625
3.25,1551189152.921875
4.77,1551189152.9375
6.37,1551189152.953125
7.91,1551189152.96875
9.29,1551189152.984375
10.34,1551189153.0
11.02,1551189153.015625
11.35,1551189153.03125
11.43,1551189153.046875
11.39,1551189153.0625
11.23,1551189153.078125
10.96,1551189153.09375
10.49,1551189153.109375
9.81,1551189153.125
8.96,1551189153.140625
8.04,1551189153.15625
7.15,1551189153.171875
6.32,1551189153.1875
5.52,1551189153.203125
4.68,1551189153.21875
3.72,1551189153.234375
2.6,1551189153.25
1.33,1551189153.265625
-0.06,1551189153.28125
-1.55,1551189153.296875
-3.12,1551189153.3125
-4.7,1551189153.328125
-6.25,1551189153.34375
-7.76,1551189153.359375
-9.25,1551189153.375
-10.89,1551189153.390625
-12.92,1551189153.40625
-15.56,1551189153.421875
-18.91,1551189153.4375
-22.74,1551189153.453125
-26.47,1551189153.46875
-29.26,1551189153.484375
-30.31,1551189153.5
-29.02,1551189153.515625
-25.38,1551189153.53125
-19.88,1551189153.546875
-13.38,1551189153.5625
-6.86,1551189153.578125
-1.07,1551189153.59375
3.61,1551189153.609375
7.18,1551189153.625
9.88,1551189153.640625
12.07,1551189153.65625
14.04,1551189153.671875
15.99,1551189153.6875
18.0,1551189153.703125
20.01,1551189153.71875
21.91,1551189153.734375
23.56,1551189153.75
24.89,1551189153.765625
25.94,1551189153.78125
26.84,1551189153.796875
27.77,1551189153.8125
28.92,1551189153.828125
30.29,1551189153.84375
31.73,1551189153.859375
33.01,1551189153.875
33.85,1551189153.890625
34.13,1551189153.90625
33.85,1551189153.921875
33.12,1551189153.9375
32.07,1551189153.953125
30.77,1551189153.96875
29.26,1551189153.984375
27.55,1551189154.0
25.7,1551189154.015625
23.79,1551189154.03125
21.94,1551189154.046875
20.19,1551189154.0625
18.52,1551189154.078125
16.83,1551189154.09375
14.98,1551189154.109375
12.93,1551189154.125
10.66,1551189154.140625
8.28,1551189154.15625
5.89,1551189154.171875
3.52,1551189154.1875
1.24,1551189154.203125
-0.95,1551189154.21875
-2.99,1551189154.234375
-4.82,1551189154.25
-6.43,1551189154.265625
-7.92,1551189154.28125
-9.46,1551189154.296875
-11.28,1551189154.3125
-13.61,1551189154.328125
-16.6,1551189154.34375
-20.25,1551189154.359375
-24.47,1551189154.375
-28.9,1551189154.390625
-33.0,1551189154.40625
-36.11,1551189154.421875
-37.49,1551189154.4375
-36.62,1551189154.453125
-33.39,1551189154.46875
-28.13,1551189154.484375
-21.66,1551189154.5
-14.96,1551189154.515625
-8.93,1551189154.53125
-4.1,1551189154.546875
-0.62,1551189154.5625
1.8,1551189154.578125
3.62,1551189154.59375
5.27,1551189154.609375
7.05,1551189154.625
9.03,1551189154.640625
11.08,1551189154.65625
13.01,1551189154.671875
14.59,1551189154.6875
15.73,1551189154.703125
16.41,1551189154.71875
16.72,1551189154.734375
16.83,1551189154.75
16.89,1551189154.765625
17.03,1551189154.78125
17.31,1551189154.796875
17.74,1551189154.8125
18.23,1551189154.828125
18.68,1551189154.84375
18.95,1551189154.859375
18.93,1551189154.875
18.53,1551189154.890625
17.73,1551189154.90625
16.59,1551189154.921875
15.17,1551189154.9375
13.58,1551189154.953125
11.92,1551189154.96875
10.27,1551189154.984375
8.67,1551189155.0
7.15,1551189155.015625
5.7,1551189155.03125
4.26,1551189155.046875
2.73,1551189155.0625
1.07,1551189155.078125
-0.77,1551189155.09375
-2.74,1551189155.109375
-4.74,1551189155.125
-6.67,1551189155.140625
-8.53,1551189155.15625
-10.38,1551189155.171875
-12.33,1551189155.1875
-14.47,1551189155.203125
-16.75,1551189155.21875
-19.06,1551189155.234375
-21.31,1551189155.25
-23.5,1551189155.265625
-25.84,1551189155.28125
-28.61,1551189155.296875
-32.05,1551189155.3125
-36.1,1551189155.328125
-40.3,1551189155.34375
-43.86,1551189155.359375
-45.88,1551189155.375
-45.66,1551189155.390625
-42.97,1551189155.40625
-38.16,1551189155.421875
-31.98,1551189155.4375
-25.38,1551189155.453125
-19.13,1551189155.46875
-13.7,1551189155.484375
-9.22,1551189155.5
-5.58,1551189155.515625
-2.58,1551189155.53125
-0.06,1551189155.546875
2.13,1551189155.5625
4.04,1551189155.578125
5.74,1551189155.59375
7.22,1551189155.609375
8.48,1551189155.625
9.52,1551189155.640625
10.39,1551189155.65625
11.23,1551189155.671875
12.14,1551189155.6875
13.22,1551189155.703125
14.41,1551189155.71875
15.61,1551189155.734375
16.71,1551189155.75
17.64,1551189155.765625
18.44,1551189155.78125
19.14,1551189155.796875
19.73,1551189155.8125
20.09,1551189155.828125
20.06,1551189155.84375
19.49,1551189155.859375
18.34,1551189155.875
16.74,1551189155.890625
14.92,1551189155.90625
13.14,1551189155.921875
11.62,1551189155.9375
10.45,1551189155.953125
9.63,1551189155.96875
8.98,1551189155.984375
8.24,1551189156.0
7.17,1551189156.015625
5.6,1551189156.03125
3.51,1551189156.046875
1.06,1551189156.0625
-1.56,1551189156.078125
-4.15,1551189156.09375
-6.57,1551189156.109375
-8.78,1551189156.125
-10.84,1551189156.140625
-12.82,1551189156.15625
-14.87,1551189156.171875
-17.18,1551189156.1875
-19.89,1551189156.203125
-23.02,1551189156.21875
-26.35,1551189156.234375
-29.36,1551189156.25
-31.33,1551189156.265625
-31.55,1551189156.28125
-29.56,1551189156.296875
-25.39,1551189156.3125
-19.59,1551189156.328125
-13.02,1551189156.34375
-6.61,1551189156.359375
-1.11,1551189156.375
3.1,1551189156.390625
6.0,1551189156.40625
7.89,1551189156.421875
9.18,1551189156.4375
10.27,1551189156.453125
11.47,1551189156.46875
12.91,1551189156.484375
14.55,1551189156.5
16.21,1551189156.515625
17.64,1551189156.53125
18.63,1551189156.546875
19.14,1551189156.5625
19.28,1551189156.578125
19.3,1551189156.59375
19.44,1551189156.609375
19.84,1551189156.625
20.49,1551189156.640625
21.26,1551189156.65625
22.02,1551189156.671875
22.63,1551189156.6875
23.03,1551189156.703125
23.15,1551189156.71875
22.96,1551189156.734375
22.42,1551189156.75
21.55,1551189156.765625
20.46,1551189156.78125
19.27,1551189156.796875
18.1,1551189156.8125
16.99,1551189156.828125
15.92,1551189156.84375
14.81,1551189156.859375
13.58,1551189156.875
12.25,1551189156.890625
10.82,1551189156.90625
9.34,1551189156.921875
7.83,1551189156.9375
6.27,1551189156.953125
4.66,1551189156.96875
3.0,1551189156.984375
1.28,1551189157.0
-0.49,1551189157.015625
-2.33,1551189157.03125
-4.24,1551189157.046875
-6.17,1551189157.0625
-8.07,1551189157.078125
-9.88,1551189157.09375
-11.65,1551189157.109375
-13.52,1551189157.125
-15.71,1551189157.140625
-18.42,1551189157.15625
-21.73,1551189157.171875
-25.48,1551189157.1875
-29.24,1551189157.203125
-32.36,1551189157.21875
-34.13,1551189157.234375
-33.95,1551189157.25
-31.56,1551189157.265625
-27.2,1551189157.28125
-21.5,1551189157.296875
-15.42,1551189157.3125
-9.84,1551189157.328125
-5.38,1551189157.34375
-2.16,1551189157.359375
0.1,1551189157.375
1.94,1551189157.390625
3.9,1551189157.40625
6.22,1551189157.421875
8.86,1551189157.4375
11.44,1551189157.453125
13.56,1551189157.46875
14.97,1551189157.484375
15.65,1551189157.5
15.89,1551189157.515625
15.97,1551189157.53125
16.14,1551189157.546875
16.41,1551189157.5625
16.68,1551189157.578125
16.83,1551189157.59375
16.84,1551189157.609375
16.79,1551189157.625
16.77,1551189157.640625
16.78,1551189157.65625
16.65,1551189157.671875
16.14,1551189157.6875
15.1,1551189157.703125
13.61,1551189157.71875
11.91,1551189157.734375
10.32,1551189157.75
9.02,1551189157.765625
7.97,1551189157.78125
6.91,1551189157.796875
5.61,1551189157.8125
3.94,1551189157.828125
2.05,1551189157.84375
0.19,1551189157.859375
-1.41,1551189157.875
-2.68,1551189157.890625
-3.76,1551189157.90625
-4.94,1551189157.921875
-6.43,1551189157.9375
-8.28,1551189157.953125
-10.36,1551189157.96875
-12.41,1551189157.984375
-14.23,1551189158.0
-15.71,1551189158.015625
-16.89,1551189158.03125
-17.89,1551189158.046875
-18.92,1551189158.0625
-20.19,1551189158.078125
-21.9,1551189158.09375
-24.16,1551189158.109375
-26.92,1551189158.125
-29.91,1551189158.140625
-32.6,1551189158.15625
-34.37,1551189158.171875
-34.59,1551189158.1875
-32.9,1551189158.203125
-29.31,1551189158.21875
-24.23,1551189158.234375
-18.41,1551189158.25
-12.64,1551189158.265625
-7.59,1551189158.28125
-3.57,1551189158.296875
-0.57,1551189158.3125
1.76,1551189158.328125
3.83,1551189158.34375
6.0,1551189158.359375
8.36,1551189158.375
10.75,1551189158.390625
12.83,1551189158.40625
14.28,1551189158.421875
14.96,1551189158.4375
14.99,1551189158.453125
14.7,1551189158.46875
14.51,1551189158.484375
14.72,1551189158.5
15.45,1551189158.515625
16.57,1551189158.53125
17.84,1551189158.546875
18.95,1551189158.5625
19.7,1551189158.578125
19.98,1551189158.59375
19.8,1551189158.609375
19.25,1551189158.625
18.46,1551189158.640625
17.55,1551189158.65625
16.55,1551189158.671875
15.45,1551189158.6875
14.21,1551189158.703125
12.78,1551189158.71875
11.24,1551189158.734375
9.73,1551189158.75
8.41,1551189158.765625
7.42,1551189158.78125
6.78,1551189158.796875
6.36,1551189158.8125
5.96,1551189158.828125
5.34,1551189158.84375
4.33,1551189158.859375
2.85,1551189158.875
0.9,1551189158.890625
-1.43,1551189158.90625
-4.01,1551189158.921875
-6.68,1551189158.9375
-9.23,1551189158.953125
-11.55,1551189158.96875
-13.57,1551189158.984375
-15.37,1551189159.0
-17.17,1551189159.015625
-19.24,1551189159.03125
-21.77,1551189159.046875
-24.77,1551189159.0625
-27.99,1551189159.078125
-30.89,1551189159.09375
-32.8,1551189159.109375
-33.1,1551189159.125
-31.41,1551189159.140625
-27.81,1551189159.15625
-22.75,1551189159.171875
-17.01,1551189159.1875
-11.43,1551189159.203125
-6.69,1551189159.21875
-3.09,1551189159.234375
-0.58,1551189159.25
1.22,1551189159.265625
2.8,1551189159.28125
4.63,1551189159.296875
6.9,1551189159.3125
9.59,1551189159.328125
12.38,1551189159.34375
14.89,1551189159.359375
16.77,1551189159.375
17.9,1551189159.390625
18.38,1551189159.40625
18.47,1551189159.421875
18.52,1551189159.4375
18.74,1551189159.453125
19.22,1551189159.46875
19.93,1551189159.484375
20.78,1551189159.5
21.7,1551189159.515625
22.62,1551189159.53125
23.44,1551189159.546875
23.99,1551189159.5625
24.05,1551189159.578125
23.48,1551189159.59375
22.27,1551189159.609375
20.58,1551189159.625
18.74,1551189159.640625
17.01,1551189159.65625
15.56,1551189159.671875
14.36,1551189159.6875
13.26,1551189159.703125
12.11,1551189159.71875
10.83,1551189159.734375
9.49,1551189159.75
8.19,1551189159.765625
7.05,1551189159.78125
6.05,1551189159.796875
5.1,1551189159.8125
4.01,1551189159.828125
2.65,1551189159.84375
0.94,1551189159.859375
-1.08,1551189159.875
-3.32,1551189159.890625
-5.63,1551189159.90625
-7.87,1551189159.921875
-9.93,1551189159.9375
-11.77,1551189159.953125
-13.39,1551189159.96875
-14.93,1551189159.984375
-16.61,1551189160.0
-18.68,1551189160.015625
-21.34,1551189160.03125
-24.63,1551189160.046875
-28.29,1551189160.0625
-31.78,1551189160.078125
-34.35,1551189160.09375
-35.32,1551189160.109375
-34.31,1551189160.125
-31.4,1551189160.140625
-27.19,1551189160.15625
-22.51,1551189160.171875
-18.24,1551189160.1875
-14.94,1551189160.203125
-12.72,1551189160.21875
-11.33,1551189160.234375
-10.28,1551189160.25
-9.15,1551189160.265625
-7.69,1551189160.28125
-5.94,1551189160.296875
-4.1,1551189160.3125
-2.46,1551189160.328125
-1.21,1551189160.34375
-0.42,1551189160.359375
-0.02,1551189160.375
0.19,1551189160.390625
0.43,1551189160.40625
0.87,1551189160.421875
1.59,1551189160.4375
2.55,1551189160.453125
3.63,1551189160.46875
4.66,1551189160.484375
5.52,1551189160.5
6.17,1551189160.515625
6.66,1551189160.53125
7.03,1551189160.546875
7.28,1551189160.5625
7.32,1551189160.578125
7.07,1551189160.59375
6.52,1551189160.609375
5.78,1551189160.625
5.09,1551189160.640625
4.63,1551189160.65625
4.47,1551189160.671875
4.49,1551189160.6875
4.51,1551189160.703125
4.32,1551189160.71875
3.85,1551189160.734375
3.18,1551189160.75
2.42,1551189160.765625
1.64,1551189160.78125
0.86,1551189160.796875
0.02,1551189160.8125
-0.97,1551189160.828125
-2.1,1551189160.84375
-3.34,1551189160.859375
-4.68,1551189160.875
-6.17,1551189160.890625
-7.93,1551189160.90625
-10.08,1551189160.921875
-12.77,1551189160.9375
-15.98,1551189160.953125
-19.54,1551189160.96875
-23.06,1551189160.984375
-25.99,1551189161.0
-27.78,1551189161.015625
-27.99,1551189161.03125
-26.47,1551189161.046875
-23.4,1551189161.0625
-19.21,1551189161.078125
-14.47,1551189161.09375
-9.75,1551189161.109375
-5.48,1551189161.125
-1.94,1551189161.140625
0.81,1551189161.15625
2.84,1551189161.171875
4.41,1551189161.1875
5.86,1551189161.203125
7.48,1551189161.21875
9.44,1551189161.234375
11.64,1551189161.25
13.8,1551189161.265625
15.55,1551189161.28125
16.65,1551189161.296875
17.09,1551189161.3125
17.05,1551189161.328125
16.86,1551189161.34375
16.78,1551189161.359375
16.89,1551189161.375
17.14,1551189161.390625
17.37,1551189161.40625
17.54,1551189161.421875
17.63,1551189161.4375
17.71,1551189161.453125
17.8,1551189161.46875
17.76,1551189161.484375
17.43,1551189161.5
16.64,1551189161.515625
15.39,1551189161.53125
13.85,1551189161.546875
12.33,1551189161.5625
11.1,1551189161.578125
10.27,1551189161.59375
9.71,1551189161.609375
9.12,1551189161.625
8.25,1551189161.640625
7.01,1551189161.65625
5.53,1551189161.671875
4.07,1551189161.6875
2.86,1551189161.703125
1.97,1551189161.71875
1.24,1551189161.734375
0.44,1551189161.75
-0.63,1551189161.765625
-2.01,1551189161.78125
-3.6,1551189161.796875
-5.22,1551189161.8125
-6.76,1551189161.828125
-8.2,1551189161.84375
-9.64,1551189161.859375
-11.24,1551189161.875
-13.17,1551189161.890625
-15.56,1551189161.90625
-18.45,1551189161.921875
-21.74,1551189161.9375
-25.13,1551189161.953125
-28.13,1551189161.96875
-30.08,1551189161.984375
-30.43,1551189162.0
-28.82,1551189162.015625
-25.29,1551189162.03125
-20.26,1551189162.046875
-14.47,1551189162.0625
-8.75,1551189162.078125
-3.78,1551189162.09375
0.08,1551189162.109375
2.85,1551189162.125
4.86,1551189162.140625
6.6,1551189162.15625
8.42,1551189162.171875
10.41,1551189162.1875
12.39,1551189162.203125
14.07,1551189162.21875
15.18,1551189162.234375
15.67,1551189162.25
15.69,1551189162.265625
15.48,1551189162.28125
15.28,1551189162.296875
15.16,1551189162.3125
15.13,1551189162.328125
15.12,1551189162.34375
15.13,1551189162.359375
15.18,1551189162.375
15.28,1551189162.390625
15.43,1551189162.40625
15.52,1551189162.421875
15.43,1551189162.4375
15.03,1551189162.453125
14.32,1551189162.46875
13.34,1551189162.484375
12.24,1551189162.5
11.12,1551189162.515625
10.03,1551189162.53125
8.9,1551189162.546875
7.61,1551189162.5625
6.05,1551189162.578125
4.21,1551189162.59375
2.24,1551189162.609375
0.41,1551189162.625
-1.06,1551189162.640625
-2.1,1551189162.65625
-2.85,1551189162.671875
-3.58,1551189162.6875
-4.54,1551189162.703125
-5.84,1551189162.71875
-7.41,1551189162.734375
-9.07,1551189162.75
-10.67,1551189162.765625
-12.19,1551189162.78125
-13.72,1551189162.796875
-15.44,1551189162.8125
-17.52,1551189162.828125
-20.0,1551189162.84375
-22.82,1551189162.859375
-25.77,1551189162.875
-28.51,1551189162.890625
-30.59,1551189162.90625
-31.48,1551189162.921875
-30.73,1551189162.9375
-28.07,1551189162.953125
-23.6,1551189162.96875
-17.83,1551189162.984375
-11.58,1551189163.0
-5.75,1551189163.015625
-1.06,1551189163.03125
2.16,1551189163.046875
4.02,1551189163.0625
4.9,1551189163.078125
5.28,1551189163.09375
5.52,1551189163.109375
5.79,1551189163.125
6.02,1551189163.140625
6.11,1551189163.15625
5.96,1551189163.171875
5.54,1551189163.1875
4.95,1551189163.203125
4.34,1551189163.21875
3.86,1551189163.234375
3.62,1551189163.25
3.66,1551189163.265625
3.9,1551189163.28125
4.22,1551189163.296875
4.5,1551189163.3125
4.74,1551189163.328125
4.95,1551189163.34375
5.21,1551189163.359375
5.5,1551189163.375
5.7,1551189163.390625
5.6,1551189163.40625
5.03,1551189163.421875
3.99,1551189163.4375
2.68,1551189163.453125
1.5,1551189163.46875
0.76,1551189163.484375
0.57,1551189163.5
0.79,1551189163.515625
1.07,1551189163.53125
1.04,1551189163.546875
0.5,1551189163.5625
-0.56,1551189163.578125
-2.0,1551189163.59375
-3.63,1551189163.609375
-5.33,1551189163.625
-7.01,1551189163.640625
-8.59,1551189163.65625
-10.04,1551189163.671875
-11.31,1551189163.6875
-12.44,1551189163.703125
-13.58,1551189163.71875
-14.98,1551189163.734375
-16.95,1551189163.75
-19.64,1551189163.765625
-23.01,1551189163.78125
-26.67,1551189163.796875
-30.01,1551189163.8125
-32.26,1551189163.828125
-32.74,1551189163.84375
-31.06,1551189163.859375
-27.22,1551189163.875
-21.73,1551189163.890625
-15.4,1551189163.90625
-9.17,1551189163.921875
-3.82,1551189163.9375
0.26,1551189163.953125
3.09,1551189163.96875
5.02,1551189163.984375
6.54,1551189164.0
8.08,1551189164.015625
9.85,1551189164.03125
11.86,1551189164.046875
13.92,1551189164.0625
15.78,1551189164.078125
17.29,1551189164.09375
18.35,1551189164.109375
19.07,1551189164.125
19.57,1551189164.140625
20.02,1551189164.15625
20.5,1551189164.171875
21.0,1551189164.1875
21.5,1551189164.203125
22.0,1551189164.21875
22.54,1551189164.234375
23.16,1551189164.25
23.82,1551189164.265625
24.37,1551189164.28125
24.59,1551189164.296875
24.27,1551189164.3125
23.36,1551189164.328125
22.0,1551189164.34375
20.42,1551189164.359375
18.84,1551189164.375
17.37,1551189164.390625
15.98,1551189164.40625
14.61,1551189164.421875
13.21,1551189164.4375
11.82,1551189164.453125
10.58,1551189164.46875
9.58,1551189164.484375
8.82,1551189164.5
8.2,1551189164.515625
7.5,1551189164.53125
6.49,1551189164.546875
4.97,1551189164.5625
2.92,1551189164.578125
0.45,1551189164.59375
-2.23,1551189164.609375
-4.84,1551189164.625
-7.2,1551189164.640625
-9.26,1551189164.65625
-11.11,1551189164.671875
-12.94,1551189164.6875
-14.99,1551189164.703125
-17.43,1551189164.71875
-20.33,1551189164.734375
-23.63,1551189164.75
-27.04,1551189164.765625
-30.11,1551189164.78125
-32.23,1551189164.796875
-32.86,1551189164.8125
-31.65,1551189164.828125
-28.65,1551189164.84375
-24.27,1551189164.859375
-19.18,1551189164.875
-14.13,1551189164.890625
-9.67,1551189164.90625
-6.13,1551189164.921875
-3.48,1551189164.9375
-1.52,1551189164.953125
0.06,1551189164.96875
1.56,1551189164.984375
3.17,1551189165.0
4.91,1551189165.015625
6.63,1551189165.03125
8.06,1551189165.046875
8.94,1551189165.0625
9.14,1551189165.078125
8.78,1551189165.09375
8.15,1551189165.109375
7.66,1551189165.125
7.64,1551189165.140625
8.17,1551189165.15625
9.07,1551189165.171875
9.99,1551189165.1875
10.55,1551189165.203125
10.52,1551189165.21875
9.91,1551189165.234375
8.92,1551189165.25
7.79,1551189165.265625
6.68,1551189165.28125
5.61,1551189165.296875
4.48,1551189165.3125
3.2,1551189165.328125
1.83,1551189165.34375
0.52,1551189165.359375
-0.56,1551189165.375
-1.31,1551189165.390625
-1.82,1551189165.40625
-2.29,1551189165.421875
-2.93,1551189165.4375
-3.81,1551189165.453125
-4.85,1551189165.46875
-5.9,1551189165.484375
-6.88,1551189165.5
-7.84,1551189165.515625
-8.91,1551189165.53125
-10.2,1551189165.546875
-11.72,1551189165.5625
-13.31,1551189165.578125
-14.82,1551189165.59375
-16.21,1551189165.609375
-17.62,1551189165.625
-19.3,1551189165.640625
-21.48,1551189165.65625
-24.16,1551189165.671875
-26.99,1551189165.6875
-29.32,1551189165.703125
-30.38,1551189165.71875
-29.58,1551189165.734375
-26.74,1551189165.75
-22.15,1551189165.765625
-16.53,1551189165.78125
-10.72,1551189165.796875
-5.41,1551189165.8125
-0.99,1551189165.828125
2.49,1551189165.84375
5.23,1551189165.859375
7.44,1551189165.875
9.34,1551189165.890625
11.03,1551189165.90625
12.53,1551189165.921875
13.81,1551189165.9375
14.81,1551189165.953125
15.5,1551189165.96875
15.92,1551189165.984375
16.19,1551189166.0
16.53,1551189166.015625
17.12,1551189166.03125
18.06,1551189166.046875
19.25,1551189166.0625
20.44,1551189166.078125
21.36,1551189166.09375
21.82,1551189166.109375
21.83,1551189166.125
21.53,1551189166.140625
21.06,1551189166.15625
20.5,1551189166.171875
19.78,1551189166.1875
18.79,1551189166.203125
17.48,1551189166.21875
15.9,1551189166.234375
14.23,1551189166.25
12.66,1551189166.265625
11.35,1551189166.28125
10.28,1551189166.296875
9.34,1551189166.3125
8.38,1551189166.328125
7.26,1551189166.34375
5.9,1551189166.359375
4.3,1551189166.375
2.45,1551189166.390625
0.39,1551189166.40625
-1.82,1551189166.421875
-4.07,1551189166.4375
-6.25,1551189166.453125
-8.26,1551189166.46875
-10.1,1551189166.484375
-11.88,1551189166.5
-13.75,1551189166.515625
-15.88,1551189166.53125
-18.4,1551189166.546875
-21.36,1551189166.5625
-24.71,1551189166.578125
-28.26,1551189166.59375
-31.57,1551189166.609375
-33.98,1551189166.625
-34.72,1551189166.640625
-33.2,1551189166.65625
-29.29,1551189166.671875
-23.51,1551189166.6875
-16.81,1551189166.703125
-10.33,1551189166.71875
-4.92,1551189166.734375
-0.94,1551189166.75
1.8,1551189166.765625
3.76,1551189166.78125
5.46,1551189166.796875
7.23,1551189166.8125
9.22,1551189166.828125
11.36,1551189166.84375
13.48,1551189166.859375
15.39,1551189166.875
16.91,1551189166.890625
17.93,1551189166.90625
18.51,1551189166.921875
18.78,1551189166.9375
18.92,1551189166.953125
19.06,1551189166.96875
19.23,1551189166.984375
19.41,1551189167.0
19.64,1551189167.015625
19.96,1551189167.03125
20.44,1551189167.046875
21.04,1551189167.0625
21.59,1551189167.078125
21.83,1551189167.09375
21.54,1551189167.109375
20.68,1551189167.125
19.4,1551189167.140625
17.96,1551189167.15625
16.59,1551189167.171875
15.39,1551189167.1875
14.3,1551189167.203125
13.15,1551189167.21875
11.8,1551189167.234375
10.2,1551189167.25
8.41,1551189167.265625
6.5,1551189167.28125
4.5,1551189167.296875
2.39,1551189167.3125
0.14,1551189167.328125
-2.28,1551189167.34375
-4.82,1551189167.359375
-7.33,1551189167.375
-9.65,1551189167.390625
-11.71,1551189167.40625
-13.57,1551189167.421875
-15.45,1551189167.4375
-17.66,1551189167.453125
-20.42,1551189167.46875
-23.82,1551189167.484375
-27.74,1551189167.5
-31.88,1551189167.515625
-35.78,1551189167.53125
-38.82,1551189167.546875
-40.37,1551189167.5625
-39.92,1551189167.578125
-37.27,1551189167.59375
-32.69,1551189167.609375
-26.9,1551189167.625
-20.89,1551189167.640625
-15.58,1551189167.65625
-11.48,1551189167.671875
-8.65,1551189167.6875
-6.69,1551189167.703125
-5.11,1551189167.71875
-3.53,1551189167.734375
-1.81,1551189167.75
-0.02,1551189167.765625
1.68,1551189167.78125
3.18,1551189167.796875
4.44,1551189167.8125
5.52,1551189167.828125
6.47,1551189167.84375
7.36,1551189167.859375
8.23,1551189167.875
9.07,1551189167.890625
9.89,1551189167.90625
10.67,1551189167.921875
11.38,1551189167.9375
12.01,1551189167.953125
12.54,1551189167.96875
12.96,1551189167.984375
13.24,1551189168.0
13.38,1551189168.015625
13.35,1551189168.03125
13.11,1551189168.046875
12.64,1551189168.0625
11.95,1551189168.078125
11.07,1551189168.09375
10.06,1551189168.109375
9.02,1551189168.125
8.08,1551189168.140625
7.34,1551189168.15625
6.78,1551189168.171875
6.27,1551189168.1875
5.55,1551189168.203125
4.43,1551189168.21875
2.78,1551189168.234375
0.71,1551189168.25
-1.53,1551189168.265625
-3.69,1551189168.28125
-5.62,1551189168.296875
-7.37,1551189168.3125
-9.06,1551189168.328125
-10.89,1551189168.34375
-13.02,1551189168.359375
-15.53,1551189168.375
-18.46,1551189168.390625
-21.77,1551189168.40625
-25.25,1551189168.421875
-28.45,1551189168.4375
-30.74,1551189168.453125
-31.44,1551189168.46875
-30.1,1551189168.484375
-26.73,1551189168.5
-21.79,1551189168.515625
-16.04,1551189168.53125
-10.27,1551189168.546875
-5.01,1551189168.5625
-0.5,1551189168.578125
3.29,1551189168.59375
6.52,1551189168.609375
9.33,1551189168.625
11.81,1551189168.640625
13.99,1551189168.65625
15.85,1551189168.671875
17.37,1551189168.6875
18.51,1551189168.703125
19.25,1551189168.71875
19.59,1551189168.734375
19.6,1551189168.75
19.43,1551189168.765625
19.25,1551189168.78125
19.21,1551189168.796875
19.38,1551189168.8125
19.72,1551189168.828125
20.14,1551189168.84375
20.48,1551189168.859375
20.65,1551189168.875
20.58,1551189168.890625
20.24,1551189168.90625
19.62,1551189168.921875
18.71,1551189168.9375
17.51,1551189168.953125
16.03,1551189168.96875
14.29,1551189168.984375
12.39,1551189169.0
10.47,1551189169.015625
8.72,1551189169.03125
7.32,1551189169.046875
6.35,1551189169.0625
5.74,1551189169.078125
5.28,1551189169.09375
4.66,1551189169.109375
3.63,1551189169.125
2.08,1551189169.140625
0.14,1551189169.15625
-1.93,1551189169.171875
-3.83,1551189169.1875
-5.34,1551189169.203125
-6.48,1551189169.21875
-7.41,1551189169.234375
-8.37,1551189169.25
-9.63,1551189169.265625
-11.35,1551189169.28125
-13.64,1551189169.296875
-16.47,1551189169.3125
-19.67,1551189169.328125
-22.88,1551189169.34375
-25.53,1551189169.359375
-26.92,1551189169.375
-26.47,1551189169.390625
-23.92,1551189169.40625
-19.49,1551189169.421875
-13.92,1551189169.4375
-8.17,1551189169.453125
-3.15,1551189169.46875
0.64,1551189169.484375
3.22,1551189169.5
5.03,1551189169.515625
6.68,1551189169.53125
8.64,1551189169.546875
11.02,1551189169.5625
13.6,1551189169.578125
15.98,1551189169.59375
17.77,1551189169.609375
18.81,1551189169.625
19.17,1551189169.640625
19.11,1551189169.65625
18.93,1551189169.671875
18.91,1551189169.6875
19.16,1551189169.703125
19.66,1551189169.71875
20.28,1551189169.734375
20.87,1551189169.75
21.25,1551189169.765625
21.32,1551189169.78125
21.04,1551189169.796875
20.46,1551189169.8125
19.66,1551189169.828125
18.71,1551189169.84375
17.66,1551189169.859375
16.48,1551189169.875
15.15,1551189169.890625
13.65,1551189169.90625
12.04,1551189169.921875
10.42,1551189169.9375
8.86,1551189169.953125
7.4,1551189169.96875
5.99,1551189169.984375
4.54,1551189170.0
2.95,1551189170.015625
1.22,1551189170.03125
-0.62,1551189170.046875
-2.51,1551189170.0625
-4.41,1551189170.078125
-6.36,1551189170.09375
-8.43,1551189170.109375
-10.7,1551189170.125
-13.16,1551189170.140625
-15.76,1551189170.15625
-18.38,1551189170.171875
-20.94,1551189170.1875
-23.45,1551189170.203125
-26.04,1551189170.21875
-28.86,1551189170.234375
-32.03,1551189170.25
-35.37,1551189170.265625
-38.43,1551189170.28125
-40.53,1551189170.296875
-40.98,1551189170.3125
-39.42,1551189170.328125
-36.0,1551189170.34375
-31.32,1551189170.359375
-26.18,1551189170.375
-21.26,1551189170.390625
-16.88,1551189170.40625
-13.01,1551189170.421875
-9.44,1551189170.4375
-6.02,1551189170.453125
-2.81,1551189170.46875
0.02,1551189170.484375
2.25,1551189170.5
3.82,1551189170.515625
4.87,1551189170.53125
5.66,1551189170.546875
6.48,1551189170.5625
7.6,1551189170.578125
9.17,1551189170.59375
11.27,1551189170.609375
13.83,1551189170.625
16.61,1551189170.640625
19.27,1551189170.65625
21.38,1551189170.671875
22.68,1551189170.6875
23.06,1551189170.703125
22.66,1551189170.71875
21.75,1551189170.734375
20.58,1551189170.75
19.35,1551189170.765625
18.12,1551189170.78125
16.88,1551189170.796875
15.59,1551189170.8125
14.22,1551189170.828125
12.79,1551189170.84375
11.35,1551189170.859375
9.98,1551189170.875
8.73,1551189170.890625
7.58,1551189170.90625
6.43,1551189170.921875
5.16,1551189170.9375
3.68,1551189170.953125
2.0,1551189170.96875
0.21,1551189170.984375
-1.58,1551189171.0
-3.3,1551189171.015625
-4.98,1551189171.03125
-6.65,1551189171.046875
-8.4,1551189171.0625
-10.24,1551189171.078125
-12.22,1551189171.09375
-14.43,1551189171.109375
-17.0,1551189171.125
-20.11,1551189171.140625
-23.74,1551189171.15625
-27.7,1551189171.171875
-31.46,1551189171.1875
-34.36,1551189171.203125
-35.74,1551189171.21875
-35.18,1551189171.234375
-32.6,1551189171.25
-28.33,1551189171.265625
-23.0,1551189171.28125
-17.33,1551189171.296875
-11.99,1551189171.3125
-7.36,1551189171.328125
-3.54,1551189171.34375
-0.39,1551189171.359375
2.35,1551189171.375
4.9,1551189171.390625
7.39,1551189171.40625
9.8,1551189171.421875
12.02,1551189171.4375
13.9,1551189171.453125
15.35,1551189171.46875
16.38,1551189171.484375
17.05,1551189171.5
17.52,1551189171.515625
17.93,1551189171.53125
18.34,1551189171.546875
18.77,1551189171.5625
19.15,1551189171.578125
19.4,1551189171.59375
19.51,1551189171.609375
19.56,1551189171.625
19.64,1551189171.640625
19.75,1551189171.65625
19.81,1551189171.671875
19.64,1551189171.6875
19.13,1551189171.703125
18.31,1551189171.71875
17.33,1551189171.734375
16.47,1551189171.75
15.88,1551189171.765625
15.56,1551189171.78125
15.31,1551189171.796875
14.8,1551189171.8125
13.85,1551189171.828125
12.43,1551189171.84375
10.75,1551189171.859375
9.1,1551189171.875
7.74,1551189171.890625
6.75,1551189171.90625
6.01,1551189171.921875
5.29,1551189171.9375
4.33,1551189171.953125
2.97,1551189171.96875
1.21,1551189171.984375
-0.82,1551189172.0
-2.88,1551189172.015625
-4.71,1551189172.03125
-6.16,1551189172.046875
-7.2,1551189172.0625
-7.99,1551189172.078125
-8.86,1551189172.09375
-10.25,1551189172.109375
-12.54,1551189172.125
-15.84,1551189172.140625
-19.92,1551189172.15625
-24.12,1551189172.171875
-27.49,1551189172.1875
-29.15,1551189172.203125
-28.57,1551189172.21875
-25.82,1551189172.234375
-21.62,1551189172.25
-17.01,1551189172.265625
-12.98,1551189172.28125
-10.13,1551189172.296875
-8.49,1551189172.3125
-7.67,1551189172.328125
-7.12,1551189172.34375
-6.4,1551189172.359375
-5.35,1551189172.375
-4.01,1551189172.390625
-2.52,1551189172.40625
-1.01,1551189172.421875
0.5,1551189172.4375
1.97,1551189172.453125
3.35,1551189172.46875
4.56,1551189172.484375
5.54,1551189172.5
6.36,1551189172.515625
7.19,1551189172.53125
8.26,1551189172.546875
9.73,1551189172.5625
11.54,1551189172.578125
13.44,1551189172.59375
15.07,1551189172.609375
16.12,1551189172.625
16.4,1551189172.640625
15.98,1551189172.65625
15.08,1551189172.671875
13.99,1551189172.6875
12.96,1551189172.703125
12.14,1551189172.71875
11.54,1551189172.734375
11.05,1551189172.75
10.49,1551189172.765625
9.66,1551189172.78125
8.37,1551189172.796875
6.55,1551189172.8125
4.32,1551189172.828125
1.94,1551189172.84375
-0.23,1551189172.859375
-1.89,1551189172.875
-3.0,1551189172.890625
-3.71,1551189172.90625
-4.37,1551189172.921875
-5.29,1551189172.9375
-6.61,1551189172.953125
-8.31,1551189172.96875
-10.24,1551189172.984375
-12.29,1551189173.0
-14.41,1551189173.015625
-16.61,1551189173.03125
-18.92,1551189173.046875
-21.24,1551189173.0625
-23.46,1551189173.078125
-25.47,1551189173.09375
-27.27,1551189173.109375
-28.86,1551189173.125
-30.17,1551189173.140625
-30.93,1551189173.15625
-30.73,1551189173.171875
-29.2,1551189173.1875
-26.25,1551189173.203125
-22.17,1551189173.21875
-17.61,1551189173.234375
-13.31,1551189173.25
-9.77,1551189173.265625
-7.15,1551189173.28125
-5.23,1551189173.296875
-3.65,1551189173.3125
-2.17,1551189173.328125
-0.82,1551189173.34375
0.14,1551189173.359375
0.42,1551189173.375
-0.01,1551189173.390625
-0.81,1551189173.40625
-1.4,1551189173.421875
-1.18,1551189173.4375
0.17,1551189173.453125
2.45,1551189173.46875
5.15,1551189173.484375
7.57,1551189173.5
9.25,1551189173.515625
10.1,1551189173.53125
10.35,1551189173.546875
10.38,1551189173.5625
10.5,1551189173.578125
10.8,1551189173.59375
11.19,1551189173.609375
11.48,1551189173.625
11.49,1551189173.640625
11.13,1551189173.65625
10.4,1551189173.671875
9.41,1551189173.6875
8.3,1551189173.703125
7.26,1551189173.71875
6.42,1551189173.734375
5.78,1551189173.75
5.28,1551189173.765625
4.76,1551189173.78125
4.08,1551189173.796875
3.2,1551189173.8125
2.16,1551189173.828125
1.04,1551189173.84375
-0.1,1551189173.859375
-1.25,1551189173.875
-2.5,1551189173.890625
-3.93,1551189173.90625
-5.62,1551189173.921875
-7.65,1551189173.9375
-10.06,1551189173.953125
-12.93,1551189173.96875
-16.37,1551189173.984375
-20.39,1551189174.0
-24.83,1551189174.015625
-29.27,1551189174.03125
-33.07,1551189174.046875
-35.46,1551189174.0625
-35.81,1551189174.078125
-33.87,1551189174.09375
-29.82,1551189174.109375
-24.31,1551189174.125
-18.23,1551189174.140625
-12.44,1551189174.15625
-7.52,1551189174.171875
-3.67,1551189174.1875
-0.69,1551189174.203125
1.82,1551189174.21875
4.23,1551189174.234375
6.75,1551189174.25
9.37,1551189174.265625
11.91,1551189174.28125
14.17,1551189174.296875
15.97,1551189174.3125
17.31,1551189174.328125
18.2,1551189174.34375
18.76,1551189174.359375
19.07,1551189174.375
19.26,1551189174.390625
19.47,1551189174.40625
19.87,1551189174.421875
20.56,1551189174.4375
21.51,1551189174.453125
22.52,1551189174.46875
23.31,1551189174.484375
23.62,1551189174.5
23.35,1551189174.515625
22.57,1551189174.53125
21.45,1551189174.546875
20.13,1551189174.5625
18.72,1551189174.578125
17.23,1551189174.59375
15.68,1551189174.609375
14.07,1551189174.625
12.46,1551189174.640625
10.87,1551189174.65625
9.27,1551189174.671875
7.6,1551189174.6875
5.75,1551189174.703125
3.7,1551189174.71875
1.49,1551189174.734375
-0.75,1551189174.75
-2.89,1551189174.765625
-4.81,1551189174.78125
-6.53,1551189174.796875
-8.15,1551189174.8125
-9.87,1551189174.828125
-11.9,1551189174.84375
-14.35,1551189174.859375
-17.2,1551189174.875
-20.27,1551189174.890625
-23.35,1551189174.90625
-26.34,1551189174.921875
-29.3,1551189174.9375
-32.35,1551189174.953125
-35.48,1551189174.96875
-38.33,1551189174.984375
-40.23,1551189175.0
-40.41,1551189175.015625
-38.37,1551189175.03125
-34.15,1551189175.046875
-28.43,1551189175.0625
-22.25,1551189175.078125
-16.6,1551189175.09375
-12.1,1551189175.109375
-8.85,1551189175.125
-6.53,1551189175.140625
-4.66,1551189175.15625
-2.83,1551189175.171875
-0.86,1551189175.1875
1.24,1551189175.203125
3.33,1551189175.21875
5.3,1551189175.234375
7.11,1551189175.25
8.81,1551189175.265625
10.45,1551189175.28125
12.07,1551189175.296875
13.65,1551189175.3125
15.16,1551189175.328125
16.57,1551189175.34375
17.88,1551189175.359375
19.11,1551189175.375
20.25,1551189175.390625
21.23,1551189175.40625
21.99,1551189175.421875
22.41,1551189175.4375
22.45,1551189175.453125
22.14,1551189175.46875
21.53,1551189175.484375
20.7,1551189175.5
19.72,1551189175.515625
18.6,1551189175.53125
17.41,1551189175.546875
16.16,1551189175.5625
14.88,1551189175.578125
13.51,1551189175.59375
11.93,1551189175.609375
10.07,1551189175.625
7.92,1551189175.640625
5.63,1551189175.65625
3.43,1551189175.671875
1.51,1551189175.6875
-0.11,1551189175.703125
-1.56,1551189175.71875
-3.02,1551189175.734375
-4.61,1551189175.75
-6.34,1551189175.765625
-8.16,1551189175.78125
-10.1,1551189175.796875
-12.32,1551189175.8125
-15.1,1551189175.828125
-18.66,1551189175.84375
-23.06,1551189175.859375
-28.05,1551189175.875
-33.04,1551189175.890625
-37.29,1551189175.90625
-40.02,1551189175.921875
-40.66,1551189175.9375
-38.94,1551189175.953125
-35.0,1551189175.96875
-29.33,1551189175.984375
-22.73,1551189176.0
-15.99,1551189176.015625
-9.79,1551189176.03125
-4.5,1551189176.046875
-0.17,1551189176.0625
3.4,1551189176.078125
6.5,1551189176.09375
9.38,1551189176.109375
12.16,1551189176.125
14.8,1551189176.140625
17.15,1551189176.15625
19.03,1551189176.171875
20.35,1551189176.1875
21.18,1551189176.203125
21.75,1551189176.21875
22.26,1551189176.234375
22.89,1551189176.25
23.63,1551189176.265625
24.31,1551189176.28125
24.82,1551189176.296875
25.16,1551189176.3125
25.43,1551189176.328125
25.81,1551189176.34375
26.36,1551189176.359375
26.9,1551189176.375
27.13,1551189176.390625
26.77,1551189176.40625
25.74,1551189176.421875
24.26,1551189176.4375
22.72,1551189176.453125
21.43,1551189176.46875
20.53,1551189176.484375
19.87,1551189176.5
19.14,1551189176.515625
18.12,1551189176.53125
16.75,1551189176.546875
15.2,1551189176.5625
13.69,1551189176.578125
12.36,1551189176.59375
11.23,1551189176.609375
10.19,1551189176.625
9.02,1551189176.640625
7.54,1551189176.65625
5.6,1551189176.671875
3.14,1551189176.6875
0.2,1551189176.703125
-3.09,1551189176.71875
-6.52,1551189176.734375
-9.88,1551189176.75
-13.01,1551189176.765625
-15.91,1551189176.78125
-18.72,1551189176.796875
-21.69,1551189176.8125
-25.11,1551189176.828125
-29.15,1551189176.84375
-33.65,1551189176.859375
-38.19,1551189176.875
-42.05,1551189176.890625
-44.41,1551189176.90625
-44.63,1551189176.921875
-42.44,1551189176.9375
-38.08,1551189176.953125
-32.21,1551189176.96875
-25.77,1551189176.984375
-19.6,1551189177.0
-14.31,1551189177.015625
-10.12,1551189177.03125
-6.93,1551189177.046875
-4.49,1551189177.0625
-2.53,1551189177.078125
-0.91,1551189177.09375
0.39,1551189177.109375
1.34,1551189177.125
1.96,1551189177.140625
2.38,1551189177.15625
2.83,1551189177.171875
3.53,1551189177.1875
4.61,1551189177.203125
6.0,1551189177.21875
7.49,1551189177.234375
8.79,1551189177.25
9.7,1551189177.265625
10.19,1551189177.28125
10.38,1551189177.296875
10.5,1551189177.3125
10.73,1551189177.328125
11.14,1551189177.34375
11.62,1551189177.359375
11.95,1551189177.375
11.87,1551189177.390625
11.23,1551189177.40625
10.02,1551189177.421875
8.4,1551189177.4375
6.66,1551189177.453125
5.09,1551189177.46875
3.86,1551189177.484375
2.96,1551189177.5
2.2,1551189177.515625
1.3,1551189177.53125
0.09,1551189177.546875
-1.44,1551189177.5625
-3.15,1551189177.578125
-4.83,1551189177.59375
-6.32,1551189177.609375
-7.63,1551189177.625
-8.87,1551189177.640625
-10.19,1551189177.65625
-11.64,1551189177.671875
-13.19,1551189177.6875
-14.75,1551189177.703125
-16.32,1551189177.71875
-18.11,1551189177.734375
-20.39,1551189177.75
-23.35,1551189177.765625
-26.91,1551189177.78125
-30.55,1551189177.796875
-33.39,1551189177.8125
-34.53,1551189177.828125
-33.3,1551189177.84375
-29.63,1551189177.859375
-24.02,1551189177.875
-17.37,1551189177.890625
-10.6,1551189177.90625
-4.39,1551189177.921875
0.95,1551189177.9375
5.41,1551189177.953125
9.12,1551189177.96875
12.24,1551189177.984375
14.9,1551189178.0
17.19,1551189178.015625
19.18,1551189178.03125
20.94,1551189178.046875
22.46,1551189178.0625
23.75,1551189178.078125
24.79,1551189178.09375
25.66,1551189178.109375
26.41,1551189178.125
27.14,1551189178.140625
27.82,1551189178.15625
28.32,1551189178.171875
28.53,1551189178.1875
28.38,1551189178.203125
28.01,1551189178.21875
27.57,1551189178.234375
27.19,1551189178.25
26.81,1551189178.265625
26.26,1551189178.28125
25.29,1551189178.296875
23.83,1551189178.3125
22.0,1551189178.328125
20.04,1551189178.34375
18.24,1551189178.359375
16.68,1551189178.375
15.3,1551189178.390625
13.94,1551189178.40625
12.46,1551189178.421875
10.87,1551189178.4375
9.28,1551189178.453125
7.81,1551189178.46875
6.46,1551189178.484375
5.09,1551189178.5
3.42,1551189178.515625
1.29,1551189178.53125
-1.28,1551189178.546875
-4.01,1551189178.5625
-6.52,1551189178.578125
-8.6,1551189178.59375
-10.27,1551189178.609375
-11.95,1551189178.625
-14.12,1551189178.640625
-17.16,1551189178.65625
-21.14,1551189178.671875
-25.74,1551189178.6875
-30.41,1551189178.703125
-34.56,1551189178.71875
-37.59,1551189178.734375
-39.05,1551189178.75
-38.59,1551189178.765625
-36.02,1551189178.78125
-31.41,1551189178.796875
-25.18,1551189178.8125
-18.07,1551189178.828125
-10.99,1551189178.84375
-4.75,1551189178.859375
0.17,1551189178.875
3.79,1551189178.890625
6.52,1551189178.90625
8.94,1551189178.921875
11.47,1551189178.9375
14.23,1551189178.953125
16.98,1551189178.96875
19.33,1551189178.984375
20.98,1551189179.0
21.89,1551189179.015625
22.27,1551189179.03125
22.43,1551189179.046875
22.64,1551189179.0625
22.98,1551189179.078125
23.37,1551189179.09375
23.69,1551189179.109375
23.89,1551189179.125
24.01,1551189179.140625
24.13,1551189179.15625
24.27,1551189179.171875
24.31,1551189179.1875
24.06,1551189179.203125
23.38,1551189179.21875
22.23,1551189179.234375
20.72,1551189179.25
19.09,1551189179.265625
17.57,1551189179.28125
16.28,1551189179.296875
15.16,1551189179.3125
13.99,1551189179.328125
12.54,1551189179.34375
10.7,1551189179.359375
8.52,1551189179.375
6.15,1551189179.390625
3.79,1551189179.40625
1.5,1551189179.421875
-0.76,1551189179.4375
-3.11,1551189179.453125
-5.64,1551189179.46875
-8.36,1551189179.484375
-11.18,1551189179.5
-13.97,1551189179.515625
-16.63,1551189179.53125
-19.11,1551189179.546875
-21.4,1551189179.5625
-23.53,1551189179.578125
-25.61,1551189179.59375
-27.87,1551189179.609375
-30.59,1551189179.625
-34.03,1551189179.640625
-38.25,1551189179.65625
-42.94,1551189179.671875
-47.4,1551189179.6875
-50.69,1551189179.703125
-51.84,1551189179.71875
-50.33,1551189179.734375
-46.21,1551189179.75
-40.13,1551189179.765625
-33.11,1551189179.78125
-26.17,1551189179.796875
-20.04,1551189179.8125
-15.01,1551189179.828125
-10.98,1551189179.84375
-7.67,1551189179.859375
-4.79,1551189179.875
-2.16,1551189179.890625
0.28,1551189179.90625
2.49,1551189179.921875
4.47,1551189179.9375
6.22,1551189179.953125
7.82,1551189179.96875
9.35,1551189179.984375
10.9,1551189180.0
12.55,1551189180.015625
14.34,1551189180.03125
16.23,1551189180.046875
18.12,1551189180.0625
