PPG GREEN,time
1915306.0,1551189102.195
1914575.0,1551189102.234
1913515.0,1551189102.274
1912373.0,1551189102.313
1911438.0,1551189102.352
1910549.0,1551189102.393
1908916.0,1551189102.513
1910028.0,1551189102.434
1909328.0,1551189102.473
1908531.0,1551189102.554
1908468.0,1551189102.582
1908255.0,1551189102.621
1908215.0,1551189102.663
1907915.0,1551189102.702
1907894.0,1551189102.742
1907881.0,1551189102.784
1908167.0,1551189102.822
1908215.0,1551189102.862
1908373.0,1551189102.903
1908702.0,1551189102.942
1908971.0,1551189102.983
1909499.0,1551189103.023
1909258.0,1551189103.062
1907939.0,1551189103.102
1906831.0,1551189103.144
1906439.0,1551189103.183
1905763.0,1551189103.222
1905583.0,1551189103.264
1905351.0,1551189103.303
1905447.0,1551189103.343
1905392.0,1551189103.384
1905264.0,1551189103.423
1905589.0,1551189103.463
1905938.0,1551189103.504
1906409.0,1551189103.543
1906741.0,1551189103.584
1907258.0,1551189103.624
1907991.0,1551189103.703
1908602.0,1551189103.744
1909355.0,1551189103.784
1907674.0,1551189103.663
1909863.0,1551189103.823
1910631.0,1551189103.864
1911205.0,1551189103.903
1911909.0,1551189103.943
1912557.0,1551189103.985
1912615.0,1551189104.024
1911860.0,1551189104.064
1910958.0,1551189104.225
1911042.0,1551189104.264
1911020.0,1551189104.185
1911042.0,1551189104.304
1911187.0,1551189104.144
1910887.0,1551189104.345
1911045.0,1551189104.385
1911359.0,1551189104.424
1911609.0,1551189104.465
1912092.0,1551189104.504
1912663.0,1551189104.544
1913248.0,1551189104.586
1914319.0,1551189104.665
1913774.0,1551189104.625
1911289.0,1551189104.105
1914615.0,1551189104.706
1915172.0,1551189104.745
1915341.0,1551189104.785
1915412.0,1551189104.826
1915997.0,1551189104.865
1916650.0,1551189104.946
1916156.0,1551189104.905
1915323.0,1551189105.025
1916191.0,1551189104.986
1914714.0,1551189105.066
1914361.0,1551189105.105
1913999.0,1551189105.145
1913494.0,1551189105.187
1912971.0,1551189105.266
1913265.0,1551189105.226
1912373.0,1551189105.346
1912700.0,1551189105.307
1912506.0,1551189105.386
1912905.0,1551189105.427
1913054.0,1551189105.466
1913286.0,1551189105.506
1913566.0,1551189105.547
1913956.0,1551189105.626
1913786.0,1551189105.587
1914653.0,1551189105.667
1914827.0,1551189105.706
1915126.0,1551189105.746
1915476.0,1551189105.788
1916533.0,1551189105.867
1917187.0,1551189105.947
1916211.0,1551189106.028
1916954.0,1551189105.908
1916061.0,1551189105.827
1916627.0,1551189105.988
1916145.0,1551189106.067
1916054.0,1551189106.107
1915999.0,1551189106.188
1916172.0,1551189106.268
1916160.0,1551189106.307
1916150.0,1551189106.39
1916456.0,1551189106.428
1916185.0,1551189106.348
1916232.0,1551189106.227
1915903.0,1551189106.148
1916647.0,1551189106.466
1917180.0,1551189106.547
1916853.0,1551189106.507
1917647.0,1551189106.628
1917318.0,1551189106.588
1918168.0,1551189106.667
1918575.0,1551189106.708
1919353.0,1551189106.749
1919946.0,1551189106.789
1920371.0,1551189106.828
1920063.0,1551189106.867
1919278.0,1551189106.907
1918752.0,1551189106.947
1918446.0,1551189107.027
1918823.0,1551189106.989
1918129.0,1551189107.109
1918234.0,1551189107.148
1918005.0,1551189107.189
1917788.0,1551189107.228
1917923.0,1551189107.267
1918158.0,1551189107.307
1918266.0,1551189107.068
1918574.0,1551189107.348
1918913.0,1551189107.388
1919709.0,1551189107.469
1919347.0,1551189107.428
1920214.0,1551189107.508
1920585.0,1551189107.549
1921178.0,1551189107.589
1921786.0,1551189107.627
1922563.0,1551189107.667
1923137.0,1551189107.709
1923682.0,1551189107.748
1924070.0,1551189107.787
1923597.0,1551189107.827
1923292.0,1551189107.906
1923352.0,1551189107.866
1923131.0,1551189107.948
1923019.0,1551189107.988
1922985.0,1551189108.027
1922870.0,1551189108.068
1923081.0,1551189108.107
1923047.0,1551189108.19
1922855.0,1551189108.148
1923322.0,1551189108.268
1923650.0,1551189108.31
1923153.0,1551189108.228
1923796.0,1551189108.349
1924997.0,1551189108.508
1925108.0,1551189108.549
1924151.0,1551189108.39
1925613.0,1551189108.589
1925893.0,1551189108.629
1926252.0,1551189108.67
1926677.0,1551189108.709
1926430.0,1551189108.749
1925646.0,1551189108.791
1925519.0,1551189108.828
1925005.0,1551189108.868
1924780.0,1551189108.909
1924548.0,1551189108.468
1924572.0,1551189108.948
1924402.0,1551189108.428
1924318.0,1551189109.03
1924589.0,1551189108.989
1924299.0,1551189109.069
1924188.0,1551189109.109
1924154.0,1551189109.191
1924557.0,1551189109.269
1924661.0,1551189109.308
1924299.0,1551189109.228
1924069.0,1551189109.151
1924652.0,1551189109.349
1925006.0,1551189109.391
1925055.0,1551189109.429
1925413.0,1551189109.47
1926025.0,1551189109.55
1925751.0,1551189109.511
1926927.0,1551189109.629
1926527.0,1551189109.589
1927314.0,1551189109.709
1926116.0,1551189109.75
1925241.0,1551189109.79
1924740.0,1551189109.83
1927368.0,1551189109.669
1924318.0,1551189109.871
1924007.0,1551189109.91
1923629.0,1551189109.95
1923319.0,1551189109.99
1922834.0,1551189110.029
1922418.0,1551189110.069
1922085.0,1551189110.11
1922115.0,1551189110.149
1921822.0,1551189110.27
1921965.0,1551189110.19
1921895.0,1551189110.231
1921612.0,1551189110.31
1921827.0,1551189110.352
1921756.0,1551189110.429
1921777.0,1551189110.389
1921729.0,1551189110.47
1921954.0,1551189110.509
1921582.0,1551189110.549
1920944.0,1551189110.591
1919665.0,1551189110.63
1919151.0,1551189110.67
1917891.0,1551189110.751
1918593.0,1551189110.711
1917502.0,1551189110.792
1917365.0,1551189110.83
1917031.0,1551189110.869
1916681.0,1551189110.91
1916559.0,1551189110.951
1916544.0,1551189110.991
1917346.0,1551189111.111
1916872.0,1551189111.03
1918053.0,1551189111.193
1918493.0,1551189111.229
1918682.0,1551189111.27
1919237.0,1551189111.311
1919633.0,1551189111.35
1919936.0,1551189111.391
1919264.0,1551189111.432
1918456.0,1551189111.471
1917195.0,1551189111.072
1917606.0,1551189111.151
1917845.0,1551189111.511
1917341.0,1551189111.552
1916988.0,1551189111.59
1915737.0,1551189111.671
1915392.0,1551189111.71
1915158.0,1551189111.751
1914814.0,1551189111.793
1916108.0,1551189111.63
1914798.0,1551189111.831
1914973.0,1551189111.913
1914713.0,1551189111.871
1914830.0,1551189111.95
1914976.0,1551189111.991
1915590.0,1551189112.071
1915351.0,1551189112.031
1916128.0,1551189112.152
1916389.0,1551189112.192
1916919.0,1551189112.232
1917121.0,1551189112.273
1917778.0,1551189112.31
1917812.0,1551189112.35
1915991.0,1551189112.111
1917314.0,1551189112.392
1916267.0,1551189112.431
1915700.0,1551189112.471
1914867.0,1551189112.552
1914323.0,1551189112.593
1914283.0,1551189112.633
1915347.0,1551189112.512
1914199.0,1551189112.672
1913744.0,1551189112.752
1913983.0,1551189112.71
1913701.0,1551189112.831
1913717.0,1551189112.792
1913844.0,1551189112.872
1914064.0,1551189112.909
1914463.0,1551189112.95
1914470.0,1551189112.991
1914575.0,1551189113.03
1915020.0,1551189113.071
1915263.0,1551189113.112
1915445.0,1551189113.151
1915873.0,1551189113.192
1916195.0,1551189113.232
1916580.0,1551189113.271
1916971.0,1551189113.312
1917203.0,1551189113.353
1917085.0,1551189113.393
1915724.0,1551189113.474
1915104.0,1551189113.513
1916144.0,1551189113.432
1914735.0,1551189113.551
1913942.0,1551189113.631
1914111.0,1551189113.593
1913650.0,1551189113.672
1913148.0,1551189113.752
1913502.0,1551189113.713
1913105.0,1551189113.834
1913379.0,1551189113.873
1913441.0,1551189113.911
1913738.0,1551189113.953
1913921.0,1551189113.992
1914073.0,1551189114.032
1912922.0,1551189113.793
1914273.0,1551189114.073
1914695.0,1551189114.112
1915430.0,1551189114.195
1916236.0,1551189114.273
1916712.0,1551189114.313
1916180.0,1551189114.352
1915834.0,1551189114.233
1914912.0,1551189114.153
1915312.0,1551189114.393
1914632.0,1551189114.433
1913896.0,1551189114.513
1913084.0,1551189114.554
1914313.0,1551189114.472
1912689.0,1551189114.606
1912271.0,1551189114.645
1912097.0,1551189114.686
1911830.0,1551189114.725
1911657.0,1551189114.765
1911892.0,1551189114.807
1911897.0,1551189114.845
1912051.0,1551189114.885
1912365.0,1551189114.927
1912574.0,1551189114.966
1913077.0,1551189115.006
1913269.0,1551189115.047
1913550.0,1551189115.086
1913824.0,1551189115.126
1914296.0,1551189115.167
1914756.0,1551189115.207
1915213.0,1551189115.246
1915705.0,1551189115.287
1916041.0,1551189115.326
1916317.0,1551189115.366
1915573.0,1551189115.408
1914889.0,1551189115.447
1914490.0,1551189115.487
1914176.0,1551189115.528
1913481.0,1551189115.567
1913241.0,1551189115.607
1912727.0,1551189115.648
1912620.0,1551189115.687
1912199.0,1551189115.727
1911971.0,1551189115.768
1911929.0,1551189115.847
1911941.0,1551189115.888
1911928.0,1551189115.808
1912033.0,1551189115.968
1912053.0,1551189116.045
1911943.0,1551189115.927
1912187.0,1551189116.009
1912405.0,1551189116.126
1912771.0,1551189116.206
1913203.0,1551189116.286
1913769.0,1551189116.327
1913127.0,1551189116.247
1913844.0,1551189116.368
1913199.0,1551189116.406
1912188.0,1551189116.445
1911530.0,1551189116.487
1912313.0,1551189116.085
1912614.0,1551189116.165
1911024.0,1551189116.526
1910720.0,1551189116.566
1910359.0,1551189116.608
1910161.0,1551189116.646
1909789.0,1551189116.687
1909405.0,1551189116.728
1909373.0,1551189116.765
1909290.0,1551189116.806
1909454.0,1551189116.847
1909389.0,1551189116.926
1909599.0,1551189116.968
1909815.0,1551189117.047
1910219.0,1551189117.088
1909517.0,1551189116.886
1909613.0,1551189117.007
1910590.0,1551189117.165
1911428.0,1551189117.246
1910398.0,1551189117.127
1911707.0,1551189117.286
1912068.0,1551189117.327
1911178.0,1551189117.367
1910164.0,1551189117.408
1911012.0,1551189117.207
1909544.0,1551189117.448
1908964.0,1551189117.487
1907254.0,1551189117.567
1906599.0,1551189117.646
1906846.0,1551189117.607
1905898.0,1551189117.727
1905337.0,1551189117.767
1905187.0,1551189117.809
1905385.0,1551189117.848
1908057.0,1551189117.528
1906002.0,1551189117.688
1905426.0,1551189117.888
1905468.0,1551189117.927
1905519.0,1551189117.966
1905715.0,1551189118.007
1906414.0,1551189118.087
1905930.0,1551189118.048
1906783.0,1551189118.168
1906486.0,1551189118.127
1907614.0,1551189118.248
1907299.0,1551189118.208
1908504.0,1551189118.328
1907451.0,1551189118.366
1906505.0,1551189118.408
1905909.0,1551189118.447
1905364.0,1551189118.487
1908080.0,1551189118.289
1904910.0,1551189118.528
1904122.0,1551189118.567
1903475.0,1551189118.649
1902733.0,1551189118.728
1902682.0,1551189118.807
1902609.0,1551189118.847
1903182.0,1551189118.688
1903820.0,1551189118.608
1902646.0,1551189118.768
1902862.0,1551189118.927
1902805.0,1551189118.888
1902736.0,1551189118.968
1903021.0,1551189119.01
1903100.0,1551189119.089
1903797.0,1551189119.167
1904026.0,1551189119.208
1904190.0,1551189119.248
1904626.0,1551189119.288
1903866.0,1551189119.328
1902802.0,1551189119.369
1901956.0,1551189119.409
1901398.0,1551189119.449
1901073.0,1551189119.49
1903210.0,1551189119.048
1903227.0,1551189119.13
1900752.0,1551189119.529
1900352.0,1551189119.567
1899791.0,1551189119.648
1899425.0,1551189119.729
1899514.0,1551189119.768
1899408.0,1551189119.809
1899771.0,1551189119.85
1899908.0,1551189119.889
1901180.0,1551189120.048
1900528.0,1551189119.968
1900122.0,1551189119.929
1901656.0,1551189120.089
1901111.0,1551189120.008
1900122.0,1551189119.609
1899567.0,1551189119.688
1902072.0,1551189120.128
1902524.0,1551189120.168
1903261.0,1551189120.21
1902038.0,1551189120.289
1900241.0,1551189120.369
1901117.0,1551189120.33
1899991.0,1551189120.408
1899268.0,1551189120.449
1903152.0,1551189120.249
1898584.0,1551189120.488
1898441.0,1551189120.528
1898039.0,1551189120.57
1897714.0,1551189120.609
1897353.0,1551189120.649
1897167.0,1551189120.69
1897267.0,1551189120.729
1897379.0,1551189120.769
1897451.0,1551189120.811
1897785.0,1551189120.848
1897909.0,1551189120.888
1898230.0,1551189120.93
1898650.0,1551189120.969
1899334.0,1551189121.05
1900278.0,1551189121.13
1900731.0,1551189121.171
1898970.0,1551189121.01
1901298.0,1551189121.209
1900660.0,1551189121.249
1899790.0,1551189121.29
1898971.0,1551189121.329
1898785.0,1551189121.369
1898109.0,1551189121.411
1899675.0,1551189121.089
1897674.0,1551189121.45
1897308.0,1551189121.49
1897012.0,1551189121.531
1896975.0,1551189121.57
1896479.0,1551189121.609
1896393.0,1551189121.65
1896440.0,1551189121.729
1896737.0,1551189121.81
1897094.0,1551189121.85
1897136.0,1551189121.891
1897486.0,1551189121.93
1897644.0,1551189121.971
1897831.0,1551189122.011
1898393.0,1551189122.049
1898687.0,1551189122.089
1899222.0,1551189122.131
1899359.0,1551189122.17
1898978.0,1551189122.211
1897262.0,1551189122.29
1896964.0,1551189122.331
1896522.0,1551189122.372
1896040.0,1551189122.41
1895830.0,1551189122.449
1895384.0,1551189122.491
1894979.0,1551189122.53
1898282.0,1551189122.251
1894681.0,1551189122.57
1896383.0,1551189121.689
1894670.0,1551189122.612
1896654.0,1551189121.771
1894750.0,1551189122.651
1895028.0,1551189122.691
1895161.0,1551189122.732
1895628.0,1551189122.769
1895778.0,1551189122.81
1896370.0,1551189122.851
1896615.0,1551189122.89
1897148.0,1551189122.93
1897410.0,1551189122.972
1898082.0,1551189123.011
1898708.0,1551189123.051
1899032.0,1551189123.092
1898927.0,1551189123.132
1897998.0,1551189123.174
1897131.0,1551189123.216
1896676.0,1551189123.254
1895571.0,1551189123.334
1896036.0,1551189123.296
1894845.0,1551189123.37
1894497.0,1551189123.411
1894311.0,1551189123.451
1893965.0,1551189123.49
1893853.0,1551189123.531
1893855.0,1551189123.572
1894105.0,1551189123.652
1894183.0,1551189123.612
1894461.0,1551189123.693
1894869.0,1551189123.73
1895652.0,1551189123.812
1895390.0,1551189123.77
1896390.0,1551189123.891
1895996.0,1551189123.851
1897476.0,1551189123.972
1896680.0,1551189123.932
1897789.0,1551189124.013
1898256.0,1551189124.053
1898362.0,1551189124.09
1897369.0,1551189124.131
1896533.0,1551189124.172
1896002.0,1551189124.212
1895550.0,1551189124.251
1894838.0,1551189124.293
1894326.0,1551189124.332
1894027.0,1551189124.372
1893927.0,1551189124.414
1893543.0,1551189124.451
1893194.0,1551189124.491
1893427.0,1551189124.532
1893337.0,1551189124.571
1893991.0,1551189124.653
1893604.0,1551189124.612
1894148.0,1551189124.692
1894464.0,1551189124.732
1894757.0,1551189124.774
1895138.0,1551189124.813
1895366.0,1551189124.851
1895997.0,1551189124.892
1896064.0,1551189124.931
1896680.0,1551189124.972
1897170.0,1551189125.014
1897608.0,1551189125.052
1896872.0,1551189125.092
1895871.0,1551189125.134
1895232.0,1551189125.173
1894781.0,1551189125.212
1893814.0,1551189125.291
1894187.0,1551189125.252
1893482.0,1551189125.332
1893285.0,1551189125.373
1892986.0,1551189125.413
1892558.0,1551189125.452
1892615.0,1551189125.494
1892754.0,1551189125.533
1892794.0,1551189125.573
1892999.0,1551189125.613
1893214.0,1551189125.652
1893708.0,1551189125.692
1893872.0,1551189125.733
1894437.0,1551189125.772
1895013.0,1551189125.853
1894665.0,1551189125.813
1896378.0,1551189125.932
1895709.0,1551189125.892
1896599.0,1551189125.974
1896727.0,1551189126.014
1895691.0,1551189126.053
1895001.0,1551189126.094
1894656.0,1551189126.132
1893955.0,1551189126.172
1893333.0,1551189126.214
1893210.0,1551189126.252
1892713.0,1551189126.293
1892628.0,1551189126.334
1892549.0,1551189126.373
1892220.0,1551189126.414
1892456.0,1551189126.455
1892648.0,1551189126.494
1892844.0,1551189126.532
1893240.0,1551189126.573
1893539.0,1551189126.605
1894071.0,1551189126.644
1894486.0,1551189126.685
1894987.0,1551189126.724
1895500.0,1551189126.764
1896146.0,1551189126.806
1896798.0,1551189126.845
1897394.0,1551189126.885
1898048.0,1551189126.926
1898080.0,1551189126.965
1897380.0,1551189127.006
1896414.0,1551189127.046
1896352.0,1551189127.085
1895776.0,1551189127.125
1895249.0,1551189127.167
1894799.0,1551189127.207
1894707.0,1551189127.246
1894556.0,1551189127.287
1894683.0,1551189127.324
1894409.0,1551189127.365
1894587.0,1551189127.407
1894873.0,1551189127.445
1895082.0,1551189127.485
1895455.0,1551189127.527
1895782.0,1551189127.566
1896028.0,1551189127.607
1896560.0,1551189127.648
1896918.0,1551189127.687
1897211.0,1551189127.725
1897562.0,1551189127.766
1898109.0,1551189127.806
1898521.0,1551189127.845
1898987.0,1551189127.887
1899716.0,1551189127.926
1899441.0,1551189127.966
1898281.0,1551189128.008
1897826.0,1551189128.047
1897330.0,1551189128.087
1896704.0,1551189128.165
1897105.0,1551189128.126
1896509.0,1551189128.247
1896646.0,1551189128.206
1896397.0,1551189128.285
1896368.0,1551189128.325
1896491.0,1551189128.366
1896684.0,1551189128.406
1896903.0,1551189128.445
1897287.0,1551189128.486
1897741.0,1551189128.525
1897886.0,1551189128.566
1898485.0,1551189128.608
1898936.0,1551189128.646
1899434.0,1551189128.686
1899888.0,1551189128.728
1900497.0,1551189128.767
1901183.0,1551189128.808
1901500.0,1551189128.849
1902182.0,1551189128.886
1902110.0,1551189128.926
1901157.0,1551189128.967
1900502.0,1551189129.007
1900203.0,1551189129.047
1899709.0,1551189129.088
1899330.0,1551189129.127
1898876.0,1551189129.167
1898896.0,1551189129.209
1898773.0,1551189129.248
1898375.0,1551189129.286
1898251.0,1551189129.327
1898384.0,1551189129.366
1898700.0,1551189129.407
1899092.0,1551189129.448
1899238.0,1551189129.487
1899474.0,1551189129.527
1899720.0,1551189129.569
1900221.0,1551189129.608
1900754.0,1551189129.648
1901412.0,1551189129.726
1901123.0,1551189129.687
1901918.0,1551189129.767
1902359.0,1551189129.809
1903036.0,1551189129.847
1903185.0,1551189129.887
1901524.0,1551189129.968
1900868.0,1551189130.009
1902648.0,1551189129.929
1900523.0,1551189130.047
1899299.0,1551189130.127
1899902.0,1551189130.087
1898531.0,1551189130.208
1897947.0,1551189130.289
1897757.0,1551189130.328
1897721.0,1551189130.368
1897635.0,1551189130.41
1897676.0,1551189130.447
1897705.0,1551189130.487
1897879.0,1551189130.528
1898029.0,1551189130.567
1898102.0,1551189130.608
1898374.0,1551189130.65
1898348.0,1551189130.688
1898752.0,1551189130.728
1899282.0,1551189130.77
1899540.0,1551189130.81
1898971.0,1551189130.846
1898144.0,1551189130.248
1897771.0,1551189130.888
1898987.0,1551189130.168
1897123.0,1551189130.927
1896078.0,1551189131.009
1896808.0,1551189130.967
1895583.0,1551189131.088
1895794.0,1551189131.048
1895197.0,1551189131.168
1895228.0,1551189131.209
1895083.0,1551189131.25
1895570.0,1551189131.327
1895345.0,1551189131.129
1895545.0,1551189131.289
1895994.0,1551189131.369
1896243.0,1551189131.408
1896541.0,1551189131.448
1896806.0,1551189131.489
1897373.0,1551189131.528
1897545.0,1551189131.569
1898098.0,1551189131.611
1898458.0,1551189131.649
1898956.0,1551189131.687
1899604.0,1551189131.729
1899267.0,1551189131.768
1898182.0,1551189131.809
1897163.0,1551189131.85
1895879.0,1551189131.929
1896481.0,1551189131.889
1894646.0,1551189132.01
1895098.0,1551189131.97
1894041.0,1551189132.05
1893774.0,1551189132.089
1893017.0,1551189132.168
1893497.0,1551189132.128
1893066.0,1551189132.249
1892944.0,1551189132.21
1893082.0,1551189132.289
1893407.0,1551189132.33
1893308.0,1551189132.369
1893555.0,1551189132.41
1893881.0,1551189132.449
1894268.0,1551189132.488
1894577.0,1551189132.529
1894842.0,1551189132.57
1895236.0,1551189132.61
1895940.0,1551189132.649
1896163.0,1551189132.69
1896151.0,1551189132.77
1894751.0,1551189132.812
1893153.0,1551189132.889
1896653.0,1551189132.73
1892205.0,1551189132.93
1891331.0,1551189132.969
1890638.0,1551189133.01
1893736.0,1551189132.848
1890227.0,1551189133.051
1889594.0,1551189133.09
1888429.0,1551189133.171
1889012.0,1551189133.13
1888151.0,1551189133.211
1888171.0,1551189133.249
1887857.0,1551189133.29
1887750.0,1551189133.329
1887846.0,1551189133.369
1887867.0,1551189133.411
1887750.0,1551189133.449
1888118.0,1551189133.489
1888195.0,1551189133.53
1888305.0,1551189133.57
1888696.0,1551189133.611
1889120.0,1551189133.651
1889126.0,1551189133.69
1887907.0,1551189133.731
1886635.0,1551189133.77
1885681.0,1551189133.81
1884185.0,1551189133.891
1883641.0,1551189133.93
1882946.0,1551189133.97
1882507.0,1551189134.012
1881919.0,1551189134.051
1881503.0,1551189134.091
1881527.0,1551189134.13
1881502.0,1551189134.169
1881468.0,1551189134.21
1881699.0,1551189134.251
1881617.0,1551189134.29
1881712.0,1551189134.33
1882162.0,1551189134.372
1882221.0,1551189134.411
1882520.0,1551189134.451
1885131.0,1551189133.849
1882755.0,1551189134.492
1883206.0,1551189134.529
1884102.0,1551189134.612
1883572.0,1551189134.57
1882028.0,1551189134.691
1879600.0,1551189134.771
1878914.0,1551189134.812
1877579.0,1551189134.853
1876826.0,1551189134.89
1876247.0,1551189134.93
1875660.0,1551189134.971
1875146.0,1551189135.011
1874508.0,1551189135.051
1874177.0,1551189135.092
1880698.0,1551189134.732
1883643.0,1551189134.65
1874164.0,1551189135.131
1874099.0,1551189135.171
1874148.0,1551189135.213
1874159.0,1551189135.252
1874224.0,1551189135.29
1874011.0,1551189135.331
1874173.0,1551189135.37
1874227.0,1551189135.411
1874618.0,1551189135.452
1874786.0,1551189135.491
1874965.0,1551189135.531
1875285.0,1551189135.573
1874534.0,1551189135.613
1872700.0,1551189135.652
1871324.0,1551189135.691
1870155.0,1551189135.73
1869467.0,1551189135.771
1868610.0,1551189135.813
1867676.0,1551189135.851
1867305.0,1551189135.892
1866886.0,1551189135.933
1866368.0,1551189135.969
1866266.0,1551189136.011
1866201.0,1551189136.052
1866457.0,1551189136.091
1866703.0,1551189136.131
1866911.0,1551189136.172
1867130.0,1551189136.212
1867573.0,1551189136.251
1868035.0,1551189136.332
1867711.0,1551189136.293
1868870.0,1551189136.414
1869301.0,1551189136.453
1869800.0,1551189136.491
1870248.0,1551189136.532
1870073.0,1551189136.571
1868114.0,1551189136.612
1866431.0,1551189136.653
1865522.0,1551189136.692
1864382.0,1551189136.732
1863154.0,1551189136.774
1862339.0,1551189136.813
1861840.0,1551189136.853
1868385.0,1551189136.372
1861190.0,1551189136.892
1860595.0,1551189136.931
1860185.0,1551189136.972
1859978.0,1551189137.014
1860074.0,1551189137.052
1860332.0,1551189137.092
1860467.0,1551189137.134
1860640.0,1551189137.173
1860854.0,1551189137.214
1861189.0,1551189137.252
1861997.0,1551189137.332
1862863.0,1551189137.413
1862242.0,1551189137.373
1863815.0,1551189137.494
1863895.0,1551189137.533
1862660.0,1551189137.573
1860851.0,1551189137.613
1861426.0,1551189137.292
1859870.0,1551189137.652
1859095.0,1551189137.692
1858109.0,1551189137.733
1857209.0,1551189137.773
1856661.0,1551189137.814
1856165.0,1551189137.854
1855758.0,1551189137.893
1855272.0,1551189137.934
1854860.0,1551189137.973
1855147.0,1551189138.013
1863315.0,1551189137.453
1855241.0,1551189138.052
1855436.0,1551189138.094
1855911.0,1551189138.133
1855828.0,1551189138.173
1856429.0,1551189138.215
1857263.0,1551189138.294
1858957.0,1551189138.413
1858506.0,1551189138.493
1858540.0,1551189138.372
1859472.0,1551189138.454
1856973.0,1551189138.254
1857631.0,1551189138.335
1856436.0,1551189138.574
1856933.0,1551189138.533
1855638.0,1551189138.613
1855038.0,1551189138.652
1854690.0,1551189138.693
1853872.0,1551189138.773
1853270.0,1551189138.814
1852918.0,1551189138.853
1852888.0,1551189138.893
1853157.0,1551189138.934
1853521.0,1551189138.973
1854001.0,1551189139.014
1854517.0,1551189139.054
1855034.0,1551189139.094
1855593.0,1551189139.135
1856175.0,1551189139.176
1856849.0,1551189139.215
1857450.0,1551189139.255
1858139.0,1551189139.296
1858950.0,1551189139.337
1859943.0,1551189139.377
1860197.0,1551189139.419
1859092.0,1551189139.457
1857182.0,1551189139.539
1856770.0,1551189139.578
1856112.0,1551189139.618
1857878.0,1551189139.498
1855528.0,1551189139.659
1854082.0,1551189138.732
1855449.0,1551189139.698
1855292.0,1551189139.738
1855088.0,1551189139.779
1855060.0,1551189139.819
1855756.0,1551189139.899
1855494.0,1551189139.858
1856871.0,1551189139.978
1856187.0,1551189139.938
1857296.0,1551189140.02
1857787.0,1551189140.058
1858252.0,1551189140.099
1858912.0,1551189140.14
1859605.0,1551189140.179
1859924.0,1551189140.219
1860793.0,1551189140.26
1861378.0,1551189140.299
1861888.0,1551189140.339
1862888.0,1551189140.38
1862335.0,1551189140.42
1860822.0,1551189140.459
1859876.0,1551189140.5
1859450.0,1551189140.538
1858879.0,1551189140.576
1858300.0,1551189140.618
1857919.0,1551189140.656
1857985.0,1551189140.696
1857482.0,1551189140.738
1857522.0,1551189140.777
1857333.0,1551189140.818
1857769.0,1551189140.858
1858125.0,1551189140.894
1858538.0,1551189140.934
1859006.0,1551189140.975
1859349.0,1551189141.015
1860119.0,1551189141.054
1860749.0,1551189141.096
1861319.0,1551189141.135
1861893.0,1551189141.175
1863462.0,1551189141.255
1864113.0,1551189141.295
1862695.0,1551189141.217
1864692.0,1551189141.336
1864375.0,1551189141.375
1862115.0,1551189141.456
1863053.0,1551189141.416
1860797.0,1551189141.535
1860057.0,1551189141.576
1861488.0,1551189141.495
1859579.0,1551189141.616
1859244.0,1551189141.655
1858958.0,1551189141.696
1858924.0,1551189141.776
1858744.0,1551189141.735
1859131.0,1551189141.856
1859009.0,1551189141.817
1859872.0,1551189141.937
1860446.0,1551189141.976
1860917.0,1551189142.017
1859555.0,1551189141.896
1861250.0,1551189142.057
1861847.0,1551189142.096
1862354.0,1551189142.136
1862982.0,1551189142.177
1863684.0,1551189142.217
1864597.0,1551189142.256
1865658.0,1551189142.298
1866271.0,1551189142.337
1865465.0,1551189142.377
1864303.0,1551189142.418
1863507.0,1551189142.457
1863125.0,1551189142.497
1862730.0,1551189142.538
1862477.0,1551189142.577
1862705.0,1551189142.658
1862688.0,1551189142.618
1862314.0,1551189142.697
1862072.0,1551189142.737
1862238.0,1551189142.778
1862076.0,1551189142.818
1862226.0,1551189142.857
1862381.0,1551189142.898
1862702.0,1551189142.937
1862751.0,1551189142.977
1863020.0,1551189143.019
1863441.0,1551189143.058
1863618.0,1551189143.098
1864297.0,1551189143.178
1863861.0,1551189143.139
1864718.0,1551189143.219
1865488.0,1551189143.298
1864149.0,1551189143.338
1862885.0,1551189143.379
1861821.0,1551189143.419
1861403.0,1551189143.458
1865094.0,1551189143.259
1860861.0,1551189143.499
1860053.0,1551189143.579
1860266.0,1551189143.539
1859791.0,1551189143.62
1859536.0,1551189143.659
1859204.0,1551189143.699
1859309.0,1551189143.74
1859691.0,1551189143.779
1859683.0,1551189143.82
1860132.0,1551189143.86
1860333.0,1551189143.899
1860900.0,1551189143.939
1861209.0,1551189143.98
1861617.0,1551189144.02
1862004.0,1551189144.06
1862431.0,1551189144.101
1863185.0,1551189144.14
1863601.0,1551189144.18
1864252.0,1551189144.222
1863424.0,1551189144.26
1862087.0,1551189144.3
1860611.0,1551189144.341
1859579.0,1551189144.38
1858714.0,1551189144.419
1857630.0,1551189144.46
1856694.0,1551189144.499
1856316.0,1551189144.539
1855623.0,1551189144.58
1855074.0,1551189144.62
1854692.0,1551189144.66
1854958.0,1551189144.701
1855138.0,1551189144.74
1855872.0,1551189144.82
1855416.0,1551189144.781
1856607.0,1551189144.899
1856268.0,1551189144.859
1857113.0,1551189144.941
1857254.0,1551189144.98
1857698.0,1551189145.021
1858034.0,1551189145.061
1858651.0,1551189145.101
1859555.0,1551189145.141
1859646.0,1551189145.18
1858730.0,1551189145.22
1857039.0,1551189145.259
1855383.0,1551189145.34
1855962.0,1551189145.301
1853993.0,1551189145.38
1853287.0,1551189145.422
1852609.0,1551189145.461
1852060.0,1551189145.501
1851391.0,1551189145.54
1850526.0,1551189145.62
1850411.0,1551189145.661
1850904.0,1551189145.579
1850180.0,1551189145.7
1850231.0,1551189145.74
1850259.0,1551189145.822
1850377.0,1551189145.782
1850601.0,1551189145.861
1850529.0,1551189145.902
1850788.0,1551189145.939
1851246.0,1551189145.98
1851748.0,1551189146.022
1852202.0,1551189146.06
1852626.0,1551189146.1
1851812.0,1551189146.142
1850312.0,1551189146.181
1849011.0,1551189146.219
1848429.0,1551189146.261
1847623.0,1551189146.3
1847164.0,1551189146.34
1846819.0,1551189146.381
1846549.0,1551189146.421
1846379.0,1551189146.46
1845892.0,1551189146.502
1846058.0,1551189146.541
1846411.0,1551189146.623
1846915.0,1551189146.702
1847621.0,1551189146.741
1847930.0,1551189146.78
1848287.0,1551189146.821
1848859.0,1551189146.862
1849495.0,1551189146.901
1850167.0,1551189146.941
1850778.0,1551189146.983
1846156.0,1551189146.581
1851790.0,1551189147.022
1851488.0,1551189147.062
1850367.0,1551189147.103
1849223.0,1551189147.14
1848417.0,1551189147.181
1848001.0,1551189147.223
1846599.0,1551189146.662
1847200.0,1551189147.261
1846733.0,1551189147.301
1846570.0,1551189147.343
1846231.0,1551189147.423
1846173.0,1551189147.463
1846574.0,1551189147.503
1846920.0,1551189147.541
1846445.0,1551189147.382
1847306.0,1551189147.582
1848137.0,1551189147.622
1848580.0,1551189147.661
1849168.0,1551189147.703
1849833.0,1551189147.742
1850406.0,1551189147.782
1851193.0,1551189147.824
1851593.0,1551189147.863
1852290.0,1551189147.901
1852955.0,1551189147.942
1853698.0,1551189147.981
1853763.0,1551189148.063
1854259.0,1551189148.022
1852345.0,1551189148.102
1851361.0,1551189148.184
1851708.0,1551189148.142
1850892.0,1551189148.223
1850523.0,1551189148.263
1850472.0,1551189148.302
1850369.0,1551189148.341
1850164.0,1551189148.382
1850438.0,1551189148.462
1850988.0,1551189148.502
1851679.0,1551189148.544
1850247.0,1551189148.424
1852254.0,1551189148.583
1852793.0,1551189148.624
1854012.0,1551189148.701
1853534.0,1551189148.664
1854867.0,1551189148.745
1855604.0,1551189148.782
1856390.0,1551189148.822
1857282.0,1551189148.861
1858238.0,1551189148.903
1859025.0,1551189148.942
1859116.0,1551189148.982
1858108.0,1551189149.024
1857584.0,1551189149.063
1857157.0,1551189149.103
1856850.0,1551189149.144
1856175.0,1551189149.183
1856027.0,1551189149.224
1856097.0,1551189149.263
1856081.0,1551189149.302
1855919.0,1551189149.342
1856224.0,1551189149.383
1856724.0,1551189149.423
1857200.0,1551189149.463
1857511.0,1551189149.504
1858846.0,1551189149.584
1859547.0,1551189149.626
1860670.0,1551189149.702
1858142.0,1551189149.543
1861417.0,1551189149.744
1860022.0,1551189149.662
1862178.0,1551189149.783
1862897.0,1551189149.824
1864048.0,1551189149.864
1864968.0,1551189149.903
1865577.0,1551189149.944
1865205.0,1551189149.985
1864284.0,1551189150.025
1864120.0,1551189150.062
1863699.0,1551189150.104
1863539.0,1551189150.143
1863134.0,1551189150.183
1863054.0,1551189150.225
1863062.0,1551189150.263
1863079.0,1551189150.304
1863014.0,1551189150.345
1863302.0,1551189150.384
1863720.0,1551189150.425
1863870.0,1551189150.464
1864231.0,1551189150.503
1864587.0,1551189150.543
1864749.0,1551189150.584
1865293.0,1551189150.622
1865631.0,1551189150.661
1866116.0,1551189150.703
1866577.0,1551189150.742
1866939.0,1551189150.782
1867495.0,1551189150.824
1868059.0,1551189150.862
1868672.0,1551189150.902
1868308.0,1551189150.943
1867210.0,1551189150.982
1866598.0,1551189151.023
1866288.0,1551189151.064
1866257.0,1551189151.103
1865877.0,1551189151.143
1865939.0,1551189151.184
1865849.0,1551189151.224
1865948.0,1551189151.263
1865968.0,1551189151.304
1866467.0,1551189151.343
1867189.0,1551189151.426
1866680.0,1551189151.384
1867745.0,1551189151.464
1868235.0,1551189151.504
1869249.0,1551189151.585
1868639.0,1551189151.546
1869999.0,1551189151.626
1871038.0,1551189151.705
1870409.0,1551189151.666
1871865.0,1551189151.746
1872477.0,1551189151.787
1873279.0,1551189151.827
1873718.0,1551189151.866
1872809.0,1551189151.906
1871784.0,1551189151.945
1871466.0,1551189151.985
1870941.0,1551189152.027
1870517.0,1551189152.066
1870114.0,1551189152.106
1870035.0,1551189152.147
1870063.0,1551189152.186
1870310.0,1551189152.305
1870038.0,1551189152.227
1871369.0,1551189152.387
1870263.0,1551189152.266
1872024.0,1551189152.426
1870991.0,1551189152.345
1874198.0,1551189152.507
1876678.0,1551189152.587
1878442.0,1551189152.629
1872877.0,1551189152.466
1875332.0,1551189152.546
1879913.0,1551189152.665
1882896.0,1551189152.747
1881568.0,1551189152.705
1883858.0,1551189152.786
1883876.0,1551189152.827
1880909.0,1551189152.907
1882799.0,1551189152.867
1879422.0,1551189152.947
1876944.0,1551189153.028
1875985.0,1551189153.065
1878354.0,1551189152.988
1875215.0,1551189153.107
1874916.0,1551189153.146
1874818.0,1551189153.228
1874880.0,1551189153.186
1874648.0,1551189153.307
1874777.0,1551189153.267
1874660.0,1551189153.348
1874950.0,1551189153.387
1875766.0,1551189153.426
1876949.0,1551189153.467
1877959.0,1551189153.506
1879091.0,1551189153.546
1879812.0,1551189153.588
1880905.0,1551189153.627
1881792.0,1551189153.667
1883322.0,1551189153.748
1883041.0,1551189153.788
1882642.0,1551189153.708
1882280.0,1551189153.828
1882059.0,1551189153.905
1882026.0,1551189153.946
1881703.0,1551189153.985
1882080.0,1551189154.027
1882069.0,1551189154.068
1882405.0,1551189154.106
1882492.0,1551189154.146
1882078.0,1551189153.867
1883210.0,1551189154.227
1882708.0,1551189154.187
1883603.0,1551189154.267
1883954.0,1551189154.308
1884406.0,1551189154.347
1884690.0,1551189154.388
1885294.0,1551189154.43
1885727.0,1551189154.468
1886125.0,1551189154.506
1886824.0,1551189154.548
1887340.0,1551189154.587
1888063.0,1551189154.628
1888759.0,1551189154.668
1888621.0,1551189154.707
1887706.0,1551189154.748
1887020.0,1551189154.789
1886495.0,1551189154.869
1886783.0,1551189154.829
1886213.0,1551189154.908
1885811.0,1551189154.947
1885939.0,1551189154.987
1885876.0,1551189155.029
1885890.0,1551189155.068
1885895.0,1551189155.108
1886146.0,1551189155.149
1886625.0,1551189155.229
1886342.0,1551189155.188
1887144.0,1551189155.268
1887463.0,1551189155.307
1887706.0,1551189155.347
1888085.0,1551189155.389
1888806.0,1551189155.468
1888477.0,1551189155.428
1889263.0,1551189155.509
1889731.0,1551189155.549
1890373.0,1551189155.589
1888595.0,1551189155.749
1890046.0,1551189155.667
1890550.0,1551189155.631
1889066.0,1551189155.707
1888034.0,1551189155.829
1888318.0,1551189155.788
1887709.0,1551189155.909
1887835.0,1551189155.869
1887562.0,1551189155.949
1887455.0,1551189155.99
1887318.0,1551189156.03
1887631.0,1551189156.067
1887951.0,1551189156.109
1888330.0,1551189156.148
1888677.0,1551189156.188
1889309.0,1551189156.23
1889734.0,1551189156.269
1890399.0,1551189156.309
1890632.0,1551189156.35
1891343.0,1551189156.389
1891915.0,1551189156.432
1892624.0,1551189156.474
1893277.0,1551189156.55
1893259.0,1551189156.513
1892208.0,1551189156.589
1891509.0,1551189156.629
1891224.0,1551189156.668
1890939.0,1551189156.71
1890439.0,1551189156.749
1890404.0,1551189156.789
1890692.0,1551189156.831
1890868.0,1551189156.87
1891008.0,1551189156.91
1891185.0,1551189156.949
1891482.0,1551189156.988
1891768.0,1551189157.029
1892146.0,1551189157.07
1892880.0,1551189157.149
1893359.0,1551189157.19
1894021.0,1551189157.23
1892490.0,1551189157.109
1894682.0,1551189157.27
1895652.0,1551189157.348
1895078.0,1551189157.311
1896520.0,1551189157.389
1897367.0,1551189157.431
1898289.0,1551189157.469
1898205.0,1551189157.509
1897640.0,1551189157.551
1897305.0,1551189157.59
1897246.0,1551189157.631
1896957.0,1551189157.671
1896682.0,1551189157.71
1896396.0,1551189157.749
1896634.0,1551189157.79
1896374.0,1551189157.83
1896410.0,1551189157.869
1896432.0,1551189157.911
1896685.0,1551189157.95
1896943.0,1551189157.99
1897190.0,1551189158.032
1897924.0,1551189158.111
1898081.0,1551189158.15
1898373.0,1551189158.189
1897426.0,1551189158.07
1899002.0,1551189158.23
1899524.0,1551189158.31
1899097.0,1551189158.271
1900001.0,1551189158.35
1900609.0,1551189158.391
1900513.0,1551189158.471
1899917.0,1551189158.512
1900944.0,1551189158.431
1899823.0,1551189158.589
1899689.0,1551189158.549
1899698.0,1551189158.631
1899734.0,1551189158.67
1899825.0,1551189158.71
1899913.0,1551189158.791
1900334.0,1551189158.872
1900738.0,1551189158.911
1900066.0,1551189158.751
1900186.0,1551189158.832
1901228.0,1551189158.949
1901722.0,1551189158.991
1902271.0,1551189159.03
1902655.0,1551189159.07
1903249.0,1551189159.111
1903709.0,1551189159.15
1904538.0,1551189159.191
1904954.0,1551189159.233
1905673.0,1551189159.271
1906237.0,1551189159.311
1907088.0,1551189159.353
1907019.0,1551189159.39
1906781.0,1551189159.431
1906179.0,1551189159.471
1906066.0,1551189159.51
1905977.0,1551189159.551
1905928.0,1551189159.592
1905866.0,1551189159.632
1905980.0,1551189159.671
1905965.0,1551189159.713
1905900.0,1551189159.752
1905903.0,1551189159.79
1905970.0,1551189159.832
1905752.0,1551189159.87
1905709.0,1551189159.911
1904787.0,1551189159.991
1905255.0,1551189159.952
1904538.0,1551189160.032
1904423.0,1551189160.073
1904669.0,1551189160.15
1904422.0,1551189160.112
1904842.0,1551189160.191
1904962.0,1551189160.231
1905199.0,1551189160.271
1905662.0,1551189160.312
1905969.0,1551189160.351
1904993.0,1551189160.392
1903973.0,1551189160.434
1903218.0,1551189160.472
1902290.0,1551189160.512
1901314.0,1551189160.552
1900646.0,1551189160.591
1900026.0,1551189160.673
1900286.0,1551189160.632
1900032.0,1551189160.711
1900427.0,1551189160.752
1900964.0,1551189160.793
1901135.0,1551189160.833
1901835.0,1551189160.914
1901562.0,1551189160.872
1902422.0,1551189160.951
1903012.0,1551189161.033
1903480.0,1551189161.071
1903919.0,1551189161.112
1902704.0,1551189160.991
1904259.0,1551189161.153
1905002.0,1551189161.192
1905792.0,1551189161.233
1906107.0,1551189161.274
1905395.0,1551189161.351
1906018.0,1551189161.313
1905576.0,1551189161.432
1905284.0,1551189161.392
1905794.0,1551189161.472
1905956.0,1551189161.513
1906237.0,1551189161.55
1906699.0,1551189161.59
1906882.0,1551189161.672
1907603.0,1551189161.752
1908014.0,1551189161.792
1907132.0,1551189161.711
1906511.0,1551189161.633
1908392.0,1551189161.833
1908763.0,1551189161.873
1909221.0,1551189161.912
1909582.0,1551189161.953
1909868.0,1551189161.994
1910417.0,1551189162.034
1910856.0,1551189162.073
1911251.0,1551189162.113
1911919.0,1551189162.152
1912862.0,1551189162.234
1912492.0,1551189162.192
1913013.0,1551189162.273
1912207.0,1551189162.313
1911904.0,1551189162.354
1911797.0,1551189162.393
1911489.0,1551189162.434
1911422.0,1551189162.473
1911009.0,1551189162.512
1910685.0,1551189162.552
1910683.0,1551189162.594
1910230.0,1551189162.632
1910339.0,1551189162.672
1910392.0,1551189162.713
1910677.0,1551189162.752
1910930.0,1551189162.792
1911309.0,1551189162.872
1911497.0,1551189162.912
1911021.0,1551189162.834
1911766.0,1551189162.953
1911834.0,1551189162.993
1912076.0,1551189163.033
1912597.0,1551189163.074
1912774.0,1551189163.114
1913047.0,1551189163.196
1913268.0,1551189163.154
1911718.0,1551189163.274
1912362.0,1551189163.235
1911419.0,1551189163.316
1910968.0,1551189163.395
1910805.0,1551189163.437
1911274.0,1551189163.355
1910745.0,1551189163.476
1910514.0,1551189163.516
1910203.0,1551189163.557
1910241.0,1551189163.596
1910286.0,1551189163.635
1910550.0,1551189163.676
1910380.0,1551189163.715
1910888.0,1551189163.755
1911161.0,1551189163.836
1910972.0,1551189163.797
1911364.0,1551189163.876
1912103.0,1551189163.957
1912606.0,1551189163.997
1911737.0,1551189163.917
1912829.0,1551189164.037
1913473.0,1551189164.075
1912454.0,1551189164.156
1911564.0,1551189164.236
1911975.0,1551189164.195
1911321.0,1551189164.277
1910853.0,1551189164.316
1910689.0,1551189164.356
1910447.0,1551189164.397
1910322.0,1551189164.437
1909953.0,1551189164.477
1909970.0,1551189164.518
1909830.0,1551189164.555
1910110.0,1551189164.596
1910403.0,1551189164.676
1910749.0,1551189164.716
1910999.0,1551189164.758
1911255.0,1551189164.797
1911772.0,1551189164.838
1911832.0,1551189164.878
1912115.0,1551189164.918
1912465.0,1551189164.956
1910320.0,1551189164.638
1913272.0,1551189164.115
1912872.0,1551189164.997
1913302.0,1551189165.037
1913093.0,1551189165.076
1912200.0,1551189165.118
1911430.0,1551189165.157
1910693.0,1551189165.239
1910978.0,1551189165.197
1909713.0,1551189165.318
1909212.0,1551189165.357
1908841.0,1551189165.396
1908232.0,1551189165.437
1910028.0,1551189165.277
1907958.0,1551189165.517
1908089.0,1551189165.478
1907993.0,1551189165.598
1907888.0,1551189165.557
1907962.0,1551189165.638
1908118.0,1551189165.678
1908250.0,1551189165.719
1908291.0,1551189165.756
1908601.0,1551189165.796
1908782.0,1551189165.838
1909027.0,1551189165.877
1909576.0,1551189165.917
1909847.0,1551189165.958
1909650.0,1551189165.998
1909051.0,1551189166.039
1908671.0,1551189166.079
1908500.0,1551189166.116
1908477.0,1551189166.157
1908084.0,1551189166.198
1908049.0,1551189166.238
1908105.0,1551189166.277
1907969.0,1551189166.319
1907996.0,1551189166.358
1908152.0,1551189166.44
1908621.0,1551189166.517
1908946.0,1551189166.558
1908158.0,1551189166.398
1909765.0,1551189166.638
1910039.0,1551189166.677
1910313.0,1551189166.716
1910710.0,1551189166.756
1909255.0,1551189166.597
1908352.0,1551189166.477
1911197.0,1551189166.797
1911636.0,1551189166.837
1912156.0,1551189166.877
1911692.0,1551189166.918
1910749.0,1551189166.997
1910597.0,1551189167.039
1910173.0,1551189167.078
1909922.0,1551189167.118
1909937.0,1551189167.159
1909504.0,1551189167.198
1911345.0,1551189166.957
1909514.0,1551189167.239
1909368.0,1551189167.28
1909438.0,1551189167.317
1909461.0,1551189167.358
1909778.0,1551189167.399
1910250.0,1551189167.478
1909928.0,1551189167.439
1910280.0,1551189167.519
1910506.0,1551189167.559
1910809.0,1551189167.599
1911177.0,1551189167.677
1911633.0,1551189167.759
1912025.0,1551189167.798
1911639.0,1551189167.839
1910799.0,1551189167.88
1910499.0,1551189167.919
1910021.0,1551189167.959
1911497.0,1551189167.718
1911027.0,1551189167.641
1909641.0,1551189168.0
1909184.0,1551189168.04
1909000.0,1551189168.078
1908942.0,1551189168.119
1908350.0,1551189168.199
1908627.0,1551189168.158
1908441.0,1551189168.24
1908418.0,1551189168.319
1908500.0,1551189168.279
1908931.0,1551189168.4
1909088.0,1551189168.439
1908722.0,1551189168.36
1909329.0,1551189168.479
1909614.0,1551189168.518
1910004.0,1551189168.558
1910247.0,1551189168.599
1911247.0,1551189168.679
1910627.0,1551189168.639
1911420.0,1551189168.72
1910743.0,1551189168.759
1910320.0,1551189168.8
1910073.0,1551189168.88
1909946.0,1551189168.841
1909710.0,1551189168.918
1909624.0,1551189168.96
1909865.0,1551189168.999
1909653.0,1551189169.04
1909773.0,1551189169.08
1909678.0,1551189169.119
1909916.0,1551189169.16
1910541.0,1551189169.238
1910369.0,1551189169.201
1911631.0,1551189169.319
1911056.0,1551189169.277
1912220.0,1551189169.358
1912511.0,1551189169.399
1913114.0,1551189169.441
1913397.0,1551189169.479
1913934.0,1551189169.519
1914729.0,1551189169.56
1915414.0,1551189169.599
1915888.0,1551189169.64
1915634.0,1551189169.681
1915427.0,1551189169.72
1915309.0,1551189169.76
1915246.0,1551189169.802
1915043.0,1551189169.841
1914660.0,1551189169.881
1914589.0,1551189169.92
1914472.0,1551189169.959
1914229.0,1551189170.0
1914066.0,1551189170.042
1914044.0,1551189170.08
1914155.0,1551189170.12
1914143.0,1551189170.162
1914321.0,1551189170.242
1914446.0,1551189170.28
1914462.0,1551189170.319
1914542.0,1551189170.36
1914651.0,1551189170.401
1915033.0,1551189170.441
1915151.0,1551189170.48
1915549.0,1551189170.522
1915387.0,1551189170.561
1914261.0,1551189170.201
1914771.0,1551189170.601
1914043.0,1551189170.643
1913636.0,1551189170.68
1913355.0,1551189170.72
1912996.0,1551189170.761
1912663.0,1551189170.8
1912010.0,1551189170.882
1911849.0,1551189170.961
1912152.0,1551189171.003
1912096.0,1551189170.921
1912291.0,1551189170.841
1912074.0,1551189171.042
1912382.0,1551189171.08
1912529.0,1551189171.121
1912716.0,1551189171.16
1912947.0,1551189171.201
1913327.0,1551189171.243
1913534.0,1551189171.281
1914321.0,1551189171.363
1915306.0,1551189171.441
1915539.0,1551189171.481
1914763.0,1551189171.402
1913789.0,1551189171.321
1914494.0,1551189171.561
1914171.0,1551189171.602
1913538.0,1551189171.681
1913338.0,1551189171.723
1914679.0,1551189171.52
1913852.0,1551189171.642
1913104.0,1551189171.762
1913027.0,1551189171.844
1913278.0,1551189171.922
1913101.0,1551189171.882
1913443.0,1551189171.802
1913418.0,1551189171.961
1913526.0,1551189172.001
1913806.0,1551189172.042
1914043.0,1551189172.082
1914267.0,1551189172.121
1914527.0,1551189172.162
1914806.0,1551189172.203
1915319.0,1551189172.243
1915302.0,1551189172.282
1915848.0,1551189172.324
1916182.0,1551189172.361
1916684.0,1551189172.401
1916974.0,1551189172.443
1916723.0,1551189172.481
1915949.0,1551189172.522
1915589.0,1551189172.563
1915333.0,1551189172.602
1915014.0,1551189172.643
1914714.0,1551189172.684
1914590.0,1551189172.723
1914394.0,1551189172.761
1914024.0,1551189172.802
1913742.0,1551189172.842
1913791.0,1551189172.882
1913724.0,1551189172.923
1913717.0,1551189172.962
1913902.0,1551189173.002
1914093.0,1551189173.044
1914302.0,1551189173.123
1914513.0,1551189173.162
1914845.0,1551189173.201
1914206.0,1551189173.083
1914811.0,1551189173.242
1915016.0,1551189173.283
1915507.0,1551189173.322
1915962.0,1551189173.362
1916290.0,1551189173.404
1916091.0,1551189173.444
1915431.0,1551189173.483
1915442.0,1551189173.524
1915324.0,1551189173.562
1915149.0,1551189173.602
1915213.0,1551189173.644
1915185.0,1551189173.682
1915331.0,1551189173.723
1915086.0,1551189173.764
1915257.0,1551189173.803
1915497.0,1551189173.844
1915721.0,1551189173.885
1916071.0,1551189173.922
1916364.0,1551189173.962
1916801.0,1551189174.003
1916967.0,1551189174.043
1917534.0,1551189174.083
1917884.0,1551189174.124
1918168.0,1551189174.163
1918722.0,1551189174.204
1919265.0,1551189174.246
1919814.0,1551189174.284
1920037.0,1551189174.322
1919465.0,1551189174.363
1918980.0,1551189174.402
1918759.0,1551189174.443
1918697.0,1551189174.483
1918140.0,1551189174.523
1918016.0,1551189174.563
1917668.0,1551189174.604
1917487.0,1551189174.641
1917321.0,1551189174.68
1917204.0,1551189174.721
1917063.0,1551189174.76
1917137.0,1551189174.8
1917238.0,1551189174.842
1917557.0,1551189174.881
1917305.0,1551189174.921
1917870.0,1551189174.962
1917927.0,1551189175.001
1917969.0,1551189175.042
1918233.0,1551189175.082
1918397.0,1551189175.121
1918600.0,1551189175.162
1918842.0,1551189175.204
1918901.0,1551189175.244
1918358.0,1551189175.283
1917641.0,1551189175.324
1916984.0,1551189175.363
1916927.0,1551189175.403
1916420.0,1551189175.445
1916150.0,1551189175.484
1915757.0,1551189175.524
1915587.0,1551189175.565
1915018.0,1551189175.604
1914611.0,1551189175.645
1914259.0,1551189175.686
1914018.0,1551189175.723
1914005.0,1551189175.763
1914089.0,1551189175.805
1914069.0,1551189175.844
1914341.0,1551189175.884
1914375.0,1551189175.925
1914951.0,1551189175.964
1915105.0,1551189176.005
1915477.0,1551189176.047
1915851.0,1551189176.085
1916469.0,1551189176.123
1916874.0,1551189176.165
1916393.0,1551189176.204
1915576.0,1551189176.245
1914989.0,1551189176.285
1914665.0,1551189176.324
1914358.0,1551189176.365
1913610.0,1551189176.406
1913380.0,1551189176.446
1913087.0,1551189176.485
1912822.0,1551189176.525
1912858.0,1551189176.564
1912506.0,1551189176.604
1912568.0,1551189176.646
1912892.0,1551189176.685
1912688.0,1551189176.725
1912847.0,1551189176.766
1913287.0,1551189176.846
1913294.0,1551189176.885
1913223.0,1551189176.805
1913489.0,1551189176.929
1913669.0,1551189176.969
1914091.0,1551189177.01
1914248.0,1551189177.049
1914650.0,1551189177.089
1914994.0,1551189177.131
1914815.0,1551189177.166
1913830.0,1551189177.204
1912712.0,1551189177.246
1911962.0,1551189177.284
1911363.0,1551189177.325
1910414.0,1551189177.366
1909403.0,1551189177.405
1908781.0,1551189177.446
1908077.0,1551189177.487
1907413.0,1551189177.526
1906567.0,1551189177.566
1906041.0,1551189177.605
1905359.0,1551189177.645
1904654.0,1551189177.685
1904304.0,1551189177.726
1903798.0,1551189177.765
1903591.0,1551189177.806
1903644.0,1551189177.848
1903495.0,1551189177.886
1903700.0,1551189177.926
1903825.0,1551189177.966
1904150.0,1551189178.005
1904471.0,1551189178.046
1904407.0,1551189178.086
1903844.0,1551189178.126
1902852.0,1551189178.166
1902542.0,1551189178.207
1902089.0,1551189178.247
1901619.0,1551189178.287
1901137.0,1551189178.328
1901088.0,1551189178.365
1900579.0,1551189178.405
1900633.0,1551189178.447
1900374.0,1551189178.486
1900237.0,1551189178.526
1900389.0,1551189178.567
1900544.0,1551189178.606
1900873.0,1551189178.647
1901044.0,1551189178.688
1901262.0,1551189178.727
1901361.0,1551189178.765
1901968.0,1551189178.846
1901693.0,1551189178.806
1902340.0,1551189178.886
1902954.0,1551189178.966
1902512.0,1551189179.049
1902898.0,1551189178.927
1903310.0,1551189179.007
1901383.0,1551189179.087
1900706.0,1551189179.127
1899157.0,1551189179.247
1900259.0,1551189179.166
1898949.0,1551189179.287
1898765.0,1551189179.326
1898539.0,1551189179.367
1899654.0,1551189179.206
1898204.0,1551189179.408
1898283.0,1551189179.448
1898193.0,1551189179.485
1898707.0,1551189179.526
1898376.0,1551189179.565
1898737.0,1551189179.605
1898794.0,1551189179.646
1898860.0,1551189179.686
1898968.0,1551189179.726
1899325.0,1551189179.767
1899402.0,1551189179.806
1899798.0,1551189179.847
1899887.0,1551189179.887
1900120.0,1551189179.927
1900196.0,1551189179.967
1898063.0,1551189180.048
1899314.0,1551189180.008
1897305.0,1551189180.088
1895602.0,1551189180.208
1896135.0,1551189180.168
1895341.0,1551189180.248
1895046.0,1551189180.286
1894669.0,1551189180.327
1894697.0,1551189180.368
1894459.0,1551189180.407
1894433.0,1551189180.448
1894708.0,1551189180.489
1895213.0,1551189180.528
1896826.0,1551189180.129
1895174.0,1551189180.568
1895369.0,1551189180.607
1895748.0,1551189180.647
1896241.0,1551189180.687
1896600.0,1551189180.728
1896845.0,1551189180.767
1897521.0,1551189180.808
1898026.0,1551189180.85
1898176.0,1551189180.888
1897413.0,1551189180.928
1896612.0,1551189180.968
1896050.0,1551189181.007
1895363.0,1551189181.048
1894935.0,1551189181.088
1894138.0,1551189181.128
1893738.0,1551189181.168
1893388.0,1551189181.209
1892976.0,1551189181.249
1892646.0,1551189181.289
1892496.0,1551189181.367
1892574.0,1551189181.33
1892570.0,1551189181.407
1892812.0,1551189181.449
1892860.0,1551189181.488
1893499.0,1551189181.569
1893750.0,1551189181.608
1893288.0,1551189181.528
1894137.0,1551189181.649
1894564.0,1551189181.69
1895480.0,1551189181.767
1896118.0,1551189181.808
1895590.0,1551189181.848
1894802.0,1551189181.888
1893880.0,1551189181.929
1893296.0,1551189181.968
1894902.0,1551189181.729
1892804.0,1551189182.009
1891681.0,1551189182.049
1891343.0,1551189182.087
1890586.0,1551189182.127
1890309.0,1551189182.169
1889709.0,1551189182.207
1889347.0,1551189182.248
1889136.0,1551189182.289
1889134.0,1551189182.328
1889211.0,1551189182.368
1889049.0,1551189182.41
1889059.0,1551189182.489
1889329.0,1551189182.569
1889135.0,1551189182.53
1889250.0,1551189182.449
1889538.0,1551189182.61
1890452.0,1551189182.688
1890030.0,1551189182.65
1890770.0,1551189182.728
1890429.0,1551189182.77
1889158.0,1551189182.809
1886690.0,1551189182.85
1884602.0,1551189182.89
1882803.0,1551189182.929
1881498.0,1551189182.97
1881003.0,1551189183.009
1880682.0,1551189183.049
1880380.0,1551189183.089
1880312.0,1551189183.13
1880595.0,1551189183.169
1880881.0,1551189183.209
1881276.0,1551189183.251
1881793.0,1551189183.29
1882210.0,1551189183.33
1882754.0,1551189183.369
1883368.0,1551189183.409
1883644.0,1551189183.449
1884873.0,1551189183.529
1885562.0,1551189183.57
1886421.0,1551189183.611
1886697.0,1551189183.651
1887351.0,1551189183.69
1886804.0,1551189183.732
1885964.0,1551189183.769
1884501.0,1551189183.49
1885031.0,1551189183.809
1884704.0,1551189183.851
1884085.0,1551189183.889
1883813.0,1551189183.93
1883312.0,1551189183.971
1883202.0,1551189184.01
1882751.0,1551189184.051
1882475.0,1551189184.092
1882337.0,1551189184.129
1882452.0,1551189184.169
1882611.0,1551189184.21
1882592.0,1551189184.25
1882978.0,1551189184.29
1882905.0,1551189184.331
1883231.0,1551189184.37
1883290.0,1551189184.411
1883597.0,1551189184.453
1884136.0,1551189184.529
1884888.0,1551189184.609
1885215.0,1551189184.65
1885273.0,1551189184.69
1883652.0,1551189184.491
1884506.0,1551189184.57
1883961.0,1551189184.729
1883247.0,1551189184.77
1882324.0,1551189184.851
1882761.0,1551189184.811
1881664.0,1551189184.932
1882029.0,1551189184.89
1881421.0,1551189184.971
1881348.0,1551189185.011
1881142.0,1551189185.053
1881327.0,1551189185.09
1881569.0,1551189185.13
1881758.0,1551189185.171
1882029.0,1551189185.21
1882331.0,1551189185.251
1882844.0,1551189185.292
1883087.0,1551189185.331
1883530.0,1551189185.371
1884192.0,1551189185.413
1884662.0,1551189185.452
1885190.0,1551189185.49
1885853.0,1551189185.531
1886439.0,1551189185.57
1887018.0,1551189185.611
1886813.0,1551189185.653
1885717.0,1551189185.691
1885146.0,1551189185.731
1884901.0,1551189185.773
1884426.0,1551189185.812
1883881.0,1551189185.851
1883643.0,1551189185.891
1883613.0,1551189185.93
1883381.0,1551189185.971
1883258.0,1551189186.012
1883419.0,1551189186.052
1883600.0,1551189186.091
1884033.0,1551189186.133
1884100.0,1551189186.172
1884507.0,1551189186.212
1885051.0,1551189186.252
1885458.0,1551189186.29
1885957.0,1551189186.331
1886615.0,1551189186.372
1886859.0,1551189186.411
1887340.0,1551189186.452
1887815.0,1551189186.493
1888568.0,1551189186.532
1888911.0,1551189186.572
1888992.0,1551189186.614
1888018.0,1551189186.646
1887294.0,1551189186.686
1886921.0,1551189186.727
1886529.0,1551189186.766
1885923.0,1551189186.806
1885038.0,1551189186.886
1885398.0,1551189186.848
1884557.0,1551189186.967
1884442.0,1551189187.006
1884259.0,1551189187.047
1884278.0,1551189187.087
1884488.0,1551189187.126
1884561.0,1551189187.166
1884576.0,1551189187.208
1884789.0,1551189186.926
1884795.0,1551189187.247
1884999.0,1551189187.287
1885217.0,1551189187.325
1885355.0,1551189187.364
1885662.0,1551189187.405
1886120.0,1551189187.447
1886408.0,1551189187.485
1886137.0,1551189187.525
1884497.0,1551189187.606
1884131.0,1551189187.647
1885267.0,1551189187.567
1884166.0,1551189187.685
1883530.0,1551189187.724
1883341.0,1551189187.765
1883422.0,1551189187.806
1883166.0,1551189187.846
1883049.0,1551189187.885
1883222.0,1551189187.927
1883570.0,1551189187.966
1883897.0,1551189188.006
1884314.0,1551189188.048
1884761.0,1551189188.085
1885144.0,1551189188.125
1885585.0,1551189188.166
1886144.0,1551189188.205
1886488.0,1551189188.246
1887232.0,1551189188.287
1887706.0,1551189188.326
1888270.0,1551189188.366
1888570.0,1551189188.408
1888172.0,1551189188.447
1887141.0,1551189188.485
1886726.0,1551189188.526
1886549.0,1551189188.565
1885582.0,1551189188.606
1885198.0,1551189188.648
1884978.0,1551189188.686
1884599.0,1551189188.726
1884386.0,1551189188.768
1884017.0,1551189188.807
1884042.0,1551189188.846
1884383.0,1551189188.886
1884227.0,1551189188.925
1884745.0,1551189188.966
1884889.0,1551189189.007
1885044.0,1551189189.047
1885496.0,1551189189.086
1885754.0,1551189189.128
1886253.0,1551189189.167
1886695.0,1551189189.207
1887129.0,1551189189.247
1887823.0,1551189189.286
1888299.0,1551189189.326
1888461.0,1551189189.367
1887530.0,1551189189.406
1886575.0,1551189189.447
1885994.0,1551189189.488
1885720.0,1551189189.527
1885030.0,1551189189.567
1884540.0,1551189189.609
1884294.0,1551189189.646
1883711.0,1551189189.686
1883581.0,1551189189.727
1883261.0,1551189189.766
1882956.0,1551189189.806
1883164.0,1551189189.848
1883109.0,1551189189.886
1883328.0,1551189189.927
1883196.0,1551189189.968
1883313.0,1551189190.007
1883356.0,1551189190.048
1883539.0,1551189190.089
1883634.0,1551189190.128
1883899.0,1551189190.166
1884259.0,1551189190.207
1884489.0,1551189190.247
1884988.0,1551189190.287
1884595.0,1551189190.328
1883589.0,1551189190.367
1883019.0,1551189190.407
1882174.0,1551189190.449
1882000.0,1551189190.488
1881260.0,1551189190.528
1881045.0,1551189190.567
1880914.0,1551189190.606
1880757.0,1551189190.647
1880399.0,1551189190.689
1880501.0,1551189190.727
1880666.0,1551189190.767
1881087.0,1551189190.809
1881233.0,1551189190.849
1881686.0,1551189190.888
1881996.0,1551189190.929
1882549.0,1551189190.967
1882636.0,1551189191.007
1883248.0,1551189191.049
1883878.0,1551189191.087
1884164.0,1551189191.127
1884976.0,1551189191.169
1885703.0,1551189191.208
1886065.0,1551189191.249
1884924.0,1551189191.329
1884300.0,1551189191.367
1885683.0,1551189191.29
1883920.0,1551189191.408
1882937.0,1551189191.488
1883551.0,1551189191.448
1882594.0,1551189191.529
1882404.0,1551189191.568
1882088.0,1551189191.608
1881856.0,1551189191.65
1881844.0,1551189191.689
1882116.0,1551189191.729
1882413.0,1551189191.768
1882637.0,1551189191.807
1883088.0,1551189191.848
1883547.0,1551189191.889
1883868.0,1551189191.928
1884526.0,1551189191.968
1885174.0,1551189192.01
1885584.0,1551189192.049
1886107.0,1551189192.089
1886912.0,1551189192.13
1887588.0,1551189192.167
1888336.0,1551189192.208
1888728.0,1551189192.25
1888057.0,1551189192.288
1887418.0,1551189192.328
1887026.0,1551189192.369
1886646.0,1551189192.408
1886059.0,1551189192.449
1885614.0,1551189192.49
1885447.0,1551189192.529
1885371.0,1551189192.569
1884746.0,1551189192.611
1884360.0,1551189192.648
1884289.0,1551189192.688
1884604.0,1551189192.729
1884971.0,1551189192.768
1885125.0,1551189192.809
1885196.0,1551189192.851
1885367.0,1551189192.889
1885612.0,1551189192.93
1885503.0,1551189192.971
1885802.0,1551189193.008
1885879.0,1551189193.049
1885932.0,1551189193.09
1886037.0,1551189193.129
1886180.0,1551189193.169
1886118.0,1551189193.21
1884943.0,1551189193.25
1883821.0,1551189193.29
1883102.0,1551189193.331
1882544.0,1551189193.37
1882384.0,1551189193.408
1881770.0,1551189193.45
1881518.0,1551189193.489
1881241.0,1551189193.529
1880971.0,1551189193.57
1880875.0,1551189193.609
1881029.0,1551189193.65
1880970.0,1551189193.691
1881534.0,1551189193.73
1881615.0,1551189193.77
1881987.0,1551189193.81
1882268.0,1551189193.849
1882629.0,1551189193.889
1883540.0,1551189193.969
1884788.0,1551189194.052
1883085.0,1551189193.93
1885271.0,1551189194.09
1886236.0,1551189194.13
1886450.0,1551189194.172
1884047.0,1551189194.01
1885710.0,1551189194.209
1885062.0,1551189194.25
1884628.0,1551189194.29
1883930.0,1551189194.33
1883432.0,1551189194.37
1883055.0,1551189194.451
1883305.0,1551189194.491
1883696.0,1551189194.571
1883165.0,1551189194.411
1884520.0,1551189194.651
1884251.0,1551189194.609
1883379.0,1551189194.532
1884650.0,1551189194.69
1884559.0,1551189194.73
1884525.0,1551189194.771
1885048.0,1551189194.81
1885718.0,1551189194.849
1886536.0,1551189194.889
1887510.0,1551189194.928
1888171.0,1551189194.969
1888216.0,1551189195.011
1888708.0,1551189195.05
1888870.0,1551189195.089
1888257.0,1551189195.131
1886753.0,1551189195.17
1885256.0,1551189195.21
1883738.0,1551189195.252
1882350.0,1551189195.291
1881032.0,1551189195.331
1880240.0,1551189195.372
1879343.0,1551189195.411
1878164.0,1551189195.452
1877499.0,1551189195.491
1876928.0,1551189195.53
1876386.0,1551189195.57
1876086.0,1551189195.611
1875380.0,1551189195.651
1875016.0,1551189195.691
1874488.0,1551189195.732
1874316.0,1551189195.771
1874079.0,1551189195.812
1873767.0,1551189195.854
1873804.0,1551189195.89
1873945.0,1551189195.93
1874453.0,1551189195.972
1874597.0,1551189196.011
1874257.0,1551189196.052
1873460.0,1551189196.092
1872652.0,1551189196.131
1872257.0,1551189196.172
1872125.0,1551189196.213
1871575.0,1551189196.253
1871537.0,1551189196.29
1871406.0,1551189196.332
1871203.0,1551189196.371
1871256.0,1551189196.411
1871334.0,1551189196.453
1871708.0,1551189196.491
1871864.0,1551189196.532
1873024.0,1551189196.612
1872280.0,1551189196.573
1873980.0,1551189196.692
1873179.0,1551189196.653
1874607.0,1551189196.731
1875567.0,1551189196.771
1876486.0,1551189196.812
1877727.0,1551189196.852
1878498.0,1551189196.892
1878290.0,1551189196.933
1877611.0,1551189196.972
1877073.0,1551189197.012
1877008.0,1551189197.054
1876350.0,1551189197.091
1875382.0,1551189197.131
1875266.0,1551189197.172
1874937.0,1551189197.212
1874898.0,1551189197.253
1875107.0,1551189197.293
1875514.0,1551189197.332
1875927.0,1551189197.373
1877290.0,1551189197.451
1877884.0,1551189197.491
1876501.0,1551189197.411
1878836.0,1551189197.532
1879548.0,1551189197.571
1880471.0,1551189197.611
1881234.0,1551189197.653
1882263.0,1551189197.692
1882956.0,1551189197.732
1883569.0,1551189197.773
1884010.0,1551189197.813
1883425.0,1551189197.854
1882127.0,1551189197.894
1881295.0,1551189197.933
1880478.0,1551189197.971
1879405.0,1551189198.013
1878820.0,1551189198.053
1878030.0,1551189198.092
1877650.0,1551189198.133
1877149.0,1551189198.173
1877241.0,1551189198.213
1876948.0,1551189198.255
1876680.0,1551189198.293
1876516.0,1551189198.334
1876302.0,1551189198.373
1875736.0,1551189198.412
1875474.0,1551189198.453
1874894.0,1551189198.493
1874493.0,1551189198.533
1874562.0,1551189198.573
1874468.0,1551189198.614
1874795.0,1551189198.655
1875288.0,1551189198.694
1875514.0,1551189198.735
1875347.0,1551189198.774
1874468.0,1551189198.814
1873298.0,1551189198.856
1872781.0,1551189198.894
1872334.0,1551189198.935
1871846.0,1551189198.976
1871358.0,1551189199.015
1870837.0,1551189199.096
1871099.0,1551189199.055
1870635.0,1551189199.135
1870382.0,1551189199.175
1870584.0,1551189199.214
1870893.0,1551189199.254
1871021.0,1551189199.294
1871493.0,1551189199.335
1871791.0,1551189199.374
1872006.0,1551189199.415
1872418.0,1551189199.457
1872891.0,1551189199.495
1873399.0,1551189199.535
1873947.0,1551189199.575
1874606.0,1551189199.614
1875020.0,1551189199.655
1875611.0,1551189199.695
1874825.0,1551189199.734
1873876.0,1551189199.775
1873119.0,1551189199.816
1872732.0,1551189199.856
1871956.0,1551189199.896
1871407.0,1551189199.937
1870994.0,1551189199.976
1870955.0,1551189200.016
1870416.0,1551189200.094
1870652.0,1551189200.058
1870304.0,1551189200.134
1870393.0,1551189200.176
1870184.0,1551189200.215
1870524.0,1551189200.296
1870445.0,1551189200.335
1870836.0,1551189200.376
1870241.0,1551189200.256
1870846.0,1551189200.417
1871040.0,1551189200.457
1870988.0,1551189200.494
1871420.0,1551189200.575
1871635.0,1551189200.615
1871297.0,1551189200.535
1871629.0,1551189200.695
1869282.0,1551189200.777
1868723.0,1551189200.816
1868033.0,1551189200.855
1866980.0,1551189200.896
1866477.0,1551189200.935
1866280.0,1551189200.975
1866297.0,1551189201.016
1866433.0,1551189201.056
1866914.0,1551189201.096
1871968.0,1551189200.657
1870504.0,1551189200.736
1867679.0,1551189201.137
1868237.0,1551189201.176
1869008.0,1551189201.217
1869763.0,1551189201.257
1870182.0,1551189201.295
1871053.0,1551189201.335
1871818.0,1551189201.377
1872335.0,1551189201.416
1873076.0,1551189201.457
1874679.0,1551189201.536
1873903.0,1551189201.497
1876362.0,1551189201.618
1875721.0,1551189201.577
1876065.0,1551189201.695
1876468.0,1551189201.656
1876105.0,1551189201.737
1876338.0,1551189201.776
1876609.0,1551189201.816
1876732.0,1551189201.858
1876895.0,1551189201.897
1877080.0,1551189201.937
1877127.0,1551189201.978
1877432.0,1551189202.015
1877470.0,1551189202.056
1878041.0,1551189202.097
1878886.0,1551189202.136
1879539.0,1551189202.176
1880738.0,1551189202.257
1881415.0,1551189202.297
1881970.0,1551189202.338
1880160.0,1551189202.218
1882546.0,1551189202.378
1883172.0,1551189202.416
1883795.0,1551189202.458
1884536.0,1551189202.499
1885355.0,1551189202.535
1886160.0,1551189202.577
1885839.0,1551189202.657
1885112.0,1551189202.697
1886374.0,1551189202.616
1884957.0,1551189202.736
1884895.0,1551189202.777
1884282.0,1551189202.858
1884360.0,1551189202.897
1884323.0,1551189202.818
1884168.0,1551189202.939
1884153.0,1551189202.978
1883984.0,1551189203.016
1884293.0,1551189203.096
1884680.0,1551189203.137
1884119.0,1551189203.058
1884774.0,1551189203.217
1884859.0,1551189203.258
1884920.0,1551189203.299
1885171.0,1551189203.338
1885310.0,1551189203.378
1885432.0,1551189203.417
1885748.0,1551189203.457
1884621.0,1551189203.178
1885932.0,1551189203.497
1886408.0,1551189203.538
1884280.0,1551189203.66
1883699.0,1551189203.698
1883136.0,1551189203.778
1882819.0,1551189203.858
1882811.0,1551189203.898
1883040.0,1551189203.817
1882642.0,1551189203.978
1882596.0,1551189203.937
1883375.0,1551189203.738
1885221.0,1551189203.618
1886137.0,1551189203.577
1883187.0,1551189204.059
1882905.0,1551189204.019
1883956.0,1551189204.14
1883421.0,1551189204.099
1884210.0,1551189204.177
1885212.0,1551189204.259
1885756.0,1551189204.298
1884855.0,1551189204.217
1886085.0,1551189204.338
1886714.0,1551189204.379
1887376.0,1551189204.418
1888594.0,1551189204.5
1887501.0,1551189204.577
1888047.0,1551189204.459
1886794.0,1551189204.618
1888372.0,1551189204.539
1886468.0,1551189204.658
1886004.0,1551189204.698
1885477.0,1551189204.739
1885076.0,1551189204.819
1884778.0,1551189204.899
1884936.0,1551189204.861
1885247.0,1551189204.778
1884835.0,1551189204.937
1885099.0,1551189204.979
1885312.0,1551189205.018
1885536.0,1551189205.059
1885731.0,1551189205.099
1886147.0,1551189205.138
1886457.0,1551189205.178
1886822.0,1551189205.219
1887164.0,1551189205.259
1887547.0,1551189205.299
1888227.0,1551189205.34
1888682.0,1551189205.379
1889271.0,1551189205.42
1890071.0,1551189205.46
1889834.0,1551189205.538
1888926.0,1551189205.58
1888348.0,1551189205.619
1890452.0,1551189205.498
1888211.0,1551189205.66
1887791.0,1551189205.7
1887009.0,1551189205.739
1886827.0,1551189205.78
1886668.0,1551189205.821
1885786.0,1551189205.898
1886061.0,1551189205.859
1885470.0,1551189205.94
1885571.0,1551189205.979
1885499.0,1551189206.019
1885273.0,1551189206.1
1885408.0,1551189206.061
1885143.0,1551189206.14
1885350.0,1551189206.181
1885466.0,1551189206.259
1885192.0,1551189206.22
1885585.0,1551189206.3
1885783.0,1551189206.339
1886130.0,1551189206.379
1886140.0,1551189206.42
1886007.0,1551189206.46
1885120.0,1551189206.5
1883895.0,1551189206.541
1883504.0,1551189206.58
1882967.0,1551189206.621
1882600.0,1551189206.66
1882347.0,1551189206.699
1882159.0,1551189206.739
1881700.0,1551189206.78
1881417.0,1551189206.82
1881301.0,1551189206.861
1881404.0,1551189206.901
1881487.0,1551189206.941
1881897.0,1551189207.02
1881629.0,1551189206.981
1882258.0,1551189207.06
1882581.0,1551189207.1
1882797.0,1551189207.141
1883126.0,1551189207.18
1883751.0,1551189207.22
1884072.0,1551189207.262
1884805.0,1551189207.301
1885264.0,1551189207.341
1885597.0,1551189207.38
1884821.0,1551189207.42
1883858.0,1551189207.461
1883043.0,1551189207.501
1882639.0,1551189207.54
1881868.0,1551189207.581
1881242.0,1551189207.622
1881116.0,1551189207.659
1880718.0,1551189207.7
1880409.0,1551189207.741
1880086.0,1551189207.78
1880104.0,1551189207.82
1880173.0,1551189207.862
1880482.0,1551189207.9
1880378.0,1551189207.941
1880638.0,1551189207.982
1880908.0,1551189208.021
1881218.0,1551189208.062
1881691.0,1551189208.103
1882063.0,1551189208.14
1882556.0,1551189208.18
1883108.0,1551189208.221
1883511.0,1551189208.261
1883944.0,1551189208.301
1884749.0,1551189208.342
1884397.0,1551189208.381
1883238.0,1551189208.422
1882173.0,1551189208.464
1881521.0,1551189208.5
1880811.0,1551189208.54
1880217.0,1551189208.582
1879553.0,1551189208.621
1878833.0,1551189208.702
1877956.0,1551189208.782
1879192.0,1551189208.662
1877815.0,1551189208.823
1877831.0,1551189208.861
1878139.0,1551189208.742
1877737.0,1551189208.901
1877765.0,1551189208.942
1877772.0,1551189208.981
1878064.0,1551189209.021
1878436.0,1551189209.063
1878534.0,1551189209.102
1878929.0,1551189209.142
1879309.0,1551189209.183
1879838.0,1551189209.221
1880611.0,1551189209.262
1880567.0,1551189209.302
1879478.0,1551189209.341
1878454.0,1551189209.423
1878182.0,1551189209.463
1877885.0,1551189209.502
1877595.0,1551189209.544
1878929.0,1551189209.382
1877573.0,1551189209.581
1877608.0,1551189209.621
1877362.0,1551189209.702
1877814.0,1551189209.783
1877277.0,1551189209.663
1878408.0,1551189209.822
1877579.0,1551189209.742
1878571.0,1551189209.863
1879125.0,1551189209.904
1880128.0,1551189209.941
1881251.0,1551189209.981
1883434.0,1551189210.063
1882530.0,1551189210.023
1884017.0,1551189210.143
1884266.0,1551189210.183
1884357.0,1551189210.22
1884364.0,1551189210.264
1883844.0,1551189210.102
1883089.0,1551189210.302
1882352.0,1551189210.341
1881917.0,1551189210.383
1881777.0,1551189210.422
1881287.0,1551189210.463
1881128.0,1551189210.503
1881188.0,1551189210.542
1881119.0,1551189210.583
1880854.0,1551189210.624
1880872.0,1551189210.663
1881221.0,1551189210.702
1881535.0,1551189210.743
1881463.0,1551189210.782
1880291.0,1551189210.822
1878701.0,1551189210.864
1877376.0,1551189210.902
1876203.0,1551189210.943
1874693.0,1551189210.984
1873598.0,1551189211.023
1872545.0,1551189211.063
1871535.0,1551189211.104
1870475.0,1551189211.144
1869565.0,1551189211.185
1868035.0,1551189211.225
1865844.0,1551189211.265
1863353.0,1551189211.304
1861288.0,1551189211.346
1859613.0,1551189211.385
1857982.0,1551189211.425
1857350.0,1551189211.467
1857746.0,1551189211.505
1858193.0,1551189211.546
1858173.0,1551189211.587
1858731.0,1551189211.626
1858852.0,1551189211.665
1858827.0,1551189211.745
1858571.0,1551189211.785
1858425.0,1551189211.826
1858970.0,1551189211.706
1858519.0,1551189211.866
1858262.0,1551189211.906
1858269.0,1551189211.947
1858571.0,1551189211.986
1858956.0,1551189212.025
1860041.0,1551189212.067
1861272.0,1551189212.105
1861706.0,1551189212.145
1861242.0,1551189212.187
1861025.0,1551189212.226
1861136.0,1551189212.267
1861645.0,1551189212.307
1861588.0,1551189212.347
1862153.0,1551189212.387
1862476.0,1551189212.426
1863081.0,1551189212.466
1863309.0,1551189212.505
1863856.0,1551189212.547
1864490.0,1551189212.586
1865118.0,1551189212.626
1865835.0,1551189212.668
1866877.0,1551189212.707
1867350.0,1551189212.747
1868344.0,1551189212.788
1869462.0,1551189212.825
1870974.0,1551189212.907
1871862.0,1551189212.946
1870000.0,1551189212.866
1872653.0,1551189212.986
1873678.0,1551189213.028
1873396.0,1551189213.107
1872658.0,1551189213.185
1872485.0,1551189213.226
1873925.0,1551189213.068
1872987.0,1551189213.148
1872237.0,1551189213.268
1872169.0,1551189213.306
1872490.0,1551189213.346
1872200.0,1551189213.388
1871907.0,1551189213.427
1871542.0,1551189213.468
1871173.0,1551189213.548
1871610.0,1551189213.508
1871321.0,1551189213.627
1871328.0,1551189213.586
1871396.0,1551189213.667
1871805.0,1551189213.706
1871999.0,1551189213.748
1872320.0,1551189213.787
1872705.0,1551189213.827
1873033.0,1551189213.869
1873207.0,1551189213.908
1873518.0,1551189213.946
1873897.0,1551189213.987
1872305.0,1551189214.067
1873613.0,1551189214.026
1871182.0,1551189214.108
1870364.0,1551189214.147
1869202.0,1551189214.229
1869768.0,1551189214.187
1868747.0,1551189214.269
1868313.0,1551189214.308
1867127.0,1551189214.387
1867882.0,1551189214.347
1866164.0,1551189214.469
1866860.0,1551189214.427
1865897.0,1551189214.507
1865691.0,1551189214.548
1865581.0,1551189214.589
1865338.0,1551189214.628
1865358.0,1551189214.669
1865306.0,1551189214.71
1865258.0,1551189214.747
1865615.0,1551189214.787
1865922.0,1551189214.828
1866190.0,1551189214.868
1866506.0,1551189214.908
1865777.0,1551189214.949
1864871.0,1551189214.988
1863894.0,1551189215.071
1863596.0,1551189215.107
1863347.0,1551189215.147
1864236.0,1551189215.028
1863417.0,1551189215.188
1863166.0,1551189215.228
1863143.0,1551189215.269
1863170.0,1551189215.311
1863797.0,1551189215.386
1865017.0,1551189215.468
1865645.0,1551189215.507
1864436.0,1551189215.428
1863258.0,1551189215.346
1866230.0,1551189215.548
1867010.0,1551189215.588
1867587.0,1551189215.628
1868314.0,1551189215.67
1870154.0,1551189215.749
1870540.0,1551189215.79
1869811.0,1551189215.829
1869112.0,1551189215.868
1868921.0,1551189215.909
1868598.0,1551189215.948
1869120.0,1551189215.708
1867943.0,1551189216.03
1868218.0,1551189215.988
1867857.0,1551189216.109
1868019.0,1551189216.069
1867779.0,1551189216.15
1867802.0,1551189216.19
1868105.0,1551189216.228
1868371.0,1551189216.27
1868729.0,1551189216.308
1869251.0,1551189216.348
1869518.0,1551189216.39
1870106.0,1551189216.429
1870622.0,1551189216.47
1871777.0,1551189216.55
1873257.0,1551189216.629
1872558.0,1551189216.59
1871269.0,1551189216.51
1873937.0,1551189216.669
1874142.0,1551189216.708
1873170.0,1551189216.75
1872357.0,1551189216.789
1871776.0,1551189216.829
1871110.0,1551189216.871
1870401.0,1551189216.91
1870040.0,1551189216.95
1869667.0,1551189216.989
1869431.0,1551189217.028
1869340.0,1551189217.069
1869080.0,1551189217.11
1869088.0,1551189217.149
1869552.0,1551189217.189
1869328.0,1551189217.231
1869543.0,1551189217.271
1870261.0,1551189217.35
1870374.0,1551189217.389
1871126.0,1551189217.471
1869883.0,1551189217.31
1870929.0,1551189217.429
1871721.0,1551189217.509
1871811.0,1551189217.55
1872363.0,1551189217.591
1872551.0,1551189217.63
1871991.0,1551189217.671
1870413.0,1551189217.712
1869646.0,1551189217.749
1868655.0,1551189217.789
1868029.0,1551189217.83
1867074.0,1551189217.87
1866734.0,1551189217.91
1866200.0,1551189217.951
1865590.0,1551189217.99
1865336.0,1551189218.03
1865139.0,1551189218.072
1865419.0,1551189218.11
1865512.0,1551189218.151
1865797.0,1551189218.192
1865983.0,1551189218.231
1866389.0,1551189218.27
1866402.0,1551189218.31
1866952.0,1551189218.35
1867389.0,1551189218.39
1867628.0,1551189218.431
1867935.0,1551189218.471
1868622.0,1551189218.511
1868981.0,1551189218.552
1867949.0,1551189218.591
1866982.0,1551189218.629
1866428.0,1551189218.671
1865929.0,1551189218.71
1865722.0,1551189218.75
1865263.0,1551189218.791
1865490.0,1551189218.831
1866805.0,1551189218.872
1869079.0,1551189218.912
1871319.0,1551189218.951
1873343.0,1551189218.99
1874487.0,1551189219.031
1875458.0,1551189219.071
1875606.0,1551189219.11
1875963.0,1551189219.152
1876060.0,1551189219.231
1876112.0,1551189219.191
1876166.0,1551189219.273
1876211.0,1551189219.312
1876579.0,1551189219.352
1876956.0,1551189219.391
1877241.0,1551189219.43
1877739.0,1551189219.471
1877361.0,1551189219.512
1875913.0,1551189219.551
1874921.0,1551189219.591
1874289.0,1551189219.632
1873527.0,1551189219.672
1872789.0,1551189219.712
1872413.0,1551189219.751
1872052.0,1551189219.79
1871859.0,1551189219.831
1871368.0,1551189219.873
1871126.0,1551189219.911
1871121.0,1551189219.951
1871043.0,1551189219.993
1871112.0,1551189220.032
1871138.0,1551189220.073
1898992.0,1551189234.63
1897111.0,1551189234.669
1895675.0,1551189234.71
1894596.0,1551189234.75
1893310.0,1551189234.79
1892421.0,1551189234.831
1891384.0,1551189234.87
1890692.0,1551189234.91
1889886.0,1551189234.951
1886503.0,1551189235.071
1885186.0,1551189235.11
1883898.0,1551189235.15
1882605.0,1551189235.192
1881782.0,1551189235.231
1881112.0,1551189235.271
1879604.0,1551189235.351
1880537.0,1551189235.312
1877660.0,1551189235.391
1887920.0,1551189235.031
1872955.0,1551189235.471
1888753.0,1551189234.99
1874950.0,1551189235.433
1868520.0,1551189235.552
1866286.0,1551189235.591
1870831.0,1551189235.511
1864435.0,1551189235.632
1862480.0,1551189235.673
1860373.0,1551189235.712
1858904.0,1551189235.752
1857695.0,1551189235.793
1856916.0,1551189235.833
1856127.0,1551189235.872
1855531.0,1551189235.913
1854989.0,1551189235.952
1854616.0,1551189235.993
1854298.0,1551189236.034
1854131.0,1551189236.073
1853932.0,1551189236.113
1854325.0,1551189236.193
1854170.0,1551189236.154
1854833.0,1551189236.234
1855663.0,1551189236.274
1855384.0,1551189236.313
1851934.0,1551189236.434
1851405.0,1551189236.474
1850085.0,1551189236.515
1849262.0,1551189236.554
1853698.0,1551189236.354
1848640.0,1551189236.594
1846443.0,1551189236.674
1847517.0,1551189236.636
1844533.0,1551189236.755
1845329.0,1551189236.714
1843962.0,1551189236.794
1843682.0,1551189236.835
1843557.0,1551189236.875
1852724.0,1551189236.395
1843984.0,1551189236.914
1846498.0,1551189236.995
1848380.0,1551189237.035
1849648.0,1551189237.074
1850661.0,1551189237.116
1851843.0,1551189237.154
1853407.0,1551189237.195
1855723.0,1551189237.236
1865812.0,1551189237.356
1871878.0,1551189237.395
1878736.0,1551189237.436
1857941.0,1551189237.275
1861211.0,1551189237.315
1845072.0,1551189236.954
1885887.0,1551189237.476
1893193.0,1551189237.515
1908382.0,1551189237.596
1919473.0,1551189237.636
1929535.0,1551189237.675
1938810.0,1551189237.716
1946254.0,1551189237.755
1900163.0,1551189237.555
1952426.0,1551189237.795
1958277.0,1551189237.837
1965199.0,1551189237.876
1979883.0,1551189237.957
1972765.0,1551189237.916
1993226.0,1551189238.037
1986918.0,1551189237.996
1999306.0,1551189238.077
2005420.0,1551189238.116
2015348.0,1551189238.197
2019296.0,1551189238.237
2011096.0,1551189238.156
2023118.0,1551189238.276
2026611.0,1551189238.317
2030144.0,1551189238.356
2033706.0,1551189238.396
2037030.0,1551189238.438
2040793.0,1551189238.477
2044405.0,1551189238.517
2047983.0,1551189238.558
2051578.0,1551189238.597
2054905.0,1551189238.638
2057888.0,1551189238.678
2060555.0,1551189238.717
2062082.0,1551189238.757
2063844.0,1551189238.798
2065794.0,1551189238.838
2068203.0,1551189238.877
2070656.0,1551189238.918
2073130.0,1551189238.957
2074481.0,1551189238.997
2075007.0,1551189239.039
2075557.0,1551189239.078
2076250.0,1551189239.118
2076397.0,1551189239.159
2076699.0,1551189239.198
2077459.0,1551189239.239
2078418.0,1551189239.279
2079476.0,1551189239.318
2081135.0,1551189239.358
2082480.0,1551189239.399
2083495.0,1551189239.439
2084775.0,1551189239.478
2086231.0,1551189239.519
2086886.0,1551189239.558
2088324.0,1551189239.598
2089499.0,1551189239.64
2090721.0,1551189239.678
2091608.0,1551189239.719
2092909.0,1551189239.76
2095816.0,1551189239.799
2097504.0,1551189239.839
2097523.0,1551189239.88
2096816.0,1551189239.919
2096394.0,1551189239.959
2096443.0,1551189240.0
2096372.0,1551189240.04
2096879.0,1551189240.079
2096889.0,1551189240.12
2095976.0,1551189240.159
2093922.0,1551189240.199
2091177.0,1551189240.241
2087749.0,1551189240.28
2084683.0,1551189240.32
2082112.0,1551189240.361
2080256.0,1551189240.4
2079192.0,1551189240.441
2078339.0,1551189240.481
2078156.0,1551189240.52
2077961.0,1551189240.56
2078077.0,1551189240.601
2078166.0,1551189240.641
2077978.0,1551189240.68
2077841.0,1551189240.721
2076781.0,1551189240.76
2075323.0,1551189240.8
2073886.0,1551189240.842
2072919.0,1551189240.881
2071789.0,1551189240.921
2070505.0,1551189240.962
2069037.0,1551189241.001
2067475.0,1551189241.041
2065707.0,1551189241.082
2064190.0,1551189241.121
2062406.0,1551189241.161
2060732.0,1551189241.202
2059984.0,1551189241.242
2059901.0,1551189241.281
2060609.0,1551189241.322
2061900.0,1551189241.361
2061298.0,1551189241.401
2060116.0,1551189241.443
2058975.0,1551189241.482
2057620.0,1551189241.522
2055502.0,1551189241.563
2052118.0,1551189241.602
2049617.0,1551189241.643
2047513.0,1551189241.684
2045746.0,1551189241.722
2044990.0,1551189241.762
2044842.0,1551189241.803
2044606.0,1551189241.843
2044195.0,1551189241.882
2043578.0,1551189241.923
2043316.0,1551189241.962
2042711.0,1551189242.003
2042481.0,1551189242.044
2042190.0,1551189242.083
2042230.0,1551189242.123
2041689.0,1551189242.164
2041642.0,1551189242.203
2041643.0,1551189242.244
2041808.0,1551189242.284
2041518.0,1551189242.323
2040444.0,1551189242.363
2038519.0,1551189242.404
2036259.0,1551189242.444
2034703.0,1551189242.483
2033201.0,1551189242.525
2031610.0,1551189242.564
2030416.0,1551189242.604
2028638.0,1551189242.645
2026664.0,1551189242.684
2024723.0,1551189242.724
2023303.0,1551189242.765
2021840.0,1551189242.804
2021453.0,1551189242.845
2021341.0,1551189242.885
2021550.0,1551189242.924
2021705.0,1551189242.964
2022258.0,1551189243.005
2022656.0,1551189243.045
2022785.0,1551189243.084
2022025.0,1551189243.125
2019983.0,1551189243.164
2018365.0,1551189243.205
2016976.0,1551189243.246
2015810.0,1551189243.285
2014447.0,1551189243.325
2013528.0,1551189243.366
2013133.0,1551189243.405
2012027.0,1551189243.446
2011316.0,1551189243.486
2010741.0,1551189243.525
2010469.0,1551189243.565
2010552.0,1551189243.606
2010341.0,1551189243.646
2010272.0,1551189243.685
2010388.0,1551189243.726
2010449.0,1551189243.765
2010799.0,1551189243.805
2011037.0,1551189243.847
2011434.0,1551189243.886
2011465.0,1551189243.926
2009727.0,1551189243.967
2007750.0,1551189244.006
2006279.0,1551189244.047
2004863.0,1551189244.087
2003489.0,1551189244.126
2002233.0,1551189244.166
2001633.0,1551189244.207
2000931.0,1551189244.247
2000017.0,1551189244.287
1999226.0,1551189244.328
1998976.0,1551189244.367
1998804.0,1551189244.407
1999035.0,1551189244.448
1998919.0,1551189244.487
1998949.0,1551189244.527
1999271.0,1551189244.568
1999574.0,1551189244.607
1999446.0,1551189244.648
1999697.0,1551189244.688
2000213.0,1551189244.727
2000655.0,1551189244.768
2000644.0,1551189244.809
1998958.0,1551189244.848
1996906.0,1551189244.888
1995845.0,1551189244.929
1994838.0,1551189244.968
1993879.0,1551189245.008
1993330.0,1551189245.05
1992793.0,1551189245.088
1992226.0,1551189245.128
1991556.0,1551189245.169
1991356.0,1551189245.208
1991181.0,1551189245.249
1991331.0,1551189245.29
1991496.0,1551189245.329
1991751.0,1551189245.369
1992030.0,1551189245.41
1992438.0,1551189245.45
1992810.0,1551189245.489
1993366.0,1551189245.53
1993839.0,1551189245.569
1994584.0,1551189245.609
1995180.0,1551189245.651
1995780.0,1551189245.689
1994639.0,1551189245.729
1992746.0,1551189245.771
1991349.0,1551189245.81
1990360.0,1551189245.85
1988938.0,1551189245.891
1987958.0,1551189245.93
1987253.0,1551189245.97
1986785.0,1551189246.011
1985943.0,1551189246.051
1985555.0,1551189246.09
1985114.0,1551189246.131
1985195.0,1551189246.17
1985462.0,1551189246.21
1985382.0,1551189246.252
1985848.0,1551189246.291
1986135.0,1551189246.331
1986648.0,1551189246.372
1987055.0,1551189246.411
1987314.0,1551189246.452
1988093.0,1551189246.492
1988751.0,1551189246.531
1989328.0,1551189246.571
1990367.0,1551189246.612
1990183.0,1551189246.704
1988564.0,1551189246.743
1986888.0,1551189246.785
1986093.0,1551189246.824
1985090.0,1551189246.864
1984424.0,1551189246.905
1983904.0,1551189246.944
1983516.0,1551189246.984
1982928.0,1551189247.025
1982432.0,1551189247.064
1982045.0,1551189247.105
1982158.0,1551189247.145
1982095.0,1551189247.184
1982365.0,1551189247.224
1982663.0,1551189247.265
1982810.0,1551189247.305
1983372.0,1551189247.344
1983963.0,1551189247.385
1984313.0,1551189247.424
1984688.0,1551189247.464
1985388.0,1551189247.506
1986067.0,1551189247.545
1986705.0,1551189247.585
1985829.0,1551189247.626
1983976.0,1551189247.665
1982288.0,1551189247.706
1981393.0,1551189247.746
1980192.0,1551189247.785
1978846.0,1551189247.825
1977163.0,1551189247.866
1974733.0,1551189247.906
1972537.0,1551189247.945
1970318.0,1551189247.986
1968204.0,1551189248.025
1966930.0,1551189248.066
1966024.0,1551189248.107
1965546.0,1551189248.146
1965291.0,1551189248.186
1965811.0,1551189248.227
1966486.0,1551189248.266
1967377.0,1551189248.307
1968713.0,1551189248.347
1970203.0,1551189248.386
1971564.0,1551189248.426
1972861.0,1551189248.467
1974057.0,1551189248.507
1974884.0,1551189248.546
1973916.0,1551189248.587
1972434.0,1551189248.626
1971510.0,1551189248.667
1970745.0,1551189248.708
1969891.0,1551189248.747
1969121.0,1551189248.787
1968761.0,1551189248.828
1968157.0,1551189248.867
1967459.0,1551189248.908
1967053.0,1551189248.948
1966821.0,1551189248.987
1966434.0,1551189249.027
1966622.0,1551189249.068
1966586.0,1551189249.108
1966759.0,1551189249.147
1966927.0,1551189249.189
1966750.0,1551189249.228
1967059.0,1551189249.268
1967208.0,1551189249.309
1967543.0,1551189249.348
1967831.0,1551189249.388
1968658.0,1551189249.429
1968731.0,1551189249.468
1967489.0,1551189249.509
1965828.0,1551189249.549
1964736.0,1551189249.588
1964197.0,1551189249.628
1963305.0,1551189249.669
1962978.0,1551189249.709
1962382.0,1551189249.749
1961682.0,1551189249.79
1961264.0,1551189249.829
1960609.0,1551189249.869
1960025.0,1551189249.911
1959852.0,1551189249.949
1959555.0,1551189249.989
1959436.0,1551189250.03
1959355.0,1551189250.069
1959262.0,1551189250.11
1959186.0,1551189250.189
1959099.0,1551189250.15
1959319.0,1551189250.271
1959292.0,1551189250.23
1959562.0,1551189250.31
1959459.0,1551189250.35
1958011.0,1551189250.391
1955503.0,1551189250.43
1953704.0,1551189250.47
1951916.0,1551189250.512
1948370.0,1551189250.59
1950266.0,1551189250.55
1947053.0,1551189250.631
1945857.0,1551189250.67
1944189.0,1551189250.711
1942738.0,1551189250.751
1941544.0,1551189250.791
1940600.0,1551189250.831
1939811.0,1551189250.872
1939213.0,1551189250.911
1938987.0,1551189250.951
1938423.0,1551189250.992
1938182.0,1551189251.031
1938142.0,1551189251.071
1938137.0,1551189251.113
1938200.0,1551189251.151
1938349.0,1551189251.191
1938943.0,1551189251.232
1939659.0,1551189251.271
1939756.0,1551189251.312
1938294.0,1551189251.353
1935937.0,1551189251.392
1934371.0,1551189251.432
1932509.0,1551189251.473
1930829.0,1551189251.513
1928875.0,1551189251.552
1927779.0,1551189251.593
1926400.0,1551189251.632
1925054.0,1551189251.672
1923958.0,1551189251.714
1922901.0,1551189251.752
1922186.0,1551189251.792
1921378.0,1551189251.834
1920617.0,1551189251.873
1919902.0,1551189251.913
1919488.0,1551189251.954
1919065.0,1551189251.993
1918931.0,1551189252.033
1919171.0,1551189252.074
1919441.0,1551189252.114
1919887.0,1551189252.153
1920319.0,1551189252.194
1920924.0,1551189252.233
1920041.0,1551189252.274
1917917.0,1551189252.315
1916375.0,1551189252.354
1915353.0,1551189252.394
1914665.0,1551189252.435
1913758.0,1551189252.474
1913316.0,1551189252.515
1911419.0,1551189252.594
1912508.0,1551189252.555
1910380.0,1551189252.634
1909477.0,1551189252.675
1907709.0,1551189252.755
1908505.0,1551189252.715
1906829.0,1551189252.835
1907104.0,1551189252.796
1906551.0,1551189252.917
1906588.0,1551189252.875
1906633.0,1551189252.955
1906912.0,1551189252.995
1906948.0,1551189253.036
1906886.0,1551189253.075
1906725.0,1551189253.116
1905635.0,1551189253.156
1903165.0,1551189253.195
1900959.0,1551189253.235
1899453.0,1551189253.277
1897738.0,1551189253.316
1895805.0,1551189253.356
1893458.0,1551189253.398
1891507.0,1551189253.437
1889752.0,1551189253.478
1888300.0,1551189253.52
1887068.0,1551189253.558
1886903.0,1551189253.599
1886687.0,1551189253.64
1886967.0,1551189253.679
1887164.0,1551189253.719
1887494.0,1551189253.759
1887893.0,1551189253.798
1888225.0,1551189253.839
1888447.0,1551189253.881
1888903.0,1551189253.92
1889126.0,1551189253.96
1889787.0,1551189254.002
1890571.0,1551189254.041
1891451.0,1551189254.081
1890740.0,1551189254.121
1889006.0,1551189254.159
1887432.0,1551189254.2
1886280.0,1551189254.241
1885485.0,1551189254.28
1884891.0,1551189254.321
1885017.0,1551189254.362
1885213.0,1551189254.401
1885272.0,1551189254.441
1884904.0,1551189254.481
1884114.0,1551189254.52
1882928.0,1551189254.56
1881884.0,1551189254.601
1880300.0,1551189254.64
1878467.0,1551189254.681
1876727.0,1551189254.723
1875072.0,1551189254.761
1874383.0,1551189254.801
1875266.0,1551189254.841
1878169.0,1551189254.88
1882375.0,1551189254.921
1886742.0,1551189254.962
1890537.0,1551189255.001
1893997.0,1551189255.041
1896418.0,1551189255.083
1896922.0,1551189255.122
1897170.0,1551189255.16
1897557.0,1551189255.201
1897730.0,1551189255.28
1897975.0,1551189255.323
1898120.0,1551189255.401
1897932.0,1551189255.443
1897908.0,1551189255.24
1898236.0,1551189255.361
1898073.0,1551189255.482
1898117.0,1551189255.523
1898474.0,1551189255.561
1898518.0,1551189255.6
1899265.0,1551189255.682
1899016.0,1551189255.64
1899386.0,1551189255.722
1899533.0,1551189255.761
1900042.0,1551189255.803
1900146.0,1551189255.842
1900817.0,1551189255.882
1901404.0,1551189255.924
1901163.0,1551189255.963
1899428.0,1551189256.0
1897796.0,1551189256.042
1896752.0,1551189256.081
1896014.0,1551189256.122
1895125.0,1551189256.163
1894105.0,1551189256.242
1894496.0,1551189256.201
1893753.0,1551189256.282
1893378.0,1551189256.319
1893036.0,1551189256.359
1892846.0,1551189256.4
1892734.0,1551189256.439
1892652.0,1551189256.48
1892997.0,1551189256.522
1892662.0,1551189256.56
1892821.0,1551189256.601
1893036.0,1551189256.642
1893611.0,1551189256.681
1894599.0,1551189256.722
1895358.0,1551189256.763
1896495.0,1551189256.802
1896811.0,1551189256.842
1895250.0,1551189256.884
1893317.0,1551189256.923
1892081.0,1551189256.963
1891124.0,1551189257.002
1890405.0,1551189257.041
1889595.0,1551189257.081
1888898.0,1551189257.124
1887046.0,1551189257.202
1888097.0,1551189257.162
1886665.0,1551189257.244
1886204.0,1551189257.283
1886215.0,1551189257.324
1886585.0,1551189257.363
1886915.0,1551189257.442
1886818.0,1551189257.401
1887390.0,1551189257.483
1888071.0,1551189257.523
1888429.0,1551189257.562
1888873.0,1551189257.604
1889490.0,1551189257.643
1890434.0,1551189257.683
1891500.0,1551189257.725
1892181.0,1551189257.761
1891188.0,1551189257.802
1889908.0,1551189257.843
1888640.0,1551189257.923
1889155.0,1551189257.882
1887952.0,1551189257.964
1887519.0,1551189258.003
1887756.0,1551189258.043
1887237.0,1551189258.083
1887083.0,1551189258.122
1886490.0,1551189258.162
1886473.0,1551189258.204
1886767.0,1551189258.283
1886472.0,1551189258.243
1887159.0,1551189258.325
1887874.0,1551189258.363
1888824.0,1551189258.404
1890186.0,1551189258.443
1892782.0,1551189258.523
1891675.0,1551189258.482
1893708.0,1551189258.564
1894405.0,1551189258.603
1894723.0,1551189258.643
1893461.0,1551189258.685
1891905.0,1551189258.711
1890101.0,1551189258.792
1890927.0,1551189258.751
1888913.0,1551189258.831
1887821.0,1551189258.871
1887090.0,1551189258.913
1886259.0,1551189258.951
1885465.0,1551189258.991
1885684.0,1551189259.032
1886105.0,1551189259.071
1886915.0,1551189259.112
1887637.0,1551189259.153
1888637.0,1551189259.192
1889647.0,1551189259.233
1890746.0,1551189259.274
1891998.0,1551189259.314
1893353.0,1551189259.354
1894793.0,1551189259.396
1896028.0,1551189259.434
1897511.0,1551189259.475
1898704.0,1551189259.517
1898750.0,1551189259.555
1897152.0,1551189259.595
1895919.0,1551189259.637
1895633.0,1551189259.676
1895385.0,1551189259.717
1895275.0,1551189259.758
1895633.0,1551189259.795
1896509.0,1551189259.835
1897089.0,1551189259.876
1898562.0,1551189259.916
1900203.0,1551189259.956
1902301.0,1551189259.997
1904113.0,1551189260.036
1906201.0,1551189260.077
1907856.0,1551189260.117
1909362.0,1551189260.155
1910630.0,1551189260.195
1911790.0,1551189260.237
1912543.0,1551189260.276
1913529.0,1551189260.317
1914155.0,1551189260.358
1915037.0,1551189260.396
1915612.0,1551189260.437
1916427.0,1551189260.476
1916856.0,1551189260.516
1915850.0,1551189260.556
1914411.0,1551189260.597
1913736.0,1551189260.636
1913236.0,1551189260.676
1912750.0,1551189260.718
1912326.0,1551189260.757
1912053.0,1551189260.797
1911848.0,1551189260.837
1911582.0,1551189260.875
1911583.0,1551189260.916
1911680.0,1551189260.958
1912223.0,1551189260.996
1912661.0,1551189261.037
1913211.0,1551189261.078
1914550.0,1551189261.155
1913714.0,1551189261.118
1914784.0,1551189261.197
1915672.0,1551189261.236
1916121.0,1551189261.276
1916865.0,1551189261.318
1917746.0,1551189261.357
1918474.0,1551189261.394
1918952.0,1551189261.436
1918043.0,1551189261.475
1916782.0,1551189261.516
1915925.0,1551189261.557
1915412.0,1551189261.596
1914608.0,1551189261.636
1914384.0,1551189261.678
1914154.0,1551189261.717
1914282.0,1551189261.757
1914142.0,1551189261.798
1914385.0,1551189261.837
1914429.0,1551189261.878
1914660.0,1551189261.92
1915119.0,1551189261.958
1915643.0,1551189261.996
1915923.0,1551189262.037
1916541.0,1551189262.076
1917206.0,1551189262.117
1917566.0,1551189262.158
1918125.0,1551189262.197
1919071.0,1551189262.237
1920020.0,1551189262.279
1920816.0,1551189262.319
1921722.0,1551189262.356
1922405.0,1551189262.398
1921828.0,1551189262.437
1920659.0,1551189262.477
1920118.0,1551189262.519
1919343.0,1551189262.557
1918496.0,1551189262.598
1917383.0,1551189262.639
1916490.0,1551189262.678
1915429.0,1551189262.719
1914655.0,1551189262.758
1913950.0,1551189262.797
1913541.0,1551189262.837
1913265.0,1551189262.878
1913440.0,1551189262.918
1913488.0,1551189262.958
1913693.0,1551189262.999
1913543.0,1551189263.038
1913834.0,1551189263.077
1914373.0,1551189263.119
1914592.0,1551189263.157
1915540.0,1551189263.197
1915973.0,1551189263.239
1916813.0,1551189263.278
1917538.0,1551189263.319
1918500.0,1551189263.36
1918870.0,1551189263.399
1917831.0,1551189263.437
1916838.0,1551189263.478
1916232.0,1551189263.518
1915817.0,1551189263.558
1915184.0,1551189263.599
1915027.0,1551189263.638
1914966.0,1551189263.678
1915041.0,1551189263.721
1915099.0,1551189263.759
1915357.0,1551189263.797
1915735.0,1551189263.839
1916222.0,1551189263.877
1916746.0,1551189263.918
1917708.0,1551189263.958
1918417.0,1551189263.995
1919356.0,1551189264.035
1920232.0,1551189264.077
1921314.0,1551189264.117
1922069.0,1551189264.157
1923399.0,1551189264.198
1924367.0,1551189264.237
1925229.0,1551189264.278
1924810.0,1551189264.32
1923878.0,1551189264.358
1923457.0,1551189264.398
1923360.0,1551189264.44
1922853.0,1551189264.479
1922478.0,1551189264.52
1922523.0,1551189264.561
1922635.0,1551189264.597
1922757.0,1551189264.638
1922792.0,1551189264.679
1922976.0,1551189264.719
1923650.0,1551189264.759
1924270.0,1551189264.8
1924441.0,1551189264.839
1925043.0,1551189264.879
1926463.0,1551189264.96
1925655.0,1551189264.921
1927850.0,1551189265.039
1927241.0,1551189264.998
1928712.0,1551189265.078
1929483.0,1551189265.119
1930404.0,1551189265.16
1931364.0,1551189265.199
1931099.0,1551189265.239
1930158.0,1551189265.281
1928919.0,1551189265.32
1928480.0,1551189265.358
1927916.0,1551189265.4
1927185.0,1551189265.438
1926978.0,1551189265.479
1927084.0,1551189265.521
1926829.0,1551189265.559
1926821.0,1551189265.599
1926839.0,1551189265.641
1927038.0,1551189265.68
1927420.0,1551189265.719
1928293.0,1551189265.799
1927803.0,1551189265.76
1929011.0,1551189265.839
1929739.0,1551189265.881
1930305.0,1551189265.92
1931130.0,1551189265.96
1931693.0,1551189266.002
1932337.0,1551189266.038
1933233.0,1551189266.079
1933923.0,1551189266.121
1934579.0,1551189266.159
1933925.0,1551189266.199
1932669.0,1551189266.241
1931783.0,1551189266.28
1931745.0,1551189266.321
1931295.0,1551189266.362
1931126.0,1551189266.401
1930914.0,1551189266.439
1931088.0,1551189266.48
1931044.0,1551189266.52
1931485.0,1551189266.558
1931718.0,1551189266.599
1931796.0,1551189266.638
1932021.0,1551189266.679
1931972.0,1551189266.721
1931959.0,1551189266.759
1931892.0,1551189266.799
1932135.0,1551189266.841
1932089.0,1551189266.88
1932367.0,1551189266.921
1932526.0,1551189266.962
1932653.0,1551189267.001
1932980.0,1551189267.039
1932763.0,1551189267.081
1931051.0,1551189267.12
1929311.0,1551189267.16
1928255.0,1551189267.201
1927214.0,1551189267.24
1926321.0,1551189267.28
1925609.0,1551189267.323
1925309.0,1551189267.361
1924970.0,1551189267.399
1924838.0,1551189267.441
1924900.0,1551189267.48
1925548.0,1551189267.521
1926443.0,1551189267.562
1927869.0,1551189267.6
1929266.0,1551189267.641
1930365.0,1551189267.682
1931687.0,1551189267.722
1931601.0,1551189267.762
1930253.0,1551189267.801
1929560.0,1551189267.84
1930279.0,1551189267.88
1932451.0,1551189267.922
1935477.0,1551189267.961
1937894.0,1551189268.001
1939076.0,1551189268.043
1939516.0,1551189268.081
1940394.0,1551189268.12
1940808.0,1551189268.161
1940868.0,1551189268.2
1940286.0,1551189268.24
1938346.0,1551189268.282
1935706.0,1551189268.322
1933082.0,1551189268.361
1930776.0,1551189268.403
1929411.0,1551189268.442
1928869.0,1551189268.48
1928453.0,1551189268.522
1928617.0,1551189268.56
1930542.0,1551189268.601
1933429.0,1551189268.642
1936414.0,1551189268.681
1939150.0,1551189268.722
1941670.0,1551189268.763
1943430.0,1551189268.802
1944946.0,1551189268.84
1946207.0,1551189268.882
1946944.0,1551189268.921
1946289.0,1551189268.961
1945375.0,1551189269.003
1944775.0,1551189269.042
1944331.0,1551189269.081
1944080.0,1551189269.12
1943860.0,1551189269.158
1943831.0,1551189269.199
1943416.0,1551189269.241
1943320.0,1551189269.28
1943488.0,1551189269.321
1943514.0,1551189269.362
1943680.0,1551189269.401
1943792.0,1551189269.441
1944081.0,1551189269.483
1944448.0,1551189269.522
1944436.0,1551189269.603
1944814.0,1551189269.642
1944457.0,1551189269.562
1945058.0,1551189269.682
1945802.0,1551189269.723
1946042.0,1551189269.761
1946843.0,1551189269.801
1947187.0,1551189269.843
1946294.0,1551189269.882
1945244.0,1551189269.923
1944392.0,1551189269.964
1944008.0,1551189270.003
1943270.0,1551189270.041
1942786.0,1551189270.082
1942264.0,1551189270.122
1941686.0,1551189270.162
1940908.0,1551189270.203
1940359.0,1551189270.242
1940227.0,1551189270.282
1940326.0,1551189270.325
1940412.0,1551189270.363
1940874.0,1551189270.403
1941497.0,1551189270.443
1942199.0,1551189270.481
1942838.0,1551189270.522
1943483.0,1551189270.563
1945603.0,1551189270.684
1944325.0,1551189270.602
1944915.0,1551189270.642
1946594.0,1551189270.719
1947329.0,1551189270.758
1948140.0,1551189270.799
1947842.0,1551189270.838
1947011.0,1551189270.878
1946586.0,1551189270.92
1946461.0,1551189270.959
1946257.0,1551189270.999
1945897.0,1551189271.04
1946112.0,1551189271.079
1947663.0,1551189271.16
1948952.0,1551189271.2
1946613.0,1551189271.12
1950228.0,1551189271.24
1951346.0,1551189271.282
1953203.0,1551189271.361
1952094.0,1551189271.322
1953610.0,1551189271.403
1954172.0,1551189271.442
1954657.0,1551189271.482
1955072.0,1551189271.524
1955635.0,1551189271.563
1956014.0,1551189271.603
1956197.0,1551189271.643
1957008.0,1551189271.681
1957437.0,1551189271.722
1956827.0,1551189271.767
1955376.0,1551189271.842
1955243.0,1551189271.884
1954775.0,1551189271.923
1954443.0,1551189271.963
1955890.0,1551189271.802
1954209.0,1551189272.005
1954002.0,1551189272.044
1953542.0,1551189272.084
1953513.0,1551189272.124
1953685.0,1551189272.162
1954132.0,1551189272.203
1954612.0,1551189272.244
1954826.0,1551189272.283
1955161.0,1551189272.324
1955748.0,1551189272.365
1956065.0,1551189272.404
1956541.0,1551189272.444
1957521.0,1551189272.484
1958138.0,1551189272.523
1958487.0,1551189272.563
1958896.0,1551189272.605
1959172.0,1551189272.643
1959259.0,1551189272.684
1958101.0,1551189272.726
1957070.0,1551189272.764
1955928.0,1551189272.804
1955482.0,1551189272.844
1954430.0,1551189272.883
1953823.0,1551189272.924
1953425.0,1551189272.965
1953126.0,1551189273.004
1952798.0,1551189273.044
1952384.0,1551189273.086
1952014.0,1551189273.125
1951853.0,1551189273.163
1951569.0,1551189273.204
1951456.0,1551189273.243
1951387.0,1551189273.284
1951102.0,1551189273.326
1950835.0,1551189273.364
1950904.0,1551189273.404
1950809.0,1551189273.446
1950751.0,1551189273.485
1950694.0,1551189273.524
1950712.0,1551189273.565
1950970.0,1551189273.604
1950856.0,1551189273.644
1948853.0,1551189273.725
1950018.0,1551189273.685
1948742.0,1551189273.765
1948756.0,1551189273.806
1948845.0,1551189273.845
1948713.0,1551189273.883
1948856.0,1551189273.926
1948841.0,1551189273.964
1948791.0,1551189274.004
1948501.0,1551189274.046
1948583.0,1551189274.085
1948811.0,1551189274.167
1948749.0,1551189274.126
1949349.0,1551189274.205
1949380.0,1551189274.242
1949900.0,1551189274.283
1949988.0,1551189274.324
1950305.0,1551189274.363
1950684.0,1551189274.405
1952144.0,1551189274.526
1952723.0,1551189274.565
1951194.0,1551189274.444
1950834.0,1551189274.646
1950030.0,1551189274.685
1949320.0,1551189274.726
1952066.0,1551189274.605
1951446.0,1551189274.484
1948748.0,1551189274.767
1948211.0,1551189274.804
1947315.0,1551189274.886
1947543.0,1551189274.844
1946739.0,1551189274.925
1946057.0,1551189275.007
1946416.0,1551189274.965
1946422.0,1551189275.046
1946270.0,1551189275.086
1946435.0,1551189275.126
1946934.0,1551189275.205
1947719.0,1551189275.285
1946708.0,1551189275.164
1947241.0,1551189275.246
1948032.0,1551189275.326
1948579.0,1551189275.367
1949299.0,1551189275.406
1949772.0,1551189275.446
1950591.0,1551189275.486
1951515.0,1551189275.525
1951692.0,1551189275.565
1951013.0,1551189275.606
1949748.0,1551189275.645
1948755.0,1551189275.686
1947801.0,1551189275.728
1946661.0,1551189275.766
1943949.0,1551189275.885
1945534.0,1551189275.806
1943154.0,1551189275.926
1942604.0,1551189275.967
1944600.0,1551189275.846
1941968.0,1551189276.006
1942076.0,1551189276.046
1941630.0,1551189276.127
1941810.0,1551189276.165
1941756.0,1551189276.088
1942221.0,1551189276.245
1941984.0,1551189276.206
1942382.0,1551189276.286
1943101.0,1551189276.328
1943430.0,1551189276.366
1943874.0,1551189276.406
1945398.0,1551189276.487
1944539.0,1551189276.448
1945773.0,1551189276.526
1945393.0,1551189276.567
1944271.0,1551189276.605
1943557.0,1551189276.646
1942799.0,1551189276.687
1941838.0,1551189276.727
1941156.0,1551189276.763
1940346.0,1551189276.805
1940024.0,1551189276.844
1939651.0,1551189276.885
1939109.0,1551189276.927
1938770.0,1551189276.966
1938412.0,1551189277.006
1938760.0,1551189277.047
1938894.0,1551189277.086
1938990.0,1551189277.127
1939666.0,1551189277.168
1940148.0,1551189277.207
1940411.0,1551189277.247
1941194.0,1551189277.287
1941679.0,1551189277.327
1942445.0,1551189277.366
1943820.0,1551189277.447
1944294.0,1551189277.487
1943000.0,1551189277.408
1942699.0,1551189277.568
1943649.0,1551189277.529
1941553.0,1551189277.647
1941225.0,1551189277.686
1941792.0,1551189277.608
1941060.0,1551189277.727
1940737.0,1551189277.768
1940596.0,1551189277.807
1940715.0,1551189277.847
1940160.0,1551189277.889
1940025.0,1551189277.928
1940542.0,1551189278.007
1940151.0,1551189277.968
1943371.0,1551189278.087
1941646.0,1551189278.046
1945968.0,1551189278.129
1948282.0,1551189278.167
1949751.0,1551189278.207
1950529.0,1551189278.249
1951859.0,1551189278.288
1953743.0,1551189278.329
1955861.0,1551189278.368
1957655.0,1551189278.407
1958339.0,1551189278.447
1958504.0,1551189278.489
1958499.0,1551189278.528
1958968.0,1551189278.568
1958408.0,1551189278.609
1958038.0,1551189278.648
1957618.0,1551189278.729
1957997.0,1551189278.688
1956866.0,1551189278.767
1956031.0,1551189278.807
1955197.0,1551189278.849
1954614.0,1551189278.888
1954054.0,1551189278.929
1953822.0,1551189278.97
1953395.0,1551189279.009
1953213.0,1551189279.047
1953367.0,1551189279.088
1953077.0,1551189279.128
1953055.0,1551189279.168
1952925.0,1551189279.209
1952702.0,1551189279.248
1952540.0,1551189279.288
1952206.0,1551189279.33
1950579.0,1551189279.365
1948038.0,1551189279.405
1945998.0,1551189279.447
1944528.0,1551189279.486
1942771.0,1551189279.528
1941345.0,1551189279.569
1940164.0,1551189279.607
1939146.0,1551189279.648
1937736.0,1551189279.689
1936587.0,1551189279.729
1935983.0,1551189279.769
1935288.0,1551189279.81
1934903.0,1551189279.849
1934382.0,1551189279.889
1933831.0,1551189279.929
1933379.0,1551189279.968
1932814.0,1551189280.008
1932420.0,1551189280.05
1932314.0,1551189280.089
1932153.0,1551189280.13
1931987.0,1551189280.171
1931825.0,1551189280.209
1930682.0,1551189280.248
1928116.0,1551189280.289
1925893.0,1551189280.329
1924216.0,1551189280.369
1922280.0,1551189280.41
1920363.0,1551189280.449
1918827.0,1551189280.489
1916772.0,1551189280.531
1914620.0,1551189280.57
1912478.0,1551189280.608
1910964.0,1551189280.649
1910479.0,1551189280.688
1910237.0,1551189280.729
1909189.0,1551189280.77
1908198.0,1551189280.809
1907605.0,1551189280.849
1907652.0,1551189280.891
1907943.0,1551189280.931
1909392.0,1551189280.97
1910986.0,1551189281.01
1912323.0,1551189281.048
1913697.0,1551189281.089
1914775.0,1551189281.131
1914298.0,1551189281.169
1912516.0,1551189281.209
1911232.0,1551189281.251
1910312.0,1551189281.29
1908566.0,1551189281.331
1906111.0,1551189281.37
1904290.0,1551189281.409
1902278.0,1551189281.449
1900540.0,1551189281.49
1898985.0,1551189281.53
1898342.0,1551189281.57
1897954.0,1551189281.611
1898459.0,1551189281.65
1899420.0,1551189281.69
1900665.0,1551189281.731
1901917.0,1551189281.769
1903066.0,1551189281.809
1903871.0,1551189281.851
1904741.0,1551189281.887
1905582.0,1551189281.928
1906058.0,1551189281.97
1906353.0,1551189282.008
1906573.0,1551189282.049
1907032.0,1551189282.09
1906420.0,1551189282.13
1904852.0,1551189282.17
1903361.0,1551189282.211
1902175.0,1551189282.25
1901752.0,1551189282.29
1900560.0,1551189282.333
1899829.0,1551189282.371
1899427.0,1551189282.409
1898769.0,1551189282.451
1898293.0,1551189282.49
1897863.0,1551189282.531
1897879.0,1551189282.572
1897999.0,1551189282.61
1897877.0,1551189282.651
1898221.0,1551189282.692
1898295.0,1551189282.722
1898715.0,1551189282.761
1898997.0,1551189282.803
1899318.0,1551189282.842
1899759.0,1551189282.882
1900277.0,1551189282.923
1900684.0,1551189282.962
1901406.0,1551189283.002
1901997.0,1551189283.043
1901800.0,1551189283.082
1900423.0,1551189283.123
1899061.0,1551189283.163
1898119.0,1551189283.203
1897271.0,1551189283.244
1896254.0,1551189283.285
1895735.0,1551189283.325
1895168.0,1551189283.365
1894444.0,1551189283.406
1893901.0,1551189283.445
1893692.0,1551189283.485
1893698.0,1551189283.528
1893653.0,1551189283.566
1893572.0,1551189283.606
1893747.0,1551189283.648
1893771.0,1551189283.687
1894090.0,1551189283.726
1894258.0,1551189283.767
1894715.0,1551189283.805
1894824.0,1551189283.846
1894776.0,1551189283.887
1895187.0,1551189283.927
1895721.0,1551189283.967
1895955.0,1551189284.008
1896615.0,1551189284.045
1896478.0,1551189284.085
1895317.0,1551189284.128
1893727.0,1551189284.166
1892937.0,1551189284.206
1891996.0,1551189284.248
1890895.0,1551189284.287
1890011.0,1551189284.328
1889732.0,1551189284.369
1889165.0,1551189284.405
1888655.0,1551189284.445
1888534.0,1551189284.486
1888310.0,1551189284.566
1888305.0,1551189284.525
1888431.0,1551189284.607
1888381.0,1551189284.646
1888593.0,1551189284.686
1888811.0,1551189284.729
1888597.0,1551189284.767
1888799.0,1551189284.807
1888831.0,1551189284.849
1889251.0,1551189284.888
1889589.0,1551189284.926
1889701.0,1551189284.968
1890077.0,1551189285.006
1890306.0,1551189285.047
1890074.0,1551189285.088
1888387.0,1551189285.128
1886883.0,1551189285.167
1886011.0,1551189285.209
1884992.0,1551189285.246
1883998.0,1551189285.286
1883073.0,1551189285.328
1882399.0,1551189285.367
1881413.0,1551189285.407
1880767.0,1551189285.449
1880130.0,1551189285.487
1879842.0,1551189285.528
1879828.0,1551189285.569
1879326.0,1551189285.606
1879574.0,1551189285.646
1879362.0,1551189285.688
1879749.0,1551189285.728
1879844.0,1551189285.767
1880023.0,1551189285.809
1880232.0,1551189285.848
1880740.0,1551189285.888
1880737.0,1551189285.93
1881166.0,1551189285.968
1881030.0,1551189286.006
1878225.0,1551189286.087
1879993.0,1551189286.048
1876644.0,1551189286.128
1875160.0,1551189286.169
1872476.0,1551189286.208
1869677.0,1551189286.248
1867710.0,1551189286.289
1866378.0,1551189286.329
1865267.0,1551189286.367
1865206.0,1551189286.408
1865848.0,1551189286.447
1867043.0,1551189286.487
1870566.0,1551189286.568
1868550.0,1551189286.53
1873367.0,1551189286.608
1876230.0,1551189286.65
1879169.0,1551189286.689
1881486.0,1551189286.73
1883855.0,1551189286.768
1886188.0,1551189286.807
1888455.0,1551189286.847
1890650.0,1551189286.889
1892684.0,1551189286.929
1894601.0,1551189286.969
1895845.0,1551189287.006
1895871.0,1551189287.046
1896374.0,1551189287.086
1896786.0,1551189287.129
1897111.0,1551189287.167
1897430.0,1551189287.207
1898512.0,1551189287.288
1897700.0,1551189287.249
1899156.0,1551189287.329
1900166.0,1551189287.37
1901161.0,1551189287.408
1902654.0,1551189287.449
1903797.0,1551189287.49
1904829.0,1551189287.53
1905874.0,1551189287.568
1907068.0,1551189287.609
1907588.0,1551189287.648
1908277.0,1551189287.688
1908669.0,1551189287.73
1908437.0,1551189287.769
1908424.0,1551189287.809
1907018.0,1551189287.889
1907538.0,1551189287.851
1906117.0,1551189287.93
1903685.0,1551189287.971
1898923.0,1551189288.048
1900896.0,1551189288.008
1897594.0,1551189288.09
1896886.0,1551189288.129
1896336.0,1551189288.169
1896210.0,1551189288.21
1895955.0,1551189288.289
1895472.0,1551189288.332
1896237.0,1551189288.249
1895361.0,1551189288.408
1895420.0,1551189288.37
1896307.0,1551189288.489
1896134.0,1551189288.45
1897740.0,1551189288.609
1896726.0,1551189288.53
1897157.0,1551189288.571
1898427.0,1551189288.65
1898984.0,1551189288.691
1899594.0,1551189288.731
1900508.0,1551189288.768
1901570.0,1551189288.81
1902377.0,1551189288.849
1902939.0,1551189288.889
1901795.0,1551189288.931
1900532.0,1551189288.97
1899729.0,1551189289.01
1899060.0,1551189289.052
1898212.0,1551189289.088
1897730.0,1551189289.13
1897466.0,1551189289.17
1897227.0,1551189289.209
1896763.0,1551189289.291
1896939.0,1551189289.249
1896768.0,1551189289.331
1896756.0,1551189289.37
1896962.0,1551189289.412
1896807.0,1551189289.451
1896799.0,1551189289.489
1896750.0,1551189289.53
1896849.0,1551189289.568
1896948.0,1551189289.609
1897094.0,1551189289.651
1897262.0,1551189289.69
1897953.0,1551189289.772
1898958.0,1551189289.851
1897587.0,1551189289.731
1898025.0,1551189289.892
1898618.0,1551189289.811
1896782.0,1551189289.93
1896004.0,1551189290.011
1895743.0,1551189290.09
1896235.0,1551189289.97
1895706.0,1551189290.05
1895704.0,1551189290.133
1895871.0,1551189290.171
1896197.0,1551189290.211
1896155.0,1551189290.251
1896627.0,1551189290.29
1897047.0,1551189290.331
1897574.0,1551189290.372
1898232.0,1551189290.41
1898985.0,1551189290.451
1899484.0,1551189290.492
1900029.0,1551189290.532
1900680.0,1551189290.571
1901457.0,1551189290.611
1902103.0,1551189290.65
1902872.0,1551189290.69
1903875.0,1551189290.732
1904771.0,1551189290.771
1904137.0,1551189290.811
1903049.0,1551189290.852
1902215.0,1551189290.891
1901778.0,1551189290.932
1900962.0,1551189290.972
1900335.0,1551189291.003
1899850.0,1551189291.043
1899640.0,1551189291.084
1899433.0,1551189291.124
1898785.0,1551189291.163
1898819.0,1551189291.205
1898664.0,1551189291.244
1898782.0,1551189291.284
1898708.0,1551189291.325
1898972.0,1551189291.364
1898889.0,1551189291.404
