bvp,time
18.35,1577876100.0
14.82,1577876100.015625
11.32,1577876100.03125
8.13,1577876100.046875
5.38,1577876100.0625
3.06,1577876100.078125
1.02,1577876100.09375
-0.94,1577876100.109375
-3.11,1577876100.125
-5.68,1577876100.140625
-8.69,1577876100.15625
-12.03,1577876100.171875
-15.4,1577876100.1875
-18.5,1577876100.203125
-21.14,1577876100.21875
-23.33,1577876100.234375
-25.32,1577876100.25
-27.46,1577876100.265625
-30.12,1577876100.28125
-33.54,1577876100.296875
-37.76,1577876100.3125
-42.56,1577876100.328125
-47.37,1577876100.34375
-51.31,1577876100.359375
-53.25,1577876100.375
-52.1,1577876100.390625
-47.13,1577876100.40625
-38.35,1577876100.421875
-26.58,1577876100.4375
-13.32,1577876100.453125
-0.23,1577876100.46875
11.29,1577876100.484375
20.58,1577876100.5
27.67,1577876100.515625
33.04,1577876100.53125
37.22,1577876100.546875
40.54,1577876100.5625
43.04,1577876100.578125
44.61,1577876100.59375
45.34,1577876100.609375
45.55,1577876100.625
45.83,1577876100.640625
46.77,1577876100.65625
48.77,1577876100.671875
51.87,1577876100.6875
55.81,1577876100.703125
60.23,1577876100.71875
64.91,1577876100.734375
69.85,1577876100.75
75.21,1577876100.765625
81.19,1577876100.78125
87.81,1577876100.796875
94.89,1577876100.8125
102.16,1577876100.828125
109.42,1577876100.84375
116.7,1577876100.859375
124.15,1577876100.875
132.06,1577876100.890625
140.61,1577876100.90625
149.86,1577876100.921875
159.69,1577876100.9375
169.89,1577876100.953125
180.28,1577876100.96875
190.66,1577876100.984375
200.88,1577876101.0
210.78,1577876101.015625
220.18,1577876101.03125
228.93,1577876101.046875
236.9,1577876101.0625
244.03,1577876101.078125
250.22,1577876101.09375
255.36,1577876101.109375
259.25,1577876101.125
261.61,1577876101.140625
262.19,1577876101.15625
260.7,1577876101.171875
256.95,1577876101.1875
250.89,1577876101.203125
242.57,1577876101.21875
232.16,1577876101.234375
219.94,1577876101.25
206.14,1577876101.265625
190.96,1577876101.28125
174.53,1577876101.296875
156.95,1577876101.3125
138.39,1577876101.328125
119.1,1577876101.34375
99.41,1577876101.359375
79.68,1577876101.375
60.34,1577876101.390625
41.77,1577876101.40625
24.38,1577876101.421875
8.51,1577876101.4375
-5.64,1577876101.453125
-18.13,1577876101.46875
-29.31,1577876101.484375
-39.75,1577876101.5
-50.06,1577876101.515625
-60.58,1577876101.53125
-71.24,1577876101.546875
-81.62,1577876101.5625
-91.18,1577876101.578125
-99.6,1577876101.59375
-107.04,1577876101.609375
-114.18,1577876101.625
-122.02,1577876101.640625
-131.41,1577876101.65625
-142.72,1577876101.671875
-155.7,1577876101.6875
-169.56,1577876101.703125
-183.33,1577876101.71875
-196.34,1577876101.734375
-208.41,1577876101.75
-219.99,1577876101.765625
-232.06,1577876101.78125
-245.96,1577876101.796875
-263.14,1577876101.8125
-284.66,1577876101.828125
-310.5,1577876101.84375
-338.74,1577876101.859375
-365.39,1577876101.875
-384.95,1577876101.890625
-392.02,1577876101.90625
-383.23,1577876101.921875
-358.42,1577876101.9375
-320.74,1577876101.953125
-275.19,1577876101.96875
-226.64,1577876101.984375
-178.23,1577876102.0
-130.9,1577876102.015625
-84.07,1577876102.03125
-36.9,1577876102.046875
10.77,1577876102.0625
58.3,1577876102.078125
104.54,1577876102.09375
148.47,1577876102.109375
189.24,1577876102.125
226.12,1577876102.140625
258.12,1577876102.15625
284.17,1577876102.171875
303.36,1577876102.1875
315.34,1577876102.203125
320.65,1577876102.21875
320.44,1577876102.234375
316.15,1577876102.25
308.99,1577876102.265625
299.74,1577876102.28125
288.78,1577876102.296875
276.25,1577876102.3125
262.25,1577876102.328125
246.91,1577876102.34375
230.41,1577876102.359375
212.98,1577876102.375
194.86,1577876102.390625
176.5,1577876102.40625
158.43,1577876102.421875
141.22,1577876102.4375
125.23,1577876102.453125
110.5,1577876102.46875
96.7,1577876102.484375
83.37,1577876102.5
70.08,1577876102.515625
56.72,1577876102.53125
43.52,1577876102.546875
30.99,1577876102.5625
19.57,1577876102.578125
9.51,1577876102.59375
0.62,1577876102.609375
-7.62,1577876102.625
-15.81,1577876102.640625
-24.42,1577876102.65625
-33.55,1577876102.671875
-42.87,1577876102.6875
-51.83,1577876102.703125
-59.96,1577876102.71875
-67.1,1577876102.734375
-73.58,1577876102.75
-80.07,1577876102.765625
-87.31,1577876102.78125
-95.72,1577876102.796875
-105.22,1577876102.8125
-115.19,1577876102.828125
-124.84,1577876102.84375
-133.56,1577876102.859375
-141.31,1577876102.875
-148.7,1577876102.890625
-156.74,1577876102.90625
-166.39,1577876102.921875
-178.04,1577876102.9375
-191.36,1577876102.953125
-205.4,1577876102.96875
-219.08,1577876102.984375
-231.65,1577876103.0
-243.05,1577876103.015625
-253.84,1577876103.03125
-264.93,1577876103.046875
-277.46,1577876103.0625
-292.62,1577876103.078125
-311.63,1577876103.09375
-335.13,1577876103.109375
-362.31,1577876103.125
-390.07,1577876103.140625
-412.96,1577876103.15625
-424.36,1577876103.171875
-418.67,1577876103.1875
-393.58,1577876103.203125
-351.15,1577876103.21875
-297.15,1577876103.234375
-238.95,1577876103.25
-183.06,1577876103.265625
-133.79,1577876103.28125
-93.16,1577876103.296875
-62.04,1577876103.3125
-40.98,1577876103.328125
-30.36,1577876103.34375
-29.54,1577876103.359375
-36.02,1577876103.375
-45.5,1577876103.390625
-53.24,1577876103.40625
-56.16,1577876103.421875
-54.51,1577876103.4375
-52.15,1577876103.453125
-55.32,1577876103.46875
-70.21,1577876103.484375
-100.63,1577876103.5
-146.47,1577876103.515625
-203.69,1577876103.53125
-265.58,1577876103.546875
-324.61,1577876103.5625
-374.36,1577876103.578125
-410.67,1577876103.59375
-431.97,1577876103.609375
-438.76,1577876103.625
-432.84,1577876103.640625
-416.54,1577876103.65625
-392.3,1577876103.671875
-362.44,1577876103.6875
-329.12,1577876103.703125
-294.13,1577876103.71875
-258.84,1577876103.734375
-223.98,1577876103.75
-189.86,1577876103.765625
-156.69,1577876103.78125
-125.0,1577876103.796875
-95.71,1577876103.8125
-69.8,1577876103.828125
-47.6,1577876103.84375
-28.29,1577876103.859375
-9.93,1577876103.875
9.88,1577876103.890625
32.95,1577876103.90625
59.71,1577876103.921875
89.24,1577876103.9375
119.87,1577876103.953125
150.27,1577876103.96875
180.15,1577876103.984375
210.34,1577876104.0
241.82,1577876104.015625
274.56,1577876104.03125
306.67,1577876104.046875
334.37,1577876104.0625
353.13,1577876104.078125
359.28,1577876104.09375
351.27,1577876104.109375
330.2,1577876104.125
299.23,1577876104.140625
262.42,1577876104.15625
223.58,1577876104.171875
185.67,1577876104.1875
150.76,1577876104.203125
120.33,1577876104.21875
95.43,1577876104.234375
76.59,1577876104.25
63.56,1577876104.265625
55.08,1577876104.28125
49.18,1577876104.296875
43.68,1577876104.3125
36.86,1577876104.328125
27.95,1577876104.34375
17.11,1577876104.359375
5.09,1577876104.375
-7.17,1577876104.390625
-18.63,1577876104.40625
-28.4,1577876104.421875
-35.62,1577876104.4375
-39.65,1577876104.453125
-40.21,1577876104.46875
-37.58,1577876104.484375
-32.52,1577876104.5
-26.04,1577876104.515625
-18.96,1577876104.53125
-11.66,1577876104.546875
-4.21,1577876104.5625
3.4,1577876104.578125
10.85,1577876104.59375
17.39,1577876104.609375
22.04,1577876104.625
24.1,1577876104.640625
23.45,1577876104.65625
20.76,1577876104.671875
17.16,1577876104.6875
13.84,1577876104.703125
11.74,1577876104.71875
11.37,1577876104.734375
12.9,1577876104.75
16.27,1577876104.765625
21.24,1577876104.78125
27.32,1577876104.796875
33.76,1577876104.8125
39.55,1577876104.828125
43.67,1577876104.84375
45.45,1577876104.859375
44.74,1577876104.875
41.91,1577876104.890625
37.62,1577876104.90625
32.66,1577876104.921875
27.63,1577876104.9375
23.05,1577876104.953125
19.39,1577876104.96875
17.03,1577876104.984375
16.17,1577876105.0
16.47,1577876105.015625
17.06,1577876105.03125
16.68,1577876105.046875
14.22,1577876105.0625
9.27,1577876105.078125
2.35,1577876105.09375
-5.34,1577876105.109375
-12.53,1577876105.125
-18.47,1577876105.140625
-23.24,1577876105.15625
-27.55,1577876105.171875
-32.23,1577876105.1875
-37.64,1577876105.203125
-43.55,1577876105.21875
-49.11,1577876105.234375
-53.26,1577876105.25
-54.99,1577876105.265625
-53.6,1577876105.28125
-48.75,1577876105.296875
-40.61,1577876105.3125
-29.76,1577876105.328125
-17.2,1577876105.34375
-4.12,1577876105.359375
8.46,1577876105.375
19.86,1577876105.390625
29.86,1577876105.40625
38.55,1577876105.421875
46.05,1577876105.4375
52.21,1577876105.453125
56.66,1577876105.46875
58.87,1577876105.484375
58.54,1577876105.5
55.81,1577876105.515625
51.29,1577876105.53125
45.93,1577876105.546875
40.74,1577876105.5625
36.49,1577876105.578125
33.58,1577876105.59375
32.0,1577876105.609375
31.55,1577876105.625
31.88,1577876105.640625
32.63,1577876105.65625
33.37,1577876105.671875
33.49,1577876105.6875
32.33,1577876105.703125
29.23,1577876105.71875
23.94,1577876105.734375
16.83,1577876105.75
8.87,1577876105.765625
1.31,1577876105.78125
-4.78,1577876105.796875
-8.97,1577876105.8125
-11.68,1577876105.828125
-13.86,1577876105.84375
-16.57,1577876105.859375
-20.4,1577876105.875
-25.25,1577876105.890625
-30.29,1577876105.90625
-34.41,1577876105.921875
-36.59,1577876105.9375
-36.39,1577876105.953125
-34.09,1577876105.96875
-30.64,1577876105.984375
-27.4,1577876106.0
-25.75,1577876106.015625
-26.72,1577876106.03125
-30.56,1577876106.046875
-36.61,1577876106.0625
-43.3,1577876106.078125
-48.52,1577876106.09375
-50.29,1577876106.109375
-47.46,1577876106.125
-40.3,1577876106.140625
-30.37,1577876106.15625
-20.06,1577876106.171875
-11.51,1577876106.1875
-5.83,1577876106.203125
-2.74,1577876106.21875
-1.03,1577876106.234375
0.67,1577876106.25
3.12,1577876106.265625
6.16,1577876106.28125
9.06,1577876106.296875
11.07,1577876106.3125
11.98,1577876106.328125
12.16,1577876106.34375
12.38,1577876106.359375
13.26,1577876106.375
15.0,1577876106.390625
17.35,1577876106.40625
19.88,1577876106.421875
22.27,1577876106.4375
24.48,1577876106.453125
26.67,1577876106.46875
29.05,1577876106.484375
31.62,1577876106.5
34.08,1577876106.515625
36.02,1577876106.53125
36.99,1577876106.546875
36.75,1577876106.5625
35.43,1577876106.578125
33.45,1577876106.59375
31.4,1577876106.609375
29.79,1577876106.625
28.8,1577876106.640625
28.28,1577876106.65625
27.8,1577876106.671875
26.83,1577876106.6875
25.07,1577876106.703125
22.59,1577876106.71875
19.8,1577876106.734375
17.3,1577876106.75
15.55,1577876106.765625
14.63,1577876106.78125
14.11,1577876106.796875
13.08,1577876106.8125
10.5,1577876106.828125
5.56,1577876106.84375
-1.86,1577876106.859375
-10.96,1577876106.875
-19.97,1577876106.890625
-26.52,1577876106.90625
-28.24,1577876106.921875
-23.46,1577876106.9375
-11.83,1577876106.953125
5.48,1577876106.96875
26.11,1577876106.984375
47.18,1577876107.0
66.09,1577876107.015625
81.18,1577876107.03125
91.93,1577876107.046875
98.72,1577876107.0625
102.35,1577876107.078125
103.6,1577876107.09375
102.96,1577876107.109375
100.7,1577876107.125
97.13,1577876107.140625
92.79,1577876107.15625
88.44,1577876107.171875
84.93,1577876107.1875
82.82,1577876107.203125
82.18,1577876107.21875
82.41,1577876107.234375
82.46,1577876107.25
81.09,1577876107.265625
77.3,1577876107.28125
70.67,1577876107.296875
61.49,1577876107.3125
50.65,1577876107.328125
39.21,1577876107.34375
28.03,1577876107.359375
17.34,1577876107.375
6.89,1577876107.390625
-3.83,1577876107.40625
-15.17,1577876107.421875
-26.93,1577876107.4375
-38.35,1577876107.453125
-48.41,1577876107.46875
-56.23,1577876107.484375
-61.45,1577876107.5
-64.4,1577876107.515625
-66.01,1577876107.53125
-67.44,1577876107.546875
-69.79,1577876107.5625
-73.78,1577876107.578125
-79.52,1577876107.59375
-86.42,1577876107.609375
-93.23,1577876107.625
-98.22,1577876107.640625
-99.5,1577876107.65625
-95.53,1577876107.671875
-85.54,1577876107.6875
-69.9,1577876107.703125
-50.04,1577876107.71875
-28.13,1577876107.734375
-6.59,1577876107.75
12.64,1577876107.765625
28.4,1577876107.78125
40.48,1577876107.796875
49.3,1577876107.8125
55.57,1577876107.828125
59.82,1577876107.84375
62.26,1577876107.859375
62.83,1577876107.875
61.54,1577876107.890625
58.66,1577876107.90625
54.9,1577876107.921875
51.16,1577876107.9375
48.26,1577876107.953125
46.57,1577876107.96875
45.83,1577876107.984375
45.42,1577876108.0
44.66,1577876108.015625
43.2,1577876108.03125
41.18,1577876108.046875
38.99,1577876108.0625
36.98,1577876108.078125
35.13,1577876108.09375
32.98,1577876108.109375
29.79,1577876108.125
24.92,1577876108.140625
18.21,1577876108.15625
10.07,1577876108.171875
1.45,1577876108.1875
-6.59,1577876108.203125
-13.27,1577876108.21875
-18.43,1577876108.234375
-22.57,1577876108.25
-26.65,1577876108.265625
-31.72,1577876108.28125
-38.52,1577876108.296875
-47.14,1577876108.3125
-56.95,1577876108.328125
-66.62,1577876108.34375
-74.34,1577876108.359375
-78.23,1577876108.375
-76.75,1577876108.390625
-69.16,1577876108.40625
-55.86,1577876108.421875
-38.3,1577876108.4375
-18.69,1577876108.453125
0.65,1577876108.46875
17.82,1577876108.484375
31.77,1577876108.5
42.24,1577876108.515625
49.59,1577876108.53125
54.31,1577876108.546875
56.8,1577876108.5625
57.25,1577876108.578125
55.77,1577876108.59375
52.66,1577876108.609375
48.46,1577876108.625
43.97,1577876108.640625
40.06,1577876108.65625
37.33,1577876108.671875
35.95,1577876108.6875
35.61,1577876108.703125
35.77,1577876108.71875
35.81,1577876108.734375
35.33,1577876108.75
34.18,1577876108.765625
32.43,1577876108.78125
30.15,1577876108.796875
27.37,1577876108.8125
24.02,1577876108.828125
19.96,1577876108.84375
15.06,1577876108.859375
9.26,1577876108.875
2.64,1577876108.890625
-4.49,1577876108.90625
-11.72,1577876108.921875
-18.48,1577876108.9375
-24.32,1577876108.953125
-29.09,1577876108.96875
-32.99,1577876108.984375
-36.52,1577876109.0
-40.34,1577876109.015625
-45.06,1577876109.03125
-51.06,1577876109.046875
-58.37,1577876109.0625
-66.57,1577876109.078125
-74.66,1577876109.09375
-81.06,1577876109.109375
-83.84,1577876109.125
-81.23,1577876109.140625
-72.23,1577876109.15625
-57.14,1577876109.171875
-37.56,1577876109.1875
-16.04,1577876109.203125
4.75,1577876109.21875
22.73,1577876109.234375
36.86,1577876109.25
47.05,1577876109.265625
53.85,1577876109.28125
57.91,1577876109.296875
59.74,1577876109.3125
59.63,1577876109.328125
57.79,1577876109.34375
54.56,1577876109.359375
50.42,1577876109.375
45.97,1577876109.390625
41.78,1577876109.40625
38.21,1577876109.421875
35.41,1577876109.4375
33.3,1577876109.453125
31.74,1577876109.46875
30.59,1577876109.484375
29.73,1577876109.5
29.04,1577876109.515625
28.28,1577876109.53125
27.09,1577876109.546875
25.07,1577876109.5625
21.95,1577876109.578125
17.81,1577876109.59375
12.98,1577876109.609375
8.02,1577876109.625
3.47,1577876109.640625
-0.4,1577876109.65625
-3.62,1577876109.671875
-6.52,1577876109.6875
-9.55,1577876109.703125
-13.08,1577876109.71875
-17.23,1577876109.734375
-21.78,1577876109.75
-26.24,1577876109.765625
-30.07,1577876109.78125
-32.9,1577876109.796875
-34.75,1577876109.8125
-36.16,1577876109.828125
-37.98,1577876109.84375
-41.13,1577876109.859375
-46.2,1577876109.875
-53.19,1577876109.890625
-61.32,1577876109.90625
-69.1,1577876109.921875
-74.57,1577876109.9375
-75.75,1577876109.953125
-71.17,1577876109.96875
-60.35,1577876109.984375
-44.09,1577876110.0
-24.31,1577876110.015625
-3.6,1577876110.03125
15.53,1577876110.046875
31.33,1577876110.0625
43.12,1577876110.078125
51.15,1577876110.09375
56.16,1577876110.109375
58.85,1577876110.125
59.66,1577876110.140625
58.79,1577876110.15625
56.42,1577876110.171875
52.97,1577876110.1875
49.12,1577876110.203125
45.7,1577876110.21875
43.32,1577876110.234375
42.2,1577876110.25
42.09,1577876110.265625
42.44,1577876110.28125
42.65,1577876110.296875
42.4,1577876110.3125
41.71,1577876110.328125
40.83,1577876110.34375
40.02,1577876110.359375
39.2,1577876110.375
37.97,1577876110.390625
35.66,1577876110.40625
31.74,1577876110.421875
26.13,1577876110.4375
19.38,1577876110.453125
12.43,1577876110.46875
6.23,1577876110.484375
1.32,1577876110.5
-2.48,1577876110.515625
-5.77,1577876110.53125
-9.31,1577876110.546875
-13.57,1577876110.5625
-18.44,1577876110.578125
-23.44,1577876110.59375
-27.87,1577876110.609375
-31.26,1577876110.625
-33.43,1577876110.640625
-34.52,1577876110.65625
-34.89,1577876110.671875
-34.98,1577876110.6875
-35.26,1577876110.703125
-36.23,1577876110.71875
-38.41,1577876110.734375
-42.13,1577876110.75
-47.26,1577876110.765625
-52.94,1577876110.78125
-57.54,1577876110.796875
-59.06,1577876110.8125
-55.75,1577876110.828125
-46.82,1577876110.84375
-32.75,1577876110.859375
-15.3,1577876110.875
3.16,1577876110.890625
20.35,1577876110.90625
34.67,1577876110.921875
45.47,1577876110.9375
52.82,1577876110.953125
57.19,1577876110.96875
59.1,1577876110.984375
59.03,1577876111.0
57.32,1577876111.015625
54.36,1577876111.03125
50.63,1577876111.046875
46.6,1577876111.0625
42.78,1577876111.078125
39.52,1577876111.09375
36.98,1577876111.109375
35.11,1577876111.125
33.6,1577876111.140625
32.1,1577876111.15625
30.31,1577876111.171875
28.17,1577876111.1875
25.88,1577876111.203125
23.71,1577876111.21875
21.88,1577876111.234375
20.3,1577876111.25
18.62,1577876111.265625
16.44,1577876111.28125
13.51,1577876111.296875
9.91,1577876111.3125
6.03,1577876111.328125
2.33,1577876111.34375
-0.92,1577876111.359375
-3.78,1577876111.375
-6.51,1577876111.390625
-9.42,1577876111.40625
-12.57,1577876111.421875
-15.69,1577876111.4375
-18.28,1577876111.453125
-19.93,1577876111.46875
-20.47,1577876111.484375
-20.1,1577876111.5
-19.38,1577876111.515625
-19.01,1577876111.53125
-19.64,1577876111.546875
-21.7,1577876111.5625
-25.27,1577876111.578125
-30.03,1577876111.59375
-35.26,1577876111.609375
-39.93,1577876111.625
-42.87,1577876111.640625
-43.06,1577876111.65625
-39.91,1577876111.671875
-33.5,1577876111.6875
-24.55,1577876111.703125
-14.29,1577876111.71875
-4.03,1577876111.734375
5.07,1577876111.75
12.34,1577876111.765625
17.56,1577876111.78125
20.97,1577876111.796875
23.05,1577876111.8125
24.38,1577876111.828125
25.52,1577876111.84375
26.81,1577876111.859375
28.31,1577876111.875
29.78,1577876111.890625
30.81,1577876111.90625
31.03,1577876111.921875
30.28,1577876111.9375
28.78,1577876111.953125
27.07,1577876111.96875
25.77,1577876111.984375
25.3,1577876112.0
25.76,1577876112.015625
26.79,1577876112.03125
27.82,1577876112.046875
28.2,1577876112.0625
27.48,1577876112.078125
25.45,1577876112.09375
22.13,1577876112.109375
17.72,1577876112.125
12.51,1577876112.140625
6.84,1577876112.15625
1.0,1577876112.171875
-4.66,1577876112.1875
-10.0,1577876112.203125
-14.91,1577876112.21875
-19.45,1577876112.234375
-23.74,1577876112.25
-27.91,1577876112.265625
-32.03,1577876112.28125
-35.97,1577876112.296875
-39.59,1577876112.3125
-42.74,1577876112.328125
-45.54,1577876112.34375
-48.32,1577876112.359375
-51.7,1577876112.375
-56.24,1577876112.390625
-62.08,1577876112.40625
-68.6,1577876112.421875
-74.36,1577876112.4375
-77.44,1577876112.453125
-76.04,1577876112.46875
-69.1,1577876112.484375
-56.8,1577876112.5
-40.47,1577876112.515625
-22.25,1577876112.53125
-4.39,1577876112.546875
11.28,1577876112.5625
23.72,1577876112.578125
32.68,1577876112.59375
38.47,1577876112.609375
41.66,1577876112.625
42.77,1577876112.640625
42.19,1577876112.65625
40.19,1577876112.671875
37.14,1577876112.6875
33.55,1577876112.703125
30.19,1577876112.71875
27.77,1577876112.734375
26.76,1577876112.75
27.14,1577876112.765625
28.39,1577876112.78125
29.79,1577876112.796875
30.72,1577876112.8125
30.93,1577876112.828125
30.56,1577876112.84375
29.87,1577876112.859375
28.95,1577876112.875
27.64,1577876112.890625
25.56,1577876112.90625
22.39,1577876112.921875
18.2,1577876112.9375
13.38,1577876112.953125
8.57,1577876112.96875
4.31,1577876112.984375
0.8,1577876113.0
-2.16,1577876113.015625
-5.06,1577876113.03125
-8.39,1577876113.046875
-12.38,1577876113.0625
-16.94,1577876113.078125
-21.68,1577876113.09375
-26.12,1577876113.109375
-29.86,1577876113.125
-32.69,1577876113.140625
-34.59,1577876113.15625
-35.79,1577876113.171875
-36.67,1577876113.1875
-37.79,1577876113.203125
-39.82,1577876113.21875
-43.38,1577876113.234375
-48.7,1577876113.25
-55.37,1577876113.265625
-62.09,1577876113.28125
-66.86,1577876113.296875
-67.49,1577876113.3125
-62.36,1577876113.328125
-51.01,1577876113.34375
-34.57,1577876113.359375
-15.34,1577876113.375
3.82,1577876113.390625
20.47,1577876113.40625
33.14,1577876113.421875
41.56,1577876113.4375
46.32,1577876113.453125
48.41,1577876113.46875
48.66,1577876113.484375
47.54,1577876113.5
45.22,1577876113.515625
41.88,1577876113.53125
37.85,1577876113.546875
33.75,1577876113.5625
30.33,1577876113.578125
28.18,1577876113.59375
27.52,1577876113.609375
28.11,1577876113.625
29.35,1577876113.640625
30.61,1577876113.65625
31.43,1577876113.671875
31.68,1577876113.6875
31.5,1577876113.703125
31.06,1577876113.71875
30.35,1577876113.734375
29.16,1577876113.75
27.11,1577876113.765625
23.96,1577876113.78125
19.74,1577876113.796875
14.83,1577876113.8125
9.82,1577876113.828125
5.3,1577876113.84375
1.64,1577876113.859375
-1.23,1577876113.875
-3.65,1577876113.890625
-6.17,1577876113.90625
-9.25,1577876113.921875
-13.08,1577876113.9375
-17.55,1577876113.953125
-22.24,1577876113.96875
-26.66,1577876113.984375
-30.36,1577876114.0
-33.14,1577876114.015625
-35.12,1577876114.03125
-36.68,1577876114.046875
-38.38,1577876114.0625
-40.83,1577876114.078125
-44.57,1577876114.09375
-49.81,1577876114.109375
-56.2,1577876114.125
-62.73,1577876114.140625
-67.76,1577876114.15625
-69.43,1577876114.171875
-66.26,1577876114.1875
-57.63,1577876114.203125
-44.13,1577876114.21875
-27.4,1577876114.234375
-9.62,1577876114.25
7.09,1577876114.265625
21.15,1577876114.28125
31.82,1577876114.296875
39.0,1577876114.3125
43.06,1577876114.328125
44.56,1577876114.34375
44.07,1577876114.359375
42.11,1577876114.375
39.22,1577876114.390625
35.87,1577876114.40625
32.54,1577876114.421875
29.66,1577876114.4375
27.62,1577876114.453125
26.64,1577876114.46875
26.75,1577876114.484375
27.71,1577876114.5
29.05,1577876114.515625
30.28,1577876114.53125
30.97,1577876114.546875
30.96,1577876114.5625
30.35,1577876114.578125
29.38,1577876114.59375
28.18,1577876114.609375
26.72,1577876114.625
24.71,1577876114.640625
21.83,1577876114.65625
17.95,1577876114.671875
13.26,1577876114.6875
8.32,1577876114.703125
3.74,1577876114.71875
-0.06,1577876114.734375
-3.04,1577876114.75
-5.6,1577876114.765625
-8.33,1577876114.78125
-11.72,1577876114.796875
-15.91,1577876114.8125
-20.6,1577876114.828125
-25.25,1577876114.84375
-29.28,1577876114.859375
-32.33,1577876114.875
-34.37,1577876114.890625
-35.71,1577876114.90625
-36.9,1577876114.921875
-38.59,1577876114.9375
-41.38,1577876114.953125
-45.71,1577876114.96875
-51.55,1577876114.984375
-58.26,1577876115.0
-64.51,1577876115.015625
-68.47,1577876115.03125
-68.32,1577876115.046875
-62.9,1577876115.0625
-52.15,1577876115.078125
-37.18,1577876115.09375
-19.95,1577876115.109375
-2.63,1577876115.125
13.06,1577876115.140625
26.04,1577876115.15625
35.99,1577876115.171875
42.96,1577876115.1875
47.23,1577876115.203125
49.05,1577876115.21875
48.74,1577876115.234375
46.72,1577876115.25
43.43,1577876115.265625
39.44,1577876115.28125
35.26,1577876115.296875
31.43,1577876115.3125
28.47,1577876115.328125
26.85,1577876115.34375
26.78,1577876115.359375
28.09,1577876115.375
30.22,1577876115.390625
32.29,1577876115.40625
33.54,1577876115.421875
33.52,1577876115.4375
32.33,1577876115.453125
30.39,1577876115.46875
28.16,1577876115.484375
25.83,1577876115.5
23.24,1577876115.515625
20.03,1577876115.53125
15.98,1577876115.546875
11.19,1577876115.5625
6.12,1577876115.578125
1.4,1577876115.59375
-2.49,1577876115.609375
-5.44,1577876115.625
-7.72,1577876115.640625
-9.88,1577876115.65625
-12.55,1577876115.671875
-16.09,1577876115.6875
-20.55,1577876115.703125
-25.6,1577876115.71875
-30.62,1577876115.734375
-34.97,1577876115.75
-38.2,1577876115.765625
-40.29,1577876115.78125
-41.72,1577876115.796875
-43.29,1577876115.8125
-45.87,1577876115.828125
-50.14,1577876115.84375
-56.29,1577876115.859375
-63.91,1577876115.875
-71.94,1577876115.890625
-78.77,1577876115.90625
-82.45,1577876115.921875
-81.13,1577876115.9375
-73.65,1577876115.953125
-59.96,1577876115.96875
-41.37,1577876115.984375
-20.3,1577876116.0
0.39,1577876116.015625
18.19,1577876116.03125
31.64,1577876116.046875
40.55,1577876116.0625
45.68,1577876116.078125
48.22,1577876116.09375
49.17,1577876116.109375
49.05,1577876116.125
47.93,1577876116.140625
45.78,1577876116.15625
42.79,1577876116.171875
39.49,1577876116.1875
36.63,1577876116.203125
34.86,1577876116.21875
34.44,1577876116.234375
35.15,1577876116.25
36.44,1577876116.265625
37.74,1577876116.28125
38.66,1577876116.296875
39.18,1577876116.3125
39.42,1577876116.328125
39.48,1577876116.34375
39.24,1577876116.359375
38.32,1577876116.375
36.35,1577876116.390625
33.14,1577876116.40625
28.85,1577876116.421875
23.96,1577876116.4375
19.05,1577876116.453125
14.58,1577876116.46875
10.75,1577876116.484375
7.45,1577876116.5
4.45,1577876116.515625
1.41,1577876116.53125
-1.89,1577876116.546875
-5.62,1577876116.5625
-9.84,1577876116.578125
-14.53,1577876116.59375
-19.58,1577876116.609375
-24.73,1577876116.625
-29.71,1577876116.640625
-34.23,1577876116.65625
-38.15,1577876116.671875
-41.49,1577876116.6875
-44.55,1577876116.703125
-47.69,1577876116.71875
-51.38,1577876116.734375
-56.07,1577876116.75
-62.03,1577876116.765625
-69.2,1577876116.78125
-76.99,1577876116.796875
-84.13,1577876116.8125
-88.79,1577876116.828125
-89.04,1577876116.84375
-83.44,1577876116.859375
-71.75,1577876116.875
-55.06,1577876116.890625
-35.66,1577876116.90625
-16.25,1577876116.921875
0.9,1577876116.9375
14.48,1577876116.953125
24.29,1577876116.96875
30.89,1577876116.984375
35.03,1577876117.0
37.22,1577876117.015625
37.62,1577876117.03125
36.22,1577876117.046875
33.21,1577876117.0625
29.1,1577876117.078125
24.71,1577876117.09375
20.96,1577876117.109375
18.42,1577876117.125
17.23,1577876117.140625
17.1,1577876117.15625
17.51,1577876117.171875
18.0,1577876117.1875
18.28,1577876117.203125
18.21,1577876117.21875
17.64,1577876117.234375
16.37,1577876117.25
14.11,1577876117.265625
10.65,1577876117.28125
5.95,1577876117.296875
0.27,1577876117.3125
-5.96,1577876117.328125
-12.31,1577876117.34375
-18.42,1577876117.359375
-24.17,1577876117.375
-29.63,1577876117.390625
-34.99,1577876117.40625
-40.47,1577876117.421875
-46.15,1577876117.4375
-51.93,1577876117.453125
-57.48,1577876117.46875
-62.29,1577876117.484375
-65.77,1577876117.5
-67.39,1577876117.515625
-66.85,1577876117.53125
-64.16,1577876117.546875
-59.63,1577876117.5625
-53.7,1577876117.578125
-46.91,1577876117.59375
-39.72,1577876117.609375
-32.58,1577876117.625
-26.0,1577876117.640625
-20.58,1577876117.65625
-17.05,1577876117.671875
-16.04,1577876117.6875
-17.75,1577876117.703125
-21.59,1577876117.71875
-26.05,1577876117.734375
-28.91,1577876117.75
-27.8,1577876117.765625
-21.06,1577876117.78125
-8.25,1577876117.796875
9.57,1577876117.8125
30.25,1577876117.828125
51.3,1577876117.84375
70.63,1577876117.859375
86.97,1577876117.875
100.04,1577876117.890625
110.25,1577876117.90625
118.28,1577876117.921875
124.74,1577876117.9375
129.97,1577876117.953125
134.02,1577876117.96875
136.72,1577876117.984375
137.81,1577876118.0
137.06,1577876118.015625
134.42,1577876118.03125
129.99,1577876118.046875
124.09,1577876118.0625
117.03,1577876118.078125
109.16,1577876118.09375
100.78,1577876118.109375
92.25,1577876118.125
84.0,1577876118.140625
76.56,1577876118.15625
70.28,1577876118.171875
65.28,1577876118.1875
61.2,1577876118.203125
57.42,1577876118.21875
53.23,1577876118.234375
48.12,1577876118.25
41.96,1577876118.265625
35.0,1577876118.28125
27.64,1577876118.296875
20.32,1577876118.3125
13.38,1577876118.328125
7.06,1577876118.34375
1.53,1577876118.359375
-3.1,1577876118.375
-6.83,1577876118.390625
-9.81,1577876118.40625
-12.28,1577876118.421875
-14.57,1577876118.4375
-16.89,1577876118.453125
-19.32,1577876118.46875
-21.82,1577876118.484375
-24.28,1577876118.5
-26.57,1577876118.515625
-28.5,1577876118.53125
-29.92,1577876118.546875
-30.6,1577876118.5625
-30.38,1577876118.578125
-29.31,1577876118.59375
-27.6,1577876118.609375
-25.75,1577876118.625
-24.23,1577876118.640625
-23.36,1577876118.65625
-23.11,1577876118.671875
-23.11,1577876118.6875
-22.73,1577876118.703125
-21.3,1577876118.71875
-18.29,1577876118.734375
-13.58,1577876118.75
-7.48,1577876118.765625
-0.66,1577876118.78125
5.85,1577876118.796875
10.98,1577876118.8125
13.84,1577876118.828125
13.92,1577876118.84375
11.22,1577876118.859375
6.18,1577876118.875
-0.41,1577876118.890625
-7.72,1577876118.90625
-15.0,1577876118.921875
-21.73,1577876118.9375
-27.49,1577876118.953125
-31.96,1577876118.96875
-34.83,1577876118.984375
-35.85,1577876119.0
-34.9,1577876119.015625
-31.99,1577876119.03125
-27.26,1577876119.046875
-20.99,1577876119.0625
-13.58,1577876119.078125
-5.57,1577876119.09375
2.26,1577876119.109375
9.04,1577876119.125
14.03,1577876119.140625
16.94,1577876119.15625
18.21,1577876119.171875
18.78,1577876119.1875
19.83,1577876119.203125
22.14,1577876119.21875
25.78,1577876119.234375
29.97,1577876119.25
33.58,1577876119.265625
35.53,1577876119.28125
35.35,1577876119.296875
33.07,1577876119.3125
29.09,1577876119.328125
23.73,1577876119.34375
17.06,1577876119.359375
8.95,1577876119.375
-0.71,1577876119.390625
-11.69,1577876119.40625
-23.36,1577876119.421875
-34.83,1577876119.4375
-45.3,1577876119.453125
-54.34,1577876119.46875
-61.98,1577876119.484375
-68.67,1577876119.5
-75.11,1577876119.515625
-82.04,1577876119.53125
-90.16,1577876119.546875
-100.01,1577876119.5625
-111.65,1577876119.578125
-124.45,1577876119.59375
-136.82,1577876119.609375
-146.4,1577876119.625
-150.66,1577876119.640625
-147.71,1577876119.65625
-137.06,1577876119.671875
-119.95,1577876119.6875
-98.92,1577876119.703125
-76.96,1577876119.71875
-56.65,1577876119.734375
-39.43,1577876119.75
-25.64,1577876119.765625
-14.84,1577876119.78125
-6.44,1577876119.796875
-0.05,1577876119.8125
4.48,1577876119.828125
7.18,1577876119.84375
8.3,1577876119.859375
8.4,1577876119.875
8.3,1577876119.890625
8.75,1577876119.90625
10.24,1577876119.921875
12.83,1577876119.9375
16.23,1577876119.953125
20.03,1577876119.96875
23.97,1577876119.984375
27.98,1577876120.0
32.16,1577876120.015625
36.58,1577876120.03125
41.06,1577876120.046875
45.11,1577876120.0625
48.03,1577876120.078125
49.22,1577876120.09375
48.47,1577876120.109375
45.99,1577876120.125
42.36,1577876120.140625
38.2,1577876120.15625
33.84,1577876120.171875
29.27,1577876120.1875
24.26,1577876120.203125
18.66,1577876120.21875
12.73,1577876120.234375
6.95,1577876120.25
1.93,1577876120.265625
-2.11,1577876120.28125
-5.41,1577876120.296875
-8.59,1577876120.3125
-12.34,1577876120.328125
-17.01,1577876120.34375
-22.52,1577876120.359375
-28.42,1577876120.375
-34.15,1577876120.390625
-39.27,1577876120.40625
-43.65,1577876120.421875
-47.42,1577876120.4375
-50.96,1577876120.453125
-54.9,1577876120.46875
-59.98,1577876120.484375
-66.92,1577876120.5
-76.06,1577876120.515625
-86.99,1577876120.53125
-98.31,1577876120.546875
-107.82,1577876120.5625
-112.89,1577876120.578125
-111.25,1577876120.59375
-101.66,1577876120.609375
-84.38,1577876120.625
-61.19,1577876120.640625
-34.93,1577876120.65625
-8.82,1577876120.671875
14.44,1577876120.6875
33.23,1577876120.703125
47.27,1577876120.71875
57.23,1577876120.734375
64.22,1577876120.75
69.14,1577876120.765625
72.39,1577876120.78125
73.93,1577876120.796875
73.67,1577876120.8125
71.86,1577876120.828125
69.24,1577876120.84375
66.9,1577876120.859375
65.81,1577876120.875
66.37,1577876120.890625
68.37,1577876120.90625
71.07,1577876120.921875
73.68,1577876120.9375
75.62,1577876120.953125
76.72,1577876120.96875
77.09,1577876120.984375
76.81,1577876121.0
75.82,1577876121.015625
73.83,1577876121.03125
70.56,1577876121.046875
65.9,1577876121.0625
60.0,1577876121.078125
53.32,1577876121.09375
46.31,1577876121.109375
39.38,1577876121.125
32.71,1577876121.140625
26.35,1577876121.15625
20.27,1577876121.171875
14.5,1577876121.1875
9.07,1577876121.203125
3.91,1577876121.21875
-1.15,1577876121.234375
-6.42,1577876121.25
-12.18,1577876121.265625
-18.55,1577876121.28125
-25.39,1577876121.296875
-32.32,1577876121.3125
-38.97,1577876121.328125
-45.08,1577876121.34375
-50.7,1577876121.359375
-56.2,1577876121.375
-62.2,1577876121.390625
-69.47,1577876121.40625
-78.67,1577876121.421875
-90.1,1577876121.4375
-103.28,1577876121.453125
-116.69,1577876121.46875
-127.77,1577876121.484375
-133.47,1577876121.5
-131.14,1577876121.515625
-119.49,1577876121.53125
-99.22,1577876121.546875
-72.89,1577876121.5625
-44.18,1577876121.578125
-16.66,1577876121.59375
7.11,1577876121.609375
26.05,1577876121.625
40.37,1577876121.640625
50.91,1577876121.65625
58.57,1577876121.671875
63.83,1577876121.6875
66.9,1577876121.703125
67.83,1577876121.71875
66.95,1577876121.734375
64.9,1577876121.75
62.56,1577876121.765625
60.75,1577876121.78125
59.97,1577876121.796875
60.34,1577876121.8125
61.62,1577876121.828125
63.53,1577876121.84375
65.87,1577876121.859375
68.5,1577876121.875
71.29,1577876121.890625
73.83,1577876121.90625
75.5,1577876121.921875
75.65,1577876121.9375
73.86,1577876121.953125
70.2,1577876121.96875
65.14,1577876121.984375
59.38,1577876122.0
53.54,1577876122.015625
47.87,1577876122.03125
42.24,1577876122.046875
36.33,1577876122.0625
29.85,1577876122.078125
22.81,1577876122.09375
15.58,1577876122.109375
8.7,1577876122.125
2.6,1577876122.140625
-2.65,1577876122.15625
-7.39,1577876122.171875
-12.28,1577876122.1875
-17.92,1577876122.203125
-24.54,1577876122.21875
-31.88,1577876122.234375
-39.34,1577876122.25
-46.27,1577876122.265625
-52.37,1577876122.28125
-57.79,1577876122.296875
-63.16,1577876122.3125
-69.34,1577876122.328125
-77.19,1577876122.34375
-87.28,1577876122.359375
-99.58,1577876122.375
-113.15,1577876122.390625
-126.02,1577876122.40625
-135.26,1577876122.421875
-137.73,1577876122.4375
-130.95,1577876122.453125
-114.08,1577876122.46875
-88.46,1577876122.484375
-57.37,1577876122.5
-25.05,1577876122.515625
4.51,1577876122.53125
28.7,1577876122.546875
46.66,1577876122.5625
59.03,1577876122.578125
67.23,1577876122.59375
72.69,1577876122.609375
76.32,1577876122.625
78.5,1577876122.640625
79.3,1577876122.65625
78.81,1577876122.671875
77.35,1577876122.6875
75.53,1577876122.703125
73.96,1577876122.71875
73.12,1577876122.734375
73.17,1577876122.75
73.93,1577876122.765625
75.12,1577876122.78125
76.37,1577876122.796875
77.41,1577876122.8125
77.97,1577876122.828125
77.79,1577876122.84375
76.54,1577876122.859375
73.95,1577876122.875
69.96,1577876122.890625
64.83,1577876122.90625
59.05,1577876122.921875
53.22,1577876122.9375
47.77,1577876122.953125
42.75,1577876122.96875
37.89,1577876122.984375
32.73,1577876123.0
26.89,1577876123.015625
20.32,1577876123.03125
13.22,1577876123.046875
5.97,1577876123.0625
-1.11,1577876123.078125
-7.87,1577876123.09375
-14.34,1577876123.109375
-20.66,1577876123.125
-26.91,1577876123.140625
-33.08,1577876123.15625
-39.09,1577876123.171875
-44.81,1577876123.1875
-50.16,1577876123.203125
-55.12,1577876123.21875
-59.84,1577876123.234375
-64.59,1577876123.25
-69.91,1577876123.265625
-76.5,1577876123.28125
-85.08,1577876123.296875
-95.99,1577876123.3125
-108.71,1577876123.328125
-121.55,1577876123.34375
-131.78,1577876123.359375
-136.33,1577876123.375
-132.68,1577876123.390625
-119.92,1577876123.40625
-99.07,1577876123.421875
-72.86,1577876123.4375
-44.82,1577876123.453125
-18.23,1577876123.46875
4.67,1577876123.484375
22.96,1577876123.5
36.76,1577876123.515625
46.72,1577876123.53125
53.55,1577876123.546875
57.85,1577876123.5625
60.11,1577876123.578125
60.8,1577876123.59375
60.5,1577876123.609375
59.79,1577876123.625
59.2,1577876123.640625
59.09,1577876123.65625
59.57,1577876123.671875
60.6,1577876123.6875
62.02,1577876123.703125
63.68,1577876123.71875
65.43,1577876123.734375
67.2,1577876123.75
68.83,1577876123.765625
70.1,1577876123.78125
70.68,1577876123.796875
70.18,1577876123.8125
68.33,1577876123.828125
65.04,1577876123.84375
60.43,1577876123.859375
54.82,1577876123.875
48.6,1577876123.890625
42.07,1577876123.90625
35.47,1577876123.921875
28.93,1577876123.9375
22.54,1577876123.953125
16.4,1577876123.96875
10.63,1577876123.984375
5.31,1577876124.0
0.34,1577876124.015625
-4.53,1577876124.03125
-9.7,1577876124.046875
-15.57,1577876124.0625
-22.29,1577876124.078125
-29.67,1577876124.09375
-37.19,1577876124.109375
-44.22,1577876124.125
-50.3,1577876124.140625
-55.4,1577876124.15625
-59.98,1577876124.171875
-64.91,1577876124.1875
-71.17,1577876124.203125
-79.46,1577876124.21875
-89.92,1577876124.234375
-101.84,1577876124.25
-113.52,1577876124.265625
-122.49,1577876124.28125
-126.02,1577876124.296875
-121.87,1577876124.3125
-109.06,1577876124.328125
-88.36,1577876124.34375
-62.15,1577876124.359375
-33.82,1577876124.375
-6.71,1577876124.390625
16.74,1577876124.40625
35.43,1577876124.421875
49.46,1577876124.4375
59.63,1577876124.453125
66.78,1577876124.46875
71.45,1577876124.484375
73.9,1577876124.5
74.31,1577876124.515625
73.05,1577876124.53125
70.76,1577876124.546875
68.24,1577876124.5625
66.2,1577876124.578125
64.99,1577876124.59375
64.58,1577876124.609375
64.67,1577876124.625
64.92,1577876124.640625
65.15,1577876124.65625
65.29,1577876124.671875
65.32,1577876124.6875
65.02,1577876124.703125
64.04,1577876124.71875
61.95,1577876124.734375
58.44,1577876124.75
53.48,1577876124.765625
47.36,1577876124.78125
40.52,1577876124.796875
33.42,1577876124.8125
26.33,1577876124.828125
19.33,1577876124.84375
12.33,1577876124.859375
5.26,1577876124.875
-1.89,1577876124.890625
-8.96,1577876124.90625
-15.67,1577876124.921875
-21.69,1577876124.9375
-26.74,1577876124.953125
-30.73,1577876124.96875
-33.84,1577876124.984375
-36.47,1577876125.0
-39.19,1577876125.015625
-42.41,1577876125.03125
-46.23,1577876125.046875
-50.38,1577876125.0625
-54.3,1577876125.078125
-57.47,1577876125.09375
-59.68,1577876125.109375
-61.23,1577876125.125
-62.9,1577876125.140625
-65.74,1577876125.15625
-70.63,1577876125.171875
-77.85,1577876125.1875
-86.79,1577876125.203125
-95.87,1577876125.21875
-102.7,1577876125.234375
-104.64,1577876125.25
-99.44,1577876125.265625
-85.96,1577876125.28125
-64.58,1577876125.296875
-37.29,1577876125.3125
-7.2,1577876125.328125
22.21,1577876125.34375
47.98,1577876125.359375
68.35,1577876125.375
82.98,1577876125.390625
92.72,1577876125.40625
99.02,1577876125.421875
103.28,1577876125.4375
106.35,1577876125.453125
108.49,1577876125.46875
109.52,1577876125.484375
109.3,1577876125.5
107.91,1577876125.515625
105.76,1577876125.53125
103.33,1577876125.546875
100.88,1577876125.5625
98.29,1577876125.578125
95.15,1577876125.59375
91.04,1577876125.609375
85.79,1577876125.625
79.55,1577876125.640625
72.72,1577876125.65625
65.64,1577876125.671875
58.46,1577876125.6875
51.08,1577876125.703125
43.35,1577876125.71875
35.24,1577876125.734375
26.9,1577876125.75
18.61,1577876125.765625
10.62,1577876125.78125
3.01,1577876125.796875
-4.38,1577876125.8125
-11.75,1577876125.828125
-19.26,1577876125.84375
-26.85,1577876125.859375
-34.29,1577876125.875
-41.32,1577876125.890625
-47.85,1577876125.90625
-54.05,1577876125.921875
-60.2,1577876125.9375
-66.54,1577876125.953125
-73.12,1577876125.96875
-79.69,1577876125.984375
-85.88,1577876126.0
-91.35,1577876126.015625
-95.99,1577876126.03125
-100.0,1577876126.046875
-103.83,1577876126.0625
-108.02,1577876126.078125
-113.08,1577876126.09375
-119.28,1577876126.109375
-126.46,1577876126.125
-133.76,1577876126.140625
-139.58,1577876126.15625
-141.74,1577876126.171875
-138.08,1577876126.1875
-127.19,1577876126.203125
-109.04,1577876126.21875
-85.19,1577876126.234375
-58.31,1577876126.25
-31.46,1577876126.265625
-7.19,1577876126.28125
13.0,1577876126.296875
28.68,1577876126.3125
40.23,1577876126.328125
48.3,1577876126.34375
53.57,1577876126.359375
56.51,1577876126.375
57.5,1577876126.390625
56.85,1577876126.40625
54.96,1577876126.421875
52.33,1577876126.4375
49.58,1577876126.453125
47.4,1577876126.46875
46.36,1577876126.484375
46.74,1577876126.5
48.43,1577876126.515625
50.98,1577876126.53125
53.72,1577876126.546875
56.03,1577876126.5625
57.51,1577876126.578125
58.0,1577876126.59375
57.51,1577876126.609375
56.06,1577876126.625
53.58,1577876126.640625
49.96,1577876126.65625
45.14,1577876126.671875
39.21,1577876126.6875
32.53,1577876126.703125
25.65,1577876126.71875
19.18,1577876126.734375
13.57,1577876126.75
8.96,1577876126.765625
5.06,1577876126.78125
1.32,1577876126.796875
-2.88,1577876126.8125
-7.98,1577876126.828125
-14.1,1577876126.84375
-20.99,1577876126.859375
-28.2,1577876126.875
-35.23,1577876126.890625
-41.76,1577876126.90625
-47.67,1577876126.921875
-53.13,1577876126.9375
-58.45,1577876126.953125
-64.08,1577876126.96875
-70.57,1577876126.984375
-78.49,1577876127.0
-88.19,1577876127.015625
-99.49,1577876127.03125
-111.38,1577876127.046875
-121.87,1577876127.0625
-128.32,1577876127.078125
-128.23,1577876127.09375
-120.06,1577876127.109375
-103.93,1577876127.125
-81.67,1577876127.140625
-56.3,1577876127.15625
-31.01,1577876127.171875
-8.26,1577876127.1875
10.8,1577876127.203125
26.22,1577876127.21875
38.67,1577876127.234375
48.84,1577876127.25
57.01,1577876127.265625
63.0,1577876127.28125
66.48,1577876127.296875
67.42,1577876127.3125
66.34,1577876127.328125
64.22,1577876127.34375
62.2,1577876127.359375
61.24,1577876127.375
61.7,1577876127.390625
63.4,1577876127.40625
65.75,1577876127.421875
68.1,1577876127.4375
69.94,1577876127.453125
71.05,1577876127.46875
71.41,1577876127.484375
71.0,1577876127.5
69.7,1577876127.515625
67.3,1577876127.53125
63.62,1577876127.546875
58.65,1577876127.5625
52.63,1577876127.578125
46.06,1577876127.59375
39.53,1577876127.609375
33.48,1577876127.625
28.13,1577876127.640625
23.41,1577876127.65625
19.08,1577876127.671875
14.74,1577876127.6875
10.04,1577876127.703125
4.66,1577876127.71875
-1.59,1577876127.734375
-8.72,1577876127.75
-16.48,1577876127.765625
-24.41,1577876127.78125
-31.91,1577876127.796875
-38.52,1577876127.8125
-44.11,1577876127.828125
-49.03,1577876127.84375
-54.11,1577876127.859375
-60.36,1577876127.875
-68.66,1577876127.890625
-79.42,1577876127.90625
-92.25,1577876127.921875
-105.86,1577876127.9375
-118.16,1577876127.953125
-126.54,1577876127.96875
-128.47,1577876127.984375
-122.24,1577876128.0
-107.51,1577876128.015625
-85.59,1577876128.03125
-59.17,1577876128.046875
-31.57,1577876128.0625
-5.86,1577876128.078125
15.89,1577876128.09375
32.97,1577876128.109375
45.75,1577876128.125
55.22,1577876128.140625
62.29,1577876128.15625
67.45,1577876128.171875
70.8,1577876128.1875
72.26,1577876128.203125
72.0,1577876128.21875
70.6,1577876128.234375
68.95,1577876128.25
67.96,1577876128.265625
68.15,1577876128.28125
69.5,1577876128.296875
71.51,1577876128.3125
73.46,1577876128.328125
74.87,1577876128.34375
75.58,1577876128.359375
75.69,1577876128.375
75.37,1577876128.390625
74.56,1577876128.40625
72.91,1577876128.421875
69.93,1577876128.4375
65.19,1577876128.453125
58.65,1577876128.46875
50.69,1577876128.484375
42.05,1577876128.5
33.54,1577876128.515625
25.85,1577876128.53125
19.36,1577876128.546875
14.05,1577876128.5625
9.66,1577876128.578125
5.68,1577876128.59375
1.61,1577876128.609375
-2.96,1577876128.625
-8.25,1577876128.640625
-14.17,1577876128.65625
-20.41,1577876128.671875
-26.56,1577876128.6875
-32.24,1577876128.703125
-37.28,1577876128.71875
-41.75,1577876128.734375
-45.99,1577876128.75
-50.57,1577876128.765625
-56.19,1577876128.78125
-63.53,1577876128.796875
-73.09,1577876128.8125
-84.71,1577876128.828125
-97.32,1577876128.84375
-108.67,1577876128.859375
-115.78,1577876128.875
-115.67,1577876128.890625
-106.43,1577876128.90625
-88.04,1577876128.921875
-62.54,1577876128.9375
-33.44,1577876128.953125
-4.57,1577876128.96875
21.02,1577876128.984375
41.78,1577876129.0
57.59,1577876129.015625
69.32,1577876129.03125
78.04,1577876129.046875
84.53,1577876129.0625
89.16,1577876129.078125
92.06,1577876129.09375
93.42,1577876129.109375
93.66,1577876129.125
93.42,1577876129.140625
93.4,1577876129.15625
94.11,1577876129.171875
95.78,1577876129.1875
98.36,1577876129.203125
101.61,1577876129.21875
105.2,1577876129.234375
108.72,1577876129.25
111.66,1577876129.265625
113.49,1577876129.28125
113.74,1577876129.296875
112.1,1577876129.3125
108.62,1577876129.328125
103.62,1577876129.34375
97.63,1577876129.359375
91.1,1577876129.375
84.24,1577876129.390625
77.01,1577876129.40625
69.2,1577876129.421875
60.57,1577876129.4375
51.0,1577876129.453125
40.47,1577876129.46875
29.06,1577876129.484375
16.88,1577876129.5
4.04,1577876129.515625
-9.24,1577876129.53125
-22.64,1577876129.546875
-35.64,1577876129.5625
-47.67,1577876129.578125
-58.16,1577876129.59375
-66.71,1577876129.609375
-73.25,1577876129.625
-78.07,1577876129.640625
-81.83,1577876129.65625
-85.48,1577876129.671875
-90.1,1577876129.6875
-96.67,1577876129.703125
-105.72,1577876129.71875
-116.95,1577876129.734375
-129.01,1577876129.75
-139.53,1577876129.765625
-145.6,1577876129.78125
-144.65,1577876129.796875
-135.29,1577876129.8125
-117.94,1577876129.828125
-94.79,1577876129.84375
-69.09,1577876129.859375
-44.21,1577876129.875
-22.6,1577876129.890625
-5.41,1577876129.90625
7.43,1577876129.921875
16.7,1577876129.9375
23.31,1577876129.953125
27.86,1577876129.96875
30.62,1577876129.984375
31.72,1577876130.0
31.33,1577876130.015625
29.87,1577876130.03125
27.94,1577876130.046875
26.21,1577876130.0625
25.14,1577876130.078125
24.88,1577876130.09375
25.21,1577876130.109375
25.66,1577876130.125
25.73,1577876130.140625
25.15,1577876130.15625
23.92,1577876130.171875
22.27,1577876130.1875
20.46,1577876130.203125
18.58,1577876130.21875
16.47,1577876130.234375
13.85,1577876130.25
10.4,1577876130.265625
6.01,1577876130.28125
0.8,1577876130.296875
-4.93,1577876130.3125
-10.8,1577876130.328125
-16.56,1577876130.34375
-22.08,1577876130.359375
-27.39,1577876130.375
-32.57,1577876130.390625
-37.73,1577876130.40625
-42.93,1577876130.421875
-48.18,1577876130.4375
-53.51,1577876130.453125
-58.88,1577876130.46875
-64.22,1577876130.484375
-69.34,1577876130.5
-73.97,1577876130.515625
-77.82,1577876130.53125
-80.78,1577876130.546875
-83.03,1577876130.5625
-85.14,1577876130.578125
-88.0,1577876130.59375
-92.6,1577876130.609375
-99.72,1577876130.625
-109.6,1577876130.640625
-121.48,1577876130.65625
-133.53,1577876130.671875
-143.01,1577876130.6875
-146.86,1577876130.703125
-142.63,1577876130.71875
-129.3,1577876130.734375
-107.8,1577876130.75
-80.79,1577876130.765625
-51.89,1577876130.78125
-24.5,1577876130.796875
-0.89,1577876130.8125
18.16,1577876130.828125
33.21,1577876130.84375
45.34,1577876130.859375
55.54,1577876130.875
64.2,1577876130.890625
71.24,1577876130.90625
76.39,1577876130.921875
79.67,1577876130.9375
81.57,1577876130.953125
83.05,1577876130.96875
85.15,1577876130.984375
88.63,1577876131.0
93.64,1577876131.015625
99.76,1577876131.03125
106.17,1577876131.046875
112.03,1577876131.0625
116.7,1577876131.078125
119.82,1577876131.09375
121.25,1577876131.109375
120.85,1577876131.125
118.43,1577876131.140625
113.81,1577876131.15625
106.87,1577876131.171875
97.81,1577876131.1875
87.13,1577876131.203125
75.55,1577876131.21875
63.86,1577876131.234375
52.59,1577876131.25
42.03,1577876131.265625
32.18,1577876131.28125
22.91,1577876131.296875
14.09,1577876131.3125
5.57,1577876131.328125
-2.77,1577876131.34375
-11.08,1577876131.359375
-19.47,1577876131.375
-27.91,1577876131.390625
-36.15,1577876131.40625
-43.77,1577876131.421875
-50.4,1577876131.4375
-55.98,1577876131.453125
-60.91,1577876131.46875
-66.08,1577876131.484375
-72.61,1577876131.5
-81.43,1577876131.515625
-92.94,1577876131.53125
-106.65,1577876131.546875
-121.03,1577876131.5625
-133.69,1577876131.578125
-141.82,1577876131.59375
-142.84,1577876131.609375
-135.25,1577876131.625
-119.13,1577876131.640625
-96.27,1577876131.65625
-69.71,1577876131.671875
-42.8,1577876131.6875
-18.34,1577876131.703125
2.11,1577876131.71875
18.26,1577876131.734375
30.79,1577876131.75
40.61,1577876131.765625
48.4,1577876131.78125
54.35,1577876131.796875
58.3,1577876131.8125
60.09,1577876131.828125
59.92,1577876131.84375
58.55,1577876131.859375
57.05,1577876131.875
56.52,1577876131.890625
57.57,1577876131.90625
60.19,1577876131.921875
63.79,1577876131.9375
67.55,1577876131.953125
70.89,1577876131.96875
73.59,1577876131.984375
75.82,1577876132.0
77.74,1577876132.015625
79.33,1577876132.03125
80.2,1577876132.046875
79.76,1577876132.0625
77.52,1577876132.078125
73.34,1577876132.09375
67.53,1577876132.109375
60.72,1577876132.125
53.7,1577876132.140625
47.1,1577876132.15625
41.28,1577876132.171875
36.23,1577876132.1875
31.66,1577876132.203125
27.07,1577876132.21875
21.98,1577876132.234375
16.11,1577876132.25
9.48,1577876132.265625
2.41,1577876132.28125
-4.54,1577876132.296875
-10.91,1577876132.3125
-16.43,1577876132.328125
-21.24,1577876132.34375
-25.71,1577876132.359375
-30.43,1577876132.375
-36.04,1577876132.390625
-43.18,1577876132.40625
-52.29,1577876132.421875
-63.34,1577876132.4375
-75.56,1577876132.453125
-87.13,1577876132.46875
-95.4,1577876132.484375
-97.53,1577876132.5
-91.46,1577876132.515625
-76.79,1577876132.53125
-55.18,1577876132.546875
-29.91,1577876132.5625
-4.77,1577876132.578125
17.13,1577876132.59375
34.09,1577876132.609375
46.01,1577876132.625
53.79,1577876132.640625
58.59,1577876132.65625
61.25,1577876132.671875
62.17,1577876132.6875
61.55,1577876132.703125
59.63,1577876132.71875
56.95,1577876132.734375
54.16,1577876132.75
51.86,1577876132.765625
50.42,1577876132.78125
49.88,1577876132.796875
50.1,1577876132.8125
50.82,1577876132.828125
51.74,1577876132.84375
52.56,1577876132.859375
52.9,1577876132.875
52.36,1577876132.890625
50.58,1577876132.90625
47.36,1577876132.921875
42.73,1577876132.9375
36.88,1577876132.953125
30.1,1577876132.96875
22.64,1577876132.984375
14.72,1577876133.0
6.49,1577876133.015625
-1.82,1577876133.03125
-9.88,1577876133.046875
-17.35,1577876133.0625
-23.95,1577876133.078125
-29.62,1577876133.09375
-34.61,1577876133.109375
-39.38,1577876133.125
-44.46,1577876133.140625
-50.28,1577876133.15625
-56.98,1577876133.171875
-64.41,1577876133.1875
-72.15,1577876133.203125
-79.68,1577876133.21875
-86.56,1577876133.234375
-92.61,1577876133.25
-98.07,1577876133.265625
-103.51,1577876133.28125
-109.82,1577876133.296875
-117.88,1577876133.3125
-128.26,1577876133.328125
-140.86,1577876133.34375
-154.54,1577876133.359375
-167.08,1577876133.375
-175.46,1577876133.390625
-176.62,1577876133.40625
-168.46,1577876133.421875
-150.59,1577876133.4375
-124.66,1577876133.453125
-93.97,1577876133.46875
-62.47,1577876133.484375
-33.63,1577876133.5
-9.62,1577876133.515625
8.96,1577876133.53125
22.7,1577876133.546875
32.75,1577876133.5625
40.2,1577876133.578125
45.74,1577876133.59375
49.58,1577876133.609375
51.74,1577876133.625
52.31,1577876133.640625
51.64,1577876133.65625
50.39,1577876133.671875
49.42,1577876133.6875
49.43,1577876133.703125
50.85,1577876133.71875
53.62,1577876133.734375
57.36,1577876133.75
61.51,1577876133.765625
65.57,1577876133.78125
69.23,1577876133.796875
72.3,1577876133.8125
74.65,1577876133.828125
76.11,1577876133.84375
76.47,1577876133.859375
75.56,1577876133.875
73.37,1577876133.890625
70.06,1577876133.90625
65.91,1577876133.921875
61.3,1577876133.9375
56.58,1577876133.953125
51.98,1577876133.96875
47.67,1577876133.984375
43.65,1577876134.0
39.78,1577876134.015625
35.79,1577876134.03125
31.32,1577876134.046875
26.05,1577876134.0625
19.77,1577876134.078125
12.51,1577876134.09375
4.54,1577876134.109375
-3.76,1577876134.125
-11.95,1577876134.140625
-19.83,1577876134.15625
-27.49,1577876134.171875
-35.37,1577876134.1875
-44.14,1577876134.203125
-54.53,1577876134.21875
-66.98,1577876134.234375
-81.33,1577876134.25
-96.58,1577876134.265625
-110.82,1577876134.28125
-121.51,1577876134.296875
-126.03,1577876134.3125
-122.54,1577876134.328125
-110.5,1577876134.34375
-91.14,1577876134.359375
-67.13,1577876134.375
-41.82,1577876134.390625
-18.3,1577876134.40625
1.38,1577876134.421875
16.47,1577876134.4375
27.31,1577876134.453125
34.74,1577876134.46875
39.57,1577876134.484375
42.3,1577876134.5
43.2,1577876134.515625
42.49,1577876134.53125
40.58,1577876134.546875
38.09,1577876134.5625
35.73,1577876134.578125
34.06,1577876134.59375
33.29,1577876134.609375
33.31,1577876134.625
33.8,1577876134.640625
34.45,1577876134.65625
35.15,1577876134.671875
35.91,1577876134.6875
36.88,1577876134.703125
38.03,1577876134.71875
39.11,1577876134.734375
39.64,1577876134.75
39.05,1577876134.765625
36.92,1577876134.78125
33.13,1577876134.796875
27.9,1577876134.8125
21.74,1577876134.828125
15.29,1577876134.84375
9.18,1577876134.859375
3.84,1577876134.875
-0.62,1577876134.890625
-4.44,1577876134.90625
-8.18,1577876134.921875
-12.48,1577876134.9375
-17.83,1577876134.953125
-24.26,1577876134.96875
-31.31,1577876134.984375
-38.19,1577876135.0
-44.07,1577876135.015625
-48.51,1577876135.03125
-51.61,1577876135.046875
-53.98,1577876135.0625
-56.61,1577876135.078125
-60.5,1577876135.09375
-66.48,1577876135.109375
-74.9,1577876135.125
-85.45,1577876135.140625
-96.94,1577876135.15625
-107.29,1577876135.171875
-113.86,1577876135.1875
-114.04,1577876135.203125
-106.12,1577876135.21875
-89.98,1577876135.234375
-67.21,1577876135.25
-40.73,1577876135.265625
-13.97,1577876135.28125
10.16,1577876135.296875
29.88,1577876135.3125
44.66,1577876135.328125
54.84,1577876135.34375
61.19,1577876135.359375
64.42,1577876135.375
65.09,1577876135.390625
63.68,1577876135.40625
60.83,1577876135.421875
57.38,1577876135.4375
54.25,1577876135.453125
52.18,1577876135.46875
51.47,1577876135.484375
51.93,1577876135.5
53.05,1577876135.515625
54.29,1577876135.53125
55.29,1577876135.546875
55.95,1577876135.5625
56.28,1577876135.578125
56.21,1577876135.59375
55.44,1577876135.609375
53.5,1577876135.625
50.01,1577876135.640625
44.9,1577876135.65625
38.52,1577876135.671875
31.55,1577876135.6875
24.71,1577876135.703125
18.48,1577876135.71875
12.93,1577876135.734375
7.75,1577876135.75
2.44,1577876135.765625
-3.46,1577876135.78125
-10.18,1577876135.796875
-17.6,1577876135.8125
-25.3,1577876135.828125
-32.7,1577876135.84375
-39.21,1577876135.859375
-44.5,1577876135.875
-48.57,1577876135.890625
-51.96,1577876135.90625
-55.59,1577876135.921875
-60.54,1577876135.9375
-67.66,1577876135.953125
-77.09,1577876135.96875
-87.87,1577876135.984375
-97.96,1577876136.0
-104.62,1577876136.015625
-105.2,1577876136.03125
-98.03,1577876136.046875
-83.04,1577876136.0625
-61.84,1577876136.078125
-37.18,1577876136.09375
-12.18,1577876136.109375
10.57,1577876136.125
29.47,1577876136.140625
43.91,1577876136.15625
54.04,1577876136.171875
60.3,1577876136.1875
63.26,1577876136.203125
63.5,1577876136.21875
61.65,1577876136.234375
58.4,1577876136.25
54.56,1577876136.265625
50.86,1577876136.28125
47.94,1577876136.296875
46.21,1577876136.3125
45.75,1577876136.328125
46.35,1577876136.34375
47.59,1577876136.359375
48.99,1577876136.375
50.2,1577876136.390625
51.0,1577876136.40625
51.26,1577876136.421875
50.82,1577876136.4375
49.35,1577876136.453125
46.46,1577876136.46875
41.82,1577876136.484375
35.46,1577876136.5
27.84,1577876136.515625
19.81,1577876136.53125
12.22,1577876136.546875
5.64,1577876136.5625
0.04,1577876136.578125
-5.13,1577876136.59375
-10.65,1577876136.609375
-17.15,1577876136.625
-24.7,1577876136.640625
-32.87,1577876136.65625
-40.86,1577876136.671875
-47.94,1577876136.6875
-53.77,1577876136.703125
-58.63,1577876136.71875
-63.3,1577876136.734375
-68.83,1577876136.75
-76.16,1577876136.765625
-85.77,1577876136.78125
-97.35,1577876136.796875
-109.57,1577876136.8125
-120.18,1577876136.828125
-126.37,1577876136.84375
-125.6,1577876136.859375
-116.42,1577876136.875
-99.09,1577876136.890625
-75.63,1577876136.90625
-49.2,1577876136.921875
-23.08,1577876136.9375
0.23,1577876136.953125
19.51,1577876136.96875
34.71,1577876136.984375
46.41,1577876137.0
55.24,1577876137.015625
61.62,1577876137.03125
65.66,1577876137.046875
67.49,1577876137.0625
67.42,1577876137.078125
66.07,1577876137.09375
64.17,1577876137.109375
62.39,1577876137.125
61.15,1577876137.140625
60.57,1577876137.15625
60.54,1577876137.171875
60.87,1577876137.1875
61.43,1577876137.203125
62.12,1577876137.21875
62.88,1577876137.234375
63.48,1577876137.25
63.52,1577876137.265625
62.42,1577876137.28125
59.65,1577876137.296875
54.86,1577876137.3125
48.14,1577876137.328125
39.99,1577876137.34375
31.27,1577876137.359375
22.87,1577876137.375
15.46,1577876137.390625
9.19,1577876137.40625
3.7,1577876137.421875
-1.76,1577876137.4375
-7.95,1577876137.453125
-15.28,1577876137.46875
-23.57,1577876137.484375
-32.16,1577876137.5
-40.15,1577876137.515625
-46.89,1577876137.53125
-52.29,1577876137.546875
-56.96,1577876137.5625
-61.99,1577876137.578125
-68.6,1577876137.59375
-77.59,1577876137.609375
-89.1,1577876137.625
-102.27,1577876137.640625
-115.31,1577876137.65625
-125.71,1577876137.671875
-130.79,1577876137.6875
-128.4,1577876137.703125
-117.57,1577876137.71875
-98.95,1577876137.734375
-74.69,1577876137.75
-47.88,1577876137.765625
-21.68,1577876137.78125
1.54,1577876137.796875
20.59,1577876137.8125
35.39,1577876137.828125
46.55,1577876137.84375
54.82,1577876137.859375
60.69,1577876137.875
64.41,1577876137.890625
66.16,1577876137.90625
66.26,1577876137.921875
65.27,1577876137.9375
63.91,1577876137.953125
62.73,1577876137.96875
62.05,1577876137.984375
61.83,1577876138.0
61.85,1577876138.015625
61.92,1577876138.03125
62.0,1577876138.046875
62.18,1577876138.0625
62.48,1577876138.078125
62.72,1577876138.09375
62.38,1577876138.109375
60.77,1577876138.125
57.25,1577876138.140625
51.58,1577876138.15625
44.09,1577876138.171875
35.62,1577876138.1875
27.2,1577876138.203125
19.65,1577876138.21875
13.25,1577876138.234375
7.66,1577876138.25
2.15,1577876138.265625
-3.94,1577876138.28125
-10.89,1577876138.296875
-18.43,1577876138.3125
-25.94,1577876138.328125
-32.76,1577876138.34375
-38.55,1577876138.359375
-43.41,1577876138.375
-47.86,1577876138.390625
-52.68,1577876138.40625
-58.66,1577876138.421875
-66.46,1577876138.4375
-76.34,1577876138.453125
-87.94,1577876138.46875
-99.97,1577876138.484375
-110.24,1577876138.5
-116.04,1577876138.515625
-114.92,1577876138.53125
-105.59,1577876138.546875
-88.43,1577876138.5625
-65.55,1577876138.578125
-40.11,1577876138.59375
-15.33,1577876138.609375
6.37,1577876138.625
23.86,1577876138.640625
37.18,1577876138.65625
47.02,1577876138.671875
54.17,1577876138.6875
59.14,1577876138.703125
62.1,1577876138.71875
63.08,1577876138.734375
62.22,1577876138.75
59.91,1577876138.765625
56.85,1577876138.78125
53.86,1577876138.796875
51.69,1577876138.8125
50.81,1577876138.828125
51.29,1577876138.84375
52.78,1577876138.859375
54.67,1577876138.875
56.29,1577876138.890625
57.05,1577876138.90625
56.54,1577876138.921875
54.61,1577876138.9375
51.21,1577876138.953125
46.36,1577876138.96875
40.19,1577876138.984375
32.97,1577876139.0
25.15,1577876139.015625
17.34,1577876139.03125
10.08,1577876139.046875
3.56,1577876139.0625
-2.47,1577876139.078125
-8.59,1577876139.09375
-15.4,1577876139.109375
-23.1,1577876139.125
-31.39,1577876139.140625
-39.52,1577876139.15625
-46.77,1577876139.171875
-52.79,1577876139.1875
-57.87,1577876139.203125
-62.94,1577876139.21875
-69.16,1577876139.234375
-77.52,1577876139.25
-88.26,1577876139.265625
-100.51,1577876139.28125
-112.24,1577876139.296875
-120.62,1577876139.3125
-122.8,1577876139.328125
-116.84,1577876139.34375
-102.44,1577876139.359375
-81.08,1577876139.375
-55.65,1577876139.390625
-29.48,1577876139.40625
-5.43,1577876139.421875
14.81,1577876139.4375
30.8,1577876139.453125
42.93,1577876139.46875
51.96,1577876139.484375
58.48,1577876139.5
62.8,1577876139.515625
65.08,1577876139.53125
65.53,1577876139.546875
64.59,1577876139.5625
62.97,1577876139.578125
61.5,1577876139.59375
60.78,1577876139.609375
61.02,1577876139.625
61.98,1577876139.640625
63.17,1577876139.65625
64.1,1577876139.671875
64.5,1577876139.6875
64.41,1577876139.703125
63.96,1577876139.71875
63.11,1577876139.734375
61.54,1577876139.75
58.72,1577876139.765625
54.19,1577876139.78125
47.89,1577876139.796875
40.27,1577876139.8125
32.2,1577876139.828125
24.63,1577876139.84375
18.19,1577876139.859375
12.94,1577876139.875
8.41,1577876139.890625
3.77,1577876139.90625
-1.72,1577876139.921875
-8.52,1577876139.9375
-16.53,1577876139.953125
-25.19,1577876139.96875
-33.67,1577876139.984375
-41.15,1577876140.0
-47.17,1577876140.015625
-51.79,1577876140.03125
-55.73,1577876140.046875
-60.16,1577876140.0625
-66.42,1577876140.078125
-75.46,1577876140.09375
-87.41,1577876140.109375
-101.17,1577876140.125
-114.37,1577876140.140625
-123.94,1577876140.15625
-126.84,1577876140.171875
-121.12,1577876140.1875
-106.55,1577876140.203125
-84.8,1577876140.21875
-58.84,1577876140.234375
-32.08,1577876140.25
-7.37,1577876140.265625
13.57,1577876140.28125
30.3,1577876140.296875
43.19,1577876140.3125
53.01,1577876140.328125
60.45,1577876140.34375
65.95,1577876140.359375
69.68,1577876140.375
71.72,1577876140.390625
72.19,1577876140.40625
71.39,1577876140.421875
69.81,1577876140.4375
68.1,1577876140.453125
66.86,1577876140.46875
66.49,1577876140.484375
67.09,1577876140.5
68.41,1577876140.515625
70.05,1577876140.53125
71.65,1577876140.546875
72.95,1577876140.5625
73.82,1577876140.578125
74.07,1577876140.59375
73.4,1577876140.609375
71.32,1577876140.625
67.44,1577876140.640625
61.64,1577876140.65625
54.22,1577876140.671875
45.91,1577876140.6875
37.57,1577876140.703125
29.95,1577876140.71875
23.39,1577876140.734375
17.78,1577876140.75
12.65,1577876140.765625
7.45,1577876140.78125
1.67,1577876140.796875
-4.91,1577876140.8125
-12.24,1577876140.828125
-20.04,1577876140.84375
-27.89,1577876140.859375
-35.39,1577876140.875
-42.22,1577876140.890625
-48.26,1577876140.90625
-53.71,1577876140.921875
-59.1,1577876140.9375
-65.22,1577876140.953125
-73.02,1577876140.96875
-83.18,1577876140.984375
-95.73,1577876141.0
-109.64,1577876141.015625
-122.76,1577876141.03125
-132.22,1577876141.046875
-135.15,1577876141.0625
-129.65,1577876141.078125
-115.47,1577876141.09375
-94.21,1577876141.109375
-68.71,1577876141.125
-42.3,1577876141.140625
-17.8,1577876141.15625
3.05,1577876141.171875
19.64,1577876141.1875
32.27,1577876141.203125
41.62,1577876141.21875
48.36,1577876141.234375
52.97,1577876141.25
55.79,1577876141.265625
57.08,1577876141.28125
57.1,1577876141.296875
56.21,1577876141.3125
54.88,1577876141.328125
53.6,1577876141.34375
52.84,1577876141.359375
52.92,1577876141.375
53.93,1577876141.390625
55.72,1577876141.40625
57.97,1577876141.421875
60.24,1577876141.4375
62.13,1577876141.453125
63.27,1577876141.46875
63.39,1577876141.484375
62.27,1577876141.5
59.79,1577876141.515625
55.96,1577876141.53125
50.94,1577876141.546875
45.09,1577876141.5625
38.75,1577876141.578125
32.35,1577876141.59375
26.15,1577876141.609375
20.36,1577876141.625
15.05,1577876141.640625
10.27,1577876141.65625
5.96,1577876141.671875
1.96,1577876141.6875
-1.99,1577876141.703125
-6.2,1577876141.71875
-10.92,1577876141.734375
-16.21,1577876141.75
-21.88,1577876141.765625
-27.64,1577876141.78125
-33.2,1577876141.796875
-38.41,1577876141.8125
-43.42,1577876141.828125
-48.57,1577876141.84375
-54.39,1577876141.859375
-61.45,1577876141.875
-70.27,1577876141.890625
-81.07,1577876141.90625
-93.48,1577876141.921875
-106.3,1577876141.9375
-117.37,1577876141.953125
-124.0,1577876141.96875
-123.65,1577876141.984375
-114.86,1577876142.0
-97.89,1577876142.015625
-74.76,1577876142.03125
-48.7,1577876142.046875
-23.07,1577876142.0625
-0.41,1577876142.078125
18.04,1577876142.09375
32.31,1577876142.109375
43.04,1577876142.125
50.97,1577876142.140625
56.46,1577876142.15625
59.62,1577876142.171875
60.52,1577876142.1875
59.51,1577876142.203125
57.35,1577876142.21875
55.0,1577876142.234375
53.44,1577876142.25
53.27,1577876142.265625
54.71,1577876142.28125
57.51,1577876142.296875
61.13,1577876142.3125
64.94,1577876142.328125
68.28,1577876142.34375
70.64,1577876142.359375
71.61,1577876142.375
71.0,1577876142.390625
68.71,1577876142.40625
64.8,1577876142.421875
59.42,1577876142.4375
52.71,1577876142.453125
44.91,1577876142.46875
36.28,1577876142.484375
27.25,1577876142.5
18.38,1577876142.515625
10.27,1577876142.53125
3.37,1577876142.546875
-2.27,1577876142.5625
-6.98,1577876142.578125
-11.42,1577876142.59375
-16.3,1577876142.609375
-22.04,1577876142.625
-28.63,1577876142.640625
-35.64,1577876142.65625
-42.42,1577876142.671875
-48.44,1577876142.6875
-53.47,1577876142.703125
-57.67,1577876142.71875
-61.53,1577876142.734375
-65.7,1577876142.75
-70.91,1577876142.765625
-77.77,1577876142.78125
-86.63,1577876142.796875
-97.31,1577876142.8125
-108.78,1577876142.828125
-119.08,1577876142.84375
-125.53,1577876142.859375
-125.43,1577876142.875
-116.97,1577876142.890625
-100.02,1577876142.90625
-76.39,1577876142.921875
-49.26,1577876142.9375
-22.25,1577876142.953125
1.69,1577876142.96875
20.99,1577876142.984375
35.47,1577876143.0
45.83,1577876143.015625
52.97,1577876143.03125
57.58,1577876143.046875
59.99,1577876143.0625
60.45,1577876143.078125
59.34,1577876143.09375
57.29,1577876143.109375
55.08,1577876143.125
53.44,1577876143.140625
52.96,1577876143.15625
54.0,1577876143.171875
56.74,1577876143.1875
61.17,1577876143.203125
67.06,1577876143.21875
73.81,1577876143.234375
80.48,1577876143.25
85.92,1577876143.265625
89.09,1577876143.28125
89.33,1577876143.296875
86.54,1577876143.3125
81.09,1577876143.328125
73.68,1577876143.34375
65.01,1577876143.359375
55.68,1577876143.375
46.14,1577876143.390625
36.67,1577876143.40625
27.55,1577876143.421875
19.0,1577876143.4375
11.2,1577876143.453125
4.18,1577876143.46875
-2.16,1577876143.484375
-8.03,1577876143.5
-13.64,1577876143.515625
-19.09,1577876143.53125
-24.43,1577876143.546875
-29.61,1577876143.5625
-34.62,1577876143.578125
-39.5,1577876143.59375
-44.3,1577876143.609375
-49.02,1577876143.625
-53.66,1577876143.640625
-58.23,1577876143.65625
-62.86,1577876143.671875
-67.98,1577876143.6875
-74.21,1577876143.703125
-82.2,1577876143.71875
-92.26,1577876143.734375
-103.88,1577876143.75
-115.55,1577876143.765625
-124.9,1577876143.78125
-129.27,1577876143.796875
-126.45,1577876143.8125
-115.44,1577876143.828125
-96.88,1577876143.84375
-72.9,1577876143.859375
-46.55,1577876143.875
-20.94,1577876143.890625
1.52,1577876143.90625
19.63,1577876143.921875
33.3,1577876143.9375
43.22,1577876143.953125
50.33,1577876143.96875
55.38,1577876143.984375
58.78,1577876144.0
60.65,1577876144.015625
61.07,1577876144.03125
60.29,1577876144.046875
58.76,1577876144.0625
57.12,1577876144.078125
55.92,1577876144.09375
55.48,1577876144.109375
55.81,1577876144.125
56.71,1577876144.140625
57.93,1577876144.15625
59.3,1577876144.171875
60.71,1577876144.1875
61.97,1577876144.203125
62.79,1577876144.21875
62.69,1577876144.234375
61.2,1577876144.25
58.07,1577876144.265625
53.36,1577876144.28125
47.49,1577876144.296875
41.01,1577876144.3125
34.46,1577876144.328125
28.11,1577876144.34375
22.06,1577876144.359375
16.26,1577876144.375
10.7,1577876144.390625
5.47,1577876144.40625
0.69,1577876144.421875
-3.58,1577876144.4375
-7.48,1577876144.453125
-11.27,1577876144.46875
-15.28,1577876144.484375
-19.77,1577876144.5
-24.75,1577876144.515625
-30.11,1577876144.53125
-35.61,1577876144.546875
-41.02,1577876144.5625
-46.21,1577876144.578125
-51.18,1577876144.59375
-56.14,1577876144.609375
-61.5,1577876144.625
-67.91,1577876144.640625
-75.95,1577876144.65625
-85.78,1577876144.671875
-96.7,1577876144.6875
-106.98,1577876144.703125
-114.12,1577876144.71875
-115.46,1577876144.734375
-109.16,1577876144.75
-94.9,1577876144.765625
-74.08,1577876144.78125
-49.46,1577876144.796875
-24.27,1577876144.8125
-1.33,1577876144.828125
17.57,1577876144.84375
31.78,1577876144.859375
41.6,1577876144.875
47.84,1577876144.890625
51.36,1577876144.90625
52.96,1577876144.921875
53.26,1577876144.9375
52.8,1577876144.953125
52.0,1577876144.96875
51.17,1577876144.984375
50.49,1577876145.0
50.04,1577876145.015625
49.9,1577876145.03125
50.16,1577876145.046875
50.92,1577876145.0625
52.28,1577876145.078125
54.19,1577876145.09375
56.44,1577876145.109375
58.63,1577876145.125
60.28,1577876145.140625
60.85,1577876145.15625
59.91,1577876145.171875
57.21,1577876145.1875
52.85,1577876145.203125
47.23,1577876145.21875
41.03,1577876145.234375
34.96,1577876145.25
29.55,1577876145.265625
24.89,1577876145.28125
20.69,1577876145.296875
16.44,1577876145.3125
11.69,1577876145.328125
6.43,1577876145.34375
0.97,1577876145.359375
-4.17,1577876145.375
-8.64,1577876145.390625
-12.43,1577876145.40625
-15.93,1577876145.421875
-19.68,1577876145.4375
-24.05,1577876145.453125
-29.05,1577876145.46875
-34.39,1577876145.484375
-39.59,1577876145.5
-44.31,1577876145.515625
-48.44,1577876145.53125
-52.23,1577876145.546875
-56.16,1577876145.5625
-60.9,1577876145.578125
-67.05,1577876145.59375
-75.0,1577876145.609375
-84.54,1577876145.625
-94.68,1577876145.640625
-103.56,1577876145.65625
-108.74,1577876145.671875
-107.85,1577876145.6875
-99.4,1577876145.703125
-83.37,1577876145.71875
-61.39,1577876145.734375
-36.32,1577876145.75
-11.4,1577876145.765625
10.67,1577876145.78125
28.33,1577876145.796875
41.29,1577876145.8125
50.18,1577876145.828125
55.95,1577876145.84375
59.4,1577876145.859375
61.0,1577876145.875
60.95,1577876145.890625
59.5,1577876145.90625
57.09,1577876145.921875
54.36,1577876145.9375
52.03,1577876145.953125
50.59,1577876145.96875
50.17,1577876145.984375
50.6,1577876146.0
51.54,1577876146.015625
52.7,1577876146.03125
53.92,1577876146.046875
55.13,1577876146.0625
56.17,1577876146.078125
56.7,1577876146.09375
56.22,1577876146.109375
54.23,1577876146.125
50.51,1577876146.140625
45.25,1577876146.15625
39.05,1577876146.171875
32.72,1577876146.1875
26.9,1577876146.203125
21.88,1577876146.21875
17.54,1577876146.234375
13.39,1577876146.25
8.95,1577876146.265625
3.89,1577876146.28125
-1.7,1577876146.296875
-7.45,1577876146.3125
-12.81,1577876146.328125
-17.39,1577876146.34375
-21.08,1577876146.359375
-24.18,1577876146.375
-27.24,1577876146.390625
-30.83,1577876146.40625
-35.26,1577876146.421875
-40.45,1577876146.4375
-45.95,1577876146.453125
-51.17,1577876146.46875
-55.72,1577876146.484375
-59.62,1577876146.5
-63.37,1577876146.515625
-67.76,1577876146.53125
-73.61,1577876146.546875
-81.4,1577876146.5625
-90.91,1577876146.578125
-101.08,1577876146.59375
-110.05,1577876146.609375
-115.42,1577876146.625
-114.87,1577876146.640625
-106.84,1577876146.65625
-91.13,1577876146.671875
-69.13,1577876146.6875
-43.5,1577876146.703125
-17.5,1577876146.71875
5.95,1577876146.734375
24.97,1577876146.75
38.94,1577876146.765625
48.34,1577876146.78125
54.15,1577876146.796875
57.4,1577876146.8125
58.83,1577876146.828125
58.87,1577876146.84375
57.81,1577876146.859375
55.9,1577876146.875
53.51,1577876146.890625
51.09,1577876146.90625
49.04,1577876146.921875
47.65,1577876146.9375
47.0,1577876146.953125
47.01,1577876146.96875
47.48,1577876146.984375
48.18,1577876147.0
48.9,1577876147.015625
49.37,1577876147.03125
49.28,1577876147.046875
48.33,1577876147.0625
46.21,1577876147.078125
42.79,1577876147.09375
38.17,1577876147.109375
32.73,1577876147.125
27.02,1577876147.140625
21.56,1577876147.15625
16.66,1577876147.171875
12.28,1577876147.1875
8.14,1577876147.203125
3.85,1577876147.21875
-0.86,1577876147.234375
-5.96,1577876147.25
-11.22,1577876147.265625
-16.24,1577876147.28125
-20.71,1577876147.296875
-24.55,1577876147.3125
-27.95,1577876147.328125
-31.3,1577876147.34375
-35.0,1577876147.359375
-39.25,1577876147.375
-44.04,1577876147.390625
-49.11,1577876147.40625
-54.11,1577876147.421875
-58.8,1577876147.4375
-63.12,1577876147.453125
-67.27,1577876147.46875
-71.73,1577876147.484375
-77.03,1577876147.5
-83.66,1577876147.515625
-91.72,1577876147.53125
-100.66,1577876147.546875
-109.11,1577876147.5625
-114.95,1577876147.578125
-115.82,1577876147.59375
-109.8,1577876147.609375
-96.25,1577876147.625
-76.03,1577876147.640625
-51.43,1577876147.65625
-25.44,1577876147.671875
-0.92,1577876147.6875
20.08,1577876147.703125
36.61,1577876147.71875
48.63,1577876147.734375
56.65,1577876147.75
61.36,1577876147.765625
63.4,1577876147.78125
63.28,1577876147.796875
61.44,1577876147.8125
58.44,1577876147.828125
54.88,1577876147.84375
51.49,1577876147.859375
48.92,1577876147.875
47.62,1577876147.890625
47.72,1577876147.90625
49.0,1577876147.921875
50.96,1577876147.9375
53.07,1577876147.953125
54.88,1577876147.96875
56.11,1577876147.984375
56.64,1577876148.0
56.36,1577876148.015625
55.17,1577876148.03125
52.96,1577876148.046875
49.7,1577876148.0625
45.42,1577876148.078125
40.25,1577876148.09375
34.39,1577876148.109375
28.09,1577876148.125
21.64,1577876148.140625
15.32,1577876148.15625
9.39,1577876148.171875
4.05,1577876148.1875
-0.66,1577876148.203125
-4.85,1577876148.21875
-8.73,1577876148.234375
-12.63,1577876148.25
-16.87,1577876148.265625
-21.64,1577876148.28125
-26.91,1577876148.296875
-32.46,1577876148.3125
-37.85,1577876148.328125
-42.71,1577876148.34375
-46.85,1577876148.359375
-50.47,1577876148.375
-54.07,1577876148.390625
-58.41,1577876148.40625
-64.16,1577876148.421875
-71.73,1577876148.4375
-81.02,1577876148.453125
-91.18,1577876148.46875
-100.65,1577876148.484375
-107.24,1577876148.5
-108.68,1577876148.515625
-103.14,1577876148.53125
-89.99,1577876148.546875
-70.04,1577876148.5625
-45.56,1577876148.578125
-19.62,1577876148.59375
4.66,1577876148.609375
24.98,1577876148.625
40.15,1577876148.640625
50.19,1577876148.65625
55.86,1577876148.671875
58.24,1577876148.6875
58.28,1577876148.703125
56.67,1577876148.71875
53.9,1577876148.734375
50.44,1577876148.75
46.87,1577876148.765625
43.86,1577876148.78125
42.06,1577876148.796875
41.79,1577876148.8125
42.96,1577876148.828125
45.11,1577876148.84375
47.61,1577876148.859375
49.91,1577876148.875
51.65,1577876148.890625
52.64,1577876148.90625
52.78,1577876148.921875
51.96,1577876148.9375
49.99,1577876148.953125
46.78,1577876148.96875
42.38,1577876148.984375
36.98,1577876149.0
30.87,1577876149.015625
24.35,1577876149.03125
17.64,1577876149.046875
10.97,1577876149.0625
4.58,1577876149.078125
-1.29,1577876149.09375
-6.47,1577876149.109375
-11.01,1577876149.125
-15.17,1577876149.140625
-19.32,1577876149.15625
-23.8,1577876149.171875
-28.73,1577876149.1875
-34.0,1577876149.203125
-39.28,1577876149.21875
-44.34,1577876149.234375
-49.04,1577876149.25
-53.47,1577876149.265625
-57.8,1577876149.28125
-62.2,1577876149.296875
-66.87,1577876149.3125
-72.09,1577876149.328125
-78.36,1577876149.34375
-86.31,1577876149.359375
-96.32,1577876149.375
-107.96,1577876149.390625
-119.65,1577876149.40625
-128.67,1577876149.421875
-131.84,1577876149.4375
-126.63,1577876149.453125
-112.18,1577876149.46875
-89.76,1577876149.484375
-62.45,1577876149.5
-34.09,1577876149.515625
-8.07,1577876149.53125
13.53,1577876149.546875
30.02,1577876149.5625
41.86,1577876149.578125
49.91,1577876149.59375
55.05,1577876149.609375
57.9,1577876149.625
58.94,1577876149.640625
58.58,1577876149.65625
57.23,1577876149.671875
55.33,1577876149.6875
53.28,1577876149.703125
51.48,1577876149.71875
50.34,1577876149.734375
50.19,1577876149.75
51.19,1577876149.765625
53.28,1577876149.78125
56.09,1577876149.796875
59.09,1577876149.8125
61.72,1577876149.828125
63.46,1577876149.84375
63.96,1577876149.859375
62.93,1577876149.875
60.24,1577876149.890625
55.93,1577876149.90625
50.22,1577876149.921875
43.64,1577876149.9375
36.79,1577876149.953125
30.22,1577876149.96875
24.13,1577876149.984375
18.43,1577876150.0
12.79,1577876150.015625
6.95,1577876150.03125
0.96,1577876150.046875
-4.88,1577876150.0625
-10.22,1577876150.078125
-14.9,1577876150.09375
-19.2,1577876150.109375
-23.68,1577876150.125
-28.93,1577876150.140625
-35.19,1577876150.15625
-42.18,1577876150.171875
-49.3,1577876150.1875
-55.87,1577876150.203125
-61.62,1577876150.21875
-66.72,1577876150.234375
-71.88,1577876150.25
-78.09,1577876150.265625
-86.31,1577876150.28125
-97.16,1577876150.296875
-110.43,1577876150.3125
-124.88,1577876150.328125
-138.13,1577876150.34375
-147.08,1577876150.359375
-148.68,1577876150.375
-140.93,1577876150.390625
-123.66,1577876150.40625
-98.76,1577876150.421875
-69.67,1577876150.4375
-40.33,1577876150.453125
-14.04,1577876150.46875
7.35,1577876150.484375
23.54,1577876150.5
35.29,1577876150.515625
43.78,1577876150.53125
49.94,1577876150.546875
54.3,1577876150.5625
57.02,1577876150.578125
58.31,1577876150.59375
58.55,1577876150.609375
58.4,1577876150.625
58.51,1577876150.640625
59.35,1577876150.65625
61.09,1577876150.671875
63.58,1577876150.6875
66.57,1577876150.703125
69.83,1577876150.71875
73.24,1577876150.734375
76.64,1577876150.75
79.77,1577876150.765625
82.21,1577876150.78125
83.4,1577876150.796875
82.8,1577876150.8125
80.12,1577876150.828125
75.42,1577876150.84375
69.16,1577876150.859375
62.14,1577876150.875
55.24,1577876150.890625
49.12,1577876150.90625
44.01,1577876150.921875
39.69,1577876150.9375
35.54,1577876150.953125
30.92,1577876150.96875
25.4,1577876150.984375
19.04,1577876151.0
12.3,1577876151.015625
5.92,1577876151.03125
0.5,1577876151.046875
-3.77,1577876151.0625
-7.24,1577876151.078125
-10.7,1577876151.09375
-15.04,1577876151.109375
-20.88,1577876151.125
-28.28,1577876151.140625
-36.67,1577876151.15625
-45.19,1577876151.171875
-53.01,1577876151.1875
-59.73,1577876151.203125
-65.6,1577876151.21875
-71.38,1577876151.234375
-78.14,1577876151.25
-86.9,1577876151.265625
-98.25,1577876151.28125
-111.98,1577876151.296875
-126.85,1577876151.3125
-140.48,1577876151.328125
-149.7,1577876151.34375
-151.4,1577876151.359375
-143.46,1577876151.375
-125.63,1577876151.390625
-99.79,1577876151.40625
-69.42,1577876151.421875
-38.51,1577876151.4375
-10.47,1577876151.453125
12.75,1577876151.46875
30.74,1577876151.484375
44.21,1577876151.5
54.27,1577876151.515625
61.88,1577876151.53125
67.53,1577876151.546875
71.43,1577876151.5625
73.73,1577876151.578125
74.79,1577876151.59375
75.24,1577876151.609375
75.87,1577876151.625
77.33,1577876151.640625
80.0,1577876151.65625
83.82,1577876151.671875
88.46,1577876151.6875
93.38,1577876151.703125
98.12,1577876151.71875
102.3,1577876151.734375
105.55,1577876151.75
107.46,1577876151.765625
107.51,1577876151.78125
105.25,1577876151.796875
100.41,1577876151.8125
93.09,1577876151.828125
83.83,1577876151.84375
73.51,1577876151.859375
63.15,1577876151.875
53.7,1577876151.890625
45.72,1577876151.90625
39.33,1577876151.921875
34.08,1577876151.9375
29.26,1577876151.953125
24.12,1577876151.96875
18.29,1577876151.984375
11.83,1577876152.0
5.33,1577876152.015625
-0.5,1577876152.03125
-5.18,1577876152.046875
-8.78,1577876152.0625
-11.92,1577876152.078125
-15.57,1577876152.09375
-20.57,1577876152.109375
-27.23,1577876152.125
-35.16,1577876152.140625
-43.5,1577876152.15625
-51.22,1577876152.171875
-57.68,1577876152.1875
-62.85,1577876152.203125
-67.32,1577876152.21875
-72.11,1577876152.234375
-78.31,1577876152.25
-86.79,1577876152.265625
-97.86,1577876152.28125
-110.95,1577876152.296875
-124.44,1577876152.3125
-135.71,1577876152.328125
-141.65,1577876152.34375
-139.55,1577876152.359375
-128.15,1577876152.375
-108.16,1577876152.390625
-82.21,1577876152.40625
-53.92,1577876152.421875
-26.77,1577876152.4375
-3.07,1577876152.453125
16.34,1577876152.46875
31.78,1577876152.484375
43.99,1577876152.5
53.49,1577876152.515625
60.48,1577876152.53125
64.92,1577876152.546875
66.99,1577876152.5625
67.21,1577876152.578125
66.41,1577876152.59375
65.38,1577876152.609375
64.71,1577876152.625
64.61,1577876152.640625
65.08,1577876152.65625
66.04,1577876152.671875
67.49,1577876152.6875
69.45,1577876152.703125
71.9,1577876152.71875
74.54,1577876152.734375
76.83,1577876152.75
78.04,1577876152.765625
77.49,1577876152.78125
74.82,1577876152.796875
70.11,1577876152.8125
63.89,1577876152.828125
56.92,1577876152.84375
49.98,1577876152.859375
43.57,1577876152.875
37.88,1577876152.890625
32.77,1577876152.90625
27.94,1577876152.921875
23.08,1577876152.9375
18.02,1577876152.953125
12.77,1577876152.96875
7.5,1577876152.984375
2.41,1577876153.0
-2.4,1577876153.015625
-7.02,1577876153.03125
-11.77,1577876153.046875
-17.04,1577876153.0625
-23.13,1577876153.078125
-30.04,1577876153.09375
-37.35,1577876153.109375
-44.43,1577876153.125
-50.74,1577876153.140625
-56.06,1577876153.15625
-60.71,1577876153.171875
-65.51,1577876153.1875
-71.47,1577876153.203125
-79.56,1577876153.21875
-90.22,1577876153.234375
-103.1,1577876153.25
-116.82,1577876153.265625
-128.94,1577876153.28125
-136.36,1577876153.296875
-136.12,1577876153.3125
-126.4,1577876153.328125
-107.29,1577876153.34375
-80.97,1577876153.359375
-51.16,1577876153.375
-21.95,1577876153.390625
3.48,1577876153.40625
23.53,1577876153.421875
38.31,1577876153.4375
48.98,1577876153.453125
56.88,1577876153.46875
62.96,1577876153.484375
67.54,1577876153.5
70.56,1577876153.515625
71.98,1577876153.53125
72.05,1577876153.546875
71.34,1577876153.5625
70.58,1577876153.578125
70.36,1577876153.59375
70.97,1577876153.609375
72.36,1577876153.625
74.23,1577876153.640625
76.22,1577876153.65625
78.08,1577876153.671875
79.69,1577876153.6875
80.98,1577876153.703125
81.85,1577876153.71875
81.94,1577876153.734375
80.74,1577876153.75
77.7,1577876153.765625
72.51,1577876153.78125
65.34,1577876153.796875
56.91,1577876153.8125
48.3,1577876153.828125
40.57,1577876153.84375
34.41,1577876153.859375
29.8,1577876153.875
26.14,1577876153.890625
22.48,1577876153.90625
17.99,1577876153.921875
12.35,1577876153.9375
5.86,1577876153.953125
-0.69,1577876153.96875
-6.43,1577876153.984375
-10.85,1577876154.0
-14.09,1577876154.015625
-16.87,1577876154.03125
-20.16,1577876154.046875
-24.76,1577876154.0625
-30.91,1577876154.078125
-38.23,1577876154.09375
-45.95,1577876154.109375
-53.3,1577876154.125
-59.81,1577876154.140625
-65.56,1577876154.15625
-71.11,1577876154.171875
-77.32,1577876154.1875
-85.1,1577876154.203125
-95.14,1577876154.21875
-107.55,1577876154.234375
-121.48,1577876154.25
-134.94,1577876154.265625
-144.96,1577876154.28125
-148.24,1577876154.296875
-142.22,1577876154.3125
-126.02,1577876154.328125
-100.99,1577876154.34375
-70.4,1577876154.359375
-38.48,1577876154.375
-9.11,1577876154.390625
15.19,1577876154.40625
33.63,1577876154.421875
46.89,1577876154.4375
56.3,1577876154.453125
63.1,1577876154.46875
68.06,1577876154.484375
71.38,1577876154.5
73.06,1577876154.515625
73.18,1577876154.53125
72.1,1577876154.546875
70.42,1577876154.5625
68.83,1577876154.578125
67.87,1577876154.59375
67.78,1577876154.609375
68.47,1577876154.625
69.63,1577876154.640625
70.91,1577876154.65625
72.07,1577876154.671875
73.02,1577876154.6875
73.68,1577876154.703125
73.87,1577876154.71875
73.22,1577876154.734375
71.21,1577876154.75
67.38,1577876154.765625
61.65,1577876154.78125
54.4,1577876154.796875
46.51,1577876154.8125
39.05,1577876154.828125
32.89,1577876154.84375
28.35,1577876154.859375
25.09,1577876154.875
22.23,1577876154.890625
18.79,1577876154.90625
14.08,1577876154.921875
8.1,1577876154.9375
1.4,1577876154.953125
-5.06,1577876154.96875
-10.45,1577876154.984375
-14.48,1577876155.0
-17.51,1577876155.015625
-20.42,1577876155.03125
-24.17,1577876155.046875
-29.44,1577876155.0625
-36.33,1577876155.078125
-44.36,1577876155.09375
-52.75,1577876155.109375
-60.7,1577876155.125
-67.67,1577876155.140625
-73.48,1577876155.15625
-78.43,1577876155.171875
-83.19,1577876155.1875
-88.82,1577876155.203125
-96.4,1577876155.21875
-106.66,1577876155.234375
-119.36,1577876155.25
-132.9,1577876155.265625
-144.39,1577876155.28125
-150.3,1577876155.296875
-147.57,1577876155.3125
-134.73,1577876155.328125
-112.52,1577876155.34375
-83.76,1577876155.359375
-52.4,1577876155.375
-22.36,1577876155.390625
3.49,1577876155.40625
23.83,1577876155.421875
38.77,1577876155.4375
49.24,1577876155.453125
56.36,1577876155.46875
61.09,1577876155.484375
63.91,1577876155.5
65.07,1577876155.515625
64.76,1577876155.53125
63.35,1577876155.546875
61.44,1577876155.5625
59.76,1577876155.578125
58.98,1577876155.59375
59.5,1577876155.609375
61.3,1577876155.625
63.99,1577876155.640625
67.01,1577876155.65625
69.83,1577876155.671875
72.05,1577876155.6875
73.51,1577876155.703125
74.11,1577876155.71875
73.71,1577876155.734375
72.02,1577876155.75
68.68,1577876155.765625
63.43,1577876155.78125
56.4,1577876155.796875
48.19,1577876155.8125
39.83,1577876155.828125
32.39,1577876155.84375
26.55,1577876155.859375
22.26,1577876155.875
18.76,1577876155.890625
14.93,1577876155.90625
9.89,1577876155.921875
3.47,1577876155.9375
-3.66,1577876155.953125
-10.36,1577876155.96875
-15.51,1577876155.984375
-18.69,1577876156.0
-20.33,1577876156.015625
-21.56,1577876156.03125
-23.74,1577876156.046875
-27.81,1577876156.0625
-33.95,1577876156.078125
-41.6,1577876156.09375
-49.74,1577876156.109375
-57.38,1577876156.125
-63.98,1577876156.140625
-69.62,1577876156.15625
-74.89,1577876156.171875
-80.75,1577876156.1875
-88.2,1577876156.203125
-97.96,1577876156.21875
-110.14,1577876156.234375
-123.85,1577876156.25
-137.14,1577876156.265625
-147.15,1577876156.28125
-150.69,1577876156.296875
-145.23,1577876156.3125
-129.77,1577876156.328125
-105.38,1577876156.34375
-75.0,1577876156.359375
-42.62,1577876156.375
-12.1,1577876156.390625
13.76,1577876156.40625
33.8,1577876156.421875
48.27,1577876156.4375
58.29,1577876156.453125
65.16,1577876156.46875
69.88,1577876156.484375
72.99,1577876156.5
74.66,1577876156.515625
75.05,1577876156.53125
74.43,1577876156.546875
73.32,1577876156.5625
72.3,1577876156.578125
71.91,1577876156.59375
72.41,1577876156.609375
73.81,1577876156.625
75.85,1577876156.640625
78.21,1577876156.65625
80.59,1577876156.671875
82.76,1577876156.6875
84.51,1577876156.703125
85.53,1577876156.71875
85.4,1577876156.734375
83.65,1577876156.75
79.95,1577876156.765625
74.24,1577876156.78125
66.96,1577876156.796875
58.91,1577876156.8125
51.04,1577876156.828125
44.1,1577876156.84375
38.32,1577876156.859375
33.32,1577876156.875
28.31,1577876156.890625
22.56,1577876156.90625
15.79,1577876156.921875
8.35,1577876156.9375
1.09,1577876156.953125
-5.14,1577876156.96875
-9.96,1577876156.984375
-13.74,1577876157.0
-17.45,1577876157.015625
-22.2,1577876157.03125
-28.61,1577876157.046875
-36.55,1577876157.0625
-45.2,1577876157.078125
-53.47,1577876157.09375
-60.55,1577876157.109375
-66.21,1577876157.125
-70.94,1577876157.140625
-75.74,1577876157.15625
-81.81,1577876157.171875
-90.2,1577876157.1875
-101.47,1577876157.203125
-115.26,1577876157.21875
-130.01,1577876157.234375
-142.93,1577876157.25
-150.52,1577876157.265625
-149.51,1577876157.28125
-138.08,1577876157.296875
-116.57,1577876157.3125
-87.65,1577876157.328125
-55.41,1577876157.34375
-24.16,1577876157.359375
2.84,1577876157.375
23.99,1577876157.390625
39.3,1577876157.40625
49.8,1577876157.421875
56.79,1577876157.4375
61.33,1577876157.453125
64.07,1577876157.46875
65.39,1577876157.484375
65.54,1577876157.5
64.86,1577876157.515625
63.77,1577876157.53125
62.76,1577876157.546875
62.28,1577876157.5625
62.66,1577876157.578125
64.01,1577876157.59375
66.2,1577876157.609375
68.95,1577876157.625
71.9,1577876157.640625
74.71,1577876157.65625
77.11,1577876157.671875
78.84,1577876157.6875
79.66,1577876157.703125
79.24,1577876157.71875
77.28,1577876157.734375
73.54,1577876157.75
68.06,1577876157.765625
61.15,1577876157.78125
53.47,1577876157.796875
45.84,1577876157.8125
39.03,1577876157.828125
33.49,1577876157.84375
29.2,1577876157.859375
25.7,1577876157.875
22.28,1577876157.890625
18.25,1577876157.90625
13.29,1577876157.921875
7.5,1577876157.9375
1.4,1577876157.953125
-4.42,1577876157.96875
-9.54,1577876157.984375
-13.95,1577876158.0
-18.06,1577876158.015625
-22.5,1577876158.03125
-27.91,1577876158.046875
-34.61,1577876158.0625
-42.51,1577876158.078125
-51.09,1577876158.09375
-59.59,1577876158.109375
-67.23,1577876158.125
-73.6,1577876158.140625
-78.81,1577876158.15625
-83.55,1577876158.171875
-88.91,1577876158.1875
-96.04,1577876158.203125
-105.78,1577876158.21875
-118.23,1577876158.234375
-132.49,1577876158.25
-146.53,1577876158.265625
-157.44,1577876158.28125
-162.01,1577876158.296875
-157.55,1577876158.3125
-142.8,1577876158.328125
-118.47,1577876158.34375
-87.27,1577876158.359375
-53.15,1577876158.375
-20.29,1577876158.390625
8.04,1577876158.40625
30.14,1577876158.421875
45.94,1577876158.4375
56.54,1577876158.453125
63.42,1577876158.46875
67.86,1577876158.484375
70.57,1577876158.5
71.83,1577876158.515625
71.72,1577876158.53125
70.51,1577876158.546875
68.8,1577876158.5625
67.39,1577876158.578125
67.02,1577876158.59375
67.97,1577876158.609375
69.97,1577876158.625
72.38,1577876158.640625
74.53,1577876158.65625
76.07,1577876158.671875
77.06,1577876158.6875
77.79,1577876158.703125
78.38,1577876158.71875
78.57,1577876158.734375
77.65,1577876158.75
74.86,1577876158.765625
69.79,1577876158.78125
62.69,1577876158.796875
54.49,1577876158.8125
46.42,1577876158.828125
39.53,1577876158.84375
34.29,1577876158.859375
30.55,1577876158.875
27.63,1577876158.890625
24.69,1577876158.90625
21.16,1577876158.921875
16.89,1577876158.9375
12.22,1577876158.953125
7.79,1577876158.96875
4.26,1577876158.984375
1.96,1577876159.0
0.76,1577876159.015625
-0.02,1577876159.03125
-1.37,1577876159.046875
-4.21,1577876159.0625
-9.1,1577876159.078125
-15.97,1577876159.09375
-24.24,1577876159.109375
-33.07,1577876159.125
-41.78,1577876159.140625
-50.13,1577876159.15625
-58.39,1577876159.171875
-67.28,1577876159.1875
-77.61,1577876159.203125
-89.97,1577876159.21875
-104.39,1577876159.234375
-120.01,1577876159.25
-134.94,1577876159.265625
-146.45,1577876159.28125
-151.47,1577876159.296875
-147.47,1577876159.3125
-133.35,1577876159.328125
-110.04,1577876159.34375
-80.35,1577876159.359375
-48.32,1577876159.375
-17.98,1577876159.390625
7.62,1577876159.40625
27.04,1577876159.421875
40.36,1577876159.4375
48.62,1577876159.453125
53.08,1577876159.46875
54.83,1577876159.484375
54.55,1577876159.5
52.73,1577876159.515625
49.91,1577876159.53125
46.8,1577876159.546875
44.17,1577876159.5625
42.7,1577876159.578125
42.61,1577876159.59375
43.71,1577876159.609375
45.51,1577876159.625
47.45,1577876159.640625
49.15,1577876159.65625
50.53,1577876159.671875
51.6,1577876159.6875
52.34,1577876159.703125
52.5,1577876159.71875
51.74,1577876159.734375
49.71,1577876159.75
46.37,1577876159.765625
41.96,1577876159.78125
37.01,1577876159.796875
32.08,1577876159.8125
27.61,1577876159.828125
23.73,1577876159.84375
20.29,1577876159.859375
16.9,1577876159.875
13.14,1577876159.890625
8.72,1577876159.90625
3.6,1577876159.921875
-1.87,1577876159.9375
-7.14,1577876159.953125
-11.69,1577876159.96875
-15.32,1577876159.984375
-18.35,1577876160.0
-21.54,1577876160.015625
-25.75,1577876160.03125
-31.53,1577876160.046875
-38.79,1577876160.0625
-46.82,1577876160.078125
-54.65,1577876160.09375
-61.54,1577876160.109375
-67.29,1577876160.125
-72.45,1577876160.140625
-78.06,1577876160.15625
-85.33,1577876160.171875
-95.13,1577876160.1875
-107.57,1577876160.203125
-121.71,1577876160.21875
-135.45,1577876160.234375
-145.82,1577876160.25
-149.69,1577876160.265625
-144.63,1577876160.28125
-129.73,1577876160.296875
-106.08,1577876160.3125
-76.52,1577876160.328125
-44.9,1577876160.34375
-14.96,1577876160.359375
10.56,1577876160.375
30.4,1577876160.390625
44.68,1577876160.40625
54.43,1577876160.421875
60.94,1577876160.4375
65.26,1577876160.453125
68.04,1577876160.46875
69.54,1577876160.484375
69.91,1577876160.5
69.39,1577876160.515625
68.42,1577876160.53125
67.61,1577876160.546875
67.45,1577876160.5625
68.19,1577876160.578125
69.76,1577876160.59375
71.83,1577876160.609375
74.14,1577876160.625
76.46,1577876160.640625
78.72,1577876160.65625
80.75,1577876160.671875
82.18,1577876160.6875
82.43,1577876160.703125
80.87,1577876160.71875
77.18,1577876160.734375
71.51,1577876160.75
64.48,1577876160.765625
56.96,1577876160.78125
49.77,1577876160.796875
43.35,1577876160.8125
37.71,1577876160.828125
32.51,1577876160.84375
27.31,1577876160.859375
21.77,1577876160.875
15.87,1577876160.890625
9.88,1577876160.90625
4.22,1577876160.921875
-0.81,1577876160.9375
-5.3,1577876160.953125
-9.73,1577876160.96875
-14.81,1577876160.984375
-21.12,1577876161.0
-28.77,1577876161.015625
-37.35,1577876161.03125
-46.04,1577876161.046875
-54.05,1577876161.0625
-61.01,1577876161.078125
-67.1,1577876161.09375
-73.08,1577876161.109375
-80.03,1577876161.125
-89.0,1577876161.140625
-100.66,1577876161.15625
-114.85,1577876161.171875
-130.18,1577876161.1875
-144.01,1577876161.203125
-152.85,1577876161.21875
-153.37,1577876161.234375
-143.49,1577876161.25
-123.3,1577876161.265625
-95.19,1577876161.28125
-63.05,1577876161.296875
-31.15,1577876161.3125
-2.86,1577876161.328125
20.0,1577876161.34375
37.23,1577876161.359375
49.61,1577876161.375
58.3,1577876161.390625
64.26,1577876161.40625
68.08,1577876161.421875
70.09,1577876161.4375
70.5,1577876161.453125
69.68,1577876161.46875
68.16,1577876161.484375
66.63,1577876161.5
65.77,1577876161.515625
65.98,1577876161.53125
67.29,1577876161.546875
69.37,1577876161.5625
71.71,1577876161.578125
73.86,1577876161.59375
75.59,1577876161.609375
76.85,1577876161.625
77.58,1577876161.640625
77.55,1577876161.65625
76.36,1577876161.671875
73.6,1577876161.6875
69.19,1577876161.703125
63.44,1577876161.71875
57.03,1577876161.734375
50.71,1577876161.75
44.92,1577876161.765625
39.65,1577876161.78125
34.51,1577876161.796875
29.05,1577876161.8125
23.06,1577876161.828125
16.77,1577876161.84375
10.69,1577876161.859375
5.28,1577876161.875
0.63,1577876161.890625
-3.63,1577876161.90625
-8.16,1577876161.921875
-13.52,1577876161.9375
-19.82,1577876161.953125
-26.68,1577876161.96875
-33.37,1577876161.984375
-39.21,1577876162.0
-43.92,1577876162.015625
-47.77,1577876162.03125
-51.52,1577876162.046875
-56.25,1577876162.0625
-63.02,1577876162.078125
-72.68,1577876162.09375
-85.49,1577876162.109375
-100.78,1577876162.125
-116.7,1577876162.140625
-130.28,1577876162.15625
-138.0,1577876162.171875
-136.8,1577876162.1875
-125.18,1577876162.203125
-103.86,1577876162.21875
-75.71,1577876162.234375
-44.84,1577876162.25
-15.37,1577876162.265625
9.69,1577876162.28125
28.93,1577876162.296875
42.48,1577876162.3125
51.41,1577876162.328125
57.05,1577876162.34375
60.47,1577876162.359375
62.38,1577876162.375
63.11,1577876162.390625
62.91,1577876162.40625
62.08,1577876162.421875
61.07,1577876162.4375
60.38,1577876162.453125
60.42,1577876162.46875
61.36,1577876162.484375
63.08,1577876162.5
65.24,1577876162.515625
67.38,1577876162.53125
69.14,1577876162.546875
70.26,1577876162.5625
70.52,1577876162.578125
69.72,1577876162.59375
67.63,1577876162.609375
64.13,1577876162.625
59.24,1577876162.640625
53.25,1577876162.65625
46.59,1577876162.671875
39.8,1577876162.6875
33.29,1577876162.703125
27.31,1577876162.71875
21.79,1577876162.734375
16.5,1577876162.75
11.14,1577876162.765625
5.52,1577876162.78125
-0.36,1577876162.796875
-6.36,1577876162.8125
-12.29,1577876162.828125
-18.15,1577876162.84375
-24.14,1577876162.859375
-30.6,1577876162.875
-37.74,1577876162.890625
-45.52,1577876162.90625
-53.54,1577876162.921875
-61.23,1577876162.9375
-68.14,1577876162.953125
-74.24,1577876162.96875
-79.99,1577876162.984375
-86.28,1577876163.0
-94.19,1577876163.015625
-104.57,1577876163.03125
-117.62,1577876163.046875
-132.45,1577876163.0625
-146.94,1577876163.078125
-157.93,1577876163.09375
-161.94,1577876163.109375
-156.3,1577876163.125
-140.1,1577876163.140625
-114.75,1577876163.15625
-83.63,1577876163.171875
-51.09,1577876163.1875
-21.12,1577876163.203125
3.7,1577876163.21875
22.56,1577876163.234375
36.11,1577876163.25
45.74,1577876163.265625
52.7,1577876163.28125
57.78,1577876163.296875
61.22,1577876163.3125
62.98,1577876163.328125
63.13,1577876163.34375
62.01,1577876163.359375
60.19,1577876163.375
58.3,1577876163.390625
56.79,1577876163.40625
55.84,1577876163.421875
55.47,1577876163.4375
55.64,1577876163.453125
56.46,1577876163.46875
58.1,1577876163.484375
60.65,1577876163.5
63.82,1577876163.515625
66.89,1577876163.53125
68.82,1577876163.546875
68.66,1577876163.5625
65.96,1577876163.578125
61.02,1577876163.59375
54.82,1577876163.609375
48.59,1577876163.625
43.35,1577876163.640625
39.53,1577876163.65625
36.84,1577876163.671875
34.52,1577876163.6875
31.77,1577876163.703125
28.1,1577876163.71875
23.53,1577876163.734375
18.57,1577876163.75
13.87,1577876163.765625
9.88,1577876163.78125
6.6,1577876163.796875
3.57,1577876163.8125
0.13,1577876163.828125
-4.23,1577876163.84375
-9.58,1577876163.859375
-15.47,1577876163.875
-21.2,1577876163.890625
-26.12,1577876163.90625
-30.08,1577876163.921875
-33.62,1577876163.9375
-37.9,1577876163.953125
-44.41,1577876163.96875
-54.5,1577876163.984375
-68.95,1577876164.0
-87.48,1577876164.015625
-108.49,1577876164.03125
-129.06,1577876164.046875
-145.37,1577876164.0625
-153.59,1577876164.078125
-151.02,1577876164.09375
-137.08,1577876164.109375
-113.61,1577876164.125
-84.44,1577876164.140625
-54.23,1577876164.15625
-27.05,1577876164.171875
-5.27,1577876164.1875
10.77,1577876164.203125
22.3,1577876164.21875
31.21,1577876164.234375
39.01,1577876164.25
46.26,1577876164.265625
52.59,1577876164.28125
57.19,1577876164.296875
59.45,1577876164.3125
59.41,1577876164.328125
57.81,1577876164.34375
55.8,1577876164.359375
54.4,1577876164.375
54.21,1577876164.390625
55.29,1577876164.40625
57.33,1577876164.421875
59.93,1577876164.4375
62.7,1577876164.453125
65.32,1577876164.46875
67.37,1577876164.484375
68.29,1577876164.5
67.5,1577876164.515625
64.62,1577876164.53125
59.64,1577876164.546875
53.04,1577876164.5625
45.67,1577876164.578125
38.46,1577876164.59375
32.15,1577876164.609375
27.01,1577876164.625
22.83,1577876164.640625
19.01,1577876164.65625
14.89,1577876164.671875
10.05,1577876164.6875
4.52,1577876164.703125
-1.26,1577876164.71875
-6.7,1577876164.734375
-11.41,1577876164.75
-15.45,1577876164.765625
-19.38,1577876164.78125
-23.92,1577876164.796875
-29.61,1577876164.8125
-36.43,1577876164.828125
-43.87,1577876164.84375
-51.13,1577876164.859375
-57.57,1577876164.875
-63.02,1577876164.890625
-67.95,1577876164.90625
-73.38,1577876164.921875
-80.47,1577876164.9375
-90.09,1577876164.953125
-102.32,1577876164.96875
-116.03,1577876164.984375
-128.86,1577876165.0
-137.58,1577876165.015625
-138.98,1577876165.03125
-130.85,1577876165.046875
-112.87,1577876165.0625
-86.79,1577876165.078125
-55.96,1577876165.09375
-24.32,1577876165.109375
4.68,1577876165.125
28.8,1577876165.140625
47.25,1577876165.15625
60.39,1577876165.171875
69.2,1577876165.1875
74.75,1577876165.203125
77.93,1577876165.21875
79.3,1577876165.234375
79.26,1577876165.25
78.19,1577876165.265625
76.53,1577876165.28125
74.9,1577876165.296875
73.9,1577876165.3125
74.0,1577876165.328125
75.36,1577876165.34375
77.78,1577876165.359375
80.84,1577876165.375
84.04,1577876165.390625
86.96,1577876165.40625
89.18,1577876165.421875
90.35,1577876165.4375
90.04,1577876165.453125
87.84,1577876165.46875
83.59,1577876165.484375
77.44,1577876165.5
69.97,1577876165.515625
61.99,1577876165.53125
54.24,1577876165.546875
47.11,1577876165.5625
40.6,1577876165.578125
34.41,1577876165.59375
28.19,1577876165.609375
21.75,1577876165.625
15.18,1577876165.640625
8.71,1577876165.65625
2.53,1577876165.671875
-3.37,1577876165.6875
-9.22,1577876165.703125
-15.33,1577876165.71875
-21.95,1577876165.734375
-29.12,1577876165.75
-36.63,1577876165.765625
-44.2,1577876165.78125
-51.56,1577876165.796875
-58.6,1577876165.8125
-65.38,1577876165.828125
-72.16,1577876165.84375
-79.45,1577876165.859375
-87.98,1577876165.875
-98.5,1577876165.890625
-111.43,1577876165.90625
-126.3,1577876165.921875
-141.34,1577876165.9375
-153.53,1577876165.953125
-159.26,1577876165.96875
-155.49,1577876165.984375
-140.95,1577876166.0
-116.72,1577876166.015625
-86.05,1577876166.03125
-53.29,1577876166.046875
-22.46,1577876166.0625
3.79,1577876166.078125
24.57,1577876166.09375
40.43,1577876166.109375
52.58,1577876166.125
62.11,1577876166.140625
69.61,1577876166.15625
75.19,1577876166.171875
78.75,1577876166.1875
80.33,1577876166.203125
80.33,1577876166.21875
79.46,1577876166.234375
78.49,1577876166.25
78.05,1577876166.265625
78.41,1577876166.28125
79.46,1577876166.296875
80.89,1577876166.3125
82.38,1577876166.328125
83.73,1577876166.34375
84.91,1577876166.359375
85.9,1577876166.375
86.5,1577876166.390625
86.28,1577876166.40625
84.63,1577876166.421875
81.06,1577876166.4375
75.42,1577876166.453125
68.14,1577876166.46875
60.05,1577876166.484375
52.14,1577876166.5
45.17,1577876166.515625
39.4,1577876166.53125
34.51,1577876166.546875
29.82,1577876166.5625
24.56,1577876166.578125
18.28,1577876166.59375
11.04,1577876166.609375
3.42,1577876166.625
-3.75,1577876166.640625
-9.75,1577876166.65625
-14.35,1577876166.671875
-17.94,1577876166.6875
-21.4,1577876166.703125
-25.71,1577876166.71875
-31.55,1577876166.734375
-39.0,1577876166.75
-47.56,1577876166.765625
-56.41,1577876166.78125
-64.79,1577876166.796875
-72.25,1577876166.8125
-78.72,1577876166.828125
-84.52,1577876166.84375
-90.25,1577876166.859375
-96.77,1577876166.875
-105.08,1577876166.890625
-115.86,1577876166.90625
-129.02,1577876166.921875
-143.07,1577876166.9375
-155.11,1577876166.953125
-161.4,1577876166.96875
-158.54,1577876166.984375
-144.8,1577876167.0
-120.9,1577876167.015625
-89.96,1577876167.03125
-56.39,1577876167.046875
-24.55,1577876167.0625
2.54,1577876167.078125
23.77,1577876167.09375
39.58,1577876167.109375
51.29,1577876167.125
60.23,1577876167.140625
67.25,1577876167.15625
72.61,1577876167.171875
76.28,1577876167.1875
78.26,1577876167.203125
78.8,1577876167.21875
78.5,1577876167.234375
78.07,1577876167.25
78.1,1577876167.265625
78.89,1577876167.28125
80.24,1577876167.296875
81.77,1577876167.3125
83.05,1577876167.328125
83.85,1577876167.34375
84.29,1577876167.359375
84.56,1577876167.375
84.75,1577876167.390625
84.57,1577876167.40625
83.38,1577876167.421875
80.45,1577876167.4375
75.32,1577876167.453125
68.13,1577876167.46875
59.65,1577876167.484375
51.04,1577876167.5
43.38,1577876167.515625
37.27,1577876167.53125
32.6,1577876167.546875
28.72,1577876167.5625
24.74,1577876167.578125
19.95,1577876167.59375
14.08,1577876167.609375
7.44,1577876167.625
0.69,1577876167.640625
-5.43,1577876167.65625
-10.45,1577876167.671875
-14.43,1577876167.6875
-17.89,1577876167.703125
-21.73,1577876167.71875
-26.75,1577876167.734375
-33.37,1577876167.75
-41.44,1577876167.765625
-50.26,1577876167.78125
-58.88,1577876167.796875
-66.48,1577876167.8125
-72.71,1577876167.828125
-77.82,1577876167.84375
-82.61,1577876167.859375
-88.15,1577876167.875
-95.52,1577876167.890625
-105.37,1577876167.90625
-117.64,1577876167.921875
-131.19,1577876167.9375
-143.78,1577876167.953125
-152.25,1577876167.96875
-153.37,1577876167.984375
-144.79,1577876168.0
-125.99,1577876168.015625
-98.69,1577876168.03125
-66.4,1577876168.046875
-33.48,1577876168.0625
-3.72,1577876168.078125
20.49,1577876168.09375
38.57,1577876168.109375
51.3,1577876168.125
60.09,1577876168.140625
66.19,1577876168.15625
70.34,1577876168.171875
72.79,1577876168.1875
73.59,1577876168.203125
72.96,1577876168.21875
71.4,1577876168.234375
69.63,1577876168.25
68.34,1577876168.265625
67.88,1577876168.28125
68.23,1577876168.296875
69.04,1577876168.3125
69.97,1577876168.328125
70.92,1577876168.34375
71.96,1577876168.359375
73.23,1577876168.375
74.55,1577876168.390625
75.36,1577876168.40625
74.77,1577876168.421875
71.99,1577876168.4375
66.75,1577876168.453125
59.49,1577876168.46875
51.26,1577876168.484375
43.26,1577876168.5
36.4,1577876168.515625
30.96,1577876168.53125
26.56,1577876168.546875
22.48,1577876168.5625
17.99,1577876168.578125
12.71,1577876168.59375
6.8,1577876168.609375
0.73,1577876168.625
-4.9,1577876168.640625
-9.72,1577876168.65625
-13.75,1577876168.671875
-17.5,1577876168.6875
-21.7,1577876168.703125
-26.98,1577876168.71875
-33.64,1577876168.734375
-41.41,1577876168.75
-49.61,1577876168.765625
-57.48,1577876168.78125
-64.44,1577876168.796875
-70.43,1577876168.8125
-75.94,1577876168.828125
-81.87,1577876168.84375
-89.31,1577876168.859375
-99.06,1577876168.875
-111.23,1577876168.890625
-124.8,1577876168.90625
-137.55,1577876168.921875
-146.27,1577876168.9375
-147.7,1577876168.953125
-139.45,1577876168.96875
-120.98,1577876168.984375
-94.0,1577876169.0
-62.0,1577876169.015625
-29.29,1577876169.03125
0.31,1577876169.046875
24.36,1577876169.0625
42.12,1577876169.078125
54.22,1577876169.09375
62.02,1577876169.109375
66.85,1577876169.125
69.63,1577876169.140625
70.83,1577876169.15625
70.68,1577876169.171875
69.35,1577876169.1875
67.25,1577876169.203125
64.93,1577876169.21875
62.96,1577876169.234375
61.78,1577876169.25
61.56,1577876169.265625
62.16,1577876169.28125
63.29,1577876169.296875
64.65,1577876169.3125
66.01,1577876169.328125
67.25,1577876169.34375
68.18,1577876169.359375
68.45,1577876169.375
67.57,1577876169.390625
65.0,1577876169.40625
60.43,1577876169.421875
53.98,1577876169.4375
46.3,1577876169.453125
38.39,1577876169.46875
31.24,1577876169.484375
25.4,1577876169.5
20.83,1577876169.515625
16.91,1577876169.53125
12.73,1577876169.546875
7.58,1577876169.5625
1.23,1577876169.578125
-5.95,1577876169.59375
-13.22,1577876169.609375
-19.77,1577876169.625
-25.16,1577876169.640625
-29.5,1577876169.65625
-33.41,1577876169.671875
-37.73,1577876169.6875
-43.12,1577876169.703125
-49.73,1577876169.71875
-57.12,1577876169.734375
-64.49,1577876169.75
-71.08,1577876169.765625
-76.53,1577876169.78125
-81.15,1577876169.796875
-85.8,1577876169.8125
-91.64,1577876169.828125
-99.76,1577876169.84375
-110.66,1577876169.859375
-123.86,1577876169.875
-137.71,1577876169.890625
-149.44,1577876169.90625
-155.75,1577876169.921875
-153.66,1577876169.9375
-141.51,1577876169.953125
-119.69,1577876169.96875
-90.64,1577876169.984375
-58.18,1577876170.0
-26.38,1577876170.015625
1.57,1577876170.03125
24.03,1577876170.046875
40.82,1577876170.0625
52.75,1577876170.078125
60.94,1577876170.09375
66.36,1577876170.109375
69.69,1577876170.125
71.36,1577876170.140625
71.76,1577876170.15625
71.28,1577876170.171875
70.29,1577876170.1875
69.12,1577876170.203125
68.12,1577876170.21875
67.61,1577876170.234375
67.88,1577876170.25
69.07,1577876170.265625
71.11,1577876170.28125
73.65,1577876170.296875
76.19,1577876170.3125
78.19,1577876170.328125
79.22,1577876170.34375
78.96,1577876170.359375
77.13,1577876170.375
73.57,1577876170.390625
68.25,1577876170.40625
61.41,1577876170.421875
53.63,1577876170.4375
45.73,1577876170.453125
38.5,1577876170.46875
32.38,1577876170.484375
27.31,1577876170.5
22.76,1577876170.515625
18.03,1577876170.53125
12.65,1577876170.546875
6.6,1577876170.5625
0.34,1577876170.578125
-5.52,1577876170.59375
-10.51,1577876170.609375
-14.63,1577876170.625
-18.41,1577876170.640625
-22.63,1577876170.65625
-28.02,1577876170.671875
-34.85,1577876170.6875
-42.83,1577876170.703125
-51.19,1577876170.71875
-59.1,1577876170.734375
-66.02,1577876170.75
-71.97,1577876170.765625
-77.51,1577876170.78125
-83.64,1577876170.796875
-91.39,1577876170.8125
-101.57,1577876170.828125
-114.31,1577876170.84375
-128.71,1577876170.859375
-142.7,1577876170.875
-153.22,1577876170.890625
-156.93,1577876170.90625
-151.29,1577876170.921875
-135.4,1577876170.9375
-110.51,1577876170.953125
-79.75,1577876170.96875
-47.15,1577876170.984375
-16.45,1577876171.0
9.78,1577876171.015625
30.48,1577876171.03125
45.81,1577876171.046875
56.64,1577876171.0625
63.94,1577876171.078125
68.45,1577876171.09375
70.74,1577876171.109375
71.23,1577876171.125
70.39,1577876171.140625
68.73,1577876171.15625
66.78,1577876171.171875
65.07,1577876171.1875
63.97,1577876171.203125
63.75,1577876171.21875
64.48,1577876171.234375
66.03,1577876171.25
68.16,1577876171.265625
70.49,1577876171.28125
72.6,1577876171.296875
74.04,1577876171.3125
74.4,1577876171.328125
73.3,1577876171.34375
70.46,1577876171.359375
65.82,1577876171.375
59.63,1577876171.390625
52.45,1577876171.40625
45.03,1577876171.421875
38.05,1577876171.4375
31.88,1577876171.453125
26.39,1577876171.46875
21.05,1577876171.484375
15.23,1577876171.5
8.6,1577876171.515625
1.32,1577876171.53125
-6.02,1577876171.546875
-12.68,1577876171.5625
-18.21,1577876171.578125
-22.7,1577876171.59375
-26.76,1577876171.609375
-31.24,1577876171.625
-36.85,1577876171.640625
-43.77,1577876171.65625
-51.56,1577876171.671875
-59.39,1577876171.6875
-66.39,1577876171.703125
-72.0,1577876171.71875
-76.25,1577876171.734375
-79.81,1577876171.75
-83.82,1577876171.765625
-89.6,1577876171.78125
-98.11,1577876171.796875
-109.45,1577876171.8125
-122.42,1577876171.828125
-134.36,1577876171.84375
-141.76,1577876171.859375
-141.12,1577876171.875
-130.22,1577876171.890625
-108.98,1577876171.90625
-79.64,1577876171.921875
-46.07,1577876171.9375
-12.55,1577876171.953125
17.44,1577876171.96875
41.99,1577876171.984375
60.82,1577876172.0
74.76,1577876172.015625
85.05,1577876172.03125
92.77,1577876172.046875
98.52,1577876172.0625
102.53,1577876172.078125
104.77,1577876172.09375
105.2,1577876172.109375
103.89,1577876172.125
101.11,1577876172.140625
97.23,1577876172.15625
92.76,1577876172.171875
88.17,1577876172.1875
83.89,1577876172.203125
80.2,1577876172.21875
77.28,1577876172.234375
75.04,1577876172.25
73.22,1577876172.265625
71.33,1577876172.28125
68.81,1577876172.296875
65.13,1577876172.3125
59.96,1577876172.328125
53.32,1577876172.34375
45.55,1577876172.359375
37.27,1577876172.375
29.15,1577876172.390625
21.69,1577876172.40625
15.0,1577876172.421875
8.8,1577876172.4375
2.56,1577876172.453125
-4.16,1577876172.46875
-11.4,1577876172.484375
-18.79,1577876172.5
-25.66,1577876172.515625
-31.5,1577876172.53125
-36.26,1577876172.546875
-40.47,1577876172.5625
-44.94,1577876172.578125
-50.38,1577876172.59375
-57.01,1577876172.609375
-64.44,1577876172.625
-71.98,1577876172.640625
-79.03,1577876172.65625
-85.39,1577876172.671875
-91.34,1577876172.6875
-97.59,1577876172.703125
-104.97,1577876172.71875
-114.22,1577876172.734375
-125.73,1577876172.75
-139.14,1577876172.765625
-153.15,1577876172.78125
-165.31,1577876172.796875
-172.45,1577876172.8125
-171.43,1577876172.828125
-160.21,1577876172.84375
-138.68,1577876172.859375
-108.97,1577876172.875
-74.86,1577876172.890625
-40.65,1577876172.90625
-9.95,1577876172.921875
15.12,1577876172.9375
34.11,1577876172.953125
47.78,1577876172.96875
57.43,1577876172.984375
64.25,1577876173.0
69.08,1577876173.015625
72.27,1577876173.03125
74.01,1577876173.046875
74.48,1577876173.0625
74.01,1577876173.078125
73.14,1577876173.09375
72.43,1577876173.109375
72.41,1577876173.125
73.3,1577876173.140625
75.05,1577876173.15625
77.36,1577876173.171875
79.86,1577876173.1875
82.18,1577876173.203125
84.0,1577876173.21875
85.02,1577876173.234375
84.89,1577876173.25
83.27,1577876173.265625
79.91,1577876173.28125
74.83,1577876173.296875
68.45,1577876173.3125
61.45,1577876173.328125
54.57,1577876173.34375
48.27,1577876173.359375
42.56,1577876173.375
37.07,1577876173.390625
31.24,1577876173.40625
24.71,1577876173.421875
17.45,1577876173.4375
9.83,1577876173.453125
2.37,1577876173.46875
-4.54,1577876173.484375
-10.83,1577876173.5
-16.79,1577876173.515625
-22.91,1577876173.53125
-29.59,1577876173.546875
-36.93,1577876173.5625
-44.69,1577876173.578125
-52.38,1577876173.59375
-59.57,1577876173.609375
-66.1,1577876173.625
-72.21,1577876173.640625
-78.55,1577876173.65625
-86.03,1577876173.671875
-95.52,1577876173.6875
-107.49,1577876173.703125
-121.64,1577876173.71875
-136.58,1577876173.734375
-149.76,1577876173.75
-157.84,1577876173.765625
-157.59,1577876173.78125
-146.85,1577876173.796875
-125.5,1577876173.8125
-95.71,1577876173.828125
-61.43,1577876173.84375
-27.22,1577876173.859375
3.1,1577876173.875
27.36,1577876173.890625
45.28,1577876173.90625
57.92,1577876173.921875
66.81,1577876173.9375
73.17,1577876173.953125
77.6,1577876173.96875
80.27,1577876173.984375
81.25,1577876174.0
80.85,1577876174.015625
79.67,1577876174.03125
78.39,1577876174.046875
77.5,1577876174.0625
77.12,1577876174.078125
77.14,1577876174.09375
77.38,1577876174.109375
77.84,1577876174.125
78.65,1577876174.140625
79.99,1577876174.15625
81.71,1577876174.171875
83.3,1577876174.1875
83.93,1577876174.203125
82.82,1577876174.21875
79.53,1577876174.234375
74.21,1577876174.25
67.53,1577876174.265625
60.31,1577876174.28125
53.27,1577876174.296875
46.74,1577876174.3125
40.63,1577876174.328125
34.63,1577876174.34375
28.42,1577876174.359375
21.9,1577876174.375
15.21,1577876174.390625
8.71,1577876174.40625
2.73,1577876174.421875
-2.54,1577876174.4375
-7.2,1577876174.453125
-11.63,1577876174.46875
-16.38,1577876174.484375
-21.93,1577876174.5
-28.49,1577876174.515625
-35.92,1577876174.53125
-43.73,1577876174.546875
-51.29,1577876174.5625
-58.19,1577876174.578125
-64.37,1577876174.59375
-70.32,1577876174.609375
-76.92,1577876174.625
-85.27,1577876174.640625
-96.14,1577876174.65625
-109.57,1577876174.671875
-124.44,1577876174.6875
-138.28,1577876174.703125
-147.72,1577876174.71875
-149.24,1577876174.734375
-140.43,1577876174.75
-120.85,1577876174.765625
-92.48,1577876174.78125
-59.19,1577876174.796875
-25.57,1577876174.8125
4.43,1577876174.828125
28.46,1577876174.84375
45.99,1577876174.859375
57.89,1577876174.875
65.62,1577876174.890625
70.44,1577876174.90625
73.12,1577876174.921875
74.06,1577876174.9375
73.51,1577876174.953125
71.96,1577876174.96875
70.12,1577876174.984375
68.78,1577876175.0
68.52,1577876175.015625
69.47,1577876175.03125
71.33,1577876175.046875
73.53,1577876175.0625
75.54,1577876175.078125
77.11,1577876175.09375
78.24,1577876175.109375
79.04,1577876175.125
79.5,1577876175.140625
79.32,1577876175.15625
77.99,1577876175.171875
75.09,1577876175.1875
70.47,1577876175.203125
64.46,1577876175.21875
57.68,1577876175.234375
50.83,1577876175.25
44.37,1577876175.265625
38.37,1577876175.28125
32.55,1577876175.296875
26.53,1577876175.3125
20.09,1577876175.328125
13.34,1577876175.34375
6.67,1577876175.359375
0.55,1577876175.375
-4.73,1577876175.390625
-9.29,1577876175.40625
-13.63,1577876175.421875
-18.42,1577876175.4375
-24.23,1577876175.453125
-31.24,1577876175.46875
-39.2,1577876175.484375
-47.51,1577876175.5
-55.48,1577876175.515625
-62.65,1577876175.53125
-68.96,1577876175.546875
-74.91,1577876175.5625
-81.44,1577876175.578125
-89.71,1577876175.59375
-100.66,1577876175.609375
-114.4,1577876175.625
-129.79,1577876175.640625
-144.24,1577876175.65625
-154.17,1577876175.671875
-155.91,1577876175.6875
-146.96,1577876175.703125
-126.9,1577876175.71875
-97.8,1577876175.734375
-63.59,1577876175.75
-28.93,1577876175.765625
2.17,1577876175.78125
27.29,1577876175.796875
45.88,1577876175.8125
58.84,1577876175.828125
67.71,1577876175.84375
73.95,1577876175.859375
78.48,1577876175.875
81.69,1577876175.890625
83.65,1577876175.90625
84.46,1577876175.921875
84.38,1577876175.9375
83.86,1577876175.953125
83.32,1577876175.96875
83.09,1577876175.984375
83.26,1577876176.0
83.81,1577876176.015625
84.67,1577876176.03125
85.83,1577876176.046875
87.38,1577876176.0625
89.27,1577876176.078125
91.27,1577876176.09375
92.77,1577876176.109375
92.96,1577876176.125
91.11,1577876176.140625
86.83,1577876176.15625
80.34,1577876176.171875
72.4,1577876176.1875
64.12,1577876176.203125
56.46,1577876176.21875
49.93,1577876176.234375
44.37,1577876176.25
39.08,1577876176.265625
33.13,1577876176.28125
25.77,1577876176.296875
16.83,1577876176.3125
6.73,1577876176.328125
-3.63,1577876176.34375
-13.32,1577876176.359375
-21.76,1577876176.375
-29.05,1577876176.390625
-35.86,1577876176.40625
-43.16,1577876176.421875
-51.74,1577876176.4375
-61.73,1577876176.453125
-72.55,1577876176.46875
-83.08,1577876176.484375
-92.11,1577876176.5
-98.92,1577876176.515625
-103.6,1577876176.53125
-107.09,1577876176.546875
-110.85,1577876176.5625
-116.43,1577876176.578125
-124.9,1577876176.59375
-136.35,1577876176.609375
-149.58,1577876176.625
-162.11,1577876176.640625
-170.52,1577876176.65625
-171.31,1577876176.671875
-161.92,1577876176.6875
-141.68,1577876176.703125
-112.25,1577876176.71875
-77.24,1577876176.734375
-41.13,1577876176.75
-8.05,1577876176.765625
19.32,1577876176.78125
