PPG GREEN,time
1966562.0,1577876100.019
1966880.0,1577876100.058
1966809.0,1577876100.099
1966859.0,1577876100.14
1966773.0,1577876100.179
1966695.0,1577876100.219
1966949.0,1577876100.26
1967306.0,1577876100.3
1967864.0,1577876100.339
1968432.0,1577876100.38
1968479.0,1577876100.419
1968344.0,1577876100.459
1966890.0,1577876100.501
1964822.0,1577876100.54
1963430.0,1577876100.58
1962153.0,1577876100.621
1961565.0,1577876100.66
1961116.0,1577876100.701
1960840.0,1577876100.741
1960652.0,1577876100.78
1960607.0,1577876100.82
1961026.0,1577876100.861
1963900.0,1577876100.901
1968893.0,1577876100.941
1973315.0,1577876100.982
1975894.0,1577876101.021
1979734.0,1577876101.061
1984908.0,1577876101.103
1990075.0,1577876101.141
1994553.0,1577876101.181
1998584.0,1577876101.222
2000789.0,1577876101.262
2002159.0,1577876101.302
2003649.0,1577876101.343
2005024.0,1577876101.382
2006640.0,1577876101.422
2009730.0,1577876101.463
2012426.0,1577876101.503
2018356.0,1577876101.542
2024959.0,1577876101.583
2033799.0,1577876101.622
2044611.0,1577876101.716
2057895.0,1577876101.757
2069704.0,1577876101.796
2079501.0,1577876101.836
2087465.0,1577876101.877
2094132.0,1577876101.916
2101115.0,1577876101.957
2106731.0,1577876101.997
2110800.0,1577876102.037
2116001.0,1577876102.077
2120587.0,1577876102.118
2122594.0,1577876102.158
2126992.0,1577876102.197
2132476.0,1577876102.238
2133781.0,1577876102.277
2137142.0,1577876102.317
2132495.0,1577876102.359
2120849.0,1577876102.398
2114405.0,1577876102.438
2112679.0,1577876102.479
2109837.0,1577876102.518
2104437.0,1577876102.559
2100620.0,1577876102.599
2097928.0,1577876102.638
2095626.0,1577876102.678
2091655.0,1577876102.719
2086421.0,1577876102.759
2081876.0,1577876102.799
2079533.0,1577876102.84
2078481.0,1577876102.879
2075968.0,1577876102.919
2072182.0,1577876102.961
2068871.0,1577876102.999
2069133.0,1577876103.039
2071028.0,1577876103.081
2070949.0,1577876103.12
2070991.0,1577876103.161
2070273.0,1577876103.201
2070532.0,1577876103.24
2070915.0,1577876103.28
2072648.0,1577876103.321
2081287.0,1577876103.361
2091638.0,1577876103.401
2097193.0,1577876103.442
2102456.0,1577876103.481
2108610.0,1577876103.521
2113950.0,1577876103.563
2118824.0,1577876103.601
2121150.0,1577876103.641
2122919.0,1577876103.683
2123123.0,1577876103.722
2122559.0,1577876103.762
2123281.0,1577876103.803
2124526.0,1577876103.842
2126313.0,1577876103.882
2128459.0,1577876103.923
2127514.0,1577876103.963
2124721.0,1577876104.003
2120951.0,1577876104.044
2118076.0,1577876104.083
2116060.0,1577876104.123
2114815.0,1577876104.165
2114145.0,1577876104.203
2113788.0,1577876104.243
2114136.0,1577876104.284
2115286.0,1577876104.324
2115896.0,1577876104.364
2116001.0,1577876104.405
2115528.0,1577876104.444
2114629.0,1577876104.484
2113089.0,1577876104.525
2111888.0,1577876104.565
2109315.0,1577876104.605
2107205.0,1577876104.646
2105956.0,1577876104.685
2104319.0,1577876104.725
2103994.0,1577876104.767
2103753.0,1577876104.805
2103782.0,1577876104.845
2103094.0,1577876104.887
2102617.0,1577876104.926
2101803.0,1577876104.967
2100636.0,1577876105.007
2100540.0,1577876105.046
2102507.0,1577876105.086
2105384.0,1577876105.128
2109779.0,1577876105.167
2115116.0,1577876105.207
2121443.0,1577876105.248
2127896.0,1577876105.287
2133945.0,1577876105.327
2140794.0,1577876105.369
2146628.0,1577876105.407
2151739.0,1577876105.447
2158754.0,1577876105.489
2166839.0,1577876105.528
2174848.0,1577876105.569
2181870.0,1577876105.609
2192319.0,1577876105.648
2193688.0,1577876105.688
2195042.0,1577876105.729
2195840.0,1577876105.769
2194981.0,1577876105.808
2193774.0,1577876105.849
2191933.0,1577876105.888
2189778.0,1577876105.929
2187254.0,1577876105.97
2184904.0,1577876106.009
2183274.0,1577876106.049
2182582.0,1577876106.09
2183760.0,1577876106.129
2185590.0,1577876106.17
2188222.0,1577876106.21
2191633.0,1577876106.249
2197621.0,1577876106.289
2205473.0,1577876106.33
2212715.0,1577876106.37
2218599.0,1577876106.409
2221723.0,1577876106.451
2222702.0,1577876106.49
2222636.0,1577876106.53
2221470.0,1577876106.571
2218707.0,1577876106.61
2215943.0,1577876106.65
2213766.0,1577876106.691
2213068.0,1577876106.73
2212002.0,1577876106.771
2211374.0,1577876106.811
2210636.0,1577876106.85
2209489.0,1577876106.89
2207770.0,1577876106.932
2206482.0,1577876106.971
2205242.0,1577876107.011
2204585.0,1577876107.052
2203912.0,1577876107.091
2203628.0,1577876107.131
2203502.0,1577876107.173
2203683.0,1577876107.211
2203533.0,1577876107.251
2203240.0,1577876107.292
2203266.0,1577876107.332
2203961.0,1577876107.413
2203596.0,1577876107.372
2204121.0,1577876107.452
2204479.0,1577876107.492
2205195.0,1577876107.533
2205464.0,1577876107.573
2205603.0,1577876107.61
2204661.0,1577876107.652
2204104.0,1577876107.691
2203908.0,1577876107.731
2203706.0,1577876107.773
2204005.0,1577876107.811
2203890.0,1577876107.852
2203978.0,1577876107.893
2204038.0,1577876107.932
2204645.0,1577876107.971
2204873.0,1577876108.012
2205238.0,1577876108.051
2205587.0,1577876108.091
2205651.0,1577876108.132
2206203.0,1577876108.172
2206729.0,1577876108.212
2206889.0,1577876108.253
2207211.0,1577876108.29
2207614.0,1577876108.331
2207184.0,1577876108.373
2206455.0,1577876108.411
2205793.0,1577876108.451
2205587.0,1577876108.493
2205775.0,1577876108.532
2206029.0,1577876108.573
2206273.0,1577876108.614
2206522.0,1577876108.651
2206649.0,1577876108.691
2206855.0,1577876108.732
2207440.0,1577876108.772
2207802.0,1577876108.812
2207922.0,1577876108.853
2209239.0,1577876108.932
2208648.0,1577876108.892
2209840.0,1577876108.974
2210412.0,1577876109.011
2210827.0,1577876109.051
2211362.0,1577876109.092
2211961.0,1577876109.131
2212332.0,1577876109.172
2212166.0,1577876109.213
2211673.0,1577876109.252
2211546.0,1577876109.293
2211547.0,1577876109.332
2211742.0,1577876109.372
2212350.0,1577876109.411
2212453.0,1577876109.453
2212947.0,1577876109.492
2213109.0,1577876109.532
2213593.0,1577876109.574
2214207.0,1577876109.613
2214613.0,1577876109.653
2215321.0,1577876109.692
2215705.0,1577876109.731
2216339.0,1577876109.772
2216848.0,1577876109.813
2217581.0,1577876109.852
2218359.0,1577876109.892
2219212.0,1577876109.934
2220114.0,1577876109.974
2221121.0,1577876110.011
2221513.0,1577876110.052
2221899.0,1577876110.092
2224111.0,1577876110.132
2226220.0,1577876110.174
2227130.0,1577876110.212
2227560.0,1577876110.252
2227643.0,1577876110.294
2227878.0,1577876110.333
2228127.0,1577876110.372
2228458.0,1577876110.412
2228730.0,1577876110.452
2229101.0,1577876110.492
2230102.0,1577876110.533
2231956.0,1577876110.573
2234612.0,1577876110.613
2237711.0,1577876110.654
2240107.0,1577876110.693
2242815.0,1577876110.731
2244543.0,1577876110.773
2246085.0,1577876110.812
2246337.0,1577876110.852
2245050.0,1577876110.893
2243004.0,1577876110.932
2241655.0,1577876110.973
2240633.0,1577876111.014
2239969.0,1577876111.053
2239360.0,1577876111.091
2239039.0,1577876111.133
2238720.0,1577876111.173
2238583.0,1577876111.212
2238121.0,1577876111.253
2237899.0,1577876111.293
2237317.0,1577876111.333
2236736.0,1577876111.375
2236877.0,1577876111.413
2236601.0,1577876111.452
2236604.0,1577876111.493
2236781.0,1577876111.532
2236733.0,1577876111.573
2236962.0,1577876111.614
2237202.0,1577876111.653
2236797.0,1577876111.693
2235432.0,1577876111.734
2234597.0,1577876111.772
2233968.0,1577876111.812
2233543.0,1577876111.853
2233357.0,1577876111.892
2233445.0,1577876111.933
2233203.0,1577876111.975
2233040.0,1577876112.013
2232933.0,1577876112.053
2232670.0,1577876112.093
2232531.0,1577876112.132
2232488.0,1577876112.173
2232552.0,1577876112.214
2232642.0,1577876112.253
2232898.0,1577876112.293
2233327.0,1577876112.334
2233287.0,1577876112.374
2233371.0,1577876112.412
2233804.0,1577876112.453
2233956.0,1577876112.492
2233583.0,1577876112.533
2232272.0,1577876112.575
2231006.0,1577876112.613
2230248.0,1577876112.653
2229444.0,1577876112.695
2228874.0,1577876112.734
2228467.0,1577876112.773
2228099.0,1577876112.813
2227779.0,1577876112.852
2227276.0,1577876112.893
2227042.0,1577876112.934
2227052.0,1577876112.974
2226906.0,1577876113.014
2226879.0,1577876113.055
2226555.0,1577876113.092
2226535.0,1577876113.132
2226458.0,1577876113.174
2226744.0,1577876113.213
2226968.0,1577876113.253
2227609.0,1577876113.294
2228155.0,1577876113.334
2228853.0,1577876113.375
2227998.0,1577876113.415
2226703.0,1577876113.452
2225582.0,1577876113.493
2224851.0,1577876113.534
2224029.0,1577876113.574
2223867.0,1577876113.613
2223290.0,1577876113.655
2223017.0,1577876113.694
2222382.0,1577876113.73
2221523.0,1577876113.772
2221320.0,1577876113.81
2221298.0,1577876113.85
2220974.0,1577876113.891
2220987.0,1577876113.93
2220883.0,1577876113.971
2220879.0,1577876114.011
2220916.0,1577876114.051
2220965.0,1577876114.091
2221144.0,1577876114.132
2220815.0,1577876114.172
2221053.0,1577876114.211
2220850.0,1577876114.252
2219354.0,1577876114.288
2216394.0,1577876114.329
2214548.0,1577876114.371
2213040.0,1577876114.409
2211433.0,1577876114.45
2210370.0,1577876114.491
2209270.0,1577876114.53
2207974.0,1577876114.571
2206517.0,1577876114.61
2205510.0,1577876114.649
2204332.0,1577876114.689
2203470.0,1577876114.73
2203067.0,1577876114.77
2202516.0,1577876114.81
2202112.0,1577876114.851
2202013.0,1577876114.89
2201526.0,1577876114.931
2201422.0,1577876114.971
2201051.0,1577876115.009
2200714.0,1577876115.049
2200813.0,1577876115.091
2200410.0,1577876115.13
2197882.0,1577876115.171
2194471.0,1577876115.211
2191491.0,1577876115.251
2189098.0,1577876115.289
2187203.0,1577876115.33
2185320.0,1577876115.37
2183492.0,1577876115.41
2181802.0,1577876115.451
2179855.0,1577876115.49
2177872.0,1577876115.53
2176430.0,1577876115.572
2174996.0,1577876115.609
2174111.0,1577876115.649
2172980.0,1577876115.691
2172255.0,1577876115.73
2170630.0,1577876115.771
2169262.0,1577876115.811
2168401.0,1577876115.851
2167460.0,1577876115.891
2166534.0,1577876115.93
2165925.0,1577876115.97
2165225.0,1577876116.01
2163584.0,1577876116.051
2159991.0,1577876116.09
2155455.0,1577876116.13
2151940.0,1577876116.172
2148994.0,1577876116.211
2146346.0,1577876116.251
2144315.0,1577876116.29
2142601.0,1577876116.329
2140357.0,1577876116.371
2138333.0,1577876116.411
2136515.0,1577876116.45
2134918.0,1577876116.491
2133727.0,1577876116.532
2132571.0,1577876116.572
2131722.0,1577876116.609
2131027.0,1577876116.651
2130294.0,1577876116.69
2129544.0,1577876116.73
2129034.0,1577876116.772
2128369.0,1577876116.811
2128327.0,1577876116.851
2128361.0,1577876116.892
2128709.0,1577876116.931
2128023.0,1577876116.97
2125513.0,1577876117.011
2122039.0,1577876117.05
2117539.0,1577876117.132
2119210.0,1577876117.09
2115916.0,1577876117.171
2115044.0,1577876117.211
2114037.0,1577876117.252
2113008.0,1577876117.292
2111505.0,1577876117.33
2110573.0,1577876117.372
2109927.0,1577876117.41
2109474.0,1577876117.45
2109546.0,1577876117.492
2109329.0,1577876117.531
2109044.0,1577876117.572
2109107.0,1577876117.613
2109149.0,1577876117.65
2109048.0,1577876117.69
2109419.0,1577876117.731
2109675.0,1577876117.771
2109949.0,1577876117.811
2110392.0,1577876117.852
2110771.0,1577876117.891
2108943.0,1577876117.932
2105828.0,1577876117.972
2102867.0,1577876118.01
2101056.0,1577876118.05
2099727.0,1577876118.092
2098468.0,1577876118.131
2097525.0,1577876118.172
2096839.0,1577876118.212
2095697.0,1577876118.252
2094721.0,1577876118.29
2093829.0,1577876118.331
2093532.0,1577876118.371
2093546.0,1577876118.411
2094390.0,1577876118.452
2094977.0,1577876118.491
2095331.0,1577876118.532
2095976.0,1577876118.574
2096662.0,1577876118.612
2098001.0,1577876118.65
2098748.0,1577876118.691
2099828.0,1577876118.731
2100907.0,1577876118.772
2102382.0,1577876118.812
2102712.0,1577876118.851
2100657.0,1577876118.892
2098298.0,1577876118.933
2096410.0,1577876118.971
2095234.0,1577876119.011
2094514.0,1577876119.052
2094053.0,1577876119.091
2093695.0,1577876119.131
2093155.0,1577876119.173
2092195.0,1577876119.212
2091527.0,1577876119.252
2091471.0,1577876119.291
2091228.0,1577876119.331
2091479.0,1577876119.372
2091769.0,1577876119.412
2091847.0,1577876119.451
2092302.0,1577876119.492
2092673.0,1577876119.533
2092901.0,1577876119.573
2093208.0,1577876119.61
2094010.0,1577876119.652
2094423.0,1577876119.691
2095005.0,1577876119.731
2095704.0,1577876119.773
2094462.0,1577876119.812
2091368.0,1577876119.852
2088228.0,1577876119.893
2086507.0,1577876119.932
2084963.0,1577876119.971
2083651.0,1577876120.012
2083017.0,1577876120.051
2082228.0,1577876120.092
2081195.0,1577876120.133
2080173.0,1577876120.173
2079563.0,1577876120.212
2079445.0,1577876120.254
2079341.0,1577876120.291
2079467.0,1577876120.331
2079663.0,1577876120.373
2079892.0,1577876120.411
2080120.0,1577876120.452
2080378.0,1577876120.493
2080732.0,1577876120.532
2081181.0,1577876120.573
2081670.0,1577876120.612
2082108.0,1577876120.651
2082828.0,1577876120.691
2081742.0,1577876120.733
2078824.0,1577876120.773
2076115.0,1577876120.812
2074568.0,1577876120.853
2073090.0,1577876120.893
2071941.0,1577876120.933
2071140.0,1577876120.973
2070613.0,1577876121.011
2069781.0,1577876121.052
2068915.0,1577876121.093
2068570.0,1577876121.132
2068272.0,1577876121.173
2068474.0,1577876121.214
2068625.0,1577876121.253
2069067.0,1577876121.291
2069791.0,1577876121.332
2070143.0,1577876121.372
2070515.0,1577876121.412
2071132.0,1577876121.453
2071854.0,1577876121.492
2072799.0,1577876121.533
2073465.0,1577876121.575
2074183.0,1577876121.613
2073911.0,1577876121.651
2071609.0,1577876121.693
2066918.0,1577876121.773
2068717.0,1577876121.732
2065422.0,1577876121.813
2063926.0,1577876121.853
2063024.0,1577876121.893
2062663.0,1577876121.934
2061687.0,1577876121.972
2060551.0,1577876122.012
2059062.0,1577876122.092
2059447.0,1577876122.053
2058721.0,1577876122.133
2058183.0,1577876122.175
2057869.0,1577876122.213
2057705.0,1577876122.253
2057773.0,1577876122.293
2057945.0,1577876122.332
2058039.0,1577876122.373
2058032.0,1577876122.413
2058141.0,1577876122.453
2058712.0,1577876122.493
2058926.0,1577876122.534
2059364.0,1577876122.574
2058065.0,1577876122.612
2054910.0,1577876122.653
2052334.0,1577876122.692
2050776.0,1577876122.732
2049312.0,1577876122.774
2048229.0,1577876122.813
2047304.0,1577876122.853
2046699.0,1577876122.894
2045599.0,1577876122.934
2044849.0,1577876122.973
2044174.0,1577876123.013
2043905.0,1577876123.052
2043901.0,1577876123.093
2044256.0,1577876123.134
2044260.0,1577876123.174
2044251.0,1577876123.213
2044838.0,1577876123.255
2045059.0,1577876123.292
2045425.0,1577876123.332
2045737.0,1577876123.374
2046421.0,1577876123.413
2046965.0,1577876123.453
2047422.0,1577876123.494
2046048.0,1577876123.533
2043392.0,1577876123.574
2040927.0,1577876123.615
2039460.0,1577876123.652
2038279.0,1577876123.692
2037459.0,1577876123.734
2036853.0,1577876123.773
2036027.0,1577876123.813
2034921.0,1577876123.854
2034001.0,1577876123.894
2033652.0,1577876123.934
2033163.0,1577876123.976
2031910.0,1577876124.012
2031602.0,1577876124.052
2031604.0,1577876124.094
2031616.0,1577876124.133
2031896.0,1577876124.174
2031992.0,1577876124.214
2032217.0,1577876124.254
2032964.0,1577876124.294
2033736.0,1577876124.335
2034640.0,1577876124.373
2036147.0,1577876124.413
2037499.0,1577876124.454
2037401.0,1577876124.493
2035561.0,1577876124.533
2034654.0,1577876124.575
2034829.0,1577876124.614
2035115.0,1577876124.654
2035710.0,1577876124.696
2036310.0,1577876124.732
2036802.0,1577876124.773
2037326.0,1577876124.814
2037851.0,1577876124.853
2038657.0,1577876124.894
2039733.0,1577876124.935
2040919.0,1577876124.975
2042140.0,1577876125.014
2043486.0,1577876125.056
2044841.0,1577876125.093
2046206.0,1577876125.133
2047580.0,1577876125.175
2049120.0,1577876125.213
2050528.0,1577876125.254
2052297.0,1577876125.295
2053840.0,1577876125.334
2055720.0,1577876125.375
2055911.0,1577876125.416
2054942.0,1577876125.453
2054183.0,1577876125.493
2054409.0,1577876125.534
2054880.0,1577876125.574
2055384.0,1577876125.614
2056096.0,1577876125.655
2056775.0,1577876125.694
2057395.0,1577876125.727
2057960.0,1577876125.769
2058922.0,1577876125.807
2060199.0,1577876125.847
2061557.0,1577876125.888
2062782.0,1577876125.927
2064231.0,1577876125.968
2065686.0,1577876126.009
2067248.0,1577876126.048
2068822.0,1577876126.088
2070042.0,1577876126.129
2071554.0,1577876126.169
2073176.0,1577876126.207
2074848.0,1577876126.246
2075932.0,1577876126.285
2075293.0,1577876126.326
2073905.0,1577876126.368
2073195.0,1577876126.406
2072933.0,1577876126.446
2072927.0,1577876126.488
2073204.0,1577876126.527
2073582.0,1577876126.568
2074184.0,1577876126.606
2074353.0,1577876126.645
2074706.0,1577876126.686
2075274.0,1577876126.727
2076234.0,1577876126.767
2077212.0,1577876126.807
2078118.0,1577876126.848
2078839.0,1577876126.887
2080207.0,1577876126.927
2081124.0,1577876126.967
2082248.0,1577876127.006
2083461.0,1577876127.046
2084914.0,1577876127.087
2086215.0,1577876127.126
2087492.0,1577876127.167
2087370.0,1577876127.208
2085700.0,1577876127.247
2084402.0,1577876127.288
2084214.0,1577876127.327
2084035.0,1577876127.366
2084191.0,1577876127.406
2084977.0,1577876127.447
2085710.0,1577876127.487
2085982.0,1577876127.527
2086313.0,1577876127.569
2086857.0,1577876127.607
2088572.0,1577876127.648
2089871.0,1577876127.687
2091254.0,1577876127.726
2093106.0,1577876127.767
2095000.0,1577876127.807
2096442.0,1577876127.847
2098012.0,1577876127.887
2099734.0,1577876127.928
2101579.0,1577876127.968
2103306.0,1577876128.008
2105288.0,1577876128.047
2106946.0,1577876128.086
2106852.0,1577876128.126
2106535.0,1577876128.168
2106919.0,1577876128.207
2108330.0,1577876128.247
2110665.0,1577876128.289
2112765.0,1577876128.328
2115423.0,1577876128.369
2119327.0,1577876128.407
2123797.0,1577876128.446
2128940.0,1577876128.487
2134203.0,1577876128.528
2139059.0,1577876128.568
2143351.0,1577876128.607
2147275.0,1577876128.649
2150769.0,1577876128.688
2153360.0,1577876128.728
2155476.0,1577876128.768
2158415.0,1577876128.806
2160897.0,1577876128.847
2162926.0,1577876128.888
2165644.0,1577876128.927
2168710.0,1577876128.968
2170395.0,1577876129.009
2170414.0,1577876129.048
2170022.0,1577876129.088
2170284.0,1577876129.127
2171285.0,1577876129.167
2172612.0,1577876129.207
2175267.0,1577876129.248
2176911.0,1577876129.287
2178666.0,1577876129.328
2179467.0,1577876129.37
2180886.0,1577876129.408
2182326.0,1577876129.448
2183822.0,1577876129.488
2184942.0,1577876129.527
2185794.0,1577876129.568
2186578.0,1577876129.608
2187580.0,1577876129.647
2188442.0,1577876129.688
2188985.0,1577876129.729
2189827.0,1577876129.769
2190672.0,1577876129.809
2191989.0,1577876129.848
2193231.0,1577876129.887
2192592.0,1577876129.927
2191184.0,1577876129.969
2189810.0,1577876130.008
2189422.0,1577876130.048
2189432.0,1577876130.089
2189156.0,1577876130.129
2189506.0,1577876130.167
2189445.0,1577876130.208
2189351.0,1577876130.247
2188957.0,1577876130.288
2189482.0,1577876130.329
2189959.0,1577876130.369
2190571.0,1577876130.408
2191542.0,1577876130.45
2192923.0,1577876130.489
2193487.0,1577876130.527
2194231.0,1577876130.569
2195256.0,1577876130.607
2196239.0,1577876130.648
2197022.0,1577876130.689
2198036.0,1577876130.728
2199082.0,1577876130.769
2199618.0,1577876130.81
2198355.0,1577876130.849
2196324.0,1577876130.887
2195338.0,1577876130.928
2194794.0,1577876130.968
2194069.0,1577876131.008
2194101.0,1577876131.049
2193974.0,1577876131.088
2193796.0,1577876131.129
2193103.0,1577876131.171
2192491.0,1577876131.209
2192059.0,1577876131.247
2191775.0,1577876131.289
2191717.0,1577876131.328
2191659.0,1577876131.369
2191667.0,1577876131.409
2191587.0,1577876131.449
2192076.0,1577876131.489
2192242.0,1577876131.53
2192663.0,1577876131.568
2192461.0,1577876131.608
2192932.0,1577876131.649
2192651.0,1577876131.688
2190266.0,1577876131.728
2187236.0,1577876131.77
2184531.0,1577876131.809
2182415.0,1577876131.849
2180615.0,1577876131.89
2179039.0,1577876131.927
2177381.0,1577876131.968
2175870.0,1577876132.009
2174620.0,1577876132.048
2173180.0,1577876132.089
2171890.0,1577876132.13
2171610.0,1577876132.17
2170911.0,1577876132.209
2170350.0,1577876132.249
2169664.0,1577876132.288
2169190.0,1577876132.328
2168681.0,1577876132.37
2168365.0,1577876132.409
2167730.0,1577876132.449
2167354.0,1577876132.49
2166789.0,1577876132.529
2166768.0,1577876132.57
2165787.0,1577876132.609
2163064.0,1577876132.648
2159524.0,1577876132.688
2156999.0,1577876132.73
2154655.0,1577876132.77
2152913.0,1577876132.809
2151381.0,1577876132.85
2150237.0,1577876132.89
2149467.0,1577876132.93
2147747.0,1577876132.97
2146073.0,1577876133.008
2145260.0,1577876133.048
2144681.0,1577876133.09
2144399.0,1577876133.129
2144165.0,1577876133.17
2144409.0,1577876133.211
2144293.0,1577876133.25
2144191.0,1577876133.288
2144303.0,1577876133.329
2144313.0,1577876133.369
2144618.0,1577876133.409
2144848.0,1577876133.45
2145316.0,1577876133.489
2144422.0,1577876133.53
2142300.0,1577876133.572
2139866.0,1577876133.61
2138216.0,1577876133.648
2137242.0,1577876133.69
2136245.0,1577876133.729
2135989.0,1577876133.77
2135550.0,1577876133.81
2134711.0,1577876133.85
2134158.0,1577876133.89
2133888.0,1577876133.931
2133777.0,1577876133.969
2134244.0,1577876134.009
2134294.0,1577876134.05
2134978.0,1577876134.089
2135244.0,1577876134.129
2135883.0,1577876134.171
2136708.0,1577876134.21
2137184.0,1577876134.25
2137947.0,1577876134.292
2138838.0,1577876134.329
2139633.0,1577876134.37
2139530.0,1577876134.41
2137962.0,1577876134.449
2136113.0,1577876134.49
2135062.0,1577876134.531
2134710.0,1577876134.571
2134209.0,1577876134.61
2134404.0,1577876134.65
2134688.0,1577876134.689
2134736.0,1577876134.729
2134393.0,1577876134.771
2134955.0,1577876134.81
2135364.0,1577876134.85
2136032.0,1577876134.891
2136840.0,1577876134.93
2137488.0,1577876134.971
2138148.0,1577876135.01
2138798.0,1577876135.049
2139679.0,1577876135.089
2140540.0,1577876135.131
2141531.0,1577876135.171
2142384.0,1577876135.21
2141900.0,1577876135.252
2140688.0,1577876135.291
2139557.0,1577876135.329
2139220.0,1577876135.371
2139226.0,1577876135.409
2139154.0,1577876135.45
2139329.0,1577876135.491
2139835.0,1577876135.53
2139813.0,1577876135.571
2139745.0,1577876135.612
2140251.0,1577876135.649
2140916.0,1577876135.689
2141457.0,1577876135.731
2142338.0,1577876135.771
2143174.0,1577876135.81
2143877.0,1577876135.851
2145031.0,1577876135.891
2145728.0,1577876135.931
2146862.0,1577876135.973
2148146.0,1577876136.009
2148470.0,1577876136.05
2147680.0,1577876136.091
2146044.0,1577876136.13
2145256.0,1577876136.171
2145118.0,1577876136.212
2144805.0,1577876136.251
2144738.0,1577876136.291
2145296.0,1577876136.33
2145404.0,1577876136.37
2145349.0,1577876136.41
2145533.0,1577876136.451
2146139.0,1577876136.49
2146882.0,1577876136.531
2147686.0,1577876136.573
2148850.0,1577876136.611
2149710.0,1577876136.651
2150646.0,1577876136.691
2151693.0,1577876136.73
2152556.0,1577876136.771
2153820.0,1577876136.811
2154877.0,1577876136.851
2155822.0,1577876136.891
2154938.0,1577876136.932
2153385.0,1577876136.972
2152490.0,1577876137.01
2152024.0,1577876137.051
2151757.0,1577876137.09
2151782.0,1577876137.13
2151856.0,1577876137.172
2151974.0,1577876137.211
2151996.0,1577876137.251
2152252.0,1577876137.292
2152650.0,1577876137.332
2153305.0,1577876137.37
2154155.0,1577876137.411
2155015.0,1577876137.45
2155728.0,1577876137.491
2156782.0,1577876137.532
2157811.0,1577876137.572
2158912.0,1577876137.611
2159920.0,1577876137.653
2160875.0,1577876137.692
2161536.0,1577876137.739
2160465.0,1577876137.781
2159758.0,1577876137.819
2159086.0,1577876137.86
2159158.0,1577876137.901
2159424.0,1577876137.94
2159639.0,1577876137.98
2160311.0,1577876138.021
2160421.0,1577876138.06
2160381.0,1577876138.1
2161254.0,1577876138.141
2161694.0,1577876138.181
2162529.0,1577876138.22
2163587.0,1577876138.258
2164416.0,1577876138.297
2165305.0,1577876138.338
2166435.0,1577876138.38
2167380.0,1577876138.418
2168427.0,1577876138.458
2169777.0,1577876138.5
2170202.0,1577876138.539
2169063.0,1577876138.58
2168142.0,1577876138.618
2167572.0,1577876138.658
2167376.0,1577876138.698
2167438.0,1577876138.739
2167962.0,1577876138.779
2168279.0,1577876138.819
2168587.0,1577876138.86
2168867.0,1577876138.899
2169537.0,1577876138.939
2170295.0,1577876138.979
2171469.0,1577876139.018
2172342.0,1577876139.058
2173308.0,1577876139.099
2174276.0,1577876139.139
2175543.0,1577876139.18
2176555.0,1577876139.22
2177850.0,1577876139.259
2179197.0,1577876139.298
2180515.0,1577876139.339
2181175.0,1577876139.379
2180525.0,1577876139.418
2179072.0,1577876139.46
2178273.0,1577876139.499
2177899.0,1577876139.539
2177458.0,1577876139.581
2177659.0,1577876139.62
2177569.0,1577876139.658
2177866.0,1577876139.699
2177767.0,1577876139.738
2177855.0,1577876139.779
2178574.0,1577876139.82
2179565.0,1577876139.859
2180450.0,1577876139.899
2181305.0,1577876139.941
2182371.0,1577876139.98
2183719.0,1577876140.018
2184696.0,1577876140.059
2185596.0,1577876140.098
2186685.0,1577876140.139
2187599.0,1577876140.181
2188831.0,1577876140.219
2189313.0,1577876140.259
2188659.0,1577876140.301
2187287.0,1577876140.34
2186213.0,1577876140.379
2186103.0,1577876140.419
2185860.0,1577876140.459
2185766.0,1577876140.499
2185971.0,1577876140.54
2186285.0,1577876140.58
2186143.0,1577876140.62
2186127.0,1577876140.661
2186989.0,1577876140.7
2188462.0,1577876140.738
2189117.0,1577876140.78
2190248.0,1577876140.819
2191162.0,1577876140.859
2191950.0,1577876140.9
2192885.0,1577876140.939
2193398.0,1577876140.98
2194046.0,1577876141.021
2195945.0,1577876141.06
2198187.0,1577876141.098
2199741.0,1577876141.14
2200558.0,1577876141.18
2199459.0,1577876141.219
2197766.0,1577876141.26
2196667.0,1577876141.3
2195891.0,1577876141.34
2195503.0,1577876141.382
2195110.0,1577876141.42
2195208.0,1577876141.459
2194663.0,1577876141.5
2194327.0,1577876141.539
2193963.0,1577876141.58
2194057.0,1577876141.621
2194510.0,1577876141.66
2195266.0,1577876141.7
2195569.0,1577876141.741
2196132.0,1577876141.781
2196894.0,1577876141.819
2197595.0,1577876141.86
2198342.0,1577876141.899
2199001.0,1577876141.94
2199691.0,1577876141.982
2200699.0,1577876142.02
2201215.0,1577876142.06
2200675.0,1577876142.102
2198896.0,1577876142.141
2198125.0,1577876142.18
2197460.0,1577876142.22
2196950.0,1577876142.259
2196734.0,1577876142.3
2197067.0,1577876142.341
2197015.0,1577876142.381
2196951.0,1577876142.42
2196731.0,1577876142.462
2196819.0,1577876142.501
2197778.0,1577876142.539
2198135.0,1577876142.581
2198855.0,1577876142.62
2199488.0,1577876142.66
2200448.0,1577876142.701
2201096.0,1577876142.74
2201874.0,1577876142.781
2202578.0,1577876142.822
2204368.0,1577876142.899
2203521.0,1577876142.861
2205318.0,1577876142.941
2206423.0,1577876142.98
2206517.0,1577876143.02
2205023.0,1577876143.061
2203591.0,1577876143.101
2203300.0,1577876143.141
2203038.0,1577876143.183
2202669.0,1577876143.221
2202809.0,1577876143.259
2202943.0,1577876143.301
2202988.0,1577876143.34
2202975.0,1577876143.381
2203005.0,1577876143.422
2203611.0,1577876143.461
2204102.0,1577876143.501
2204754.0,1577876143.542
2205307.0,1577876143.582
2205799.0,1577876143.62
2206634.0,1577876143.661
2207153.0,1577876143.7
2208043.0,1577876143.74
2208485.0,1577876143.782
2209631.0,1577876143.821
2210468.0,1577876143.861
2211178.0,1577876143.902
2211556.0,1577876143.941
2210628.0,1577876143.98
2208986.0,1577876144.021
2208492.0,1577876144.06
2208336.0,1577876144.101
2208003.0,1577876144.142
2208012.0,1577876144.182
2208334.0,1577876144.221
2208448.0,1577876144.263
2208372.0,1577876144.302
2208399.0,1577876144.34
2208920.0,1577876144.382
2209488.0,1577876144.42
2210216.0,1577876144.461
2210758.0,1577876144.502
2211413.0,1577876144.541
2212277.0,1577876144.582
2212926.0,1577876144.623
2213591.0,1577876144.662
2214577.0,1577876144.7
2215305.0,1577876144.741
2216141.0,1577876144.781
2217136.0,1577876144.821
2218132.0,1577876144.862
2218133.0,1577876144.901
2217137.0,1577876144.942
2216208.0,1577876144.984
2215952.0,1577876145.022
2216062.0,1577876145.06
2216041.0,1577876145.102
2216523.0,1577876145.141
2216761.0,1577876145.182
2216899.0,1577876145.222
2217274.0,1577876145.261
2217470.0,1577876145.302
2217995.0,1577876145.343
2218598.0,1577876145.383
2219477.0,1577876145.42
2220353.0,1577876145.462
2220738.0,1577876145.501
2221719.0,1577876145.541
2222437.0,1577876145.583
2223447.0,1577876145.622
2224200.0,1577876145.662
2225181.0,1577876145.703
2226018.0,1577876145.742
2226866.0,1577876145.781
2227895.0,1577876145.822
2227688.0,1577876145.861
2226752.0,1577876145.901
2225665.0,1577876145.943
2225399.0,1577876145.982
2225149.0,1577876146.022
2225126.0,1577876146.063
2225530.0,1577876146.103
2225484.0,1577876146.141
2225305.0,1577876146.183
2225265.0,1577876146.221
2225549.0,1577876146.261
2226046.0,1577876146.303
2226327.0,1577876146.342
2226854.0,1577876146.383
2227843.0,1577876146.424
2228138.0,1577876146.463
2228747.0,1577876146.501
2229265.0,1577876146.542
2230345.0,1577876146.582
2230960.0,1577876146.622
2231859.0,1577876146.663
2232768.0,1577876146.702
2233660.0,1577876146.742
2234457.0,1577876146.784
2234006.0,1577876146.823
2232488.0,1577876146.861
2231528.0,1577876146.902
2230989.0,1577876146.942
2230454.0,1577876146.983
2230370.0,1577876147.023
2230178.0,1577876147.062
2230186.0,1577876147.103
2229545.0,1577876147.144
2229414.0,1577876147.184
2229077.0,1577876147.221
2229376.0,1577876147.263
2229235.0,1577876147.302
2229820.0,1577876147.342
2230078.0,1577876147.384
2230262.0,1577876147.423
2230707.0,1577876147.463
2231031.0,1577876147.504
2231522.0,1577876147.543
2231787.0,1577876147.582
2232436.0,1577876147.623
2233121.0,1577876147.662
2233468.0,1577876147.702
2233004.0,1577876147.743
2231054.0,1577876147.783
2229289.0,1577876147.823
2228604.0,1577876147.864
2227878.0,1577876147.903
2227272.0,1577876147.942
2227186.0,1577876147.984
2226628.0,1577876148.022
2225914.0,1577876148.062
2225251.0,1577876148.104
2225060.0,1577876148.143
2224923.0,1577876148.184
2225041.0,1577876148.224
2225179.0,1577876148.264
2225216.0,1577876148.302
2225387.0,1577876148.343
2225876.0,1577876148.383
2225830.0,1577876148.422
2226091.0,1577876148.464
2226654.0,1577876148.503
2226929.0,1577876148.543
2227187.0,1577876148.585
2227877.0,1577876148.624
2226689.0,1577876148.662
2224271.0,1577876148.703
2221649.0,1577876148.742
2220397.0,1577876148.783
2218675.0,1577876148.824
2217396.0,1577876148.863
2216143.0,1577876148.903
2215478.0,1577876148.945
2213980.0,1577876148.985
2212848.0,1577876149.022
2212093.0,1577876149.063
2211333.0,1577876149.103
2210964.0,1577876149.143
2210932.0,1577876149.185
2210502.0,1577876149.223
2210188.0,1577876149.264
2209861.0,1577876149.305
2209893.0,1577876149.344
2209563.0,1577876149.383
2209382.0,1577876149.423
2209002.0,1577876149.463
2208686.0,1577876149.503
2208840.0,1577876149.544
2207780.0,1577876149.584
2204663.0,1577876149.624
2201235.0,1577876149.665
2198496.0,1577876149.704
2195682.0,1577876149.738
2193138.0,1577876149.78
2190999.0,1577876149.819
2188802.0,1577876149.859
2186734.0,1577876149.9
2184294.0,1577876149.939
2182261.0,1577876149.98
2180739.0,1577876150.02
2179311.0,1577876150.059
2178363.0,1577876150.099
2177358.0,1577876150.14
2176254.0,1577876150.18
2175284.0,1577876150.22
2174646.0,1577876150.26
2174043.0,1577876150.297
2173679.0,1577876150.337
2173045.0,1577876150.379
2172688.0,1577876150.417
2172308.0,1577876150.458
2172162.0,1577876150.499
2171951.0,1577876150.538
2169998.0,1577876150.579
2165800.0,1577876150.62
2161645.0,1577876150.657
2158542.0,1577876150.697
2155817.0,1577876150.738
2153233.0,1577876150.778
2151111.0,1577876150.818
2149094.0,1577876150.859
2146679.0,1577876150.898
2144277.0,1577876150.939
2142591.0,1577876150.981
2141427.0,1577876151.017
2140043.0,1577876151.057
2139209.0,1577876151.099
2138327.0,1577876151.138
2137514.0,1577876151.179
2136910.0,1577876151.219
2136215.0,1577876151.258
2135921.0,1577876151.299
2135420.0,1577876151.34
2135247.0,1577876151.378
2135190.0,1577876151.417
2135090.0,1577876151.459
2134990.0,1577876151.498
2134778.0,1577876151.538
2132245.0,1577876151.58
2128040.0,1577876151.619
2124568.0,1577876151.659
2121724.0,1577876151.7
2119344.0,1577876151.737
2117164.0,1577876151.778
2115490.0,1577876151.819
2113898.0,1577876151.858
2111972.0,1577876151.898
2110245.0,1577876151.94
2109096.0,1577876151.979
2108219.0,1577876152.019
2107584.0,1577876152.06
2107026.0,1577876152.097
2106685.0,1577876152.138
2106590.0,1577876152.18
2106075.0,1577876152.218
2105998.0,1577876152.258
2105889.0,1577876152.3
2105860.0,1577876152.339
2105883.0,1577876152.38
2105973.0,1577876152.42
2106378.0,1577876152.458
2106281.0,1577876152.498
2103558.0,1577876152.539
2099289.0,1577876152.579
2095962.0,1577876152.619
2093716.0,1577876152.66
2091275.0,1577876152.699
2089306.0,1577876152.739
2088050.0,1577876152.781
2086642.0,1577876152.818
2085029.0,1577876152.858
2083529.0,1577876152.899
2082925.0,1577876152.938
2082208.0,1577876152.979
2081822.0,1577876153.02
2081519.0,1577876153.059
2081273.0,1577876153.1
2081418.0,1577876153.139
2081456.0,1577876153.179
2081878.0,1577876153.218
2081901.0,1577876153.26
2082244.0,1577876153.299
2082722.0,1577876153.339
2083601.0,1577876153.381
2084286.0,1577876153.42
2085079.0,1577876153.46
2085316.0,1577876153.499
2082598.0,1577876153.538
2079012.0,1577876153.579
2076738.0,1577876153.62
2075018.0,1577876153.659
2073453.0,1577876153.699
2072349.0,1577876153.741
2072092.0,1577876153.78
2071344.0,1577876153.82
2070811.0,1577876153.859
2070179.0,1577876153.898
2069921.0,1577876153.939
2070507.0,1577876153.981
2071411.0,1577876154.019
2072473.0,1577876154.06
2074213.0,1577876154.101
2075973.0,1577876154.14
2078599.0,1577876154.181
2081700.0,1577876154.219
2084271.0,1577876154.259
2086394.0,1577876154.299
2088115.0,1577876154.34
2089747.0,1577876154.38
2091316.0,1577876154.42
2092569.0,1577876154.461
2093337.0,1577876154.5
2091669.0,1577876154.538
2088527.0,1577876154.58
2086504.0,1577876154.619
2085135.0,1577876154.659
2084698.0,1577876154.7
2084131.0,1577876154.74
2084340.0,1577876154.821
2083031.0,1577876154.899
2084510.0,1577876154.781
2083536.0,1577876154.86
2082814.0,1577876154.94
2082898.0,1577876154.98
2083163.0,1577876155.019
2083674.0,1577876155.061
2084343.0,1577876155.1
2085275.0,1577876155.14
2086442.0,1577876155.182
2087037.0,1577876155.221
2087670.0,1577876155.259
2088346.0,1577876155.3
2089205.0,1577876155.339
2090079.0,1577876155.38
2090857.0,1577876155.421
2091758.0,1577876155.5
2091801.0,1577876155.46
2089536.0,1577876155.542
2086487.0,1577876155.582
2084347.0,1577876155.619
2083544.0,1577876155.66
2082294.0,1577876155.699
2081625.0,1577876155.74
2081603.0,1577876155.782
2080893.0,1577876155.82
2079960.0,1577876155.902
2080302.0,1577876155.86
2080365.0,1577876155.98
2080046.0,1577876155.941
2081582.0,1577876156.06
2080896.0,1577876156.021
2082304.0,1577876156.1
2082779.0,1577876156.141
2083665.0,1577876156.181
2084657.0,1577876156.221
2085821.0,1577876156.262
2087226.0,1577876156.301
2088463.0,1577876156.339
2089943.0,1577876156.381
2091555.0,1577876156.42
2092820.0,1577876156.46
2091842.0,1577876156.501
2089169.0,1577876156.541
2086993.0,1577876156.582
2085861.0,1577876156.622
2085366.0,1577876156.661
2086392.0,1577876156.699
2088449.0,1577876156.741
2090523.0,1577876156.781
2091216.0,1577876156.82
2092551.0,1577876156.862
2094608.0,1577876156.901
2096961.0,1577876156.941
2099281.0,1577876156.983
2101758.0,1577876157.021
2104729.0,1577876157.06
2107614.0,1577876157.101
2110675.0,1577876157.14
2113652.0,1577876157.181
2116104.0,1577876157.222
2118208.0,1577876157.261
2120718.0,1577876157.301
2123616.0,1577876157.342
2126017.0,1577876157.382
2128265.0,1577876157.42
2130854.0,1577876157.461
2132787.0,1577876157.5
2131621.0,1577876157.541
2130081.0,1577876157.583
2129600.0,1577876157.621
2129678.0,1577876157.661
2129678.0,1577876157.703
2129547.0,1577876157.742
2129886.0,1577876157.781
2130286.0,1577876157.821
2130851.0,1577876157.86
2130950.0,1577876157.901
2131445.0,1577876157.942
2131880.0,1577876157.982
2132383.0,1577876158.022
2132845.0,1577876158.063
2133631.0,1577876158.102
2134358.0,1577876158.14
2135110.0,1577876158.182
2136161.0,1577876158.221
2137034.0,1577876158.261
2138060.0,1577876158.302
2139520.0,1577876158.341
2140882.0,1577876158.382
2142116.0,1577876158.423
2143928.0,1577876158.462
2144634.0,1577876158.5
2142536.0,1577876158.542
2139960.0,1577876158.581
2138410.0,1577876158.621
2137639.0,1577876158.662
2136890.0,1577876158.702
2136329.0,1577876158.742
2136440.0,1577876158.784
2135973.0,1577876158.822
2135587.0,1577876158.861
2135136.0,1577876158.902
2135712.0,1577876158.941
2135993.0,1577876158.982
2136617.0,1577876159.023
2137456.0,1577876159.062
2138101.0,1577876159.102
2138811.0,1577876159.143
2139406.0,1577876159.183
2140076.0,1577876159.221
2141285.0,1577876159.262
2142081.0,1577876159.301
2142960.0,1577876159.341
2143773.0,1577876159.383
2145072.0,1577876159.422
2145364.0,1577876159.462
2143209.0,1577876159.504
2139911.0,1577876159.543
2137540.0,1577876159.582
2135907.0,1577876159.622
2134826.0,1577876159.661
2133584.0,1577876159.702
2132931.0,1577876159.743
2132207.0,1577876159.783
2130835.0,1577876159.822
2129998.0,1577876159.864
2129587.0,1577876159.903
2129612.0,1577876159.941
2129765.0,1577876159.983
2129897.0,1577876160.022
2130340.0,1577876160.062
2130598.0,1577876160.103
2130955.0,1577876160.142
2131455.0,1577876160.183
2132085.0,1577876160.224
2132324.0,1577876160.263
2133202.0,1577876160.301
2133764.0,1577876160.343
2134642.0,1577876160.382
2134699.0,1577876160.422
2132115.0,1577876160.463
2128027.0,1577876160.502
2125222.0,1577876160.543
2123010.0,1577876160.584
2121275.0,1577876160.623
2119758.0,1577876160.663
2118697.0,1577876160.702
2117769.0,1577876160.742
2116306.0,1577876160.783
2114843.0,1577876160.823
2114306.0,1577876160.862
2113925.0,1577876160.903
2113842.0,1577876160.944
2113609.0,1577876160.984
2113428.0,1577876161.023
2113483.0,1577876161.063
2113544.0,1577876161.102
2113674.0,1577876161.142
2114449.0,1577876161.184
2114914.0,1577876161.223
2115373.0,1577876161.263
2115865.0,1577876161.304
2116536.0,1577876161.343
2115984.0,1577876161.384
2112410.0,1577876161.423
2108503.0,1577876161.462
2105745.0,1577876161.502
2103821.0,1577876161.544
2101764.0,1577876161.583
2100668.0,1577876161.623
2099650.0,1577876161.664
2098369.0,1577876161.704
2096825.0,1577876161.749
2095985.0,1577876161.791
2095602.0,1577876161.829
2095508.0,1577876161.87
2095552.0,1577876161.911
2095461.0,1577876161.95
2095550.0,1577876161.99
2095849.0,1577876162.031
2095799.0,1577876162.07
2096359.0,1577876162.11
2096295.0,1577876162.151
2096497.0,1577876162.191
2097005.0,1577876162.23
2097259.0,1577876162.268
2097378.0,1577876162.307
2094795.0,1577876162.348
2090536.0,1577876162.39
2087125.0,1577876162.428
2085123.0,1577876162.469
2082967.0,1577876162.51
2081137.0,1577876162.549
2079607.0,1577876162.588
2078274.0,1577876162.629
2076696.0,1577876162.668
2075122.0,1577876162.708
2074234.0,1577876162.749
2073520.0,1577876162.789
2073238.0,1577876162.829
2072799.0,1577876162.87
2073097.0,1577876162.909
2073037.0,1577876162.947
2073442.0,1577876162.989
2074050.0,1577876163.028
2074613.0,1577876163.068
2075292.0,1577876163.11
2076040.0,1577876163.149
2076768.0,1577876163.19
2078030.0,1577876163.23
2079107.0,1577876163.27
2077581.0,1577876163.308
2074342.0,1577876163.349
2071613.0,1577876163.389
2070009.0,1577876163.428
2068872.0,1577876163.47
2067350.0,1577876163.509
2066848.0,1577876163.549
2066320.0,1577876163.591
2065587.0,1577876163.63
2064535.0,1577876163.668
2064328.0,1577876163.709
2064622.0,1577876163.748
2065064.0,1577876163.789
2065301.0,1577876163.83
2065910.0,1577876163.869
2066391.0,1577876163.909
2067254.0,1577876163.951
2067976.0,1577876163.991
2068744.0,1577876164.028
2069758.0,1577876164.069
2071917.0,1577876164.149
2070607.0,1577876164.108
2073708.0,1577876164.229
2073163.0,1577876164.191
2071854.0,1577876164.269
2068983.0,1577876164.311
2067270.0,1577876164.35
2066529.0,1577876164.389
2065606.0,1577876164.429
2064951.0,1577876164.469
2065028.0,1577876164.509
2064590.0,1577876164.55
2064125.0,1577876164.59
2063780.0,1577876164.63
2064086.0,1577876164.671
2064509.0,1577876164.71
2065407.0,1577876164.748
2066156.0,1577876164.79
2067036.0,1577876164.829
2067930.0,1577876164.869
2069618.0,1577876164.949
2070549.0,1577876164.991
2071617.0,1577876165.031
2072921.0,1577876165.07
2074225.0,1577876165.108
2075575.0,1577876165.15
2075371.0,1577876165.19
2072781.0,1577876165.229
2070336.0,1577876165.271
2069265.0,1577876165.31
2068284.0,1577876165.35
2068801.0,1577876164.91
2067276.0,1577876165.392
2066933.0,1577876165.431
2067075.0,1577876165.469
2066491.0,1577876165.51
2066309.0,1577876165.549
2066307.0,1577876165.59
2066608.0,1577876165.631
2067236.0,1577876165.67
2068099.0,1577876165.71
2068965.0,1577876165.752
2069837.0,1577876165.791
2070890.0,1577876165.829
2072001.0,1577876165.87
2073043.0,1577876165.909
2074401.0,1577876165.95
2075807.0,1577876165.992
2077149.0,1577876166.03
2078526.0,1577876166.07
2080239.0,1577876166.112
2081694.0,1577876166.151
2081888.0,1577876166.19
2079809.0,1577876166.23
2077832.0,1577876166.27
2077016.0,1577876166.31
2076517.0,1577876166.351
2075938.0,1577876166.391
2075888.0,1577876166.431
2076064.0,1577876166.472
2075966.0,1577876166.511
2075951.0,1577876166.549
2076342.0,1577876166.591
2076863.0,1577876166.63
2077866.0,1577876166.67
2078665.0,1577876166.711
2079910.0,1577876166.75
2080901.0,1577876166.791
2082088.0,1577876166.832
2083391.0,1577876166.871
2084670.0,1577876166.911
2086008.0,1577876166.95
2087460.0,1577876166.99
2089228.0,1577876167.03
2090653.0,1577876167.071
2092119.0,1577876167.11
2093798.0,1577876167.151
2094449.0,1577876167.193
2092870.0,1577876167.231
2090976.0,1577876167.271
2090201.0,1577876167.311
2089993.0,1577876167.35
2089668.0,1577876167.391
2089918.0,1577876167.431
2090228.0,1577876167.471
2090458.0,1577876167.511
2090522.0,1577876167.552
2090483.0,1577876167.592
2091079.0,1577876167.632
2092824.0,1577876167.71
2091829.0,1577876167.671
2093964.0,1577876167.75
2095306.0,1577876167.792
2096271.0,1577876167.831
2097534.0,1577876167.871
2098768.0,1577876167.912
2099880.0,1577876167.951
2101151.0,1577876167.992
2102716.0,1577876168.031
2103851.0,1577876168.07
2105265.0,1577876168.11
2106168.0,1577876168.152
2104973.0,1577876168.192
2102871.0,1577876168.231
2102028.0,1577876168.272
2101619.0,1577876168.312
2101262.0,1577876168.352
2101321.0,1577876168.392
2101727.0,1577876168.43
2101868.0,1577876168.471
2101748.0,1577876168.512
2102015.0,1577876168.551
2102445.0,1577876168.592
2103327.0,1577876168.633
2104075.0,1577876168.672
2104978.0,1577876168.712
2106192.0,1577876168.751
2107273.0,1577876168.791
2108061.0,1577876168.831
2109457.0,1577876168.872
2110271.0,1577876168.911
2111524.0,1577876168.952
2113056.0,1577876168.994
2114338.0,1577876169.032
2115410.0,1577876169.072
2116767.0,1577876169.112
2116388.0,1577876169.151
2114091.0,1577876169.192
2112278.0,1577876169.232
2111444.0,1577876169.271
2111059.0,1577876169.312
2110744.0,1577876169.393
2110504.0,1577876169.472
2110323.0,1577876169.511
2110742.0,1577876169.433
2110490.0,1577876169.353
2110908.0,1577876169.593
2112202.0,1577876169.672
2113991.0,1577876169.752
2112864.0,1577876169.713
2110454.0,1577876169.551
2111551.0,1577876169.632
2114818.0,1577876169.793
2115784.0,1577876169.832
2117115.0,1577876169.871
2118546.0,1577876169.911
2120017.0,1577876169.953
2121551.0,1577876169.992
2122821.0,1577876170.032
2124635.0,1577876170.073
2125582.0,1577876170.113
2124010.0,1577876170.153
2122170.0,1577876170.193
2121024.0,1577876170.231
2120915.0,1577876170.271
2120431.0,1577876170.313
2120306.0,1577876170.352
2120563.0,1577876170.393
2120728.0,1577876170.434
2120267.0,1577876170.473
2120227.0,1577876170.513
2120614.0,1577876170.552
2121394.0,1577876170.592
2121998.0,1577876170.632
2122715.0,1577876170.673
2123508.0,1577876170.712
2124048.0,1577876170.752
2124719.0,1577876170.794
2125574.0,1577876170.833
2126667.0,1577876170.873
2127427.0,1577876170.912
2128385.0,1577876170.952
2129139.0,1577876170.993
2130284.0,1577876171.033
2130553.0,1577876171.072
2128537.0,1577876171.113
2126075.0,1577876171.154
2124507.0,1577876171.194
2123572.0,1577876171.233
2123283.0,1577876171.273
2122845.0,1577876171.312
2123236.0,1577876171.352
2122947.0,1577876171.394
2122464.0,1577876171.433
2122361.0,1577876171.473
2122641.0,1577876171.514
2123010.0,1577876171.553
2123712.0,1577876171.594
2124376.0,1577876171.633
2125042.0,1577876171.672
2125711.0,1577876171.712
2126610.0,1577876171.753
2127513.0,1577876171.793
2128144.0,1577876171.833
2129204.0,1577876171.874
2130059.0,1577876171.913
2131147.0,1577876171.954
2132544.0,1577876171.994
2132292.0,1577876172.032
2129898.0,1577876172.072
2127128.0,1577876172.114
2125284.0,1577876172.153
2124243.0,1577876172.194
2123171.0,1577876172.234
2122182.0,1577876172.274
2121780.0,1577876172.314
2121026.0,1577876172.353
2120394.0,1577876172.393
2119891.0,1577876172.433
2119634.0,1577876172.474
2119732.0,1577876172.513
2120107.0,1577876172.553
2120511.0,1577876172.595
2120756.0,1577876172.634
2121434.0,1577876172.674
2121695.0,1577876172.713
2122594.0,1577876172.752
2122882.0,1577876172.793
2123966.0,1577876172.834
2124547.0,1577876172.873
2125604.0,1577876172.913
2126366.0,1577876172.955
2125596.0,1577876172.995
2122342.0,1577876173.034
2119584.0,1577876173.073
2117616.0,1577876173.113
2116274.0,1577876173.153
2114993.0,1577876173.195
2114282.0,1577876173.233
2113755.0,1577876173.274
2112742.0,1577876173.315
2111681.0,1577876173.354
2110796.0,1577876173.395
2110546.0,1577876173.434
2110487.0,1577876173.473
2110540.0,1577876173.513
2110598.0,1577876173.554
2110407.0,1577876173.594
2110610.0,1577876173.634
2110758.0,1577876173.675
2110724.0,1577876173.714
2111165.0,1577876173.759
2111542.0,1577876173.801
2111947.0,1577876173.839
2112408.0,1577876173.879
2112790.0,1577876173.92
2111545.0,1577876173.959
2108111.0,1577876174.0
2104760.0,1577876174.04
2102846.0,1577876174.079
2101340.0,1577876174.12
2099972.0,1577876174.161
2099151.0,1577876174.2
2098117.0,1577876174.24
2097161.0,1577876174.281
2096277.0,1577876174.317
2095590.0,1577876174.357
2095602.0,1577876174.399
2095417.0,1577876174.438
2095744.0,1577876174.478
2095869.0,1577876174.519
2096158.0,1577876174.559
2096849.0,1577876174.6
2097028.0,1577876174.64
2098261.0,1577876174.718
2099764.0,1577876174.799
2101104.0,1577876174.88
2100494.0,1577876174.838
2098733.0,1577876174.759
2097538.0,1577876174.677
2099532.0,1577876174.919
2096026.0,1577876174.959
2091567.0,1577876175.037
2093126.0,1577876175.001
2089950.0,1577876175.078
2088358.0,1577876175.119
2087470.0,1577876175.158
2085815.0,1577876175.199
2084221.0,1577876175.24
2082387.0,1577876175.279
2081175.0,1577876175.319
2080018.0,1577876175.361
2079412.0,1577876175.398
2078611.0,1577876175.438
2077749.0,1577876175.479
2076822.0,1577876175.518
2075700.0,1577876175.56
2075271.0,1577876175.598
2074829.0,1577876175.636
2074305.0,1577876175.676
2073892.0,1577876175.718
2073612.0,1577876175.756
2073211.0,1577876175.797
2073048.0,1577876175.838
2072071.0,1577876175.877
2068526.0,1577876175.917
2064306.0,1577876175.958
2060988.0,1577876175.997
2059227.0,1577876176.037
2057130.0,1577876176.078
2055655.0,1577876176.117
2054718.0,1577876176.157
2053517.0,1577876176.199
2052451.0,1577876176.237
2051404.0,1577876176.277
2050967.0,1577876176.318
2050992.0,1577876176.357
2051143.0,1577876176.398
2051375.0,1577876176.438
2051546.0,1577876176.478
2051927.0,1577876176.518
2052233.0,1577876176.559
2052887.0,1577876176.598
2053364.0,1577876176.638
2053778.0,1577876176.679
2054515.0,1577876176.718
2055173.0,1577876176.758
2056054.0,1577876176.8
2056951.0,1577876176.838
2055937.0,1577876176.878
2052971.0,1577876176.919
2050023.0,1577876176.958
2048389.0,1577876176.999
2046495.0,1577876177.079
2047351.0,1577876177.04
2045992.0,1577876177.119
2045488.0,1577876177.16
2044453.0,1577876177.2
2043907.0,1577876177.239
2043612.0,1577876177.28
2043705.0,1577876177.319
2043967.0,1577876177.359
2044556.0,1577876177.401
2045110.0,1577876177.439
2045494.0,1577876177.48
2045954.0,1577876177.521
2046497.0,1577876177.56
2047244.0,1577876177.6
2048496.0,1577876177.641
2049617.0,1577876177.68
2051655.0,1577876177.72
2056553.0,1577876177.761
2060718.0,1577876177.801
2061740.0,1577876177.84
2061434.0,1577876177.882
2061661.0,1577876177.921
2062639.0,1577876177.961
2063465.0,1577876178.003
2064360.0,1577876178.041
2065090.0,1577876178.081
2065813.0,1577876178.122
2065946.0,1577876178.161
2066095.0,1577876178.202
2066388.0,1577876178.242
2067145.0,1577876178.281
2067817.0,1577876178.322
2068754.0,1577876178.402
2068200.0,1577876178.363
2071568.0,1577876178.483
2069533.0,1577876178.442
2075153.0,1577876178.562
2073668.0,1577876178.522
2076448.0,1577876178.604
2078409.0,1577876178.642
2080417.0,1577876178.682
2081890.0,1577876178.723
2081533.0,1577876178.762
2079178.0,1577876178.803
2075984.0,1577876178.844
2073719.0,1577876178.883
2072168.0,1577876178.923
2070667.0,1577876178.964
2069772.0,1577876179.004
2069332.0,1577876179.043
2068629.0,1577876179.084
2067642.0,1577876179.123
2067251.0,1577876179.205
2067330.0,1577876179.163
2067486.0,1577876179.243
2068024.0,1577876179.284
2068749.0,1577876179.325
2069586.0,1577876179.364
2071101.0,1577876179.445
2070305.0,1577876179.405
2071451.0,1577876179.484
2071701.0,1577876179.524
2071953.0,1577876179.565
2072353.0,1577876179.605
2072944.0,1577876179.644
2073553.0,1577876179.686
2073894.0,1577876179.725
2071716.0,1577876179.765
2068236.0,1577876179.807
2065354.0,1577876179.845
2063018.0,1577876179.885
2060696.0,1577876179.926
2058322.0,1577876179.965
2056174.0,1577876180.006
2053606.0,1577876180.046
2050512.0,1577876180.085
2047778.0,1577876180.126
2045124.0,1577876180.167
2042789.0,1577876180.206
2040507.0,1577876180.246
2038519.0,1577876180.287
2036676.0,1577876180.326
2034936.0,1577876180.366
2033213.0,1577876180.408
2031799.0,1577876180.446
2030612.0,1577876180.486
2029584.0,1577876180.528
2028873.0,1577876180.567
2027955.0,1577876180.607
2027415.0,1577876180.648
2026750.0,1577876180.687
2024381.0,1577876180.727
2020352.0,1577876180.768
2016626.0,1577876180.808
2014092.0,1577876180.847
2011762.0,1577876180.888
2009605.0,1577876180.927
2007825.0,1577876180.967
2006227.0,1577876181.009
2004127.0,1577876181.048
2002313.0,1577876181.088
2000620.0,1577876181.129
1999244.0,1577876181.168
1997932.0,1577876181.209
1997190.0,1577876181.249
1997257.0,1577876181.288
1997037.0,1577876181.328
1996876.0,1577876181.37
1996481.0,1577876181.409
1996420.0,1577876181.449
1996216.0,1577876181.49
1996050.0,1577876181.529
1996485.0,1577876181.569
1996692.0,1577876181.611
1996759.0,1577876181.649
1995120.0,1577876181.689
1992488.0,1577876181.73
1990618.0,1577876181.769
1989268.0,1577876181.81
1988121.0,1577876181.851
1987199.0,1577876181.89
1987188.0,1577876181.93
1987378.0,1577876181.971
1987371.0,1577876182.011
1987567.0,1577876182.05
1987745.0,1577876182.091
1987970.0,1577876182.13
1988692.0,1577876182.17
1989224.0,1577876182.212
1989656.0,1577876182.251
1990176.0,1577876182.291
1990746.0,1577876182.332
1991758.0,1577876182.371
1992524.0,1577876182.412
1993375.0,1577876182.452
1994402.0,1577876182.491
1995625.0,1577876182.531
1996967.0,1577876182.572
1997806.0,1577876182.612
1996693.0,1577876182.652
1994679.0,1577876182.693
1993067.0,1577876182.732
1992284.0,1577876182.772
1991667.0,1577876182.814
1991180.0,1577876182.852
1990945.0,1577876182.892
1990895.0,1577876182.933
1990531.0,1577876182.973
1990330.0,1577876183.008
1990559.0,1577876183.045
1991084.0,1577876183.082
1991378.0,1577876183.122
1992146.0,1577876183.163
1992758.0,1577876183.203
1993400.0,1577876183.243
1993992.0,1577876183.284
1994962.0,1577876183.323
1995643.0,1577876183.363
1996536.0,1577876183.403
1997583.0,1577876183.442
1998576.0,1577876183.482
1999807.0,1577876183.524
1999658.0,1577876183.563
1998437.0,1577876183.604
1997184.0,1577876183.644
1996512.0,1577876183.684
1996247.0,1577876183.722
1996237.0,1577876183.763
1996607.0,1577876183.803
1996950.0,1577876183.843
1996994.0,1577876183.884
1996941.0,1577876183.923
1998309.0,1577876184.005
1997437.0,1577876183.963
1999657.0,1577876184.082
1998902.0,1577876184.044
2000851.0,1577876184.123
2002020.0,1577876184.163
2003038.0,1577876184.204
2004327.0,1577876184.244
2006263.0,1577876184.283
2009551.0,1577876184.365
2007792.0,1577876184.324
2011387.0,1577876184.403
2013289.0,1577876184.442
2013257.0,1577876184.484
2012729.0,1577876184.523
2012963.0,1577876184.563
2015521.0,1577876184.684
2013942.0,1577876184.605
2014461.0,1577876184.644
2016512.0,1577876184.725
2017306.0,1577876184.762
2017875.0,1577876184.803
2018435.0,1577876184.844
2019527.0,1577876184.883
2020638.0,1577876184.923
2022160.0,1577876184.965
2023438.0,1577876185.005
2024648.0,1577876185.044
2026628.0,1577876185.084
2028717.0,1577876185.123
2031257.0,1577876185.163
2034321.0,1577876185.205
2037109.0,1577876185.243
2040373.0,1577876185.284
2043755.0,1577876185.325
2046489.0,1577876185.364
2047904.0,1577876185.405
2049898.0,1577876185.444
2053084.0,1577876185.483
2057620.0,1577876185.523
2062235.0,1577876185.565
2066490.0,1577876185.604
2071612.0,1577876185.644
2076178.0,1577876185.685
2079657.0,1577876185.724
2082987.0,1577876185.763
2086283.0,1577876185.802
2090062.0,1577876185.841
2094692.0,1577876185.88
2099639.0,1577876185.919
2104313.0,1577876185.958
2107482.0,1577876185.997
2109947.0,1577876186.036
2113617.0,1577876186.075
2117214.0,1577876186.114
2120806.0,1577876186.153
2123508.0,1577876186.192
2125649.0,1577876186.231
2127138.0,1577876186.27
2127914.0,1577876186.309
2128855.0,1577876186.348
2129817.0,1577876186.387
2130503.0,1577876186.426
2130360.0,1577876186.465
2130197.0,1577876186.504
2130307.0,1577876186.543
2130284.0,1577876186.582
2130383.0,1577876186.621
2131345.0,1577876186.66
2132449.0,1577876186.699
2133184.0,1577876186.738
2134000.0,1577876186.777
2134522.0,1577876186.816
2136044.0,1577876186.855
2137438.0,1577876186.894
2138761.0,1577876186.933
2139669.0,1577876186.972
2140179.0,1577876187.011
2140539.0,1577876187.05
2139872.0,1577876187.089
2138193.0,1577876187.128
2137133.0,1577876187.167
2136979.0,1577876187.206
2136626.0,1577876187.245
2135877.0,1577876187.285
2134509.0,1577876187.325
2133873.0,1577876187.365
2134014.0,1577876187.405
2135176.0,1577876187.445
2136072.0,1577876187.485
2136737.0,1577876187.525
2137273.0,1577876187.565
2137266.0,1577876187.605
2137834.0,1577876187.645
2138033.0,1577876187.685
2138345.0,1577876187.725
2138279.0,1577876187.765
2138886.0,1577876187.805
2139545.0,1577876187.845
2140597.0,1577876187.885
2140853.0,1577876187.925
2140007.0,1577876187.965
2139103.0,1577876188.005
2138829.0,1577876188.045
2139091.0,1577876188.085
2139441.0,1577876188.125
2140435.0,1577876188.165
2140824.0,1577876188.205
2141904.0,1577876188.245
2142308.0,1577876188.285
2142962.0,1577876188.325
2143406.0,1577876188.365
2143841.0,1577876188.405
2144947.0,1577876188.445
2145794.0,1577876188.485
2146815.0,1577876188.525
2147795.0,1577876188.565
2148756.0,1577876188.605
2149978.0,1577876188.645
2151470.0,1577876188.685
2153140.0,1577876188.725
2155190.0,1577876188.765
2157104.0,1577876188.805
2158968.0,1577876188.845
2159464.0,1577876188.885
2159280.0,1577876188.925
2159466.0,1577876188.965
2160068.0,1577876189.005
2160927.0,1577876189.045
2161046.0,1577876189.085
2160636.0,1577876189.125
2160487.0,1577876189.165
2161317.0,1577876189.205
2161776.0,1577876189.245
2162707.0,1577876189.285
2164051.0,1577876189.325
2165473.0,1577876189.365
2165856.0,1577876189.405
2166075.0,1577876189.445
2166799.0,1577876189.485
2168071.0,1577876189.525
2169122.0,1577876189.565
2169833.0,1577876189.605
2170603.0,1577876189.645
2170576.0,1577876189.685
2170125.0,1577876189.725
2170345.0,1577876189.765
2170838.0,1577876189.805
2169137.0,1577876189.845
2167883.0,1577876189.885
2167204.0,1577876189.925
2166852.0,1577876189.965
2165994.0,1577876190.005
2165586.0,1577876190.045
2164860.0,1577876190.085
2164278.0,1577876190.125
2164186.0,1577876190.165
2164303.0,1577876190.205
2164634.0,1577876190.245
2165920.0,1577876190.285
2166834.0,1577876190.325
2167586.0,1577876190.365
2168802.0,1577876190.405
2169926.0,1577876190.445
2170718.0,1577876190.485
2171789.0,1577876190.525
2172264.0,1577876190.565
2172689.0,1577876190.605
2173644.0,1577876190.645
2174567.0,1577876190.685
2175216.0,1577876190.725
2174286.0,1577876190.765
2172387.0,1577876190.805
2170607.0,1577876190.845
2168829.0,1577876190.885
2167351.0,1577876190.925
2166783.0,1577876190.965
2166296.0,1577876191.005
2165548.0,1577876191.045
2165915.0,1577876191.085
2166123.0,1577876191.125
2166358.0,1577876191.165
2166376.0,1577876191.205
2165991.0,1577876191.245
2165877.0,1577876191.285
2166544.0,1577876191.325
2167608.0,1577876191.365
2169341.0,1577876191.405
2172363.0,1577876191.445
2174004.0,1577876191.485
2174124.0,1577876191.525
2173660.0,1577876191.565
2174221.0,1577876191.605
2174445.0,1577876191.645
2173759.0,1577876191.685
2171659.0,1577876191.725
2169024.0,1577876191.765
2167481.0,1577876191.805
2166451.0,1577876191.845
2165686.0,1577876191.885
2164614.0,1577876191.925
2164021.0,1577876191.965
2163422.0,1577876192.005
2162472.0,1577876192.045
2162244.0,1577876192.085
2162467.0,1577876192.125
2162888.0,1577876192.165
2163669.0,1577876192.205
2164424.0,1577876192.245
2165121.0,1577876192.285
2165454.0,1577876192.325
2165816.0,1577876192.365
2166266.0,1577876192.405
2166584.0,1577876192.445
2166968.0,1577876192.485
2167740.0,1577876192.525
2168059.0,1577876192.565
2168628.0,1577876192.605
2168632.0,1577876192.645
2166540.0,1577876192.685
2164118.0,1577876192.725
2159820.0,1577876192.845
2158858.0,1577876192.885
2161271.0,1577876192.805
2157699.0,1577876192.925
2162290.0,1577876192.765
2155924.0,1577876193.005
2155009.0,1577876193.085
2157011.0,1577876192.965
2155253.0,1577876193.045
2154808.0,1577876193.125
2154757.0,1577876193.165
2154771.0,1577876193.205
2154936.0,1577876193.245
2155387.0,1577876193.285
2155810.0,1577876193.325
2155794.0,1577876193.365
2155400.0,1577876193.405
2155667.0,1577876193.445
2155531.0,1577876193.485
2155823.0,1577876193.525
2156028.0,1577876193.565
2154320.0,1577876193.605
2151722.0,1577876193.645
2148930.0,1577876193.685
2147448.0,1577876193.725
2146066.0,1577876193.765
2145103.0,1577876193.805
2144381.0,1577876193.845
2143377.0,1577876193.885
2142216.0,1577876193.925
2140885.0,1577876193.965
2140206.0,1577876194.005
2139790.0,1577876194.045
2139453.0,1577876194.085
2139325.0,1577876194.125
2139217.0,1577876194.165
2138813.0,1577876194.205
2138839.0,1577876194.245
2138632.0,1577876194.285
2138924.0,1577876194.325
2138961.0,1577876194.365
2139078.0,1577876194.405
2139436.0,1577876194.445
2139916.0,1577876194.485
2138950.0,1577876194.525
2136006.0,1577876194.565
2133798.0,1577876194.605
2132118.0,1577876194.645
2130675.0,1577876194.685
2129107.0,1577876194.725
2127827.0,1577876194.765
2127027.0,1577876194.805
2125695.0,1577876194.845
2124461.0,1577876194.885
2123584.0,1577876194.925
2122853.0,1577876194.965
2122666.0,1577876195.005
2122527.0,1577876195.045
2122190.0,1577876195.085
2122197.0,1577876195.125
2122063.0,1577876195.165
2122186.0,1577876195.205
2122222.0,1577876195.245
2122491.0,1577876195.285
2122414.0,1577876195.325
2122886.0,1577876195.365
2123133.0,1577876195.405
2123018.0,1577876195.445
2120544.0,1577876195.485
2117133.0,1577876195.525
2114544.0,1577876195.565
2112845.0,1577876195.605
2110919.0,1577876195.645
2109727.0,1577876195.685
2108956.0,1577876195.725
2108109.0,1577876195.765
2106805.0,1577876195.805
2105786.0,1577876195.845
2104845.0,1577876195.885
2104530.0,1577876195.925
2104300.0,1577876195.965
2104438.0,1577876196.005
2104406.0,1577876196.045
2104249.0,1577876196.085
2104285.0,1577876196.125
2104306.0,1577876196.165
2104290.0,1577876196.205
2104548.0,1577876196.245
2105002.0,1577876196.285
2105421.0,1577876196.325
2105800.0,1577876196.365
2106396.0,1577876196.405
2105226.0,1577876196.445
2102173.0,1577876196.485
2099014.0,1577876196.525
2097375.0,1577876196.565
2095963.0,1577876196.605
2094663.0,1577876196.645
2093675.0,1577876196.685
2093104.0,1577876196.725
2091837.0,1577876196.765
2090811.0,1577876196.805
2090316.0,1577876196.845
2090031.0,1577876196.885
2089900.0,1577876196.925
2089727.0,1577876196.965
2089759.0,1577876197.005
2089982.0,1577876197.045
2090194.0,1577876197.085
2090202.0,1577876197.125
2090343.0,1577876197.165
2090792.0,1577876197.205
2091345.0,1577876197.245
2091774.0,1577876197.285
2092392.0,1577876197.325
2092716.0,1577876197.365
2091894.0,1577876197.405
2088795.0,1577876197.445
2085838.0,1577876197.485
2084163.0,1577876197.525
2082769.0,1577876197.565
2081288.0,1577876197.605
2080634.0,1577876197.645
2080001.0,1577876197.685
2079053.0,1577876197.774
2077728.0,1577876197.816
2077146.0,1577876197.855
2076228.0,1577876197.895
2075820.0,1577876197.936
2075707.0,1577876197.975
2075754.0,1577876198.016
2075985.0,1577876198.056
2076374.0,1577876198.095
2076398.0,1577876198.135
2077081.0,1577876198.176
2077095.0,1577876198.216
2077570.0,1577876198.255
2078261.0,1577876198.297
2078786.0,1577876198.336
2079431.0,1577876198.376
2080161.0,1577876198.418
2079096.0,1577876198.456
2076380.0,1577876198.496
2074141.0,1577876198.537
2072764.0,1577876198.576
2072161.0,1577876198.617
2071177.0,1577876198.658
2070807.0,1577876198.697
2070783.0,1577876198.737
2070038.0,1577876198.778
2069077.0,1577876198.818
2068516.0,1577876198.857
2068636.0,1577876198.898
2068879.0,1577876198.937
2069245.0,1577876198.977
2069742.0,1577876199.019
2070430.0,1577876199.058
2070791.0,1577876199.098
2071023.0,1577876199.139
2071171.0,1577876199.178
2071942.0,1577876199.219
2072500.0,1577876199.259
2073127.0,1577876199.298
2073934.0,1577876199.338
2074806.0,1577876199.379
2075647.0,1577876199.419
2074186.0,1577876199.459
2070020.0,1577876199.539
2071878.0,1577876199.5
2069141.0,1577876199.579
2068250.0,1577876199.615
2067748.0,1577876199.653
2067888.0,1577876199.69
2067410.0,1577876199.729
2067227.0,1577876199.768
2066620.0,1577876199.809
2066659.0,1577876199.849
2066814.0,1577876199.889
2067866.0,1577876199.97
2067346.0,1577876199.929
2068312.0,1577876200.01
2068591.0,1577876200.05
2069627.0,1577876200.128
2070225.0,1577876200.168
2069363.0,1577876200.089
2071132.0,1577876200.249
2070736.0,1577876200.21
2071914.0,1577876200.33
2072144.0,1577876200.37
2071286.0,1577876200.289
2068329.0,1577876200.449
2071028.0,1577876200.411
2065765.0,1577876200.488
2064143.0,1577876200.529
2063044.0,1577876200.57
2062555.0,1577876200.61
2061848.0,1577876200.649
2061243.0,1577876200.691
2060614.0,1577876200.73
2059900.0,1577876200.77
2059209.0,1577876200.81
2059178.0,1577876200.848
2059572.0,1577876200.889
2059737.0,1577876200.93
2060265.0,1577876200.969
2060598.0,1577876201.01
2061193.0,1577876201.051
2061708.0,1577876201.09
2062267.0,1577876201.13
2062803.0,1577876201.169
2063312.0,1577876201.209
2063914.0,1577876201.249
2064463.0,1577876201.29
2065476.0,1577876201.329
2065606.0,1577876201.37
2063816.0,1577876201.412
2061433.0,1577876201.45
2059736.0,1577876201.49
2058605.0,1577876201.53
2057791.0,1577876201.569
2057320.0,1577876201.61
2057018.0,1577876201.65
2056619.0,1577876201.689
2055748.0,1577876201.73
2055127.0,1577876201.771
2054948.0,1577876201.811
2055015.0,1577876201.85
2055240.0,1577876201.89
2055530.0,1577876201.929
2055812.0,1577876201.969
2055902.0,1577876202.011
2056504.0,1577876202.05
2057022.0,1577876202.09
2057600.0,1577876202.131
2057836.0,1577876202.171
2058742.0,1577876202.212
2059256.0,1577876202.25
2060026.0,1577876202.289
2060279.0,1577876202.329
2058317.0,1577876202.371
2055510.0,1577876202.411
2053569.0,1577876202.45
2052238.0,1577876202.491
2051396.0,1577876202.531
2050486.0,1577876202.569
2049935.0,1577876202.611
2049312.0,1577876202.649
2048719.0,1577876202.69
2048266.0,1577876202.731
2048131.0,1577876202.77
2048529.0,1577876202.811
2048964.0,1577876202.852
2049429.0,1577876202.891
2049717.0,1577876202.929
2049978.0,1577876202.97
2050507.0,1577876203.01
2050779.0,1577876203.05
2051508.0,1577876203.091
2051929.0,1577876203.131
2052705.0,1577876203.171
2053443.0,1577876203.213
2054038.0,1577876203.251
2053380.0,1577876203.289
2050733.0,1577876203.331
2048502.0,1577876203.37
2047143.0,1577876203.411
2045997.0,1577876203.451
2045217.0,1577876203.491
2044902.0,1577876203.531
2044477.0,1577876203.572
2043608.0,1577876203.612
2042903.0,1577876203.65
2042594.0,1577876203.691
2042529.0,1577876203.73
2042941.0,1577876203.77
2043058.0,1577876203.812
2043322.0,1577876203.851
2043677.0,1577876203.891
2043816.0,1577876203.932
2044316.0,1577876203.972
2044476.0,1577876204.01
2044762.0,1577876204.051
2045384.0,1577876204.09
2045870.0,1577876204.131
2046649.0,1577876204.172
2047219.0,1577876204.212
2045630.0,1577876204.251
2042729.0,1577876204.293
2040161.0,1577876204.332
2038702.0,1577876204.37
2037635.0,1577876204.412
2036400.0,1577876204.45
2035813.0,1577876204.491
2035107.0,1577876204.532
2034274.0,1577876204.571
2033463.0,1577876204.612
2033240.0,1577876204.653
2033258.0,1577876204.692
2033160.0,1577876204.73
2033284.0,1577876204.771
2033541.0,1577876204.811
2033922.0,1577876204.851
2034145.0,1577876204.892
2034570.0,1577876204.931
2034965.0,1577876204.972
2035758.0,1577876205.014
2036132.0,1577876205.052
2036936.0,1577876205.09
2037706.0,1577876205.132
2038617.0,1577876205.171
2038851.0,1577876205.212
2036890.0,1577876205.252
2034404.0,1577876205.291
2032554.0,1577876205.332
2031197.0,1577876205.373
2030191.0,1577876205.413
2029360.0,1577876205.45
2029149.0,1577876205.492
2028328.0,1577876205.531
2027729.0,1577876205.571
2027125.0,1577876205.613
2027060.0,1577876205.652
2027230.0,1577876205.692
2027492.0,1577876205.733
2027743.0,1577876205.772
2028094.0,1577876205.811
2028523.0,1577876205.852
2028938.0,1577876205.891
2029611.0,1577876205.931
2030272.0,1577876205.973
2030969.0,1577876206.012
2031795.0,1577876206.052
2032664.0,1577876206.093
2033373.0,1577876206.133
2034338.0,1577876206.171
2034203.0,1577876206.213
2032203.0,1577876206.251
2029927.0,1577876206.292
2028715.0,1577876206.333
2028014.0,1577876206.372
2027617.0,1577876206.413
2027448.0,1577876206.454
2027648.0,1577876206.493
2027399.0,1577876206.531
2026935.0,1577876206.572
2026784.0,1577876206.612
2026929.0,1577876206.652
2027216.0,1577876206.693
2027455.0,1577876206.732
2028007.0,1577876206.772
2028497.0,1577876206.814
2029084.0,1577876206.853
2029494.0,1577876206.891
2030285.0,1577876206.932
2030958.0,1577876206.972
2031866.0,1577876207.013
2032877.0,1577876207.053
2033916.0,1577876207.092
2034801.0,1577876207.133
2034823.0,1577876207.174
2033109.0,1577876207.214
2031614.0,1577876207.251
2030732.0,1577876207.293
2030315.0,1577876207.332
2030032.0,1577876207.372
2030312.0,1577876207.414
2030684.0,1577876207.453
2030879.0,1577876207.493
2030970.0,1577876207.534
2030861.0,1577876207.573
2031665.0,1577876207.612
2032004.0,1577876207.653
2032897.0,1577876207.692
2033760.0,1577876207.732
2034611.0,1577876207.774
2035644.0,1577876207.813
2036491.0,1577876207.853
2037584.0,1577876207.894
2038662.0,1577876207.933
2040123.0,1577876207.972
2041505.0,1577876208.014
2042503.0,1577876208.052
2044232.0,1577876208.093
2045092.0,1577876208.134
2044204.0,1577876208.173
2042687.0,1577876208.214
2042000.0,1577876208.255
2041690.0,1577876208.294
2041869.0,1577876208.332
2041948.0,1577876208.373
2042650.0,1577876208.413
2043155.0,1577876208.453
2043477.0,1577876208.494
2043830.0,1577876208.533
2044542.0,1577876208.573
2045523.0,1577876208.615
2046541.0,1577876208.654
2047644.0,1577876208.692
2048471.0,1577876208.733
2049795.0,1577876208.772
2050787.0,1577876208.813
2051892.0,1577876208.854
2052977.0,1577876208.893
2054439.0,1577876208.934
2055953.0,1577876208.975
2057209.0,1577876209.015
2058496.0,1577876209.052
2059769.0,1577876209.093
2059432.0,1577876209.133
2057482.0,1577876209.173
2056276.0,1577876209.215
2055681.0,1577876209.253
2055412.0,1577876209.294
2055376.0,1577876209.335
2055502.0,1577876209.374
2055604.0,1577876209.413
2055550.0,1577876209.454
2055730.0,1577876209.493
2055796.0,1577876209.533
2056194.0,1577876209.574
2056828.0,1577876209.614
2057209.0,1577876209.654
2058207.0,1577876209.695
2058837.0,1577876209.734
2059400.0,1577876209.773
2060275.0,1577876209.812
2061104.0,1577876209.851
2061967.0,1577876209.89
2063135.0,1577876209.929
2064182.0,1577876209.968
2065703.0,1577876210.007
2067217.0,1577876210.046
2066167.0,1577876210.124
2067492.0,1577876210.085
2065108.0,1577876210.163
2064994.0,1577876210.202
2065206.0,1577876210.241
2065710.0,1577876210.28
2066345.0,1577876210.319
2066784.0,1577876210.358
2066561.0,1577876210.397
2066886.0,1577876210.436
2067498.0,1577876210.475
2068616.0,1577876210.514
2069663.0,1577876210.553
2070859.0,1577876210.592
2071742.0,1577876210.631
2072874.0,1577876210.67
2074346.0,1577876210.709
2075627.0,1577876210.748
2079550.0,1577876210.826
2077718.0,1577876210.787
2081346.0,1577876210.865
2082352.0,1577876210.904
2083341.0,1577876210.943
2083950.0,1577876211.021
2084176.0,1577876210.982
2081661.0,1577876211.06
2078782.0,1577876211.099
2077068.0,1577876211.138
2075953.0,1577876211.177
2074997.0,1577876211.216
2074329.0,1577876211.255
2074031.0,1577876211.294
2073714.0,1577876211.333
2073058.0,1577876211.372
2072764.0,1577876211.411
2072777.0,1577876211.45
2073291.0,1577876211.489
2073772.0,1577876211.528
2074516.0,1577876211.567
2075199.0,1577876211.606
2075673.0,1577876211.645
2076360.0,1577876211.684
2077035.0,1577876211.724
2078095.0,1577876211.764
2078795.0,1577876211.804
2079516.0,1577876211.844
2080531.0,1577876211.884
2081380.0,1577876211.924
2082365.0,1577876211.964
2082469.0,1577876212.004
2080251.0,1577876212.044
2078233.0,1577876212.084
2076695.0,1577876212.124
2075766.0,1577876212.164
2075220.0,1577876212.204
2074838.0,1577876212.244
2074431.0,1577876212.284
2074325.0,1577876212.324
2073885.0,1577876212.364
2073415.0,1577876212.404
2073480.0,1577876212.444
2074070.0,1577876212.484
2074481.0,1577876212.524
2075214.0,1577876212.564
2075793.0,1577876212.604
2076307.0,1577876212.644
2076968.0,1577876212.684
2077721.0,1577876212.724
2078630.0,1577876212.764
2079334.0,1577876212.804
2079976.0,1577876212.844
2081252.0,1577876212.884
2081817.0,1577876212.924
2082419.0,1577876212.964
2080743.0,1577876213.004
2078444.0,1577876213.044
2076784.0,1577876213.084
2076116.0,1577876213.124
2075537.0,1577876213.164
2075569.0,1577876213.204
2075381.0,1577876213.244
2075473.0,1577876213.284
2074762.0,1577876213.324
2074575.0,1577876213.364
2074745.0,1577876213.404
2075289.0,1577876213.444
2075939.0,1577876213.484
2076559.0,1577876213.524
2076916.0,1577876213.564
2077900.0,1577876213.604
2078623.0,1577876213.644
2079382.0,1577876213.684
2080064.0,1577876213.724
2080720.0,1577876213.764
2081659.0,1577876213.804
2082686.0,1577876213.844
2083526.0,1577876213.884
2082380.0,1577876213.924
2079839.0,1577876213.964
2077809.0,1577876214.004
2076484.0,1577876214.044
2075821.0,1577876214.084
2075223.0,1577876214.124
2074820.0,1577876214.164
2074388.0,1577876214.204
2073745.0,1577876214.244
2073104.0,1577876214.284
2073040.0,1577876214.324
2073183.0,1577876214.364
2073784.0,1577876214.444
2073289.0,1577876214.404
2074262.0,1577876214.484
2074851.0,1577876214.524
2075280.0,1577876214.564
2075794.0,1577876214.604
2076471.0,1577876214.644
2077099.0,1577876214.684
2077948.0,1577876214.724
2078429.0,1577876214.764
2079292.0,1577876214.804
2080044.0,1577876214.844
2079510.0,1577876214.884
2076798.0,1577876214.924
2074075.0,1577876214.964
2072380.0,1577876215.004
2071118.0,1577876215.044
2070179.0,1577876215.084
2069393.0,1577876215.124
2069042.0,1577876215.164
2068099.0,1577876215.204
2067544.0,1577876215.244
2067471.0,1577876215.284
2067330.0,1577876215.324
2067457.0,1577876215.364
2067929.0,1577876215.404
2068145.0,1577876215.444
2068722.0,1577876215.484
2068780.0,1577876215.524
2069013.0,1577876215.564
2069091.0,1577876215.604
2069321.0,1577876215.644
2069753.0,1577876215.684
2070026.0,1577876215.724
2070389.0,1577876215.764
2070724.0,1577876215.804
2070616.0,1577876215.844
2067372.0,1577876215.884
2062764.0,1577876215.924
2059216.0,1577876215.964
2056166.0,1577876216.004
2053319.0,1577876216.044
2051244.0,1577876216.084
2049188.0,1577876216.124
2046765.0,1577876216.164
2043994.0,1577876216.204
2040907.0,1577876216.244
2038430.0,1577876216.284
2036514.0,1577876216.324
2034564.0,1577876216.364
2033053.0,1577876216.404
2031643.0,1577876216.444
2030071.0,1577876216.484
2028740.0,1577876216.524
2027439.0,1577876216.564
2026606.0,1577876216.604
2025584.0,1577876216.644
2024838.0,1577876216.684
2024114.0,1577876216.724
2023725.0,1577876216.764
2022603.0,1577876216.804
2019441.0,1577876216.844
2015095.0,1577876216.884
2011451.0,1577876216.924
2008567.0,1577876216.964
2006242.0,1577876217.004
2004253.0,1577876217.044
2003256.0,1577876217.084
2002051.0,1577876217.124
2000772.0,1577876217.164
1999207.0,1577876217.204
1998422.0,1577876217.244
1997730.0,1577876217.284
1997095.0,1577876217.324
1996605.0,1577876217.364
1996089.0,1577876217.404
1995891.0,1577876217.444
1995947.0,1577876217.484
1996252.0,1577876217.524
1996286.0,1577876217.564
1996726.0,1577876217.604
1996965.0,1577876217.644
1997085.0,1577876217.684
1997186.0,1577876217.724
1997353.0,1577876217.764
1997251.0,1577876217.804
1994611.0,1577876217.844
1990864.0,1577876217.884
1988230.0,1577876217.924
1986361.0,1577876217.964
1984637.0,1577876218.004
1983167.0,1577876218.044
1982345.0,1577876218.084
1981420.0,1577876218.124
1980119.0,1577876218.164
1979341.0,1577876218.204
1978523.0,1577876218.244
1978163.0,1577876218.284
1977659.0,1577876218.324
1977480.0,1577876218.364
1977509.0,1577876218.404
1977216.0,1577876218.444
1977107.0,1577876218.484
1977019.0,1577876218.524
1976652.0,1577876218.564
1976703.0,1577876218.604
1976872.0,1577876218.644
1977042.0,1577876218.684
1977571.0,1577876218.724
1978660.0,1577876218.764
1978981.0,1577876218.804
1977006.0,1577876218.844
1974323.0,1577876218.884
1972922.0,1577876218.924
1972268.0,1577876218.964
1971392.0,1577876219.004
1971124.0,1577876219.044
1970992.0,1577876219.084
1970889.0,1577876219.124
1970379.0,1577876219.164
1970360.0,1577876219.204
1970496.0,1577876219.244
1970987.0,1577876219.284
1971678.0,1577876219.324
1972386.0,1577876219.364
1973017.0,1577876219.404
1973681.0,1577876219.444
1974786.0,1577876219.484
1975571.0,1577876219.524
1976690.0,1577876219.564
1977480.0,1577876219.604
1978532.0,1577876219.644
1979731.0,1577876219.684
1981187.0,1577876219.724
1981579.0,1577876219.764
1979581.0,1577876219.804
1977329.0,1577876219.844
1975694.0,1577876219.884
1974973.0,1577876219.924
1974223.0,1577876219.964
1974112.0,1577876220.004
1974173.0,1577876220.044
1974180.0,1577876220.084
1974103.0,1577876220.124
1974257.0,1577876220.164
1974456.0,1577876220.204
1975190.0,1577876220.244
1976752.0,1577876220.284
1979207.0,1577876220.324
1981612.0,1577876220.364
1983322.0,1577876220.404
1984771.0,1577876220.444
1986285.0,1577876220.484
1987731.0,1577876220.524
1989109.0,1577876220.564
1990406.0,1577876220.604
1991796.0,1577876220.644
1992504.0,1577876220.684
1991843.0,1577876220.724
1988655.0,1577876220.764
1985337.0,1577876220.804
1983392.0,1577876220.844
1982411.0,1577876220.884
1981957.0,1577876220.924
1982118.0,1577876220.964
1982746.0,1577876221.004
1982546.0,1577876221.084
1982382.0,1577876221.044
1982753.0,1577876221.124
1982859.0,1577876221.164
1983471.0,1577876221.204
1985900.0,1577876221.244
1989225.0,1577876221.284
1991096.0,1577876221.324
1990991.0,1577876221.364
1990922.0,1577876221.404
1990658.0,1577876221.444
1990231.0,1577876221.484
1989960.0,1577876221.524
1989749.0,1577876221.564
1989752.0,1577876221.604
1989667.0,1577876221.644
1990506.0,1577876221.684
1989492.0,1577876221.772
1987165.0,1577876221.814
1985156.0,1577876221.852
1984060.0,1577876221.892
1983316.0,1577876221.933
1982582.0,1577876221.972
1981794.0,1577876222.013
1980734.0,1577876222.054
1979101.0,1577876222.093
1977807.0,1577876222.133
1976700.0,1577876222.174
1975862.0,1577876222.214
1974963.0,1577876222.253
1974333.0,1577876222.294
1973415.0,1577876222.334
1972661.0,1577876222.374
1972218.0,1577876222.415
1971849.0,1577876222.454
1971556.0,1577876222.494
1971278.0,1577876222.535
1971459.0,1577876222.574
1971238.0,1577876222.615
1971423.0,1577876222.656
1970659.0,1577876222.695
1968330.0,1577876222.735
1965564.0,1577876222.776
1963397.0,1577876222.816
1961954.0,1577876222.855
1960553.0,1577876222.896
1959625.0,1577876222.935
1958787.0,1577876222.976
1957855.0,1577876223.017
1956602.0,1577876223.056
1955535.0,1577876223.096
1954864.0,1577876223.137
1954393.0,1577876223.176
1954319.0,1577876223.217
1953963.0,1577876223.258
1953714.0,1577876223.297
1953729.0,1577876223.337
1953581.0,1577876223.378
1953615.0,1577876223.418
1953645.0,1577876223.457
1953757.0,1577876223.498
1954081.0,1577876223.537
1954476.0,1577876223.577
1954860.0,1577876223.619
1954243.0,1577876223.657
1951966.0,1577876223.697
1949809.0,1577876223.739
1948386.0,1577876223.778
1947485.0,1577876223.818
1946649.0,1577876223.859
1946149.0,1577876223.898
1945744.0,1577876223.938
1945272.0,1577876223.979
1944732.0,1577876224.019
1944384.0,1577876224.058
1944700.0,1577876224.099
1944774.0,1577876224.138
1945250.0,1577876224.178
1945591.0,1577876224.22
1946201.0,1577876224.259
1946755.0,1577876224.299
1947085.0,1577876224.34
1947365.0,1577876224.379
1947726.0,1577876224.42
1948813.0,1577876224.499
1949380.0,1577876224.539
1948502.0,1577876224.46
1949829.0,1577876224.58
1949629.0,1577876224.62
1947349.0,1577876224.659
1945137.0,1577876224.701
1942948.0,1577876224.74
1941701.0,1577876224.78
1939636.0,1577876224.86
1938884.0,1577876224.9
1938423.0,1577876224.941
1937683.0,1577876224.98
1936926.0,1577876225.021
1936540.0,1577876225.062
1940493.0,1577876224.822
1936352.0,1577876225.101
1935827.0,1577876225.141
1935355.0,1577876225.182
1935260.0,1577876225.222
1934780.0,1577876225.258
1934566.0,1577876225.301
1934583.0,1577876225.339
1934381.0,1577876225.421
1934324.0,1577876225.379
1934429.0,1577876225.46
1934784.0,1577876225.5
1934954.0,1577876225.542
1933722.0,1577876225.581
1931008.0,1577876225.622
1929201.0,1577876225.662
1927626.0,1577876225.7
1926632.0,1577876225.74
1925866.0,1577876225.781
1925397.0,1577876225.821
1925113.0,1577876225.861
1924299.0,1577876225.902
1923760.0,1577876225.941
1923437.0,1577876225.981
1923321.0,1577876226.023
1923372.0,1577876226.06
1923300.0,1577876226.1
1923809.0,1577876226.141
1923820.0,1577876226.18
1924006.0,1577876226.221
1924241.0,1577876226.262
1924760.0,1577876226.301
1925150.0,1577876226.342
1925665.0,1577876226.383
1926128.0,1577876226.421
1925345.0,1577876226.46
1923298.0,1577876226.501
1921635.0,1577876226.541
1920332.0,1577876226.581
1919667.0,1577876226.623
1918896.0,1577876226.661
1918104.0,1577876226.743
1917117.0,1577876226.862
1917151.0,1577876226.941
1917473.0,1577876226.983
1917000.0,1577876226.901
1917862.0,1577876226.78
1917297.0,1577876226.821
1917954.0,1577876227.022
1918459.0,1577876227.062
1918425.0,1577876226.702
1918753.0,1577876227.101
1919273.0,1577876227.14
1919561.0,1577876227.181
1920178.0,1577876227.223
1919766.0,1577876227.261
1918508.0,1577876227.301
1917193.0,1577876227.343
1916396.0,1577876227.382
1915715.0,1577876227.423
1915430.0,1577876227.461
1915573.0,1577876227.501
1915160.0,1577876227.541
1915053.0,1577876227.582
1914690.0,1577876227.622
1914924.0,1577876227.662
1915182.0,1577876227.703
1915931.0,1577876227.742
1916985.0,1577876227.823
1916515.0,1577876227.781
1917622.0,1577876227.861
1918269.0,1577876227.901
1919100.0,1577876227.943
1919793.0,1577876227.982
1919658.0,1577876228.023
1918516.0,1577876228.063
1916799.0,1577876228.141
1917388.0,1577876228.103
1916524.0,1577876228.182
1916261.0,1577876228.222
1916484.0,1577876228.261
1916729.0,1577876228.303
1916302.0,1577876228.342
1916279.0,1577876228.382
1916970.0,1577876228.463
1917412.0,1577876228.501
1916494.0,1577876228.424
1918032.0,1577876228.542
1918516.0,1577876228.581
1919132.0,1577876228.622
1919615.0,1577876228.663
1920157.0,1577876228.702
1920823.0,1577876228.743
1921610.0,1577876228.784
1921940.0,1577876228.822
1921018.0,1577876228.861
1919674.0,1577876228.903
1919075.0,1577876228.942
1918637.0,1577876228.982
1918620.0,1577876229.024
1918712.0,1577876229.063
1918854.0,1577876229.103
1918767.0,1577876229.142
1918735.0,1577876229.181
1918921.0,1577876229.222
1919135.0,1577876229.263
1919680.0,1577876229.302
1920346.0,1577876229.343
1920897.0,1577876229.384
1921632.0,1577876229.424
1922438.0,1577876229.461
1923010.0,1577876229.503
1923815.0,1577876229.542
1924603.0,1577876229.582
1925407.0,1577876229.624
1925827.0,1577876229.663
1925041.0,1577876229.703
1924267.0,1577876229.744
1924057.0,1577876229.783
1924314.0,1577876229.822
1924601.0,1577876229.863
1925061.0,1577876229.902
1925557.0,1577876229.942
1926351.0,1577876229.984
1926655.0,1577876230.024
1927262.0,1577876230.063
1927977.0,1577876230.104
1928490.0,1577876230.144
1929357.0,1577876230.182
1930231.0,1577876230.224
1931339.0,1577876230.262
1932347.0,1577876230.302
1933319.0,1577876230.344
1934300.0,1577876230.383
1935504.0,1577876230.424
1937037.0,1577876230.465
1937814.0,1577876230.504
1937419.0,1577876230.542
1936911.0,1577876230.583
1936626.0,1577876230.623
1937307.0,1577876230.663
1938263.0,1577876230.704
1939092.0,1577876230.743
1940064.0,1577876230.783
1940885.0,1577876230.825
1941511.0,1577876230.864
1942489.0,1577876230.902
1943499.0,1577876230.943
1944728.0,1577876230.983
1945843.0,1577876231.024
1947069.0,1577876231.064
1948149.0,1577876231.103
1949169.0,1577876231.144
1950320.0,1577876231.185
1951493.0,1577876231.225
1952310.0,1577876231.262
1953384.0,1577876231.304
1954659.0,1577876231.343
1955934.0,1577876231.383
1956142.0,1577876231.425
1955875.0,1577876231.463
1955503.0,1577876231.504
1955623.0,1577876231.545
1955939.0,1577876231.584
1956326.0,1577876231.623
1956963.0,1577876231.664
1957440.0,1577876231.703
1957786.0,1577876231.743
1958110.0,1577876231.785
1958816.0,1577876231.824
1959681.0,1577876231.864
1960376.0,1577876231.905
1961240.0,1577876231.944
1961816.0,1577876231.983
1962423.0,1577876232.025
1963346.0,1577876232.063
1964100.0,1577876232.103
1965057.0,1577876232.145
1965884.0,1577876232.184
1966478.0,1577876232.225
1967371.0,1577876232.265
1968317.0,1577876232.305
1968442.0,1577876232.343
1967858.0,1577876232.384
1967382.0,1577876232.424
1967388.0,1577876232.464
1967819.0,1577876232.505
1968304.0,1577876232.544
1968825.0,1577876232.584
1969435.0,1577876232.626
1969896.0,1577876232.663
1970317.0,1577876232.703
1970952.0,1577876232.745
1972047.0,1577876232.784
1972758.0,1577876232.825
1973724.0,1577876232.865
1974687.0,1577876232.905
1975628.0,1577876232.945
1976330.0,1577876232.984
1977036.0,1577876233.024
1978159.0,1577876233.064
1978939.0,1577876233.105
1979982.0,1577876233.144
1980872.0,1577876233.184
1981638.0,1577876233.226
1981484.0,1577876233.265
1981020.0,1577876233.305
1980673.0,1577876233.344
1980491.0,1577876233.384
1980873.0,1577876233.425
1980356.0,1577876233.465
1979912.0,1577876233.504
1979788.0,1577876233.545
1979468.0,1577876233.586
1978686.0,1577876233.626
1978124.0,1577876233.663
1977647.0,1577876233.705
1977541.0,1577876233.744
1977337.0,1577876233.78
1977253.0,1577876233.822
1977705.0,1577876233.86
1977918.0,1577876233.9
1978209.0,1577876233.941
1978648.0,1577876233.98
1978887.0,1577876234.021
1979488.0,1577876234.062
1979898.0,1577876234.101
1980694.0,1577876234.141
1980953.0,1577876234.182
1980282.0,1577876234.221
1978907.0,1577876234.259
1978174.0,1577876234.3
1977749.0,1577876234.339
1977846.0,1577876234.38
1977562.0,1577876234.422
1977906.0,1577876234.46
1977801.0,1577876234.5
1977621.0,1577876234.542
1977541.0,1577876234.581
1977483.0,1577876234.62
1977542.0,1577876234.66
1978217.0,1577876234.699
1978614.0,1577876234.74
1979066.0,1577876234.781
1979392.0,1577876234.821
1979875.0,1577876234.861
1980435.0,1577876234.902
1981069.0,1577876234.941
1981437.0,1577876234.979
1982187.0,1577876235.021
1982617.0,1577876235.06
1983371.0,1577876235.1
1983477.0,1577876235.141
1982360.0,1577876235.18
1981035.0,1577876235.221
1980307.0,1577876235.262
1980160.0,1577876235.301
1979652.0,1577876235.339
1979641.0,1577876235.381
1979743.0,1577876235.421
1979354.0,1577876235.46
1978972.0,1577876235.501
1978939.0,1577876235.541
1979127.0,1577876235.581
1979458.0,1577876235.623
1979825.0,1577876235.662
1980228.0,1577876235.702
1980804.0,1577876235.743
1981332.0,1577876235.782
1981871.0,1577876235.823
1982648.0,1577876235.864
1983547.0,1577876235.903
1984402.0,1577876235.943
1985247.0,1577876235.984
1986140.0,1577876236.024
1986158.0,1577876236.063
1985058.0,1577876236.104
1983711.0,1577876236.143
1983062.0,1577876236.183
1982525.0,1577876236.225
1982435.0,1577876236.263
1982241.0,1577876236.304
1982247.0,1577876236.345
1981913.0,1577876236.384
1981772.0,1577876236.425
1981687.0,1577876236.465
1981705.0,1577876236.504
1981822.0,1577876236.544
1982125.0,1577876236.585
1982178.0,1577876236.625
1981815.0,1577876236.664
1981670.0,1577876236.706
1981752.0,1577876236.745
1981902.0,1577876236.785
1981688.0,1577876236.827
1981488.0,1577876236.865
1981319.0,1577876236.905
1981316.0,1577876236.946
1980806.0,1577876236.985
1978862.0,1577876237.026
1976875.0,1577876237.067
1975209.0,1577876237.106
1973975.0,1577876237.146
1973016.0,1577876237.187
1972411.0,1577876237.227
1971736.0,1577876237.266
1971245.0,1577876237.307
1970161.0,1577876237.346
1969486.0,1577876237.386
1969243.0,1577876237.428
1968883.0,1577876237.467
1968963.0,1577876237.507
1968774.0,1577876237.548
1968959.0,1577876237.587
1968964.0,1577876237.628
1968958.0,1577876237.668
1969375.0,1577876237.707
1969278.0,1577876237.747
1969644.0,1577876237.789
1970226.0,1577876237.828
1970671.0,1577876237.868
1970866.0,1577876237.909
1969702.0,1577876237.948
1967580.0,1577876237.988
1965701.0,1577876238.03
1964467.0,1577876238.068
1963359.0,1577876238.108
1962681.0,1577876238.15
1962276.0,1577876238.189
1961843.0,1577876238.229
1961239.0,1577876238.27
1960561.0,1577876238.309
1960433.0,1577876238.349
1960275.0,1577876238.39
1960037.0,1577876238.43
1960400.0,1577876238.469
1960499.0,1577876238.511
1960554.0,1577876238.55
1960913.0,1577876238.59
1961047.0,1577876238.632
1961478.0,1577876238.67
1961562.0,1577876238.71
1961997.0,1577876238.751
1962593.0,1577876238.79
1962980.0,1577876238.831
1961617.0,1577876238.872
1959600.0,1577876238.911
1957447.0,1577876238.951
1956112.0,1577876238.992
1955649.0,1577876239.032
1955324.0,1577876239.063
1955225.0,1577876239.102
1955004.0,1577876239.141
1954431.0,1577876239.182
1954080.0,1577876239.224
1953598.0,1577876239.262
1953892.0,1577876239.302
1953988.0,1577876239.344
1953933.0,1577876239.383
1954157.0,1577876239.424
1954204.0,1577876239.462
1954107.0,1577876239.502
1954071.0,1577876239.542
1954107.0,1577876239.583
1954376.0,1577876239.623
1954700.0,1577876239.663
1954815.0,1577876239.704
1955341.0,1577876239.743
1954777.0,1577876239.783
1953295.0,1577876239.823
1951792.0,1577876239.862
1950990.0,1577876239.902
1949983.0,1577876239.943
1949242.0,1577876239.983
1948952.0,1577876240.024
1948653.0,1577876240.064
1947393.0,1577876240.103
1946341.0,1577876240.142
1946131.0,1577876240.183
1946052.0,1577876240.223
1946039.0,1577876240.263
1945738.0,1577876240.304
1945565.0,1577876240.343
1945294.0,1577876240.383
1945513.0,1577876240.425
1945410.0,1577876240.464
1945398.0,1577876240.502
1945478.0,1577876240.543
1945946.0,1577876240.582
1946404.0,1577876240.623
1947038.0,1577876240.664
1947430.0,1577876240.703
1947851.0,1577876240.744
1947004.0,1577876240.785
1944997.0,1577876240.823
1943623.0,1577876240.862
1942970.0,1577876240.904
1942087.0,1577876240.943
1941483.0,1577876240.983
1941361.0,1577876241.025
1941246.0,1577876241.064
1940790.0,1577876241.104
1940332.0,1577876241.145
1940348.0,1577876241.182
1940480.0,1577876241.223
1940517.0,1577876241.264
1941014.0,1577876241.303
1941164.0,1577876241.343
1941561.0,1577876241.385
1941779.0,1577876241.425
1942151.0,1577876241.464
1942865.0,1577876241.503
1943227.0,1577876241.543
1943813.0,1577876241.583
1944271.0,1577876241.625
1944923.0,1577876241.663
1945600.0,1577876241.704
1946121.0,1577876241.745
1945212.0,1577876241.784
1943970.0,1577876241.825
1942643.0,1577876241.864
1941970.0,1577876241.903
1941327.0,1577876241.943
1941379.0,1577876241.984
1941381.0,1577876242.024
1941174.0,1577876242.064
1940676.0,1577876242.105
1940542.0,1577876242.144
1940663.0,1577876242.183
1940859.0,1577876242.225
1941052.0,1577876242.263
1941342.0,1577876242.303
1941603.0,1577876242.345
1942106.0,1577876242.384
1942601.0,1577876242.425
1943134.0,1577876242.466
1943533.0,1577876242.505
1944185.0,1577876242.543
1944675.0,1577876242.584
1945566.0,1577876242.624
1946346.0,1577876242.664
1947207.0,1577876242.705
1946953.0,1577876242.744
1945979.0,1577876242.784
1945195.0,1577876242.826
1944958.0,1577876242.865
1945344.0,1577876242.903
1945147.0,1577876242.944
1945473.0,1577876242.984
1945857.0,1577876243.025
1945829.0,1577876243.065
1945690.0,1577876243.104
1946015.0,1577876243.145
1946302.0,1577876243.186
1946806.0,1577876243.224
1947211.0,1577876243.264
1947707.0,1577876243.305
1947890.0,1577876243.344
1948031.0,1577876243.384
1948145.0,1577876243.426
1948565.0,1577876243.465
1948902.0,1577876243.505
1949345.0,1577876243.544
1949717.0,1577876243.584
1950184.0,1577876243.625
1950742.0,1577876243.665
1951009.0,1577876243.704
1950249.0,1577876243.745
1948456.0,1577876243.786
1947233.0,1577876243.826
1946357.0,1577876243.864
1945837.0,1577876243.905
1945626.0,1577876243.944
1945627.0,1577876243.984
1944314.0,1577876244.026
1943121.0,1577876244.065
1942962.0,1577876244.105
1942995.0,1577876244.146
1942960.0,1577876244.186
1942624.0,1577876244.224
1942389.0,1577876244.265
1942220.0,1577876244.304
1942201.0,1577876244.345
1942286.0,1577876244.386
1942570.0,1577876244.426
1942722.0,1577876244.465
1942908.0,1577876244.507
1943365.0,1577876244.546
1943888.0,1577876244.584
1944339.0,1577876244.626
1944884.0,1577876244.664
1945563.0,1577876244.705
1945451.0,1577876244.746
1943764.0,1577876244.785
1942149.0,1577876244.826
1941071.0,1577876244.867
1940624.0,1577876244.906
1939951.0,1577876244.944
1939614.0,1577876244.985
1939440.0,1577876245.025
1939129.0,1577876245.065
1938520.0,1577876245.106
1938210.0,1577876245.145
1938303.0,1577876245.186
1938426.0,1577876245.228
1938827.0,1577876245.266
1939233.0,1577876245.304
1939682.0,1577876245.346
1939912.0,1577876245.385
1940502.0,1577876245.426
1941118.0,1577876245.466
1942036.0,1577876245.506
1942553.0,1577876245.546
1943344.0,1577876245.587
1944238.0,1577876245.625
1945130.0,1577876245.665
1946043.0,1577876245.706
1946337.0,1577876245.745
1945258.0,1577876245.788
1943818.0,1577876245.83
1943130.0,1577876245.868
1942873.0,1577876245.908
1942524.0,1577876245.95
1942700.0,1577876245.989
1942902.0,1577876246.029
1942755.0,1577876246.07
1942459.0,1577876246.109
1942683.0,1577876246.149
1942985.0,1577876246.19
1943460.0,1577876246.23
1944013.0,1577876246.267
1944477.0,1577876246.347
1944597.0,1577876246.388
1944851.0,1577876246.43
1944505.0,1577876246.308
1945323.0,1577876246.468
1945777.0,1577876246.508
1946400.0,1577876246.55
1946827.0,1577876246.589
1947280.0,1577876246.628
1948106.0,1577876246.668
1948474.0,1577876246.707
1946510.0,1577876246.748
1944568.0,1577876246.789
1942703.0,1577876246.829
1942023.0,1577876246.869
1941106.0,1577876246.91
1939622.0,1577876246.987
1940279.0,1577876246.949
1938845.0,1577876247.029
1938322.0,1577876247.068
1937479.0,1577876247.108
1937187.0,1577876247.149
1937019.0,1577876247.188
1937253.0,1577876247.229
1937713.0,1577876247.27
1937780.0,1577876247.309
1938252.0,1577876247.347
1938531.0,1577876247.389
1939032.0,1577876247.429
1939650.0,1577876247.468
1940102.0,1577876247.509
1940521.0,1577876247.549
1941353.0,1577876247.589
1941986.0,1577876247.631
1942924.0,1577876247.669
1943386.0,1577876247.708
1942524.0,1577876247.749
1941017.0,1577876247.788
1939910.0,1577876247.829
1939189.0,1577876247.87
1938719.0,1577876247.909
1938350.0,1577876247.949
1938498.0,1577876247.99
1938301.0,1577876248.028
1938087.0,1577876248.068
1937817.0,1577876248.109
1937954.0,1577876248.148
1938359.0,1577876248.189
1938744.0,1577876248.231
1939204.0,1577876248.269
1939959.0,1577876248.309
1940519.0,1577876248.351
1941087.0,1577876248.388
1941564.0,1577876248.429
1942429.0,1577876248.469
1943033.0,1577876248.509
1943866.0,1577876248.549
1944611.0,1577876248.59
1945396.0,1577876248.63
1946488.0,1577876248.67
1947035.0,1577876248.709
1946127.0,1577876248.748
1944843.0,1577876248.788
1944206.0,1577876248.83
1943896.0,1577876248.869
1943934.0,1577876248.909
1944306.0,1577876248.951
1944283.0,1577876248.99
1943901.0,1577876249.031
1943813.0,1577876249.069
1944119.0,1577876249.108
1944814.0,1577876249.149
1945482.0,1577876249.19
1946359.0,1577876249.23
1947272.0,1577876249.269
1948234.0,1577876249.311
1949058.0,1577876249.35
1950084.0,1577876249.388
1950930.0,1577876249.423
1951996.0,1577876249.462
1953117.0,1577876249.502
1954302.0,1577876249.543
1955425.0,1577876249.582
1956339.0,1577876249.623
1956814.0,1577876249.663
1955882.0,1577876249.702
1954856.0,1577876249.742
1954368.0,1577876249.784
1954429.0,1577876249.823
1953804.0,1577876249.863
1953802.0,1577876249.904
1954140.0,1577876249.943
1954542.0,1577876249.983
1954313.0,1577876250.025
1954163.0,1577876250.063
1954204.0,1577876250.103
1954184.0,1577876250.145
1953980.0,1577876250.184
1954434.0,1577876250.224
1954664.0,1577876250.265
1954808.0,1577876250.304
1955442.0,1577876250.344
1956071.0,1577876250.385
1956788.0,1577876250.425
1957456.0,1577876250.464
1958345.0,1577876250.506
1959048.0,1577876250.545
1959739.0,1577876250.585
1959621.0,1577876250.627
1958187.0,1577876250.665
1956598.0,1577876250.705
1955922.0,1577876250.746
1955404.0,1577876250.785
1954619.0,1577876250.826
1954398.0,1577876250.867
1954573.0,1577876250.906
1954175.0,1577876250.946
1953769.0,1577876250.987
1953991.0,1577876251.027
1954080.0,1577876251.066
1954586.0,1577876251.107
1954956.0,1577876251.146
1955423.0,1577876251.186
1955894.0,1577876251.228
1956418.0,1577876251.267
1956929.0,1577876251.307
1957554.0,1577876251.348
1958067.0,1577876251.387
1958992.0,1577876251.428
1959653.0,1577876251.468
1960378.0,1577876251.507
1961398.0,1577876251.547
1961206.0,1577876251.588
1959739.0,1577876251.628
1958525.0,1577876251.668
1958041.0,1577876251.709
1957960.0,1577876251.748
1958160.0,1577876251.788
1958721.0,1577876251.83
1959102.0,1577876251.868
1959547.0,1577876251.908
1960389.0,1577876251.949
1963091.0,1577876252.029
1965176.0,1577876252.07
1961630.0,1577876251.988
1966629.0,1577876252.108
1967880.0,1577876252.148
1969245.0,1577876252.19
1970679.0,1577876252.229
1972129.0,1577876252.269
1973136.0,1577876252.31
1974615.0,1577876252.349
1977120.0,1577876252.431
1975801.0,1577876252.389
1978361.0,1577876252.469
1979524.0,1577876252.509
1979586.0,1577876252.55
1978585.0,1577876252.589
1977653.0,1577876252.63
1976861.0,1577876252.671
1976377.0,1577876252.71
1976177.0,1577876252.75
1976500.0,1577876252.791
1977184.0,1577876252.83
1978017.0,1577876252.87
1978803.0,1577876252.911
1980318.0,1577876252.95
1981700.0,1577876252.99
1983719.0,1577876253.032
1986165.0,1577876253.07
1988244.0,1577876253.11
1990472.0,1577876253.151
1992525.0,1577876253.19
1994707.0,1577876253.231
1996780.0,1577876253.272
1998716.0,1577876253.311
2000034.0,1577876253.351
2000693.0,1577876253.392
2001408.0,1577876253.432
2001947.0,1577876253.471
2001435.0,1577876253.512
2000019.0,1577876253.551
1997832.0,1577876253.591
1995689.0,1577876253.633
1993883.0,1577876253.671
1991996.0,1577876253.712
1990663.0,1577876253.753
1989514.0,1577876253.792
1988493.0,1577876253.833
1987367.0,1577876253.873
1986371.0,1577876253.912
1985937.0,1577876253.952
1985640.0,1577876253.993
1985168.0,1577876254.033
1985143.0,1577876254.073
1984615.0,1577876254.114
1984672.0,1577876254.151
1984529.0,1577876254.191
1984352.0,1577876254.233
1984142.0,1577876254.272
1984491.0,1577876254.312
1984280.0,1577876254.353
1984568.0,1577876254.392
1985074.0,1577876254.433
1985271.0,1577876254.474
1984823.0,1577876254.511
1983079.0,1577876254.551
1981335.0,1577876254.593
1979518.0,1577876254.633
1978506.0,1577876254.672
1977513.0,1577876254.713
1976749.0,1577876254.753
1976393.0,1577876254.793
1976008.0,1577876254.835
1975072.0,1577876254.871
1974597.0,1577876254.912
1974327.0,1577876254.953
1974474.0,1577876254.992
1974322.0,1577876255.033
1974497.0,1577876255.074
1974355.0,1577876255.113
1974533.0,1577876255.153
1974841.0,1577876255.192
1974906.0,1577876255.232
1975420.0,1577876255.272
1975472.0,1577876255.313
1975601.0,1577876255.353
1976394.0,1577876255.393
1976936.0,1577876255.435
1977822.0,1577876255.473
1977010.0,1577876255.512
1975246.0,1577876255.553
1973801.0,1577876255.592
1972780.0,1577876255.633
1972372.0,1577876255.674
1972701.0,1577876255.713
1974055.0,1577876255.753
1976162.0,1577876255.795
1979000.0,1577876255.832
1982608.0,1577876255.872
1986905.0,1577876255.913
1991428.0,1577876255.953
1995433.0,1577876255.993
1998578.0,1577876256.035
2001416.0,1577876256.073
2004106.0,1577876256.114
2005628.0,1577876256.155
2006854.0,1577876256.192
2007979.0,1577876256.233
2009575.0,1577876256.273
2011447.0,1577876256.313
2013297.0,1577876256.353
2015031.0,1577876256.394
2016750.0,1577876256.434
2016955.0,1577876256.474
2017372.0,1577876256.515
2019037.0,1577876256.552
2020924.0,1577876256.592
2021571.0,1577876256.634
2021342.0,1577876256.673
2020783.0,1577876256.713
2020582.0,1577876256.754
2020486.0,1577876256.794
2020157.0,1577876256.835
2020406.0,1577876256.875
2020581.0,1577876256.912
2021326.0,1577876256.953
2022024.0,1577876256.994
2023034.0,1577876257.034
2024004.0,1577876257.073
2025276.0,1577876257.115
2026937.0,1577876257.154
2028403.0,1577876257.194
2029942.0,1577876257.236
2031181.0,1577876257.272
2032740.0,1577876257.313
2034022.0,1577876257.354
2035493.0,1577876257.393
2036520.0,1577876257.434
2036088.0,1577876257.475
2035078.0,1577876257.514
2034297.0,1577876257.554
2034002.0,1577876257.594
2034194.0,1577876257.634
2034555.0,1577876257.673
2034821.0,1577876257.714
2034749.0,1577876257.754
2034502.0,1577876257.793
2034834.0,1577876257.832
2035419.0,1577876257.871
2037437.0,1577876257.949
2038494.0,1577876257.988
2039598.0,1577876258.027
2040780.0,1577876258.066
2041938.0,1577876258.105
2042939.0,1577876258.144
2036196.0,1577876257.91
2043951.0,1577876258.183
2045043.0,1577876258.222
2046066.0,1577876258.261
2047538.0,1577876258.3
2048514.0,1577876258.339
2049867.0,1577876258.378
2050311.0,1577876258.417
2049621.0,1577876258.456
2048881.0,1577876258.495
2048861.0,1577876258.573
2048692.0,1577876258.534
2049187.0,1577876258.612
2049618.0,1577876258.651
2050143.0,1577876258.69
2050177.0,1577876258.729
2050763.0,1577876258.768
2051291.0,1577876258.807
2052315.0,1577876258.846
2053449.0,1577876258.885
2054666.0,1577876258.924
2055887.0,1577876258.963
2056892.0,1577876259.003
2058424.0,1577876259.043
2059010.0,1577876259.083
2060124.0,1577876259.123
2060780.0,1577876259.163
2062276.0,1577876259.203
2063336.0,1577876259.243
2064528.0,1577876259.283
2065250.0,1577876259.323
2064380.0,1577876259.363
2063871.0,1577876259.403
2063602.0,1577876259.443
2063353.0,1577876259.483
2063420.0,1577876259.523
2063920.0,1577876259.563
2064622.0,1577876259.603
2064847.0,1577876259.643
2065075.0,1577876259.683
2065247.0,1577876259.723
2066084.0,1577876259.763
2066851.0,1577876259.803
2067725.0,1577876259.843
2068392.0,1577876259.883
2069424.0,1577876259.923
2070078.0,1577876259.963
2072234.0,1577876260.043
2071112.0,1577876260.003
2073062.0,1577876260.083
2074056.0,1577876260.123
2074976.0,1577876260.163
2076203.0,1577876260.203
2077509.0,1577876260.243
2077590.0,1577876260.283
2076467.0,1577876260.323
2073314.0,1577876260.443
2075390.0,1577876260.363
2072757.0,1577876260.563
2073033.0,1577876260.483
2072557.0,1577876260.603
2074181.0,1577876260.403
2072747.0,1577876260.643
2072632.0,1577876260.523
2072739.0,1577876260.683
2073459.0,1577876260.723
2073979.0,1577876260.763
2075127.0,1577876260.803
2076215.0,1577876260.843
2077585.0,1577876260.883
2078773.0,1577876260.923
2080076.0,1577876260.963
2081022.0,1577876261.003
2082384.0,1577876261.043
2083313.0,1577876261.083
2084340.0,1577876261.123
2085642.0,1577876261.163
2087259.0,1577876261.203
2089032.0,1577876261.243
2089927.0,1577876261.283
2089151.0,1577876261.323
2088351.0,1577876261.363
2087979.0,1577876261.403
2087716.0,1577876261.443
2087660.0,1577876261.483
2088136.0,1577876261.523
2088348.0,1577876261.563
2088509.0,1577876261.603
2088443.0,1577876261.643
2089005.0,1577876261.683
2089227.0,1577876261.723
2089842.0,1577876261.763
2090821.0,1577876261.803
2091123.0,1577876261.843
2091351.0,1577876261.883
2092206.0,1577876261.923
2092911.0,1577876261.963
2093800.0,1577876262.003
2094335.0,1577876262.043
2095067.0,1577876262.083
2095742.0,1577876262.123
2096678.0,1577876262.163
2097742.0,1577876262.203
2097765.0,1577876262.243
2096806.0,1577876262.283
2095395.0,1577876262.323
2095101.0,1577876262.363
2094738.0,1577876262.403
2094499.0,1577876262.443
2094598.0,1577876262.483
2094880.0,1577876262.523
2094814.0,1577876262.563
2094722.0,1577876262.603
2094716.0,1577876262.643
2095022.0,1577876262.683
2095173.0,1577876262.723
2095710.0,1577876262.763
2096453.0,1577876262.803
2096890.0,1577876262.843
2097510.0,1577876262.883
2097981.0,1577876262.923
2098601.0,1577876262.963
2099107.0,1577876263.003
2099877.0,1577876263.043
2100525.0,1577876263.083
2100907.0,1577876263.123
2100931.0,1577876263.163
2099360.0,1577876263.203
2097831.0,1577876263.243
2096606.0,1577876263.283
2095645.0,1577876263.323
2095095.0,1577876263.363
2094223.0,1577876263.403
2093984.0,1577876263.443
2093546.0,1577876263.483
2093191.0,1577876263.523
2092559.0,1577876263.563
2092659.0,1577876263.603
2092563.0,1577876263.643
2092397.0,1577876263.683
2092196.0,1577876263.723
2091966.0,1577876263.763
2092201.0,1577876263.803
2092678.0,1577876263.843
2093031.0,1577876263.883
2093445.0,1577876263.923
2093798.0,1577876263.963
2094343.0,1577876264.003
2094717.0,1577876264.043
2094992.0,1577876264.083
2095462.0,1577876264.123
2093748.0,1577876264.163
2091933.0,1577876264.203
2090334.0,1577876264.243
2089157.0,1577876264.283
2088193.0,1577876264.323
2087442.0,1577876264.363
2086706.0,1577876264.403
2085744.0,1577876264.443
2084012.0,1577876264.483
2083057.0,1577876264.523
2082433.0,1577876264.563
2082456.0,1577876264.603
2081802.0,1577876264.643
2081392.0,1577876264.683
2081170.0,1577876264.723
2081342.0,1577876264.763
2081176.0,1577876264.803
2081397.0,1577876264.843
2081557.0,1577876264.883
2081958.0,1577876264.923
2082175.0,1577876264.963
2082631.0,1577876265.003
2083460.0,1577876265.043
2084063.0,1577876265.083
2084973.0,1577876265.123
2084428.0,1577876265.163
2082332.0,1577876265.203
2080383.0,1577876265.243
2078692.0,1577876265.283
2077598.0,1577876265.323
2076747.0,1577876265.363
2075954.0,1577876265.403
2075565.0,1577876265.443
2074656.0,1577876265.483
2073937.0,1577876265.523
2073379.0,1577876265.563
2073091.0,1577876265.603
2073121.0,1577876265.643
2073250.0,1577876265.683
2073456.0,1577876265.723
2073591.0,1577876265.763
2073803.0,1577876265.803
2074060.0,1577876265.843
2074600.0,1577876265.883
2075012.0,1577876265.923
2075411.0,1577876265.963
2075741.0,1577876266.003
2076477.0,1577876266.043
2077253.0,1577876266.083
2077601.0,1577876266.123
2076618.0,1577876266.163
2074454.0,1577876266.203
2072615.0,1577876266.243
2071805.0,1577876266.283
2071117.0,1577876266.323
2070504.0,1577876266.363
2070276.0,1577876266.403
2069942.0,1577876266.443
2069620.0,1577876266.483
2069289.0,1577876266.523
2069179.0,1577876266.563
2069475.0,1577876266.603
2069734.0,1577876266.643
2070480.0,1577876266.683
2070712.0,1577876266.723
2071020.0,1577876266.763
2071158.0,1577876266.803
2071536.0,1577876266.843
2071818.0,1577876266.883
2072404.0,1577876266.923
2072888.0,1577876266.963
2073404.0,1577876267.003
2074271.0,1577876267.043
2073817.0,1577876267.083
2071973.0,1577876267.123
2069875.0,1577876267.163
2068734.0,1577876267.203
2067744.0,1577876267.243
2066943.0,1577876267.283
2066671.0,1577876267.323
2066632.0,1577876267.363
2066191.0,1577876267.403
2065472.0,1577876267.443
2064953.0,1577876267.483
2064954.0,1577876267.523
2064858.0,1577876267.563
2065139.0,1577876267.603
2065357.0,1577876267.643
2065844.0,1577876267.683
2066134.0,1577876267.723
2066633.0,1577876267.763
2067298.0,1577876267.803
2067573.0,1577876267.843
2067560.0,1577876267.883
2067494.0,1577876267.923
2067760.0,1577876267.963
2068003.0,1577876268.003
2068301.0,1577876268.043
2067667.0,1577876268.083
2065406.0,1577876268.123
2063067.0,1577876268.163
2061275.0,1577876268.203
2060228.0,1577876268.243
2059408.0,1577876268.283
2059013.0,1577876268.323
2058632.0,1577876268.363
2058405.0,1577876268.403
2057874.0,1577876268.443
2057332.0,1577876268.483
2057442.0,1577876268.523
2057692.0,1577876268.563
2058140.0,1577876268.603
2058569.0,1577876268.643
2059033.0,1577876268.683
2059485.0,1577876268.723
2059801.0,1577876268.763
2060381.0,1577876268.803
2060953.0,1577876268.843
2061880.0,1577876268.883
2062338.0,1577876268.923
2063130.0,1577876268.963
2064190.0,1577876269.003
2064834.0,1577876269.043
2065051.0,1577876269.083
2063570.0,1577876269.123
2061448.0,1577876269.163
2059813.0,1577876269.203
2058707.0,1577876269.243
2057882.0,1577876269.283
2057360.0,1577876269.323
2057238.0,1577876269.363
2056585.0,1577876269.403
2056110.0,1577876269.443
2055682.0,1577876269.483
2055602.0,1577876269.523
2055492.0,1577876269.563
2055718.0,1577876269.603
2056444.0,1577876269.643
2056666.0,1577876269.683
2057103.0,1577876269.723
2057660.0,1577876269.807
2058061.0,1577876269.849
2058690.0,1577876269.887
2059004.0,1577876269.928
2059608.0,1577876269.969
2060169.0,1577876270.008
2060766.0,1577876270.048
2061145.0,1577876270.089
2061108.0,1577876270.128
2059608.0,1577876270.168
2057609.0,1577876270.209
2056319.0,1577876270.242
2055230.0,1577876270.279
2054686.0,1577876270.318
2054150.0,1577876270.357
2054192.0,1577876270.398
2053295.0,1577876270.44
2052858.0,1577876270.478
2052505.0,1577876270.518
2052226.0,1577876270.56
2052440.0,1577876270.599
2052422.0,1577876270.64
2052896.0,1577876270.678
2053489.0,1577876270.717
2053571.0,1577876270.758
2054075.0,1577876270.799
2054555.0,1577876270.839
2055261.0,1577876270.879
2055795.0,1577876270.92
2056135.0,1577876270.959
2056194.0,1577876270.999
2055758.0,1577876271.039
2055133.0,1577876271.078
2052403.0,1577876271.118
2049833.0,1577876271.159
2047281.0,1577876271.198
2045852.0,1577876271.239
2044375.0,1577876271.28
2043170.0,1577876271.319
2042397.0,1577876271.358
2041122.0,1577876271.399
2039593.0,1577876271.439
2038127.0,1577876271.478
2037151.0,1577876271.52
2036364.0,1577876271.559
2035738.0,1577876271.599
2035522.0,1577876271.641
2035439.0,1577876271.68
2035240.0,1577876271.718
2035065.0,1577876271.759
2034941.0,1577876271.798
2035073.0,1577876271.839
2034925.0,1577876271.88
2035095.0,1577876271.919
2035281.0,1577876271.959
2035632.0,1577876272.001
2035629.0,1577876272.041
2034915.0,1577876272.078
2032429.0,1577876272.119
2029950.0,1577876272.158
2027778.0,1577876272.199
2026538.0,1577876272.241
2025197.0,1577876272.279
2024493.0,1577876272.319
2023549.0,1577876272.361
2022341.0,1577876272.4
2021352.0,1577876272.439
2020432.0,1577876272.479
2019850.0,1577876272.519
2019396.0,1577876272.559
2019126.0,1577876272.6
2018619.0,1577876272.64
2018495.0,1577876272.68
2018333.0,1577876272.721
2018045.0,1577876272.76
2018264.0,1577876272.798
2018174.0,1577876272.84
2018271.0,1577876272.879
2018290.0,1577876272.919
2018680.0,1577876272.96
2018786.0,1577876272.999
2019350.0,1577876273.04
2018919.0,1577876273.081
2016301.0,1577876273.12
2013361.0,1577876273.158
2011472.0,1577876273.2
2009759.0,1577876273.24
2008950.0,1577876273.279
2007914.0,1577876273.32
2007134.0,1577876273.36
2006322.0,1577876273.4
2005318.0,1577876273.442
2004292.0,1577876273.48
2003621.0,1577876273.519
2003009.0,1577876273.599
2003152.0,1577876273.56
2003178.0,1577876273.681
2003108.0,1577876273.64
2003072.0,1577876273.72
2003238.0,1577876273.76
2003606.0,1577876273.802
2003869.0,1577876273.839
2004020.0,1577876273.879
2004650.0,1577876273.92
2005238.0,1577876273.96
2005972.0,1577876274.0
2005562.0,1577876274.042
2003324.0,1577876274.08
2001186.0,1577876274.121
1999856.0,1577876274.162
1998899.0,1577876274.199
1998313.0,1577876274.24
1997972.0,1577876274.281
1997614.0,1577876274.32
1996759.0,1577876274.36
1996183.0,1577876274.401
1996135.0,1577876274.441
1996065.0,1577876274.481
1996561.0,1577876274.52
1996836.0,1577876274.559
1997586.0,1577876274.6
1998006.0,1577876274.642
1998852.0,1577876274.68
1999490.0,1577876274.72
1999832.0,1577876274.762
2000231.0,1577876274.801
2001048.0,1577876274.842
2001776.0,1577876274.88
2002445.0,1577876274.92
2001651.0,1577876274.96
1999254.0,1577876275.001
1996656.0,1577876275.041
1994677.0,1577876275.081
1993534.0,1577876275.122
1992482.0,1577876275.161
1991478.0,1577876275.199
1989841.0,1577876275.241
1987854.0,1577876275.28
1986468.0,1577876275.32
1985015.0,1577876275.362
1983780.0,1577876275.401
1982760.0,1577876275.442
1982246.0,1577876275.482
1981629.0,1577876275.522
1981549.0,1577876275.56
1981361.0,1577876275.601
1981066.0,1577876275.641
1981153.0,1577876275.68
1981137.0,1577876275.722
1981174.0,1577876275.761
1981359.0,1577876275.801
1981797.0,1577876275.843
1982452.0,1577876275.882
1982796.0,1577876275.92
1980661.0,1577876275.961
1977546.0,1577876276.0
1974747.0,1577876276.041
1972817.0,1577876276.082
1970989.0,1577876276.121
1969755.0,1577876276.161
1968682.0,1577876276.203
1967784.0,1577876276.241
1966899.0,1577876276.28
1965688.0,1577876276.322
1964837.0,1577876276.361
1964624.0,1577876276.401
1964325.0,1577876276.443
1964619.0,1577876276.482
1964637.0,1577876276.522
1964681.0,1577876276.561
1964876.0,1577876276.6
1965143.0,1577876276.641
1965133.0,1577876276.682
1965343.0,1577876276.721
1965668.0,1577876276.761
1966215.0,1577876276.803
1966802.0,1577876276.843
1967258.0,1577876276.88
1965896.0,1577876276.922
1963008.0,1577876276.961
1960622.0,1577876277.001
1959299.0,1577876277.043
1958180.0,1577876277.082
1957351.0,1577876277.122
1956923.0,1577876277.163
1956867.0,1577876277.202
1955971.0,1577876277.241
1955283.0,1577876277.282
1955141.0,1577876277.321
1955031.0,1577876277.361
1955430.0,1577876277.403
1955838.0,1577876277.442
1956356.0,1577876277.482
1956729.0,1577876277.523
1957307.0,1577876277.563
1958004.0,1577876277.601
1958352.0,1577876277.643
1959210.0,1577876277.681
1960186.0,1577876277.721
1961005.0,1577876277.763
1963229.0,1577876277.843
1961983.0,1577876277.802
1962287.0,1577876277.883
1960117.0,1577876277.923
1958194.0,1577876277.961
1957539.0,1577876278.002
1957190.0,1577876278.042
1956843.0,1577876278.082
1956835.0,1577876278.123
1956693.0,1577876278.162
1956324.0,1577876278.202
1956138.0,1577876278.244
1955973.0,1577876278.283
1956516.0,1577876278.321
1957016.0,1577876278.362
1957743.0,1577876278.402
1958479.0,1577876278.443
1959103.0,1577876278.483
1960072.0,1577876278.522
1961042.0,1577876278.563
1962125.0,1577876278.604
1962865.0,1577876278.642
1964183.0,1577876278.681
1965402.0,1577876278.723
1966572.0,1577876278.762
1968027.0,1577876278.802
1968223.0,1577876278.844
1966799.0,1577876278.883
1965203.0,1577876278.923
1964191.0,1577876278.964
1963529.0,1577876279.001
1963166.0,1577876279.042
1963085.0,1577876279.083
1963188.0,1577876279.122
1962696.0,1577876279.162
1962254.0,1577876279.204
1962236.0,1577876279.244
1962813.0,1577876279.283
1963338.0,1577876279.323
1963268.0,1577876279.362
1962996.0,1577876279.402
1963248.0,1577876279.444
1963723.0,1577876279.483
1964143.0,1577876279.523
1964747.0,1577876279.564
1965342.0,1577876279.603
1965634.0,1577876279.644
1966086.0,1577876279.683
1966510.0,1577876279.722
1967195.0,1577876279.762
1968066.0,1577876279.804
1968388.0,1577876279.843
1967246.0,1577876279.883
1965260.0,1577876279.924
1963582.0,1577876279.963
1962949.0,1577876280.004
1962405.0,1577876280.044
1962344.0,1577876280.082
1962434.0,1577876280.122
1962514.0,1577876280.164
1961654.0,1577876280.244
1961861.0,1577876280.203
1961922.0,1577876280.285
1962668.0,1577876280.324
1963051.0,1577876280.362
1964526.0,1577876280.443
1963663.0,1577876280.403
1965300.0,1577876280.483
1967107.0,1577876280.563
1966316.0,1577876280.524
1967903.0,1577876280.604
1969035.0,1577876280.646
1970203.0,1577876280.684
1971194.0,1577876280.722
1972567.0,1577876280.763
1973257.0,1577876280.803
1971843.0,1577876280.844
1970138.0,1577876280.884
1969446.0,1577876280.923
1969289.0,1577876280.963
1969130.0,1577876281.005
1969485.0,1577876281.045
1970064.0,1577876281.084
1970433.0,1577876281.123
1970391.0,1577876281.163
1970777.0,1577876281.203
1971147.0,1577876281.245
1972057.0,1577876281.283
1973026.0,1577876281.324
1973915.0,1577876281.365
1975008.0,1577876281.404
1975992.0,1577876281.445
1977063.0,1577876281.484
1977947.0,1577876281.523
1979040.0,1577876281.563
1980158.0,1577876281.604
1981281.0,1577876281.644
1982598.0,1577876281.684
1983861.0,1577876281.725
1984507.0,1577876281.764
1983247.0,1577876281.807
1981791.0,1577876281.849
1980881.0,1577876281.888
1980679.0,1577876281.928
1980663.0,1577876281.969
1980828.0,1577876282.008
1981271.0,1577876282.049
1981497.0,1577876282.089
1981637.0,1577876282.128
1981700.0,1577876282.168
1982124.0,1577876282.209
1982996.0,1577876282.249
1983819.0,1577876282.286
1984780.0,1577876282.327
1985694.0,1577876282.367
1986613.0,1577876282.407
1987663.0,1577876282.449
1988555.0,1577876282.487
1989417.0,1577876282.528
1990805.0,1577876282.569
1991845.0,1577876282.608
1992942.0,1577876282.647
1994394.0,1577876282.687
1995572.0,1577876282.727
1995528.0,1577876282.767
1994471.0,1577876282.808
1993131.0,1577876282.848
1992602.0,1577876282.888
1992398.0,1577876282.929
1992650.0,1577876282.968
1992860.0,1577876283.006
1993455.0,1577876283.048
1993630.0,1577876283.087
1993497.0,1577876283.127
1993959.0,1577876283.168
1994518.0,1577876283.208
1995488.0,1577876283.249
1996346.0,1577876283.289
1997209.0,1577876283.328
1998293.0,1577876283.367
1999871.0,1577876283.408
2001656.0,1577876283.448
2003696.0,1577876283.487
2005358.0,1577876283.529
2006655.0,1577876283.568
2007855.0,1577876283.608
2009022.0,1577876283.65
2010498.0,1577876283.689
2011104.0,1577876283.727
2010564.0,1577876283.768
2009488.0,1577876283.807
2008944.0,1577876283.848
2009037.0,1577876283.889
2009317.0,1577876283.928
2009887.0,1577876283.968
2010403.0,1577876284.01
2010758.0,1577876284.049
2010941.0,1577876284.087
2011436.0,1577876284.128
2012090.0,1577876284.167
2012699.0,1577876284.208
2013534.0,1577876284.25
2014530.0,1577876284.288
2015195.0,1577876284.328
2016084.0,1577876284.37
2017116.0,1577876284.409
2018054.0,1577876284.448
2018909.0,1577876284.488
2019211.0,1577876284.528
2019652.0,1577876284.568
2019932.0,1577876284.609
2020504.0,1577876284.649
2020899.0,1577876284.689
2020360.0,1577876284.73
2018557.0,1577876284.769
2017104.0,1577876284.807
2016460.0,1577876284.849
2016226.0,1577876284.888
2015926.0,1577876284.928
2015824.0,1577876284.969
2016380.0,1577876285.008
2016242.0,1577876285.049
2016162.0,1577876285.09
2016234.0,1577876285.129
2016386.0,1577876285.167
2016861.0,1577876285.209
2017475.0,1577876285.249
2017916.0,1577876285.288
2018537.0,1577876285.33
2019232.0,1577876285.369
2019767.0,1577876285.409
2020462.0,1577876285.451
2021083.0,1577876285.488
2021923.0,1577876285.528
2022862.0,1577876285.569
