bvp,time
169.08,1596631421.59375
170.14,1596631421.609375
167.21,1596631421.625
160.57,1596631421.640625
150.89,1596631421.65625
139.53,1596631421.671875
128.38,1596631421.6875
119.36,1596631421.703125
113.87,1596631421.71875
112.49,1596631421.734375
115.01,1596631421.75
120.57,1596631421.765625
127.83,1596631421.78125
135.17,1596631421.796875
141.07,1596631421.8125
144.6,1596631421.828125
145.79,1596631421.84375
145.54,1596631421.859375
145.1,1596631421.875
145.28,1596631421.890625
145.92,1596631421.90625
146.05,1596631421.921875
144.58,1596631421.9375
141.1,1596631421.953125
136.26,1596631421.96875
131.41,1596631421.984375
127.81,1596631422.0
125.93,1596631422.015625
125.22,1596631422.03125
124.63,1596631422.046875
123.21,1596631422.0625
120.59,1596631422.078125
116.82,1596631422.09375
111.95,1596631422.109375
105.73,1596631422.125
97.78,1596631422.140625
88.13,1596631422.15625
77.68,1596631422.171875
68.02,1596631422.1875
60.62,1596631422.203125
55.73,1596631422.21875
51.94,1596631422.234375
46.7,1596631422.25
37.6,1596631422.265625
23.82,1596631422.28125
6.66,1596631422.296875
-10.96,1596631422.3125
-25.92,1596631422.328125
-36.24,1596631422.34375
-41.75,1596631422.359375
-43.75,1596631422.375
-44.08,1596631422.390625
-44.27,1596631422.40625
-45.02,1596631422.421875
-46.3,1596631422.4375
-47.73,1596631422.453125
-48.86,1596631422.46875
-49.35,1596631422.484375
-48.87,1596631422.5
-47.02,1596631422.515625
-43.29,1596631422.53125
-37.24,1596631422.546875
-28.67,1596631422.5625
-17.74,1596631422.578125
-5.02,1596631422.59375
8.57,1596631422.609375
21.87,1596631422.625
33.63,1596631422.640625
42.74,1596631422.65625
48.5,1596631422.671875
50.74,1596631422.6875
49.87,1596631422.703125
46.79,1596631422.71875
42.56,1596631422.734375
38.19,1596631422.75
34.48,1596631422.765625
31.91,1596631422.78125
30.63,1596631422.796875
30.31,1596631422.8125
30.26,1596631422.828125
29.39,1596631422.84375
26.61,1596631422.859375
21.13,1596631422.875
12.8,1596631422.890625
2.1,1596631422.90625
-10.23,1596631422.921875
-23.75,1596631422.9375
-38.76,1596631422.953125
-56.36,1596631422.96875
-78.08,1596631422.984375
-105.39,1596631423.0
-139.46,1596631423.015625
-181.41,1596631423.03125
-232.34,1596631423.046875
-292.98,1596631423.0625
-362.39,1596631423.078125
-436.65,1596631423.09375
-508.44,1596631423.109375
-568.31,1596631423.125
-607.39,1596631423.140625
-620.35,1596631423.15625
-606.96,1596631423.171875
-571.22,1596631423.1875
-518.87,1596631423.203125
-454.78,1596631423.21875
-382.21,1596631423.234375
-304.3,1596631423.25
-226.32,1596631423.265625
-156.67,1596631423.28125
-105.11,1596631423.296875
-78.86,1596631423.3125
-78.82,1596631423.328125
-98.06,1596631423.34375
-124.3,1596631423.359375
-145.04,1596631423.375
-152.33,1596631423.390625
-145.31,1596631423.40625
-129.12,1596631423.421875
-111.28,1596631423.4375
-97.91,1596631423.453125
-92.1,1596631423.46875
-94.63,1596631423.484375
-105.72,1596631423.5
-125.89,1596631423.515625
-154.99,1596631423.53125
-190.09,1596631423.546875
-224.22,1596631423.5625
-247.25,1596631423.578125
-249.12,1596631423.59375
-223.81,1596631423.609375
-171.84,1596631423.625
-100.27,1596631423.640625
-20.22,1596631423.65625
56.71,1596631423.671875
121.33,1596631423.6875
168.44,1596631423.703125
196.81,1596631423.71875
208.46,1596631423.734375
207.62,1596631423.75
199.57,1596631423.765625
189.5,1596631423.78125
181.39,1596631423.796875
177.24,1596631423.8125
176.82,1596631423.828125
178.4,1596631423.84375
179.79,1596631423.859375
179.12,1596631423.875
175.54,1596631423.890625
169.34,1596631423.90625
161.62,1596631423.921875
153.84,1596631423.9375
147.28,1596631423.953125
142.54,1596631423.96875
139.43,1596631423.984375
137.12,1596631424.0
134.64,1596631424.015625
131.32,1596631424.03125
126.89,1596631424.046875
121.48,1596631424.0625
115.3,1596631424.078125
108.49,1596631424.09375
101.11,1596631424.109375
93.27,1596631424.125
85.2,1596631424.140625
77.24,1596631424.15625
69.74,1596631424.171875
62.86,1596631424.1875
56.58,1596631424.203125
50.69,1596631424.21875
44.94,1596631424.234375
39.23,1596631424.25
33.65,1596631424.265625
28.46,1596631424.28125
23.95,1596631424.296875
20.33,1596631424.3125
17.54,1596631424.328125
15.22,1596631424.34375
12.79,1596631424.359375
9.7,1596631424.375
5.65,1596631424.390625
0.81,1596631424.40625
-4.24,1596631424.421875
-8.72,1596631424.4375
-12.06,1596631424.453125
-14.08,1596631424.46875
-15.1,1596631424.484375
-15.77,1596631424.5
-16.75,1596631424.515625
-18.51,1596631424.53125
-21.14,1596631424.546875
-24.42,1596631424.5625
-27.94,1596631424.578125
-31.31,1596631424.59375
-34.29,1596631424.609375
-36.86,1596631424.625
-39.17,1596631424.640625
-41.45,1596631424.65625
-43.93,1596631424.671875
-46.76,1596631424.6875
-50.01,1596631424.703125
-53.63,1596631424.71875
-57.49,1596631424.734375
-61.39,1596631424.75
-64.99,1596631424.765625
-68.03,1596631424.78125
-70.32,1596631424.796875
-72.02,1596631424.8125
-73.59,1596631424.828125
-75.67,1596631424.84375
-78.79,1596631424.859375
-82.99,1596631424.875
-87.67,1596631424.890625
-91.69,1596631424.90625
-93.72,1596631424.921875
-92.76,1596631424.9375
-88.51,1596631424.953125
-81.45,1596631424.96875
-72.71,1596631424.984375
-63.59,1596631425.0
-55.27,1596631425.015625
-48.51,1596631425.03125
-43.68,1596631425.046875
-40.87,1596631425.0625
-39.98,1596631425.078125
-40.82,1596631425.09375
-43.06,1596631425.109375
-46.1,1596631425.125
-49.13,1596631425.140625
-51.2,1596631425.15625
-51.49,1596631425.171875
-49.43,1596631425.1875
-44.89,1596631425.203125
-38.12,1596631425.21875
-29.62,1596631425.234375
-20.04,1596631425.25
-10.04,1596631425.265625
-0.15,1596631425.28125
9.26,1596631425.296875
18.0,1596631425.3125
26.05,1596631425.328125
33.52,1596631425.34375
40.49,1596631425.359375
46.92,1596631425.375
52.61,1596631425.390625
57.26,1596631425.40625
60.66,1596631425.421875
62.82,1596631425.4375
64.01,1596631425.453125
64.68,1596631425.46875
65.24,1596631425.484375
65.9,1596631425.5
66.56,1596631425.515625
66.91,1596631425.53125
66.6,1596631425.546875
65.46,1596631425.5625
63.56,1596631425.578125
61.2,1596631425.59375
58.74,1596631425.609375
56.48,1596631425.625
54.47,1596631425.640625
52.58,1596631425.65625
50.48,1596631425.671875
47.83,1596631425.6875
44.38,1596631425.703125
40.15,1596631425.71875
35.4,1596631425.734375
30.59,1596631425.75
26.2,1596631425.765625
22.45,1596631425.78125
19.19,1596631425.796875
15.92,1596631425.8125
11.99,1596631425.828125
6.84,1596631425.84375
0.23,1596631425.859375
-7.57,1596631425.875
-15.79,1596631425.890625
-23.27,1596631425.90625
-28.67,1596631425.921875
-30.85,1596631425.9375
-29.17,1596631425.953125
-23.8,1596631425.96875
-15.71,1596631425.984375
-6.4,1596631426.0
2.54,1596631426.015625
9.9,1596631426.03125
15.15,1596631426.046875
18.4,1596631426.0625
20.12,1596631426.078125
20.89,1596631426.09375
21.13,1596631426.109375
21.17,1596631426.125
21.25,1596631426.140625
21.58,1596631426.15625
22.34,1596631426.171875
23.55,1596631426.1875
25.05,1596631426.203125
26.5,1596631426.21875
27.53,1596631426.234375
27.92,1596631426.25
27.8,1596631426.265625
27.63,1596631426.28125
28.08,1596631426.296875
29.75,1596631426.3125
32.89,1596631426.328125
37.23,1596631426.34375
42.02,1596631426.359375
46.32,1596631426.375
49.33,1596631426.390625
50.66,1596631426.40625
50.41,1596631426.421875
49.03,1596631426.4375
47.11,1596631426.453125
45.1,1596631426.46875
43.2,1596631426.484375
41.32,1596631426.5
39.22,1596631426.515625
36.67,1596631426.53125
33.56,1596631426.546875
30.01,1596631426.5625
26.26,1596631426.578125
22.61,1596631426.59375
19.19,1596631426.609375
15.95,1596631426.625
12.72,1596631426.640625
9.28,1596631426.65625
5.55,1596631426.671875
1.61,1596631426.6875
-2.37,1596631426.703125
-6.15,1596631426.71875
-9.58,1596631426.734375
-12.55,1596631426.75
-15.05,1596631426.765625
-17.13,1596631426.78125
-18.97,1596631426.796875
-20.85,1596631426.8125
-23.19,1596631426.828125
-26.38,1596631426.84375
-30.59,1596631426.859375
-35.57,1596631426.875
-40.59,1596631426.890625
-44.52,1596631426.90625
-46.2,1596631426.921875
-44.77,1596631426.9375
-40.04,1596631426.953125
-32.57,1596631426.96875
-23.48,1596631426.984375
-14.11,1596631427.0
-5.62,1596631427.015625
1.3,1596631427.03125
6.49,1596631427.046875
10.19,1596631427.0625
12.8,1596631427.078125
14.72,1596631427.09375
16.2,1596631427.109375
17.4,1596631427.125
18.46,1596631427.140625
19.51,1596631427.15625
20.56,1596631427.171875
21.64,1596631427.1875
22.67,1596631427.203125
23.56,1596631427.21875
24.28,1596631427.234375
24.86,1596631427.25
25.36,1596631427.265625
25.84,1596631427.28125
26.32,1596631427.296875
26.77,1596631427.3125
27.17,1596631427.328125
27.5,1596631427.34375
27.72,1596631427.359375
27.78,1596631427.375
27.52,1596631427.390625
26.81,1596631427.40625
25.59,1596631427.421875
23.94,1596631427.4375
22.03,1596631427.453125
20.06,1596631427.46875
18.12,1596631427.484375
16.17,1596631427.5
14.17,1596631427.515625
12.15,1596631427.53125
10.28,1596631427.546875
8.7,1596631427.5625
7.47,1596631427.578125
6.42,1596631427.59375
5.27,1596631427.609375
3.76,1596631427.625
1.79,1596631427.640625
-0.43,1596631427.65625
-2.61,1596631427.671875
-4.52,1596631427.6875
-6.15,1596631427.703125
-7.75,1596631427.71875
-9.72,1596631427.734375
-12.45,1596631427.75
-16.16,1596631427.765625
-20.77,1596631427.78125
-25.92,1596631427.796875
-30.95,1596631427.8125
-34.98,1596631427.828125
-37.11,1596631427.84375
-36.66,1596631427.859375
-33.41,1596631427.875
-27.65,1596631427.890625
-20.2,1596631427.90625
-12.09,1596631427.921875
-4.31,1596631427.9375
2.37,1596631427.953125
7.65,1596631427.96875
11.52,1596631427.984375
14.24,1596631428.0
16.17,1596631428.015625
17.65,1596631428.03125
18.87,1596631428.046875
19.9,1596631428.0625
20.65,1596631428.078125
20.99,1596631428.09375
20.9,1596631428.109375
20.47,1596631428.125
19.93,1596631428.140625
19.57,1596631428.15625
19.53,1596631428.171875
19.79,1596631428.1875
20.18,1596631428.203125
20.54,1596631428.21875
20.81,1596631428.234375
21.08,1596631428.25
21.46,1596631428.265625
21.94,1596631428.28125
22.34,1596631428.296875
22.41,1596631428.3125
21.91,1596631428.328125
20.79,1596631428.34375
19.18,1596631428.359375
17.34,1596631428.375
15.44,1596631428.390625
13.56,1596631428.40625
11.7,1596631428.421875
9.83,1596631428.4375
8.01,1596631428.453125
6.26,1596631428.46875
4.55,1596631428.484375
2.77,1596631428.5
0.72,1596631428.515625
-1.71,1596631428.53125
-4.5,1596631428.546875
-7.43,1596631428.5625
-10.26,1596631428.578125
-12.8,1596631428.59375
-14.99,1596631428.609375
-16.96,1596631428.625
-18.94,1596631428.640625
-21.15,1596631428.65625
-23.83,1596631428.671875
-27.19,1596631428.6875
-31.33,1596631428.703125
-36.11,1596631428.71875
-41.03,1596631428.734375
-45.24,1596631428.75
-47.63,1596631428.765625
-47.24,1596631428.78125
-43.62,1596631428.796875
-37.02,1596631428.8125
-28.4,1596631428.828125
-19.09,1596631428.84375
-10.4,1596631428.859375
-3.25,1596631428.875
2.02,1596631428.890625
5.68,1596631428.90625
8.31,1596631428.921875
10.57,1596631428.9375
12.91,1596631428.953125
15.42,1596631428.96875
17.89,1596631428.984375
19.99,1596631429.0
21.45,1596631429.015625
22.19,1596631429.03125
22.37,1596631429.046875
22.27,1596631429.0625
22.22,1596631429.078125
22.38,1596631429.09375
22.85,1596631429.109375
23.59,1596631429.125
24.55,1596631429.140625
25.66,1596631429.15625
26.82,1596631429.171875
27.88,1596631429.1875
28.63,1596631429.203125
28.9,1596631429.21875
28.57,1596631429.234375
27.61,1596631429.25
26.13,1596631429.265625
24.26,1596631429.28125
22.18,1596631429.296875
20.04,1596631429.3125
17.96,1596631429.328125
15.98,1596631429.34375
14.07,1596631429.359375
12.17,1596631429.375
10.23,1596631429.390625
8.22,1596631429.40625
6.21,1596631429.421875
4.29,1596631429.4375
2.53,1596631429.453125
1.01,1596631429.46875
-0.29,1596631429.484375
-1.46,1596631429.5
-2.61,1596631429.515625
-3.89,1596631429.53125
-5.37,1596631429.546875
-7.05,1596631429.5625
-8.82,1596631429.578125
-10.59,1596631429.59375
-12.28,1596631429.609375
-13.98,1596631429.625
-15.93,1596631429.640625
-18.43,1596631429.65625
-21.68,1596631429.671875
-25.54,1596631429.6875
-29.5,1596631429.703125
-32.65,1596631429.71875
-34.04,1596631429.734375
-32.9,1596631429.75
-28.95,1596631429.765625
-22.41,1596631429.78125
-13.89,1596631429.796875
-4.21,1596631429.8125
5.77,1596631429.828125
15.24,1596631429.84375
23.4,1596631429.859375
29.49,1596631429.875
32.84,1596631429.890625
33.11,1596631429.90625
30.38,1596631429.921875
25.24,1596631429.9375
18.63,1596631429.953125
11.67,1596631429.96875
5.25,1596631429.984375
0.0,1596631430.0
-3.8,1596631430.015625
-6.12,1596631430.03125
-7.04,1596631430.046875
-6.68,1596631430.0625
-5.2,1596631430.078125
-2.81,1596631430.09375
0.24,1596631430.109375
3.6,1596631430.125
6.92,1596631430.140625
9.82,1596631430.15625
12.05,1596631430.171875
13.41,1596631430.1875
13.95,1596631430.203125
13.8,1596631430.21875
13.25,1596631430.234375
12.6,1596631430.25
12.09,1596631430.265625
11.8,1596631430.28125
11.64,1596631430.296875
11.45,1596631430.3125
11.06,1596631430.328125
10.38,1596631430.34375
9.48,1596631430.359375
8.48,1596631430.375
7.45,1596631430.390625
6.43,1596631430.40625
5.34,1596631430.421875
4.05,1596631430.4375
2.46,1596631430.453125
0.57,1596631430.46875
-1.58,1596631430.484375
-3.87,1596631430.5
-6.21,1596631430.515625
-8.56,1596631430.53125
-10.87,1596631430.546875
-13.09,1596631430.5625
-15.15,1596631430.578125
-17.06,1596631430.59375
-18.96,1596631430.609375
-21.15,1596631430.625
-23.97,1596631430.640625
-27.62,1596631430.65625
-31.91,1596631430.671875
-36.18,1596631430.6875
-39.42,1596631430.703125
-40.63,1596631430.71875
-39.2,1596631430.734375
-35.14,1596631430.75
-29.1,1596631430.765625
-22.14,1596631430.78125
-15.25,1596631430.796875
-9.12,1596631430.8125
-4.01,1596631430.828125
0.14,1596631430.84375
3.55,1596631430.859375
6.4,1596631430.875
8.85,1596631430.890625
11.04,1596631430.90625
13.09,1596631430.921875
15.14,1596631430.9375
17.18,1596631430.953125
19.05,1596631430.96875
20.5,1596631430.984375
21.36,1596631431.0
21.58,1596631431.015625
21.38,1596631431.03125
21.07,1596631431.046875
20.95,1596631431.0625
21.17,1596631431.078125
21.67,1596631431.09375
22.3,1596631431.109375
22.87,1596631431.125
23.23,1596631431.140625
23.34,1596631431.15625
23.17,1596631431.171875
22.7,1596631431.1875
21.92,1596631431.203125
20.85,1596631431.21875
19.58,1596631431.234375
18.25,1596631431.25
17.0,1596631431.265625
15.86,1596631431.28125
14.73,1596631431.296875
13.43,1596631431.3125
11.8,1596631431.328125
9.77,1596631431.34375
7.53,1596631431.359375
5.34,1596631431.375
3.45,1596631431.390625
1.95,1596631431.40625
0.7,1596631431.421875
-0.59,1596631431.4375
-2.23,1596631431.453125
-4.32,1596631431.46875
-6.79,1596631431.484375
-9.41,1596631431.5
-11.89,1596631431.515625
-14.08,1596631431.53125
-15.94,1596631431.546875
-17.61,1596631431.5625
-19.32,1596631431.578125
-21.36,1596631431.59375
-23.96,1596631431.609375
-27.24,1596631431.625
-31.14,1596631431.640625
-35.36,1596631431.65625
-39.32,1596631431.671875
-42.26,1596631431.6875
-43.38,1596631431.703125
-42.11,1596631431.71875
-38.28,1596631431.734375
-32.26,1596631431.75
-24.87,1596631431.765625
-17.15,1596631431.78125
-10.05,1596631431.796875
-4.17,1596631431.8125
0.37,1596631431.828125
3.8,1596631431.84375
6.51,1596631431.859375
8.81,1596631431.875
10.87,1596631431.890625
12.69,1596631431.90625
14.28,1596631431.921875
15.67,1596631431.9375
16.96,1596631431.953125
18.27,1596631431.96875
19.6,1596631431.984375
20.88,1596631432.0
21.98,1596631432.015625
22.83,1596631432.03125
23.42,1596631432.046875
23.88,1596631432.0625
24.36,1596631432.078125
24.94,1596631432.09375
25.65,1596631432.109375
26.39,1596631432.125
27.09,1596631432.140625
27.61,1596631432.15625
27.87,1596631432.171875
27.78,1596631432.1875
27.35,1596631432.203125
26.57,1596631432.21875
25.56,1596631432.234375
24.43,1596631432.25
23.24,1596631432.265625
22.02,1596631432.28125
20.69,1596631432.296875
19.19,1596631432.3125
17.45,1596631432.328125
15.53,1596631432.34375
13.53,1596631432.359375
11.63,1596631432.375
9.96,1596631432.390625
8.58,1596631432.40625
7.4,1596631432.421875
6.17,1596631432.4375
4.64,1596631432.453125
2.58,1596631432.46875
-0.05,1596631432.484375
-3.09,1596631432.5
-6.21,1596631432.515625
-9.06,1596631432.53125
-11.43,1596631432.546875
-13.32,1596631432.5625
-14.96,1596631432.578125
-16.7,1596631432.59375
-18.9,1596631432.609375
-21.78,1596631432.625
-25.44,1596631432.640625
-29.79,1596631432.65625
-34.47,1596631432.671875
-38.93,1596631432.6875
-42.36,1596631432.703125
-43.93,1596631432.71875
-43.0,1596631432.734375
-39.36,1596631432.75
-33.39,1596631432.765625
-25.91,1596631432.78125
-18.01,1596631432.796875
-10.67,1596631432.8125
-4.51,1596631432.828125
0.24,1596631432.84375
3.73,1596631432.859375
6.26,1596631432.875
8.18,1596631432.890625
9.77,1596631432.90625
11.23,1596631432.921875
12.65,1596631432.9375
14.04,1596631432.953125
15.34,1596631432.96875
16.38,1596631432.984375
17.02,1596631433.0
17.19,1596631433.015625
16.94,1596631433.03125
16.53,1596631433.046875
16.27,1596631433.0625
16.38,1596631433.078125
16.92,1596631433.09375
17.76,1596631433.109375
18.64,1596631433.125
19.32,1596631433.140625
19.65,1596631433.15625
19.57,1596631433.171875
19.08,1596631433.1875
18.18,1596631433.203125
16.9,1596631433.21875
15.22,1596631433.234375
13.28,1596631433.25
11.21,1596631433.265625
9.2,1596631433.28125
7.37,1596631433.296875
5.73,1596631433.3125
4.19,1596631433.328125
2.59,1596631433.34375
0.82,1596631433.359375
-1.22,1596631433.375
-3.5,1596631433.390625
-5.91,1596631433.40625
-8.31,1596631433.421875
-10.49,1596631433.4375
-12.36,1596631433.453125
-13.91,1596631433.46875
-15.34,1596631433.484375
-16.99,1596631433.5
-19.26,1596631433.515625
-22.35,1596631433.53125
-26.27,1596631433.546875
-30.65,1596631433.5625
-34.89,1596631433.578125
-38.28,1596631433.59375
-40.16,1596631433.609375
-40.11,1596631433.625
-37.95,1596631433.640625
-33.84,1596631433.65625
-28.11,1596631433.671875
-21.29,1596631433.6875
-13.93,1596631433.703125
-6.55,1596631433.71875
0.34,1596631433.734375
6.34,1596631433.75
11.2,1596631433.765625
14.88,1596631433.78125
17.6,1596631433.796875
19.8,1596631433.8125
22.0,1596631433.828125
24.64,1596631433.84375
27.82,1596631433.859375
31.3,1596631433.875
34.56,1596631433.890625
37.08,1596631433.90625
38.56,1596631433.921875
38.99,1596631433.9375
38.68,1596631433.953125
38.05,1596631433.96875
37.54,1596631433.984375
37.53,1596631434.0
38.37,1596631434.015625
40.19,1596631434.03125
42.74,1596631434.046875
45.17,1596631434.0625
46.09,1596631434.078125
44.0,1596631434.09375
37.9,1596631434.109375
27.82,1596631434.125
14.98,1596631434.140625
1.38,1596631434.15625
-10.87,1596631434.171875
-20.4,1596631434.1875
-26.75,1596631434.203125
-30.37,1596631434.21875
-31.99,1596631434.234375
-32.21,1596631434.25
-31.35,1596631434.265625
-29.52,1596631434.28125
-26.92,1596631434.296875
-24.01,1596631434.3125
-21.46,1596631434.328125
-19.83,1596631434.34375
-19.38,1596631434.359375
-19.93,1596631434.375
-21.0,1596631434.390625
-22.08,1596631434.40625
-22.8,1596631434.421875
-23.14,1596631434.4375
-23.33,1596631434.453125
-23.7,1596631434.46875
-24.51,1596631434.484375
-25.95,1596631434.5
-28.14,1596631434.515625
-31.11,1596631434.53125
-34.8,1596631434.546875
-38.9,1596631434.5625
-42.86,1596631434.578125
-45.87,1596631434.59375
-47.1,1596631434.609375
-45.98,1596631434.625
-42.41,1596631434.640625
-36.8,1596631434.65625
-29.89,1596631434.671875
-22.5,1596631434.6875
-15.25,1596631434.703125
-8.5,1596631434.71875
-2.45,1596631434.734375
2.84,1596631434.75
7.29,1596631434.765625
10.9,1596631434.78125
13.75,1596631434.796875
16.07,1596631434.8125
18.13,1596631434.828125
20.11,1596631434.84375
21.98,1596631434.859375
23.55,1596631434.875
24.59,1596631434.890625
24.95,1596631434.90625
24.78,1596631434.921875
24.45,1596631434.9375
24.37,1596631434.953125
24.84,1596631434.96875
25.85,1596631434.984375
27.14,1596631435.0
28.31,1596631435.015625
29.04,1596631435.03125
29.16,1596631435.046875
28.73,1596631435.0625
27.87,1596631435.078125
26.7,1596631435.09375
25.31,1596631435.109375
23.76,1596631435.125
22.13,1596631435.140625
20.57,1596631435.15625
19.17,1596631435.171875
17.98,1596631435.1875
16.88,1596631435.203125
15.7,1596631435.21875
14.27,1596631435.234375
12.5,1596631435.25
10.44,1596631435.265625
8.22,1596631435.28125
6.02,1596631435.296875
3.98,1596631435.3125
2.19,1596631435.328125
0.67,1596631435.34375
-0.65,1596631435.359375
-1.9,1596631435.375
-3.22,1596631435.390625
-4.78,1596631435.40625
-6.69,1596631435.421875
-8.96,1596631435.4375
-11.51,1596631435.453125
-14.18,1596631435.46875
-16.85,1596631435.484375
-19.47,1596631435.5
-22.12,1596631435.515625
-24.97,1596631435.53125
-28.18,1596631435.546875
-31.67,1596631435.5625
-35.13,1596631435.578125
-37.92,1596631435.59375
-39.3,1596631435.609375
-38.64,1596631435.625
-35.65,1596631435.640625
-30.47,1596631435.65625
-23.63,1596631435.671875
-15.83,1596631435.6875
-7.77,1596631435.703125
-0.03,1596631435.71875
6.98,1596631435.734375
13.03,1596631435.75
18.04,1596631435.765625
22.06,1596631435.78125
25.29,1596631435.796875
28.03,1596631435.8125
30.53,1596631435.828125
32.94,1596631435.84375
35.19,1596631435.859375
37.04,1596631435.875
38.2,1596631435.890625
38.45,1596631435.90625
37.81,1596631435.921875
36.56,1596631435.9375
35.27,1596631435.953125
34.56,1596631435.96875
34.96,1596631435.984375
36.63,1596631436.0
39.29,1596631436.015625
42.14,1596631436.03125
43.98,1596631436.046875
43.52,1596631436.0625
39.73,1596631436.078125
32.21,1596631436.09375
21.43,1596631436.109375
8.74,1596631436.125
-4.07,1596631436.140625
-15.26,1596631436.15625
-23.63,1596631436.171875
-28.8,1596631436.1875
-31.14,1596631436.203125
-31.42,1596631436.21875
-30.38,1596631436.234375
-28.52,1596631436.25
-26.09,1596631436.265625
-23.28,1596631436.28125
-20.37,1596631436.296875
-17.81,1596631436.3125
-16.06,1596631436.328125
-15.36,1596631436.34375
-15.62,1596631436.359375
-16.52,1596631436.375
-17.64,1596631436.390625
-18.69,1596631436.40625
-19.61,1596631436.421875
-20.55,1596631436.4375
-21.77,1596631436.453125
-23.44,1596631436.46875
-25.67,1596631436.484375
-28.46,1596631436.5
-31.7,1596631436.515625
-35.18,1596631436.53125
-38.49,1596631436.546875
-41.0,1596631436.5625
-41.97,1596631436.578125
-40.74,1596631436.59375
-37.02,1596631436.609375
-31.11,1596631436.625
-23.85,1596631436.640625
-16.3,1596631436.65625
-9.39,1596631436.671875
-3.62,1596631436.6875
1.03,1596631436.703125
4.89,1596631436.71875
8.33,1596631436.734375
11.51,1596631436.75
14.33,1596631436.765625
16.57,1596631436.78125
18.13,1596631436.796875
19.11,1596631436.8125
19.79,1596631436.828125
20.43,1596631436.84375
21.12,1596631436.859375
21.76,1596631436.875
22.17,1596631436.890625
22.29,1596631436.90625
22.2,1596631436.921875
22.18,1596631436.9375
22.44,1596631436.953125
23.05,1596631436.96875
23.88,1596631436.984375
24.67,1596631437.0
25.2,1596631437.015625
25.36,1596631437.03125
25.16,1596631437.046875
24.67,1596631437.0625
23.89,1596631437.078125
22.78,1596631437.09375
21.32,1596631437.109375
19.6,1596631437.125
17.77,1596631437.140625
16.06,1596631437.15625
14.57,1596631437.171875
13.32,1596631437.1875
12.22,1596631437.203125
11.15,1596631437.21875
10.07,1596631437.234375
8.98,1596631437.25
7.92,1596631437.265625
6.87,1596631437.28125
5.75,1596631437.296875
4.41,1596631437.3125
2.77,1596631437.328125
0.79,1596631437.34375
-1.51,1596631437.359375
-4.0,1596631437.375
-6.55,1596631437.390625
-9.02,1596631437.40625
-11.29,1596631437.421875
-13.24,1596631437.4375
-14.82,1596631437.453125
-16.08,1596631437.46875
-17.23,1596631437.484375
-18.63,1596631437.5
-20.71,1596631437.515625
-23.83,1596631437.53125
-28.06,1596631437.546875
-33.03,1596631437.5625
-37.9,1596631437.578125
-41.52,1596631437.59375
-42.84,1596631437.609375
-41.26,1596631437.625
-36.85,1596631437.640625
-30.35,1596631437.65625
-22.88,1596631437.671875
-15.6,1596631437.6875
-9.32,1596631437.703125
-4.39,1596631437.71875
-0.75,1596631437.734375
1.92,1596631437.75
4.03,1596631437.765625
5.94,1596631437.78125
7.94,1596631437.796875
10.17,1596631437.8125
12.6,1596631437.828125
15.03,1596631437.84375
17.15,1596631437.859375
18.64,1596631437.875
19.37,1596631437.890625
19.46,1596631437.90625
19.22,1596631437.921875
18.99,1596631437.9375
19.02,1596631437.953125
19.34,1596631437.96875
19.89,1596631437.984375
20.56,1596631438.0
21.27,1596631438.015625
22.0,1596631438.03125
22.64,1596631438.046875
23.01,1596631438.0625
22.85,1596631438.078125
22.0,1596631438.09375
20.49,1596631438.109375
18.62,1596631438.125
16.76,1596631438.140625
15.24,1596631438.15625
14.14,1596631438.171875
13.33,1596631438.1875
12.6,1596631438.203125
11.76,1596631438.21875
10.82,1596631438.234375
9.82,1596631438.25
8.88,1596631438.265625
8.01,1596631438.28125
7.13,1596631438.296875
6.13,1596631438.3125
4.99,1596631438.328125
3.76,1596631438.34375
2.53,1596631438.359375
1.37,1596631438.375
0.25,1596631438.390625
-0.99,1596631438.40625
-2.56,1596631438.421875
-4.59,1596631438.4375
-7.03,1596631438.453125
-9.7,1596631438.46875
-12.29,1596631438.484375
-14.6,1596631438.5
-16.55,1596631438.515625
-18.23,1596631438.53125
-19.86,1596631438.546875
-21.65,1596631438.5625
-23.75,1596631438.578125
-26.25,1596631438.59375
-29.13,1596631438.609375
-32.23,1596631438.625
-35.23,1596631438.640625
-37.56,1596631438.65625
-38.53,1596631438.671875
-37.52,1596631438.6875
-34.19,1596631438.703125
-28.74,1596631438.71875
-21.88,1596631438.734375
-14.57,1596631438.75
-7.82,1596631438.765625
-2.26,1596631438.78125
1.89,1596631438.796875
4.8,1596631438.8125
6.85,1596631438.828125
8.39,1596631438.84375
9.66,1596631438.859375
10.73,1596631438.875
11.55,1596631438.890625
12.08,1596631438.90625
12.27,1596631438.921875
12.17,1596631438.9375
11.89,1596631438.953125
11.59,1596631438.96875
11.43,1596631438.984375
11.53,1596631439.0
11.91,1596631439.015625
12.52,1596631439.03125
13.26,1596631439.046875
14.0,1596631439.0625
14.64,1596631439.078125
15.11,1596631439.09375
15.36,1596631439.109375
15.35,1596631439.125
15.06,1596631439.140625
14.48,1596631439.15625
13.64,1596631439.171875
12.65,1596631439.1875
11.64,1596631439.203125
10.75,1596631439.21875
10.05,1596631439.234375
9.51,1596631439.25
8.95,1596631439.265625
8.12,1596631439.28125
6.85,1596631439.296875
5.14,1596631439.3125
3.23,1596631439.328125
1.52,1596631439.34375
0.39,1596631439.359375
-0.04,1596631439.375
0.01,1596631439.390625
0.03,1596631439.40625
-0.53,1596631439.421875
-2.01,1596631439.4375
-4.39,1596631439.453125
-7.3,1596631439.46875
-10.22,1596631439.484375
-12.73,1596631439.5
-14.65,1596631439.515625
-16.09,1596631439.53125
-17.27,1596631439.546875
-18.46,1596631439.5625
-19.88,1596631439.578125
-21.72,1596631439.59375
-24.1,1596631439.609375
-27.01,1596631439.625
-30.18,1596631439.640625
-33.05,1596631439.65625
-34.79,1596631439.671875
-34.62,1596631439.6875
-32.03,1596631439.703125
-27.11,1596631439.71875
-20.47,1596631439.734375
-13.12,1596631439.75
-6.06,1596631439.765625
-0.02,1596631439.78125
4.78,1596631439.796875
8.51,1596631439.8125
11.53,1596631439.828125
14.22,1596631439.84375
16.73,1596631439.859375
19.07,1596631439.875
21.15,1596631439.890625
22.91,1596631439.90625
24.4,1596631439.921875
25.7,1596631439.9375
26.86,1596631439.953125
27.87,1596631439.96875
28.67,1596631439.984375
29.26,1596631440.0
29.76,1596631440.015625
30.39,1596631440.03125
31.31,1596631440.046875
32.49,1596631440.0625
33.69,1596631440.078125
34.54,1596631440.09375
34.72,1596631440.109375
34.17,1596631440.125
33.07,1596631440.140625
31.62,1596631440.15625
29.99,1596631440.171875
28.11,1596631440.1875
25.85,1596631440.203125
23.11,1596631440.21875
19.99,1596631440.234375
16.71,1596631440.25
13.49,1596631440.265625
10.34,1596631440.28125
7.0,1596631440.296875
3.1,1596631440.3125
-1.63,1596631440.328125
-7.11,1596631440.34375
-12.89,1596631440.359375
-18.31,1596631440.375
-22.87,1596631440.390625
-26.38,1596631440.40625
-29.02,1596631440.421875
-31.11,1596631440.4375
-32.9,1596631440.453125
-34.42,1596631440.46875
-35.45,1596631440.484375
-35.85,1596631440.5
-35.62,1596631440.515625
-34.98,1596631440.53125
-34.26,1596631440.546875
-33.72,1596631440.5625
-33.37,1596631440.578125
-33.05,1596631440.59375
-32.6,1596631440.609375
-31.94,1596631440.625
-31.22,1596631440.640625
-30.72,1596631440.65625
-30.71,1596631440.671875
-31.29,1596631440.6875
-32.36,1596631440.703125
-33.59,1596631440.71875
-34.57,1596631440.734375
-34.87,1596631440.75
-34.2,1596631440.765625
-32.47,1596631440.78125
-29.74,1596631440.796875
-26.29,1596631440.8125
-22.41,1596631440.828125
-18.42,1596631440.84375
-14.51,1596631440.859375
-10.81,1596631440.875
-7.37,1596631440.890625
-4.23,1596631440.90625
-1.51,1596631440.921875
0.65,1596631440.9375
2.12,1596631440.953125
2.91,1596631440.96875
3.18,1596631440.984375
3.25,1596631441.0
3.47,1596631441.015625
4.12,1596631441.03125
5.27,1596631441.046875
6.83,1596631441.0625
8.59,1596631441.078125
10.36,1596631441.09375
12.08,1596631441.109375
13.77,1596631441.125
15.47,1596631441.140625
17.17,1596631441.15625
18.7,1596631441.171875
19.83,1596631441.1875
20.33,1596631441.203125
20.17,1596631441.21875
19.48,1596631441.234375
18.54,1596631441.25
17.54,1596631441.265625
16.59,1596631441.28125
15.6,1596631441.296875
14.38,1596631441.3125
12.83,1596631441.328125
10.98,1596631441.34375
9.03,1596631441.359375
7.19,1596631441.375
5.58,1596631441.390625
4.17,1596631441.40625
2.83,1596631441.421875
1.4,1596631441.4375
-0.17,1596631441.453125
-1.83,1596631441.46875
-3.5,1596631441.484375
-5.13,1596631441.5
-6.76,1596631441.515625
-8.51,1596631441.53125
-10.43,1596631441.546875
-12.54,1596631441.5625
-14.67,1596631441.578125
-16.68,1596631441.59375
-18.49,1596631441.609375
-20.17,1596631441.625
-21.96,1596631441.640625
-24.17,1596631441.65625
-27.0,1596631441.671875
-30.39,1596631441.6875
-33.94,1596631441.703125
-36.97,1596631441.71875
-38.68,1596631441.734375
-38.4,1596631441.75
-35.86,1596631441.765625
-31.3,1596631441.78125
-25.38,1596631441.796875
-18.95,1596631441.8125
-12.79,1596631441.828125
-7.41,1596631441.84375
-2.96,1596631441.859375
0.59,1596631441.875
3.4,1596631441.890625
5.64,1596631441.90625
7.46,1596631441.921875
9.01,1596631441.9375
10.42,1596631441.953125
11.76,1596631441.96875
13.0,1596631441.984375
14.05,1596631442.0
14.83,1596631442.015625
15.34,1596631442.03125
15.68,1596631442.046875
15.98,1596631442.0625
16.31,1596631442.078125
16.68,1596631442.09375
17.06,1596631442.109375
17.47,1596631442.125
18.06,1596631442.140625
18.99,1596631442.15625
20.35,1596631442.171875
21.99,1596631442.1875
23.56,1596631442.203125
24.66,1596631442.21875
24.99,1596631442.234375
24.56,1596631442.25
23.63,1596631442.265625
22.61,1596631442.28125
21.82,1596631442.296875
21.42,1596631442.3125
21.32,1596631442.328125
21.25,1596631442.34375
20.99,1596631442.359375
20.34,1596631442.375
19.24,1596631442.390625
17.76,1596631442.40625
16.13,1596631442.421875
14.63,1596631442.4375
13.56,1596631442.453125
13.09,1596631442.46875
13.15,1596631442.484375
13.45,1596631442.5
13.5,1596631442.515625
12.8,1596631442.53125
11.08,1596631442.546875
8.4,1596631442.5625
5.17,1596631442.578125
2.0,1596631442.59375
-0.58,1596631442.609375
-2.31,1596631442.625
-3.32,1596631442.640625
-4.18,1596631442.65625
-5.73,1596631442.671875
-8.95,1596631442.6875
-14.6,1596631442.703125
-22.96,1596631442.71875
-33.58,1596631442.734375
-45.29,1596631442.75
-56.43,1596631442.765625
-65.34,1596631442.78125
-70.8,1596631442.796875
-72.36,1596631442.8125
-70.33,1596631442.828125
-65.57,1596631442.84375
-59.08,1596631442.859375
-51.73,1596631442.875
-44.11,1596631442.890625
-36.59,1596631442.90625
-29.43,1596631442.921875
-22.82,1596631442.9375
-16.94,1596631442.953125
-11.82,1596631442.96875
-7.42,1596631442.984375
-3.55,1596631443.0
-0.03,1596631443.015625
3.34,1596631443.03125
6.66,1596631443.046875
9.87,1596631443.0625
12.86,1596631443.078125
15.44,1596631443.09375
17.49,1596631443.109375
19.01,1596631443.125
20.11,1596631443.140625
20.99,1596631443.15625
21.8,1596631443.171875
22.61,1596631443.1875
23.32,1596631443.203125
23.78,1596631443.21875
23.86,1596631443.234375
23.52,1596631443.25
22.85,1596631443.265625
21.98,1596631443.28125
21.01,1596631443.296875
19.94,1596631443.3125
18.69,1596631443.328125
17.13,1596631443.34375
15.23,1596631443.359375
13.09,1596631443.375
10.87,1596631443.390625
8.78,1596631443.40625
6.96,1596631443.421875
5.42,1596631443.4375
4.07,1596631443.453125
2.81,1596631443.46875
1.54,1596631443.484375
0.15,1596631443.5
-1.42,1596631443.515625
-3.2,1596631443.53125
-5.19,1596631443.546875
-7.3,1596631443.5625
-9.38,1596631443.578125
-11.29,1596631443.59375
-13.01,1596631443.609375
-14.67,1596631443.625
-16.54,1596631443.640625
-18.91,1596631443.65625
-21.97,1596631443.671875
-25.66,1596631443.6875
-29.56,1596631443.703125
-33.03,1596631443.71875
-35.33,1596631443.734375
-35.83,1596631443.75
-34.19,1596631443.765625
-30.46,1596631443.78125
-25.08,1596631443.796875
-18.69,1596631443.8125
-12.07,1596631443.828125
-5.86,1596631443.84375
-0.58,1596631443.859375
3.55,1596631443.875
6.54,1596631443.890625
8.62,1596631443.90625
10.11,1596631443.921875
11.33,1596631443.9375
12.45,1596631443.953125
13.49,1596631443.96875
14.33,1596631443.984375
14.84,1596631444.0
14.99,1596631444.015625
14.9,1596631444.03125
14.79,1596631444.046875
14.83,1596631444.0625
15.12,1596631444.078125
15.64,1596631444.09375
16.31,1596631444.109375
17.08,1596631444.125
17.91,1596631444.140625
18.78,1596631444.15625
19.58,1596631444.171875
20.11,1596631444.1875
20.16,1596631444.203125
19.56,1596631444.21875
18.36,1596631444.234375
16.79,1596631444.25
15.19,1596631444.265625
13.85,1596631444.28125
12.87,1596631444.296875
12.11,1596631444.3125
11.28,1596631444.328125
10.12,1596631444.34375
8.55,1596631444.359375
6.67,1596631444.375
4.75,1596631444.390625
3.04,1596631444.40625
1.61,1596631444.421875
0.37,1596631444.4375
-0.92,1596631444.453125
-2.48,1596631444.46875
-4.38,1596631444.484375
-6.6,1596631444.5
-9.0,1596631444.515625
-11.44,1596631444.53125
-13.85,1596631444.546875
-16.19,1596631444.5625
-18.48,1596631444.578125
-20.8,1596631444.59375
-23.26,1596631444.609375
-26.01,1596631444.625
-29.21,1596631444.640625
-32.93,1596631444.65625
-36.99,1596631444.671875
-40.95,1596631444.6875
-44.09,1596631444.703125
-45.58,1596631444.71875
-44.8,1596631444.734375
-41.52,1596631444.75
-36.08,1596631444.765625
-29.25,1596631444.78125
-22.0,1596631444.796875
-15.15,1596631444.8125
-9.2,1596631444.828125
-4.26,1596631444.84375
-0.18,1596631444.859375
3.29,1596631444.875
6.38,1596631444.890625
9.2,1596631444.90625
11.84,1596631444.921875
14.29,1596631444.9375
16.53,1596631444.953125
18.52,1596631444.96875
20.16,1596631444.984375
21.38,1596631445.0
22.12,1596631445.015625
22.42,1596631445.03125
22.39,1596631445.046875
22.18,1596631445.0625
22.01,1596631445.078125
22.02,1596631445.09375
22.37,1596631445.109375
23.03,1596631445.125
23.89,1596631445.140625
24.68,1596631445.15625
25.16,1596631445.171875
25.13,1596631445.1875
24.61,1596631445.203125
23.77,1596631445.21875
22.85,1596631445.234375
22.06,1596631445.25
21.43,1596631445.265625
20.87,1596631445.28125
20.2,1596631445.296875
19.26,1596631445.3125
17.98,1596631445.328125
16.47,1596631445.34375
14.82,1596631445.359375
13.15,1596631445.375
11.52,1596631445.390625
9.89,1596631445.40625
8.24,1596631445.421875
6.57,1596631445.4375
4.94,1596631445.453125
3.46,1596631445.46875
2.18,1596631445.484375
1.08,1596631445.5
-0.02,1596631445.515625
-1.4,1596631445.53125
-3.29,1596631445.546875
-5.83,1596631445.5625
-8.9,1596631445.578125
-12.2,1596631445.59375
-15.37,1596631445.609375
-18.13,1596631445.625
-20.44,1596631445.640625
-22.46,1596631445.65625
-24.53,1596631445.671875
-26.97,1596631445.6875
-29.99,1596631445.703125
-33.63,1596631445.71875
-37.67,1596631445.734375
-41.68,1596631445.75
-45.04,1596631445.765625
-46.99,1596631445.78125
-46.85,1596631445.796875
-44.22,1596631445.8125
-39.18,1596631445.828125
-32.36,1596631445.84375
-24.74,1596631445.859375
-17.34,1596631445.875
-10.95,1596631445.890625
-5.87,1596631445.90625
-1.93,1596631445.921875
1.25,1596631445.9375
4.1,1596631445.953125
6.85,1596631445.96875
9.53,1596631445.984375
12.04,1596631446.0
14.22,1596631446.015625
16.03,1596631446.03125
17.5,1596631446.046875
18.75,1596631446.0625
19.89,1596631446.078125
20.9,1596631446.09375
21.74,1596631446.109375
22.32,1596631446.125
22.64,1596631446.140625
22.81,1596631446.15625
23.01,1596631446.171875
23.36,1596631446.1875
23.83,1596631446.203125
24.21,1596631446.21875
24.29,1596631446.234375
23.9,1596631446.25
23.1,1596631446.265625
22.1,1596631446.28125
21.15,1596631446.296875
20.39,1596631446.3125
19.79,1596631446.328125
19.18,1596631446.34375
18.39,1596631446.359375
17.38,1596631446.375
16.22,1596631446.390625
15.04,1596631446.40625
13.94,1596631446.421875
12.92,1596631446.4375
11.93,1596631446.453125
10.89,1596631446.46875
9.73,1596631446.484375
8.42,1596631446.5
6.91,1596631446.515625
5.22,1596631446.53125
3.38,1596631446.546875
1.47,1596631446.5625
-0.35,1596631446.578125
-2.0,1596631446.59375
-3.43,1596631446.609375
-4.72,1596631446.625
-5.98,1596631446.640625
-7.37,1596631446.65625
-8.96,1596631446.671875
-10.75,1596631446.6875
-12.71,1596631446.703125
-14.77,1596631446.71875
-16.88,1596631446.734375
-19.04,1596631446.75
-21.3,1596631446.765625
-23.77,1596631446.78125
-26.57,1596631446.796875
-29.77,1596631446.8125
-33.31,1596631446.828125
-36.9,1596631446.84375
-40.02,1596631446.859375
-41.97,1596631446.875
-42.16,1596631446.890625
-40.24,1596631446.90625
-36.29,1596631446.921875
-30.81,1596631446.9375
-24.53,1596631446.953125
-18.21,1596631446.96875
-12.4,1596631446.984375
-7.35,1596631447.0
-3.04,1596631447.015625
0.69,1596631447.03125
3.97,1596631447.046875
6.9,1596631447.0625
9.46,1596631447.078125
11.64,1596631447.09375
13.44,1596631447.109375
14.89,1596631447.125
16.0,1596631447.140625
16.82,1596631447.15625
17.38,1596631447.171875
17.72,1596631447.1875
17.98,1596631447.203125
18.31,1596631447.21875
18.85,1596631447.234375
19.73,1596631447.25
20.92,1596631447.265625
22.27,1596631447.28125
23.5,1596631447.296875
24.34,1596631447.3125
24.54,1596631447.328125
24.12,1596631447.34375
23.25,1596631447.359375
22.21,1596631447.375
21.25,1596631447.390625
20.45,1596631447.40625
19.7,1596631447.421875
18.83,1596631447.4375
17.68,1596631447.453125
16.25,1596631447.46875
14.65,1596631447.484375
13.0,1596631447.5
11.36,1596631447.515625
9.72,1596631447.53125
7.99,1596631447.546875
6.14,1596631447.5625
4.24,1596631447.578125
2.43,1596631447.59375
0.83,1596631447.609375
-0.55,1596631447.625
-1.8,1596631447.640625
-3.08,1596631447.65625
-4.57,1596631447.671875
-6.32,1596631447.6875
-8.31,1596631447.703125
-10.38,1596631447.71875
-12.34,1596631447.734375
-14.07,1596631447.75
-15.51,1596631447.765625
-16.75,1596631447.78125
-17.96,1596631447.796875
-19.4,1596631447.8125
-21.3,1596631447.828125
-23.88,1596631447.84375
-27.22,1596631447.859375
-31.17,1596631447.875
-35.27,1596631447.890625
-38.81,1596631447.90625
-40.94,1596631447.921875
-40.97,1596631447.9375
-38.53,1596631447.953125
-33.82,1596631447.96875
-27.46,1596631447.984375
-20.35,1596631448.0
-13.38,1596631448.015625
-7.19,1596631448.03125
-2.08,1596631448.046875
1.98,1596631448.0625
5.21,1596631448.078125
7.81,1596631448.09375
9.97,1596631448.109375
11.75,1596631448.125
13.16,1596631448.140625
14.2,1596631448.15625
14.87,1596631448.171875
15.23,1596631448.1875
15.41,1596631448.203125
15.54,1596631448.21875
15.79,1596631448.234375
16.24,1596631448.25
16.92,1596631448.265625
17.75,1596631448.28125
18.56,1596631448.296875
19.25,1596631448.3125
19.76,1596631448.328125
20.13,1596631448.34375
20.41,1596631448.359375
20.59,1596631448.375
20.54,1596631448.390625
20.08,1596631448.40625
19.06,1596631448.421875
17.52,1596631448.4375
15.69,1596631448.453125
13.88,1596631448.46875
12.36,1596631448.484375
11.21,1596631448.5
10.27,1596631448.515625
9.3,1596631448.53125
8.05,1596631448.546875
6.47,1596631448.5625
4.7,1596631448.578125
2.96,1596631448.59375
1.44,1596631448.609375
0.17,1596631448.625
-1.0,1596631448.640625
-2.3,1596631448.65625
-3.88,1596631448.671875
-5.75,1596631448.6875
-7.79,1596631448.703125
-9.82,1596631448.71875
-11.74,1596631448.734375
-13.56,1596631448.75
-15.35,1596631448.765625
-17.26,1596631448.78125
-19.41,1596631448.796875
-21.89,1596631448.8125
-24.79,1596631448.828125
-28.17,1596631448.84375
-31.93,1596631448.859375
-35.71,1596631448.875
-38.88,1596631448.890625
-40.66,1596631448.90625
-40.37,1596631448.921875
-37.67,1596631448.9375
-32.74,1596631448.953125
-26.21,1596631448.96875
-18.98,1596631448.984375
-11.93,1596631449.0
-5.72,1596631449.015625
-0.67,1596631449.03125
3.23,1596631449.046875
6.23,1596631449.0625
8.65,1596631449.078125
10.78,1596631449.09375
12.79,1596631449.109375
14.7,1596631449.125
16.43,1596631449.140625
17.86,1596631449.15625
18.88,1596631449.171875
19.42,1596631449.1875
19.53,1596631449.203125
19.39,1596631449.21875
19.19,1596631449.234375
19.19,1596631449.25
19.57,1596631449.265625
20.33,1596631449.28125
21.36,1596631449.296875
22.46,1596631449.3125
23.39,1596631449.328125
23.99,1596631449.34375
24.2,1596631449.359375
24.02,1596631449.375
23.45,1596631449.390625
22.48,1596631449.40625
21.12,1596631449.421875
19.45,1596631449.4375
17.66,1596631449.453125
15.99,1596631449.46875
14.64,1596631449.484375
13.69,1596631449.5
13.02,1596631449.515625
12.4,1596631449.53125
11.6,1596631449.546875
10.47,1596631449.5625
9.07,1596631449.578125
7.59,1596631449.59375
6.25,1596631449.609375
5.16,1596631449.625
4.32,1596631449.640625
3.55,1596631449.65625
2.65,1596631449.671875
1.41,1596631449.6875
-0.27,1596631449.703125
-2.35,1596631449.71875
-4.72,1596631449.734375
-7.21,1596631449.75
-9.64,1596631449.765625
-11.92,1596631449.78125
-14.0,1596631449.796875
-15.95,1596631449.8125
-17.89,1596631449.828125
-19.91,1596631449.84375
-22.13,1596631449.859375
-24.61,1596631449.875
-27.38,1596631449.890625
-30.51,1596631449.90625
-34.01,1596631449.921875
-37.75,1596631449.9375
-41.31,1596631449.953125
-44.01,1596631449.96875
-45.03,1596631449.984375
-43.71,1596631450.0
-39.82,1596631450.015625
-33.73,1596631450.03125
-26.26,1596631450.046875
-18.49,1596631450.0625
-11.33,1596631450.078125
-5.32,1596631450.09375
-0.55,1596631450.109375
3.19,1596631450.125
6.24,1596631450.140625
8.88,1596631450.15625
11.23,1596631450.171875
13.31,1596631450.1875
15.1,1596631450.203125
16.53,1596631450.21875
17.69,1596631450.234375
18.65,1596631450.25
19.5,1596631450.265625
20.3,1596631450.28125
21.05,1596631450.296875
21.74,1596631450.3125
22.35,1596631450.328125
22.94,1596631450.34375
23.58,1596631450.359375
24.35,1596631450.375
25.28,1596631450.390625
26.32,1596631450.40625
27.39,1596631450.421875
28.32,1596631450.4375
29.0,1596631450.453125
29.33,1596631450.46875
29.26,1596631450.484375
28.79,1596631450.5
28.0,1596631450.515625
27.02,1596631450.53125
25.98,1596631450.546875
24.91,1596631450.5625
23.79,1596631450.578125
22.55,1596631450.59375
21.17,1596631450.609375
19.68,1596631450.625
18.13,1596631450.640625
16.55,1596631450.65625
14.87,1596631450.671875
13.01,1596631450.6875
10.95,1596631450.703125
8.81,1596631450.71875
6.76,1596631450.734375
4.87,1596631450.75
2.87,1596631450.765625
0.1,1596631450.78125
-4.2,1596631450.796875
-10.56,1596631450.8125
-18.81,1596631450.828125
-28.06,1596631450.84375
-36.92,1596631450.859375
-44.01,1596631450.875
-48.5,1596631450.890625
-50.34,1596631450.90625
-50.19,1596631450.921875
-49.02,1596631450.9375
-47.74,1596631450.953125
-46.9,1596631450.96875
-46.67,1596631450.984375
-46.95,1596631451.0
-47.53,1596631451.015625
-48.07,1596631451.03125
-48.14,1596631451.046875
-47.19,1596631451.0625
-44.67,1596631451.078125
-40.22,1596631451.09375
-33.92,1596631451.109375
-26.32,1596631451.125
-18.39,1596631451.140625
-11.07,1596631451.15625
-5.06,1596631451.171875
-0.51,1596631451.1875
2.89,1596631451.203125
5.71,1596631451.21875
8.42,1596631451.234375
11.24,1596631451.25
14.08,1596631451.265625
16.62,1596631451.28125
18.61,1596631451.296875
19.95,1596631451.3125
20.72,1596631451.328125
21.16,1596631451.34375
21.51,1596631451.359375
21.94,1596631451.375
22.53,1596631451.390625
23.26,1596631451.40625
24.02,1596631451.421875
24.69,1596631451.4375
25.18,1596631451.453125
25.42,1596631451.46875
25.45,1596631451.484375
25.3,1596631451.5
25.04,1596631451.515625
24.66,1596631451.53125
24.16,1596631451.546875
23.48,1596631451.5625
22.61,1596631451.578125
21.55,1596631451.59375
20.33,1596631451.609375
18.97,1596631451.625
17.45,1596631451.640625
15.77,1596631451.65625
13.97,1596631451.671875
12.18,1596631451.6875
10.59,1596631451.703125
9.37,1596631451.71875
8.6,1596631451.734375
8.11,1596631451.75
7.63,1596631451.765625
6.89,1596631451.78125
5.72,1596631451.796875
4.18,1596631451.8125
2.44,1596631451.828125
0.72,1596631451.84375
-0.86,1596631451.859375
-2.28,1596631451.875
-3.64,1596631451.890625
-5.06,1596631451.90625
-6.58,1596631451.921875
-8.2,1596631451.9375
-9.87,1596631451.953125
-11.57,1596631451.96875
-13.31,1596631451.984375
-15.1,1596631452.0
-16.99,1596631452.015625
-19.01,1596631452.03125
-21.25,1596631452.046875
-23.85,1596631452.0625
-26.93,1596631452.078125
-30.49,1596631452.09375
-34.28,1596631452.109375
-37.75,1596631452.125
-40.12,1596631452.140625
-40.63,1596631452.15625
-38.79,1596631452.171875
-34.6,1596631452.1875
-28.53,1596631452.203125
-21.44,1596631452.21875
-14.23,1596631452.234375
-7.62,1596631452.25
-1.96,1596631452.265625
2.73,1596631452.28125
6.7,1596631452.296875
10.24,1596631452.3125
13.64,1596631452.328125
17.01,1596631452.34375
20.37,1596631452.359375
23.61,1596631452.375
26.59,1596631452.390625
29.2,1596631452.40625
31.4,1596631452.421875
33.28,1596631452.4375
34.96,1596631452.453125
36.57,1596631452.46875
38.16,1596631452.484375
39.63,1596631452.5
40.82,1596631452.515625
41.58,1596631452.53125
41.89,1596631452.546875
41.87,1596631452.5625
41.69,1596631452.578125
41.48,1596631452.59375
41.26,1596631452.609375
40.83,1596631452.625
39.91,1596631452.640625
38.09,1596631452.65625
34.94,1596631452.671875
30.0,1596631452.6875
22.99,1596631452.703125
13.93,1596631452.71875
3.28,1596631452.734375
-7.98,1596631452.75
-18.58,1596631452.765625
-27.3,1596631452.78125
-33.3,1596631452.796875
-36.38,1596631452.8125
-36.87,1596631452.828125
-35.49,1596631452.84375
-32.92,1596631452.859375
-29.7,1596631452.875
-26.18,1596631452.890625
-22.68,1596631452.90625
-19.56,1596631452.921875
-17.21,1596631452.9375
-15.93,1596631452.953125
-15.7,1596631452.96875
-16.09,1596631452.984375
-16.46,1596631453.0
-16.17,1596631453.015625
-15.0,1596631453.03125
-13.22,1596631453.046875
-11.54,1596631453.0625
-10.67,1596631453.078125
-11.02,1596631453.09375
-12.5,1596631453.109375
-14.6,1596631453.125
-16.72,1596631453.140625
-18.44,1596631453.15625
-19.71,1596631453.171875
-20.73,1596631453.1875
-21.77,1596631453.203125
-23.01,1596631453.21875
-24.55,1596631453.234375
-26.46,1596631453.25
-28.85,1596631453.265625
-31.83,1596631453.28125
-35.27,1596631453.296875
-38.71,1596631453.3125
-41.29,1596631453.328125
-42.04,1596631453.34375
-40.22,1596631453.359375
-35.69,1596631453.375
-28.99,1596631453.390625
-21.13,1596631453.40625
-13.3,1596631453.421875
-6.4,1596631453.4375
-0.9,1596631453.453125
3.21,1596631453.46875
6.19,1596631453.484375
8.42,1596631453.5
10.23,1596631453.515625
11.83,1596631453.53125
13.37,1596631453.546875
14.91,1596631453.5625
16.41,1596631453.578125
17.77,1596631453.59375
18.83,1596631453.609375
19.49,1596631453.625
19.75,1596631453.640625
19.72,1596631453.65625
19.62,1596631453.671875
19.59,1596631453.6875
19.73,1596631453.703125
20.05,1596631453.71875
20.54,1596631453.734375
21.17,1596631453.75
21.92,1596631453.765625
22.69,1596631453.78125
23.28,1596631453.796875
23.4,1596631453.8125
22.86,1596631453.828125
21.69,1596631453.84375
20.17,1596631453.859375
18.74,1596631453.875
17.76,1596631453.890625
17.31,1596631453.90625
17.14,1596631453.921875
16.84,1596631453.9375
16.06,1596631453.953125
14.69,1596631453.96875
12.94,1596631453.984375
11.16,1596631454.0
9.67,1596631454.015625
8.54,1596631454.03125
7.6,1596631454.046875
6.6,1596631454.0625
5.34,1596631454.078125
3.79,1596631454.09375
2.1,1596631454.109375
0.48,1596631454.125
-0.94,1596631454.140625
-2.2,1596631454.15625
-3.46,1596631454.171875
-4.98,1596631454.1875
-6.89,1596631454.203125
-9.21,1596631454.21875
-11.76,1596631454.234375
-14.32,1596631454.25
-16.7,1596631454.265625
-18.81,1596631454.28125
-20.68,1596631454.296875
-22.42,1596631454.3125
-24.15,1596631454.328125
-26.0,1596631454.34375
-28.13,1596631454.359375
-30.69,1596631454.375
-33.76,1596631454.390625
-37.21,1596631454.40625
-40.64,1596631454.421875
-43.35,1596631454.4375
-44.51,1596631454.453125
-43.5,1596631454.46875
-40.08,1596631454.484375
-34.6,1596631454.5
-27.82,1596631454.515625
-20.68,1596631454.53125
-14.0,1596631454.546875
-8.29,1596631454.5625
-3.71,1596631454.578125
-0.15,1596631454.59375
2.62,1596631454.609375
4.86,1596631454.625
6.82,1596631454.640625
8.65,1596631454.65625
10.38,1596631454.671875
11.94,1596631454.6875
13.14,1596631454.703125
13.87,1596631454.71875
14.14,1596631454.734375
14.16,1596631454.75
14.26,1596631454.765625
14.75,1596631454.78125
15.77,1596631454.796875
17.21,1596631454.8125
18.82,1596631454.828125
20.33,1596631454.84375
21.56,1596631454.859375
22.5,1596631454.875
23.18,1596631454.890625
23.61,1596631454.90625
23.71,1596631454.921875
23.33,1596631454.9375
22.39,1596631454.953125
20.95,1596631454.96875
19.23,1596631454.984375
17.55,1596631455.0
16.22,1596631455.015625
15.36,1596631455.03125
14.85,1596631455.046875
14.43,1596631455.0625
13.78,1596631455.078125
12.74,1596631455.09375
11.32,1596631455.109375
9.73,1596631455.125
8.19,1596631455.140625
6.85,1596631455.15625
5.73,1596631455.171875
4.72,1596631455.1875
3.69,1596631455.203125
2.57,1596631455.21875
1.35,1596631455.234375
0.05,1596631455.25
-1.31,1596631455.265625
-2.71,1596631455.28125
-4.12,1596631455.296875
-5.48,1596631455.3125
-6.7,1596631455.328125
-7.71,1596631455.34375
-8.59,1596631455.359375
-9.54,1596631455.375
-10.78,1596631455.390625
-12.47,1596631455.40625
-14.58,1596631455.421875
-16.86,1596631455.4375
-19.02,1596631455.453125
-20.86,1596631455.46875
-22.39,1596631455.484375
-23.85,1596631455.5
-25.6,1596631455.515625
-27.96,1596631455.53125
-31.09,1596631455.546875
-34.8,1596631455.5625
-38.58,1596631455.578125
-41.67,1596631455.59375
-43.19,1596631455.609375
-42.45,1596631455.625
-39.18,1596631455.640625
-33.63,1596631455.65625
-26.55,1596631455.671875
-18.99,1596631455.6875
-11.92,1596631455.703125
-6.05,1596631455.71875
-1.6,1596631455.734375
1.62,1596631455.75
4.03,1596631455.765625
6.07,1596631455.78125
8.03,1596631455.796875
9.96,1596631455.8125
11.75,1596631455.828125
13.21,1596631455.84375
14.27,1596631455.859375
15.01,1596631455.875
15.61,1596631455.890625
16.31,1596631455.90625
17.24,1596631455.921875
18.38,1596631455.9375
19.62,1596631455.953125
20.84,1596631455.96875
21.95,1596631455.984375
22.93,1596631456.0
23.76,1596631456.015625
24.44,1596631456.03125
24.88,1596631456.046875
25.02,1596631456.0625
24.83,1596631456.078125
24.33,1596631456.09375
23.58,1596631456.109375
22.64,1596631456.125
21.54,1596631456.140625
20.31,1596631456.15625
18.95,1596631456.171875
17.49,1596631456.1875
15.94,1596631456.203125
14.36,1596631456.21875
12.79,1596631456.234375
11.29,1596631456.25
9.92,1596631456.265625
8.71,1596631456.28125
7.66,1596631456.296875
6.72,1596631456.3125
5.85,1596631456.328125
5.02,1596631456.34375
4.18,1596631456.359375
3.32,1596631456.375
2.41,1596631456.390625
1.42,1596631456.40625
0.3,1596631456.421875
-0.99,1596631456.4375
-2.48,1596631456.453125
-4.18,1596631456.46875
-6.11,1596631456.484375
-8.28,1596631456.5
-10.63,1596631456.515625
-13.1,1596631456.53125
-15.57,1596631456.546875
-17.9,1596631456.5625
-20.01,1596631456.578125
-21.94,1596631456.59375
-23.79,1596631456.609375
-25.74,1596631456.625
-28.07,1596631456.640625
-30.98,1596631456.65625
-34.57,1596631456.671875
-38.72,1596631456.6875
-42.99,1596631456.703125
-46.67,1596631456.71875
-48.84,1596631456.734375
-48.68,1596631456.75
-45.73,1596631456.765625
-40.1,1596631456.78125
-32.57,1596631456.796875
-24.28,1596631456.8125
-16.44,1596631456.828125
-9.95,1596631456.84375
-5.15,1596631456.859375
-1.83,1596631456.875
0.57,1596631456.890625
2.7,1596631456.90625
5.01,1596631456.921875
7.69,1596631456.9375
10.56,1596631456.953125
13.33,1596631456.96875
15.71,1596631456.984375
17.54,1596631457.0
18.85,1596631457.015625
19.75,1596631457.03125
20.35,1596631457.046875
20.78,1596631457.0625
21.09,1596631457.078125
21.41,1596631457.09375
21.9,1596631457.109375
22.77,1596631457.125
24.1,1596631457.140625
25.76,1596631457.15625
27.38,1596631457.171875
28.48,1596631457.1875
28.74,1596631457.203125
28.09,1596631457.21875
26.81,1596631457.234375
25.27,1596631457.25
23.86,1596631457.265625
22.71,1596631457.28125
21.74,1596631457.296875
20.76,1596631457.3125
19.63,1596631457.328125
18.36,1596631457.34375
17.1,1596631457.359375
16.01,1596631457.375
15.19,1596631457.390625
14.59,1596631457.40625
14.06,1596631457.421875
13.39,1596631457.4375
12.51,1596631457.453125
11.4,1596631457.46875
10.2,1596631457.484375
9.05,1596631457.5
8.07,1596631457.515625
7.22,1596631457.53125
6.38,1596631457.546875
5.36,1596631457.5625
4.0,1596631457.578125
2.26,1596631457.59375
0.21,1596631457.609375
-2.0,1596631457.625
-4.2,1596631457.640625
-6.24,1596631457.65625
-8.04,1596631457.671875
-9.58,1596631457.6875
-10.91,1596631457.703125
-12.15,1596631457.71875
-13.46,1596631457.734375
-14.99,1596631457.75
-16.79,1596631457.765625
-18.83,1596631457.78125
-20.92,1596631457.796875
-22.85,1596631457.8125
-24.49,1596631457.828125
-25.87,1596631457.84375
-27.18,1596631457.859375
-28.76,1596631457.875
-30.93,1596631457.890625
-33.94,1596631457.90625
-37.77,1596631457.921875
-42.08,1596631457.9375
-46.16,1596631457.953125
-49.12,1596631457.96875
-50.05,1596631457.984375
-48.35,1596631458.0
-43.94,1596631458.015625
-37.28,1596631458.03125
-29.3,1596631458.046875
-21.08,1596631458.0625
-13.59,1596631458.078125
-7.42,1596631458.09375
-2.72,1596631458.109375
0.73,1596631458.125
3.36,1596631458.140625
5.58,1596631458.15625
7.7,1596631458.171875
9.81,1596631458.1875
11.87,1596631458.203125
13.72,1596631458.21875
15.31,1596631458.234375
16.6,1596631458.25
17.66,1596631458.265625
18.62,1596631458.28125
19.62,1596631458.296875
20.76,1596631458.3125
22.08,1596631458.328125
23.54,1596631458.34375
25.03,1596631458.359375
26.35,1596631458.375
27.33,1596631458.390625
27.87,1596631458.40625
27.99,1596631458.421875
27.82,1596631458.4375
27.53,1596631458.453125
27.21,1596631458.46875
26.84,1596631458.484375
26.33,1596631458.5
25.62,1596631458.515625
24.74,1596631458.53125
23.79,1596631458.546875
22.9,1596631458.5625
22.18,1596631458.578125
21.58,1596631458.59375
21.04,1596631458.609375
20.48,1596631458.625
19.87,1596631458.640625
19.29,1596631458.65625
18.83,1596631458.671875
18.58,1596631458.6875
18.49,1596631458.703125
18.44,1596631458.71875
18.22,1596631458.734375
17.69,1596631458.75
16.76,1596631458.765625
15.47,1596631458.78125
13.91,1596631458.796875
12.18,1596631458.8125
10.2,1596631458.828125
7.81,1596631458.84375
4.76,1596631458.859375
0.94,1596631458.875
-3.53,1596631458.890625
-8.24,1596631458.90625
-12.65,1596631458.921875
-16.47,1596631458.9375
-19.89,1596631458.953125
-23.62,1596631458.96875
-28.59,1596631458.984375
-35.47,1596631459.0
-44.29,1596631459.015625
-54.33,1596631459.03125
-64.28,1596631459.046875
-72.71,1596631459.0625
-78.39,1596631459.078125
-80.56,1596631459.09375
-78.92,1596631459.109375
-73.65,1596631459.125
-65.3,1596631459.140625
-54.78,1596631459.15625
-43.25,1596631459.171875
-31.93,1596631459.1875
-21.83,1596631459.203125
-13.57,1596631459.21875
-7.27,1596631459.234375
-2.62,1596631459.25
0.91,1596631459.265625
3.87,1596631459.28125
6.66,1596631459.296875
9.5,1596631459.3125
12.35,1596631459.328125
15.07,1596631459.34375
17.45,1596631459.359375
19.4,1596631459.375
20.94,1596631459.390625
22.2,1596631459.40625
23.36,1596631459.421875
24.54,1596631459.4375
25.72,1596631459.453125
26.85,1596631459.46875
27.81,1596631459.484375
28.53,1596631459.5
28.97,1596631459.515625
29.14,1596631459.53125
29.06,1596631459.546875
28.75,1596631459.5625
28.19,1596631459.578125
27.36,1596631459.59375
26.2,1596631459.609375
24.74,1596631459.625
23.07,1596631459.640625
21.36,1596631459.65625
19.81,1596631459.671875
18.55,1596631459.6875
17.57,1596631459.703125
16.69,1596631459.71875
15.69,1596631459.734375
14.42,1596631459.75
12.87,1596631459.765625
11.18,1596631459.78125
9.54,1596631459.796875
8.08,1596631459.8125
6.78,1596631459.828125
5.51,1596631459.84375
4.1,1596631459.859375
2.44,1596631459.875
0.5,1596631459.890625
-1.69,1596631459.90625
-4.07,1596631459.921875
-6.58,1596631459.9375
-9.16,1596631459.953125
-11.73,1596631459.96875
-14.2,1596631459.984375
-16.46,1596631460.0
-18.48,1596631460.015625
-20.28,1596631460.03125
-22.01,1596631460.046875
-23.86,1596631460.0625
-26.08,1596631460.078125
-28.89,1596631460.09375
-32.43,1596631460.109375
-36.64,1596631460.125
-41.18,1596631460.140625
-45.46,1596631460.15625
-48.65,1596631460.171875
-49.92,1596631460.1875
-48.65,1596631460.203125
-44.71,1596631460.21875
-38.52,1596631460.234375
-30.97,1596631460.25
-23.09,1596631460.265625
-15.86,1596631460.28125
-9.86,1596631460.296875
-5.22,1596631460.3125
-1.68,1596631460.328125
1.19,1596631460.34375
3.88,1596631460.359375
6.66,1596631460.375
9.64,1596631460.390625
12.69,1596631460.40625
15.52,1596631460.421875
17.81,1596631460.4375
19.36,1596631460.453125
20.13,1596631460.46875
20.3,1596631460.484375
20.22,1596631460.5
20.31,1596631460.515625
20.85,1596631460.53125
21.98,1596631460.546875
23.58,1596631460.5625
25.39,1596631460.578125
27.15,1596631460.59375
28.58,1596631460.609375
29.54,1596631460.625
29.91,1596631460.640625
29.67,1596631460.65625
28.83,1596631460.671875
27.49,1596631460.6875
25.84,1596631460.703125
24.16,1596631460.71875
22.69,1596631460.734375
21.55,1596631460.75
20.75,1596631460.765625
20.08,1596631460.78125
19.32,1596631460.796875
18.3,1596631460.8125
17.0,1596631460.828125
15.55,1596631460.84375
14.14,1596631460.859375
12.92,1596631460.875
11.92,1596631460.890625
11.05,1596631460.90625
10.09,1596631460.921875
8.9,1596631460.9375
7.37,1596631460.953125
5.55,1596631460.96875
3.58,1596631460.984375
1.56,1596631461.0
-0.45,1596631461.015625
-2.48,1596631461.03125
-4.65,1596631461.046875
-7.04,1596631461.0625
-9.64,1596631461.078125
-12.31,1596631461.09375
-14.86,1596631461.109375
-17.13,1596631461.125
-19.07,1596631461.140625
-20.74,1596631461.15625
-22.34,1596631461.171875
-24.11,1596631461.1875
-26.29,1596631461.203125
-29.06,1596631461.21875
-32.51,1596631461.234375
-36.57,1596631461.25
-40.94,1596631461.265625
-45.05,1596631461.28125
-48.17,1596631461.296875
-49.51,1596631461.3125
-48.48,1596631461.328125
-44.87,1596631461.34375
-38.97,1596631461.359375
-31.58,1596631461.375
-23.69,1596631461.390625
-16.26,1596631461.40625
-9.93,1596631461.421875
-4.84,1596631461.4375
-0.73,1596631461.453125
2.84,1596631461.46875
6.29,1596631461.484375
9.77,1596631461.5
13.18,1596631461.515625
16.26,1596631461.53125
18.77,1596631461.546875
20.62,1596631461.5625
21.86,1596631461.578125
22.66,1596631461.59375
23.19,1596631461.609375
23.55,1596631461.625
23.85,1596631461.640625
24.14,1596631461.65625
24.5,1596631461.671875
24.97,1596631461.6875
25.54,1596631461.703125
26.13,1596631461.71875
26.57,1596631461.734375
26.72,1596631461.75
26.52,1596631461.765625
25.99,1596631461.78125
25.2,1596631461.796875
24.28,1596631461.8125
23.26,1596631461.828125
22.18,1596631461.84375
21.08,1596631461.859375
20.01,1596631461.875
19.03,1596631461.890625
18.15,1596631461.90625
17.35,1596631461.921875
16.54,1596631461.9375
15.63,1596631461.953125
14.57,1596631461.96875
13.43,1596631461.984375
12.3,1596631462.0
11.29,1596631462.015625
10.47,1596631462.03125
9.84,1596631462.046875
9.29,1596631462.0625
8.69,1596631462.078125
7.84,1596631462.09375
6.6,1596631462.109375
4.86,1596631462.125
2.66,1596631462.140625
0.12,1596631462.15625
-2.57,1596631462.171875
-5.2,1596631462.1875
-7.63,1596631462.203125
-9.79,1596631462.21875
-11.74,1596631462.234375
-13.58,1596631462.25
-15.51,1596631462.265625
-17.65,1596631462.28125
-20.11,1596631462.296875
-22.8,1596631462.3125
-25.56,1596631462.328125
-28.2,1596631462.34375
-30.68,1596631462.359375
-33.15,1596631462.375
-35.97,1596631462.390625
-39.49,1596631462.40625
-43.81,1596631462.421875
-48.57,1596631462.4375
-52.94,1596631462.453125
-55.84,1596631462.46875
-56.27,1596631462.484375
-53.68,1596631462.5
-48.19,1596631462.515625
-40.5,1596631462.53125
-31.73,1596631462.546875
-23.0,1596631462.5625
-15.18,1596631462.578125
-8.75,1596631462.59375
-3.72,1596631462.609375
0.18,1596631462.625
3.39,1596631462.640625
6.36,1596631462.65625
9.4,1596631462.671875
12.63,1596631462.6875
15.98,1596631462.703125
19.18,1596631462.71875
21.97,1596631462.734375
24.13,1596631462.75
25.67,1596631462.765625
26.75,1596631462.78125
27.62,1596631462.796875
28.47,1596631462.8125
29.36,1596631462.828125
30.21,1596631462.84375
30.89,1596631462.859375
31.33,1596631462.875
31.57,1596631462.890625
31.66,1596631462.90625
31.61,1596631462.921875
31.33,1596631462.9375
30.68,1596631462.953125
29.59,1596631462.96875
28.13,1596631462.984375
26.47,1596631463.0
24.81,1596631463.015625
23.29,1596631463.03125
21.91,1596631463.046875
20.61,1596631463.0625
19.33,1596631463.078125
18.1,1596631463.09375
17.0,1596631463.109375
16.08,1596631463.125
15.31,1596631463.140625
14.57,1596631463.15625
13.69,1596631463.171875
12.62,1596631463.1875
11.4,1596631463.203125
10.17,1596631463.21875
9.02,1596631463.234375
7.91,1596631463.25
6.65,1596631463.265625
5.08,1596631463.28125
3.12,1596631463.296875
0.95,1596631463.3125
-1.13,1596631463.328125
-2.78,1596631463.34375
-3.9,1596631463.359375
-4.62,1596631463.375
-5.32,1596631463.390625
-6.4,1596631463.40625
-8.08,1596631463.421875
-10.36,1596631463.4375
-13.02,1596631463.453125
-15.78,1596631463.46875
-18.39,1596631463.484375
-20.72,1596631463.5
-22.75,1596631463.515625
-24.51,1596631463.53125
-26.14,1596631463.546875
-27.81,1596631463.5625
-29.84,1596631463.578125
-32.51,1596631463.59375
-36.01,1596631463.609375
-40.21,1596631463.625
-44.58,1596631463.640625
-48.26,1596631463.65625
-50.25,1596631463.671875
-49.76,1596631463.6875
-46.47,1596631463.703125
-40.65,1596631463.71875
-33.08,1596631463.734375
-24.85,1596631463.75
-16.97,1596631463.765625
-10.22,1596631463.78125
-4.91,1596631463.796875
-0.97,1596631463.8125
1.97,1596631463.828125
4.4,1596631463.84375
6.77,1596631463.859375
9.36,1596631463.875
12.25,1596631463.890625
15.25,1596631463.90625
18.03,1596631463.921875
20.25,1596631463.9375
21.74,1596631463.953125
22.53,1596631463.96875
22.89,1596631463.984375
23.13,1596631464.0
23.51,1596631464.015625
24.13,1596631464.03125
24.94,1596631464.046875
25.84,1596631464.0625
26.71,1596631464.078125
27.52,1596631464.09375
28.18,1596631464.109375
28.54,1596631464.125
28.39,1596631464.140625
27.54,1596631464.15625
25.96,1596631464.171875
23.85,1596631464.1875
21.64,1596631464.203125
19.8,1596631464.21875
18.61,1596631464.234375
18.07,1596631464.25
17.88,1596631464.265625
17.6,1596631464.28125
16.91,1596631464.296875
15.73,1596631464.3125
14.18,1596631464.328125
12.56,1596631464.34375
11.1,1596631464.359375
9.91,1596631464.375
8.94,1596631464.390625
8.0,1596631464.40625
6.93,1596631464.421875
5.64,1596631464.4375
4.16,1596631464.453125
2.61,1596631464.46875
1.11,1596631464.484375
-0.25,1596631464.5
-1.47,1596631464.515625
-2.64,1596631464.53125
-3.9,1596631464.546875
-5.39,1596631464.5625
-7.19,1596631464.578125
-9.27,1596631464.59375
-11.48,1596631464.609375
-13.54,1596631464.625
-15.22,1596631464.640625
-16.33,1596631464.65625
-16.94,1596631464.671875
-17.32,1596631464.6875
-17.91,1596631464.703125
-19.19,1596631464.71875
-21.44,1596631464.734375
-24.64,1596631464.75
-28.44,1596631464.765625
-32.18,1596631464.78125
-35.05,1596631464.796875
-36.27,1596631464.8125
-35.25,1596631464.828125
-31.78,1596631464.84375
-26.06,1596631464.859375
-18.76,1596631464.875
-10.78,1596631464.890625
-3.06,1596631464.90625
3.66,1596631464.921875
9.03,1596631464.9375
13.02,1596631464.953125
15.71,1596631464.96875
17.09,1596631464.984375
16.94,1596631465.0
14.88,1596631465.015625
10.66,1596631465.03125
4.47,1596631465.046875
-2.96,1596631465.0625
-10.49,1596631465.078125
-16.86,1596631465.09375
-21.16,1596631465.109375
-22.98,1596631465.125
-22.51,1596631465.140625
-20.3,1596631465.15625
-16.92,1596631465.171875
-12.8,1596631465.1875
-8.14,1596631465.203125
-3.08,1596631465.21875
2.15,1596631465.234375
7.13,1596631465.25
11.31,1596631465.265625
14.23,1596631465.28125
15.73,1596631465.296875
16.03,1596631465.3125
15.69,1596631465.328125
15.34,1596631465.34375
15.48,1596631465.359375
16.2,1596631465.375
17.28,1596631465.390625
18.25,1596631465.40625
18.69,1596631465.421875
18.38,1596631465.4375
17.41,1596631465.453125
16.07,1596631465.46875
14.66,1596631465.484375
13.37,1596631465.5
12.26,1596631465.515625
11.27,1596631465.53125
10.35,1596631465.546875
9.48,1596631465.5625
8.61,1596631465.578125
7.7,1596631465.59375
6.63,1596631465.609375
5.33,1596631465.625
3.79,1596631465.640625
2.11,1596631465.65625
0.46,1596631465.671875
-1.03,1596631465.6875
-2.33,1596631465.703125
-3.52,1596631465.71875
-4.79,1596631465.734375
-6.26,1596631465.75
-7.97,1596631465.765625
-9.91,1596631465.78125
-12.0,1596631465.796875
-14.21,1596631465.8125
-16.51,1596631465.828125
-18.89,1596631465.84375
-21.32,1596631465.859375
-23.77,1596631465.875
-26.32,1596631465.890625
-29.14,1596631465.90625
-32.45,1596631465.921875
-36.37,1596631465.9375
-40.74,1596631465.953125
-44.96,1596631465.96875
-48.14,1596631465.984375
-49.3,1596631466.0
-47.73,1596631466.015625
-43.32,1596631466.03125
-36.6,1596631466.046875
-28.58,1596631466.0625
-20.41,1596631466.078125
-13.05,1596631466.09375
-7.02,1596631466.109375
-2.36,1596631466.125
1.24,1596631466.140625
4.25,1596631466.15625
7.05,1596631466.171875
9.84,1596631466.1875
12.59,1596631466.203125
15.1,1596631466.21875
17.14,1596631466.234375
18.58,1596631466.25
19.39,1596631466.265625
19.77,1596631466.28125
19.9,1596631466.296875
20.01,1596631466.3125
20.25,1596631466.328125
20.65,1596631466.34375
21.2,1596631466.359375
21.87,1596631466.375
22.68,1596631466.390625
23.57,1596631466.40625
24.48,1596631466.421875
25.23,1596631466.4375
25.61,1596631466.453125
25.46,1596631466.46875
24.72,1596631466.484375
23.53,1596631466.5
22.14,1596631466.515625
20.79,1596631466.53125
19.63,1596631466.546875
18.61,1596631466.5625
17.54,1596631466.578125
16.23,1596631466.59375
14.6,1596631466.609375
12.72,1596631466.625
10.86,1596631466.640625
9.29,1596631466.65625
8.18,1596631466.671875
7.55,1596631466.6875
7.21,1596631466.703125
6.9,1596631466.71875
6.36,1596631466.734375
5.45,1596631466.75
4.18,1596631466.765625
2.63,1596631466.78125
0.96,1596631466.796875
-0.75,1596631466.8125
-2.52,1596631466.828125
-4.43,1596631466.84375
-6.58,1596631466.859375
-8.96,1596631466.875
-11.48,1596631466.890625
-14.04,1596631466.90625
-16.55,1596631466.921875
-19.0,1596631466.9375
-21.46,1596631466.953125
-23.95,1596631466.96875
-26.49,1596631466.984375
-29.08,1596631467.0
-31.78,1596631467.015625
-34.79,1596631467.03125
-38.33,1596631467.046875
-42.48,1596631467.0625
-46.94,1596631467.078125
-50.99,1596631467.09375
-53.62,1596631467.109375
-53.87,1596631467.125
-51.26,1596631467.140625
-45.96,1596631467.15625
-38.7,1596631467.171875
-30.56,1596631467.1875
-22.56,1596631467.203125
-15.39,1596631467.21875
-9.41,1596631467.234375
-4.6,1596631467.25
-0.74,1596631467.265625
2.5,1596631467.28125
5.45,1596631467.296875
8.36,1596631467.3125
11.32,1596631467.328125
14.23,1596631467.34375
16.88,1596631467.359375
19.04,1596631467.375
20.59,1596631467.390625
21.59,1596631467.40625
22.21,1596631467.421875
22.7,1596631467.4375
23.24,1596631467.453125
23.93,1596631467.46875
24.75,1596631467.484375
25.65,1596631467.5
26.55,1596631467.515625
27.41,1596631467.53125
28.16,1596631467.546875
28.74,1596631467.5625
29.05,1596631467.578125
28.99,1596631467.59375
28.5,1596631467.609375
27.62,1596631467.625
26.48,1596631467.640625
25.27,1596631467.65625
24.16,1596631467.671875
23.18,1596631467.6875
22.23,1596631467.703125
21.15,1596631467.71875
19.77,1596631467.734375
18.1,1596631467.75
16.3,1596631467.765625
14.59,1596631467.78125
13.19,1596631467.796875
12.19,1596631467.8125
11.51,1596631467.828125
11.01,1596631467.84375
10.53,1596631467.859375
9.94,1596631467.875
9.16,1596631467.890625
8.07,1596631467.90625
6.58,1596631467.921875
4.65,1596631467.9375
2.34,1596631467.953125
-0.13,1596631467.96875
-2.52,1596631467.984375
-4.57,1596631468.0
-6.19,1596631468.015625
-7.46,1596631468.03125
-8.61,1596631468.046875
-9.93,1596631468.0625
-11.61,1596631468.078125
-13.69,1596631468.09375
-16.07,1596631468.109375
-18.56,1596631468.125
-20.99,1596631468.140625
-23.28,1596631468.15625
-25.44,1596631468.171875
-27.52,1596631468.1875
-29.64,1596631468.203125
-31.91,1596631468.21875
-34.58,1596631468.234375
-37.9,1596631468.25
-42.05,1596631468.265625
-46.86,1596631468.28125
-51.68,1596631468.296875
-55.43,1596631468.3125
-56.88,1596631468.328125
-55.18,1596631468.34375
-50.22,1596631468.359375
-42.71,1596631468.375
-33.96,1596631468.390625
-25.34,1596631468.40625
-17.87,1596631468.421875
-11.95,1596631468.4375
-7.47,1596631468.453125
-4.06,1596631468.46875
-1.29,1596631468.484375
1.17,1596631468.5
3.57,1596631468.515625
6.06,1596631468.53125
8.74,1596631468.546875
11.6,1596631468.5625
14.45,1596631468.578125
17.03,1596631468.59375
19.11,1596631468.609375
20.59,1596631468.625
21.6,1596631468.640625
22.34,1596631468.65625
23.05,1596631468.671875
23.83,1596631468.6875
24.64,1596631468.703125
25.39,1596631468.71875
26.0,1596631468.734375
26.47,1596631468.75
26.86,1596631468.765625
27.21,1596631468.78125
27.44,1596631468.796875
27.42,1596631468.8125
27.01,1596631468.828125
26.16,1596631468.84375
24.92,1596631468.859375
23.46,1596631468.875
21.91,1596631468.890625
20.39,1596631468.90625
18.92,1596631468.921875
17.52,1596631468.9375
16.18,1596631468.953125
14.95,1596631468.96875
13.84,1596631468.984375
12.81,1596631469.0
11.79,1596631469.015625
10.64,1596631469.03125
9.28,1596631469.046875
7.69,1596631469.0625
5.93,1596631469.078125
4.1,1596631469.09375
2.27,1596631469.109375
0.41,1596631469.125
-1.59,1596631469.140625
-3.85,1596631469.15625
-6.42,1596631469.171875
-9.23,1596631469.1875
-12.08,1596631469.203125
-14.77,1596631469.21875
-17.16,1596631469.234375
-19.28,1596631469.25
-21.26,1596631469.265625
-23.31,1596631469.28125
-25.62,1596631469.296875
-28.33,1596631469.3125
-31.53,1596631469.328125
-35.27,1596631469.34375
-39.5,1596631469.359375
-43.98,1596631469.375
-48.16,1596631469.390625
-51.24,1596631469.40625
-52.32,1596631469.421875
-50.77,1596631469.4375
-46.46,1596631469.453125
-39.9,1596631469.46875
-32.07,1596631469.484375
-24.13,1596631469.5
-16.96,1596631469.515625
-10.97,1596631469.53125
-6.08,1596631469.546875
-1.92,1596631469.5625
1.87,1596631469.578125
5.52,1596631469.59375
9.05,1596631469.609375
12.38,1596631469.625
15.41,1596631469.640625
18.12,1596631469.65625
20.47,1596631469.671875
22.45,1596631469.6875
24.01,1596631469.703125
25.13,1596631469.71875
25.88,1596631469.734375
26.42,1596631469.75
26.96,1596631469.765625
27.65,1596631469.78125
28.51,1596631469.796875
29.41,1596631469.8125
30.13,1596631469.828125
30.51,1596631469.84375
30.5,1596631469.859375
30.13,1596631469.875
29.48,1596631469.890625
28.62,1596631469.90625
27.61,1596631469.921875
26.51,1596631469.9375
25.38,1596631469.953125
24.32,1596631469.96875
23.37,1596631469.984375
22.52,1596631470.0
21.65,1596631470.015625
20.66,1596631470.03125
19.46,1596631470.046875
18.11,1596631470.0625
16.75,1596631470.078125
15.55,1596631470.09375
14.6,1596631470.109375
13.83,1596631470.125
13.08,1596631470.140625
12.14,1596631470.15625
10.87,1596631470.171875
9.26,1596631470.1875
7.4,1596631470.203125
5.42,1596631470.21875
3.39,1596631470.234375
1.36,1596631470.25
-0.67,1596631470.265625
-2.67,1596631470.28125
-4.55,1596631470.296875
-6.32,1596631470.3125
-8.01,1596631470.328125
-9.84,1596631470.34375
-12.03,1596631470.359375
-14.74,1596631470.375
-17.9,1596631470.390625
-21.27,1596631470.40625
-24.48,1596631470.421875
-27.28,1596631470.4375
-29.7,1596631470.453125
-32.0,1596631470.46875
-34.62,1596631470.484375
-37.92,1596631470.5
-42.06,1596631470.515625
-46.86,1596631470.53125
-51.83,1596631470.546875
-56.21,1596631470.5625
-59.12,1596631470.578125
-59.75,1596631470.59375
-57.59,1596631470.609375
-52.62,1596631470.625
-45.32,1596631470.640625
-36.63,1596631470.65625
-27.66,1596631470.671875
-19.41,1596631470.6875
-12.51,1596631470.703125
-7.1,1596631470.71875
-2.91,1596631470.734375
0.58,1596631470.75
3.86,1596631470.765625
7.25,1596631470.78125
10.83,1596631470.796875
14.43,1596631470.8125
17.8,1596631470.828125
20.71,1596631470.84375
23.07,1596631470.859375
24.88,1596631470.875
26.24,1596631470.890625
27.24,1596631470.90625
27.96,1596631470.921875
28.52,1596631470.9375
29.04,1596631470.953125
29.72,1596631470.96875
30.72,1596631470.984375
32.07,1596631471.0
33.63,1596631471.015625
35.12,1596631471.03125
36.16,1596631471.046875
36.43,1596631471.0625
35.75,1596631471.078125
34.19,1596631471.09375
32.03,1596631471.109375
29.68,1596631471.125
27.51,1596631471.140625
25.77,1596631471.15625
24.48,1596631471.171875
23.44,1596631471.1875
22.42,1596631471.203125
21.21,1596631471.21875
19.76,1596631471.234375
18.22,1596631471.25
16.79,1596631471.265625
15.68,1596631471.28125
14.99,1596631471.296875
14.67,1596631471.3125
14.49,1596631471.328125
14.19,1596631471.34375
13.48,1596631471.359375
12.25,1596631471.375
10.59,1596631471.390625
8.79,1596631471.40625
7.19,1596631471.421875
6.0,1596631471.4375
5.18,1596631471.453125
4.42,1596631471.46875
3.35,1596631471.484375
1.68,1596631471.5
-0.57,1596631471.515625
-3.09,1596631471.53125
-5.52,1596631471.546875
-7.58,1596631471.5625
-9.29,1596631471.578125
-10.84,1596631471.59375
-12.52,1596631471.609375
-14.51,1596631471.625
-16.78,1596631471.640625
-19.17,1596631471.65625
-21.5,1596631471.671875
-23.63,1596631471.6875
-25.55,1596631471.703125
-27.37,1596631471.71875
-29.24,1596631471.734375
-31.37,1596631471.75
-33.95,1596631471.765625
-37.08,1596631471.78125
-40.72,1596631471.796875
-44.59,1596631471.8125
-48.11,1596631471.828125
-50.5,1596631471.84375
-50.89,1596631471.859375
-48.7,1596631471.875
-43.79,1596631471.890625
-36.58,1596631471.90625
-28.02,1596631471.921875
-19.26,1596631471.9375
-11.31,1596631471.953125
-4.74,1596631471.96875
0.34,1596631471.984375
4.21,1596631472.0
7.27,1596631472.015625
9.88,1596631472.03125
12.22,1596631472.046875
14.33,1596631472.0625
16.19,1596631472.078125
17.8,1596631472.09375
19.24,1596631472.109375
20.6,1596631472.125
21.99,1596631472.140625
23.42,1596631472.15625
24.82,1596631472.171875
26.05,1596631472.1875
26.97,1596631472.203125
27.54,1596631472.21875
27.79,1596631472.234375
27.86,1596631472.25
27.9,1596631472.265625
27.96,1596631472.28125
27.97,1596631472.296875
27.79,1596631472.3125
27.23,1596631472.328125
26.15,1596631472.34375
24.59,1596631472.359375
22.71,1596631472.375
20.79,1596631472.390625
19.1,1596631472.40625
17.84,1596631472.421875
17.02,1596631472.4375
16.44,1596631472.453125
15.8,1596631472.46875
14.84,1596631472.484375
13.48,1596631472.5
11.89,1596631472.515625
10.42,1596631472.53125
9.43,1596631472.546875
9.09,1596631472.5625
9.29,1596631472.578125
9.66,1596631472.59375
9.72,1596631472.609375
9.09,1596631472.625
7.6,1596631472.640625
5.35,1596631472.65625
2.68,1596631472.671875
-0.04,1596631472.6875
-2.49,1596631472.703125
-4.51,1596631472.71875
-6.13,1596631472.734375
-7.54,1596631472.75
-9.0,1596631472.765625
-10.73,1596631472.78125
-12.83,1596631472.796875
-15.24,1596631472.8125
-17.74,1596631472.828125
-20.02,1596631472.84375
-21.89,1596631472.859375
-23.35,1596631472.875
-24.63,1596631472.890625
-26.23,1596631472.90625
-28.64,1596631472.921875
-32.13,1596631472.9375
-36.64,1596631472.953125
-41.62,1596631472.96875
-46.22,1596631472.984375
-49.43,1596631473.0
-50.36,1596631473.015625
-48.53,1596631473.03125
-44.0,1596631473.046875
-37.36,1596631473.0625
-29.58,1596631473.078125
-21.75,1596631473.09375
-14.78,1596631473.109375
-9.18,1596631473.125
-5.01,1596631473.140625
-1.96,1596631473.15625
0.49,1596631473.171875
2.86,1596631473.1875
5.48,1596631473.203125
8.47,1596631473.21875
11.7,1596631473.234375
14.87,1596631473.25
17.7,1596631473.265625
19.96,1596631473.28125
21.61,1596631473.296875
22.78,1596631473.3125
23.66,1596631473.328125
24.38,1596631473.34375
25.0,1596631473.359375
25.52,1596631473.375
25.94,1596631473.390625
26.34,1596631473.40625
26.78,1596631473.421875
27.3,1596631473.4375
27.77,1596631473.453125
27.97,1596631473.46875
27.68,1596631473.484375
26.78,1596631473.5
25.38,1596631473.515625
23.76,1596631473.53125
22.18,1596631473.546875
20.84,1596631473.5625
19.76,1596631473.578125
18.82,1596631473.59375
17.91,1596631473.609375
16.95,1596631473.625
15.99,1596631473.640625
15.13,1596631473.65625
14.46,1596631473.671875
13.97,1596631473.6875
13.55,1596631473.703125
13.06,1596631473.71875
12.32,1596631473.734375
11.27,1596631473.75
9.91,1596631473.765625
8.35,1596631473.78125
6.69,1596631473.796875
5.06,1596631473.8125
3.5,1596631473.828125
2.0,1596631473.84375
0.52,1596631473.859375
-1.01,1596631473.875
-2.59,1596631473.890625
-4.22,1596631473.90625
-5.81,1596631473.921875
-7.24,1596631473.9375
-8.47,1596631473.953125
-9.56,1596631473.96875
-10.7,1596631473.984375
-12.14,1596631474.0
-14.04,1596631474.015625
-16.37,1596631474.03125
-18.9,1596631474.046875
-21.29,1596631474.0625
-23.31,1596631474.078125
-24.89,1596631474.09375
-26.22,1596631474.109375
-27.61,1596631474.125
-29.41,1596631474.140625
-31.87,1596631474.15625
-35.09,1596631474.171875
-38.98,1596631474.1875
-43.22,1596631474.203125
-47.22,1596631474.21875
-50.21,1596631474.234375
-51.36,1596631474.25
-50.0,1596631474.265625
-45.9,1596631474.28125
-39.37,1596631474.296875
-31.22,1596631474.3125
-22.54,1596631474.328125
-14.43,1596631474.34375
-7.67,1596631474.359375
-2.61,1596631474.375
0.89,1596631474.390625
3.31,1596631474.40625
5.25,1596631474.421875
7.17,1596631474.4375
9.32,1596631474.453125
11.65,1596631474.46875
13.92,1596631474.484375
15.92,1596631474.5
17.51,1596631474.515625
18.69,1596631474.53125
19.56,1596631474.546875
20.22,1596631474.5625
20.75,1596631474.578125
21.16,1596631474.59375
21.49,1596631474.609375
21.85,1596631474.625
22.34,1596631474.640625
23.07,1596631474.65625
23.96,1596631474.671875
24.87,1596631474.6875
25.57,1596631474.703125
25.89,1596631474.71875
25.77,1596631474.734375
25.29,1596631474.75
24.56,1596631474.765625
23.71,1596631474.78125
22.81,1596631474.796875
21.94,1596631474.8125
21.18,1596631474.828125
20.63,1596631474.84375
20.36,1596631474.859375
20.34,1596631474.875
20.43,1596631474.890625
20.38,1596631474.90625
19.95,1596631474.921875
19.0,1596631474.9375
17.57,1596631474.953125
15.84,1596631474.96875
14.1,1596631474.984375
12.54,1596631475.0
11.26,1596631475.015625
10.15,1596631475.03125
9.02,1596631475.046875
7.61,1596631475.0625
5.71,1596631475.078125
3.28,1596631475.09375
0.36,1596631475.109375
-2.87,1596631475.125
-6.15,1596631475.140625
-9.18,1596631475.15625
-11.72,1596631475.171875
-13.78,1596631475.1875
-15.74,1596631475.203125
-18.37,1596631475.21875
-22.67,1596631475.234375
-29.48,1596631475.25
-39.03,1596631475.265625
-50.69,1596631475.28125
-63.0,1596631475.296875
-74.0,1596631475.3125
-81.82,1596631475.328125
-85.17,1596631475.34375
-83.67,1596631475.359375
-77.81,1596631475.375
-68.73,1596631475.390625
-57.84,1596631475.40625
-46.48,1596631475.421875
-35.67,1596631475.4375
-26.14,1596631475.453125
-18.24,1596631475.46875
-12.03,1596631475.484375
-7.29,1596631475.5
-3.6,1596631475.515625
-0.36,1596631475.53125
2.91,1596631475.546875
6.53,1596631475.5625
10.46,1596631475.578125
14.4,1596631475.59375
17.93,1596631475.609375
20.76,1596631475.625
22.83,1596631475.640625
24.28,1596631475.65625
25.36,1596631475.671875
26.28,1596631475.6875
27.16,1596631475.703125
27.98,1596631475.71875
28.74,1596631475.734375
29.38,1596631475.75
29.85,1596631475.765625
30.06,1596631475.78125
29.88,1596631475.796875
29.24,1596631475.8125
28.11,1596631475.828125
26.64,1596631475.84375
24.98,1596631475.859375
23.33,1596631475.875
21.78,1596631475.890625
20.34,1596631475.90625
19.01,1596631475.921875
17.76,1596631475.9375
16.6,1596631475.953125
15.55,1596631475.96875
14.58,1596631475.984375
13.64,1596631476.0
12.64,1596631476.015625
11.53,1596631476.03125
10.31,1596631476.046875
9.04,1596631476.0625
7.76,1596631476.078125
6.51,1596631476.09375
5.26,1596631476.109375
3.91,1596631476.125
2.41,1596631476.140625
0.7,1596631476.15625
-1.18,1596631476.171875
-3.13,1596631476.1875
-5.05,1596631476.203125
-6.88,1596631476.21875
-8.67,1596631476.234375
-10.52,1596631476.25
-12.58,1596631476.265625
-14.89,1596631476.28125
-17.38,1596631476.296875
-19.85,1596631476.3125
-22.1,1596631476.328125
-24.0,1596631476.34375
-25.57,1596631476.359375
-26.96,1596631476.375
-28.44,1596631476.390625
-30.28,1596631476.40625
-32.75,1596631476.421875
-36.02,1596631476.4375
-40.12,1596631476.453125
-44.78,1596631476.46875
-49.41,1596631476.484375
-53.11,1596631476.5
-54.86,1596631476.515625
-53.9,1596631476.53125
-49.92,1596631476.546875
-43.32,1596631476.5625
-35.04,1596631476.578125
-26.29,1596631476.59375
-18.2,1596631476.609375
-11.51,1596631476.625
-6.46,1596631476.640625
-2.81,1596631476.65625
-0.08,1596631476.671875
2.25,1596631476.6875
4.6,1596631476.703125
7.16,1596631476.71875
9.92,1596631476.734375
12.71,1596631476.75
15.31,1596631476.765625
17.51,1596631476.78125
19.18,1596631476.796875
20.34,1596631476.8125
21.12,1596631476.828125
21.73,1596631476.84375
22.36,1596631476.859375
23.12,1596631476.875
24.0,1596631476.890625
24.91,1596631476.90625
25.73,1596631476.921875
26.35,1596631476.9375
26.73,1596631476.953125
26.87,1596631476.96875
26.78,1596631476.984375
26.41,1596631477.0
25.71,1596631477.015625
24.67,1596631477.03125
23.38,1596631477.046875
22.04,1596631477.0625
20.86,1596631477.078125
19.98,1596631477.09375
19.36,1596631477.109375
18.83,1596631477.125
18.1,1596631477.140625
17.04,1596631477.15625
15.64,1596631477.171875
14.09,1596631477.1875
12.6,1596631477.203125
11.3,1596631477.21875
10.18,1596631477.234375
9.07,1596631477.25
7.78,1596631477.265625
6.19,1596631477.28125
4.33,1596631477.296875
2.33,1596631477.3125
0.35,1596631477.328125
-1.5,1596631477.34375
-3.23,1596631477.359375
-4.94,1596631477.375
-6.8,1596631477.390625
-8.9,1596631477.40625
-11.26,1596631477.421875
-13.79,1596631477.4375
-16.32,1596631477.453125
-18.72,1596631477.46875
-20.93,1596631477.484375
-22.98,1596631477.5
-25.02,1596631477.515625
-27.3,1596631477.53125
-30.07,1596631477.546875
-33.58,1596631477.5625
-37.96,1596631477.578125
-43.0,1596631477.59375
-48.13,1596631477.609375
-52.36,1596631477.625
-54.55,1596631477.640625
-53.79,1596631477.65625
-49.77,1596631477.671875
-42.96,1596631477.6875
-34.43,1596631477.703125
-25.5,1596631477.71875
-17.27,1596631477.734375
-10.4,1596631477.75
-5.02,1596631477.765625
-0.88,1596631477.78125
2.45,1596631477.796875
5.39,1596631477.8125
8.25,1596631477.828125
11.2,1596631477.84375
14.22,1596631477.859375
17.14,1596631477.875
19.73,1596631477.890625
21.73,1596631477.90625
23.07,1596631477.921875
23.86,1596631477.9375
24.35,1596631477.953125
24.84,1596631477.96875
25.52,1596631477.984375
26.42,1596631478.0
27.44,1596631478.015625
28.41,1596631478.03125
29.21,1596631478.046875
29.75,1596631478.0625
30.02,1596631478.078125
30.03,1596631478.09375
29.75,1596631478.109375
29.13,1596631478.125
28.15,1596631478.140625
26.85,1596631478.15625
25.41,1596631478.171875
24.06,1596631478.1875
22.98,1596631478.203125
22.25,1596631478.21875
21.73,1596631478.234375
21.15,1596631478.25
20.29,1596631478.265625
19.02,1596631478.28125
17.43,1596631478.296875
15.74,1596631478.3125
14.17,1596631478.328125
12.85,1596631478.34375
11.76,1596631478.359375
10.8,1596631478.375
9.88,1596631478.390625
8.91,1596631478.40625
7.87,1596631478.421875
6.72,1596631478.4375
5.4,1596631478.453125
3.86,1596631478.46875
2.05,1596631478.484375
0.01,1596631478.5
-2.15,1596631478.515625
-4.24,1596631478.53125
-6.11,1596631478.546875
-7.67,1596631478.5625
-8.97,1596631478.578125
-10.17,1596631478.59375
-11.51,1596631478.609375
-13.2,1596631478.625
-15.4,1596631478.640625
-18.03,1596631478.65625
-20.89,1596631478.671875
-23.7,1596631478.6875
-26.19,1596631478.703125
-28.33,1596631478.71875
-30.35,1596631478.734375
-32.69,1596631478.75
-35.82,1596631478.765625
-39.98,1596631478.78125
-45.0,1596631478.796875
-50.23,1596631478.8125
-54.66,1596631478.828125
-57.17,1596631478.84375
-56.96,1596631478.859375
-53.7,1596631478.875
-47.72,1596631478.890625
-39.82,1596631478.90625
-31.05,1596631478.921875
-22.45,1596631478.9375
-14.77,1596631478.953125
-8.43,1596631478.96875
-3.5,1596631478.984375
0.26,1596631479.0
3.24,1596631479.015625
5.93,1596631479.03125
8.69,1596631479.046875
11.71,1596631479.0625
14.91,1596631479.078125
18.0,1596631479.09375
20.61,1596631479.109375
22.47,1596631479.125
23.47,1596631479.140625
23.83,1596631479.15625
23.88,1596631479.171875
24.02,1596631479.1875
24.57,1596631479.203125
25.61,1596631479.21875
27.06,1596631479.234375
28.64,1596631479.25
30.03,1596631479.265625
30.95,1596631479.28125
31.26,1596631479.296875
30.97,1596631479.3125
30.16,1596631479.328125
29.0,1596631479.34375
27.68,1596631479.359375
26.37,1596631479.375
25.24,1596631479.390625
24.36,1596631479.40625
23.74,1596631479.421875
23.27,1596631479.4375
22.77,1596631479.453125
22.11,1596631479.46875
21.22,1596631479.484375
20.12,1596631479.5
18.88,1596631479.515625
17.59,1596631479.53125
16.3,1596631479.546875
15.08,1596631479.5625
13.98,1596631479.578125
13.01,1596631479.59375
12.13,1596631479.609375
11.21,1596631479.625
10.06,1596631479.640625
8.5,1596631479.65625
6.53,1596631479.671875
4.27,1596631479.6875
1.94,1596631479.703125
-0.21,1596631479.71875
-2.02,1596631479.734375
-3.46,1596631479.75
-4.62,1596631479.765625
-5.65,1596631479.78125
-6.78,1596631479.796875
-8.23,1596631479.8125
-10.17,1596631479.828125
-12.67,1596631479.84375
-15.64,1596631479.859375
-18.86,1596631479.875
-22.01,1596631479.890625
-24.86,1596631479.90625
-27.26,1596631479.921875
-29.26,1596631479.9375
-31.1,1596631479.953125
-33.11,1596631479.96875
-35.7,1596631479.984375
-39.15,1596631480.0
-43.44,1596631480.015625
-48.08,1596631480.03125
-52.1,1596631480.046875
-54.27,1596631480.0625
-53.54,1596631480.078125
-49.42,1596631480.09375
-42.29,1596631480.109375
-33.32,1596631480.125
-23.98,1596631480.140625
-15.6,1596631480.15625
-8.88,1596631480.171875
-3.88,1596631480.1875
-0.18,1596631480.203125
2.73,1596631480.21875
5.26,1596631480.234375
7.57,1596631480.25
9.69,1596631480.265625
11.63,1596631480.28125
13.43,1596631480.296875
15.13,1596631480.3125
16.76,1596631480.328125
18.3,1596631480.34375
19.7,1596631480.359375
20.88,1596631480.375
21.86,1596631480.390625
22.67,1596631480.40625
23.41,1596631480.421875
24.16,1596631480.4375
24.97,1596631480.453125
25.86,1596631480.46875
26.8,1596631480.484375
27.68,1596631480.5
28.4,1596631480.515625
28.83,1596631480.53125
28.86,1596631480.546875
28.45,1596631480.5625
27.63,1596631480.578125
26.51,1596631480.59375
25.23,1596631480.609375
23.9,1596631480.625
22.61,1596631480.640625
21.36,1596631480.65625
20.12,1596631480.671875
18.84,1596631480.6875
17.51,1596631480.703125
16.17,1596631480.71875
14.89,1596631480.734375
13.76,1596631480.75
12.76,1596631480.765625
11.81,1596631480.78125
10.8,1596631480.796875
9.6,1596631480.8125
8.17,1596631480.828125
6.52,1596631480.84375
4.7,1596631480.859375
2.79,1596631480.875
0.81,1596631480.890625
-1.2,1596631480.90625
-3.22,1596631480.921875
-5.15,1596631480.9375
-6.92,1596631480.953125
-8.45,1596631480.96875
-9.8,1596631480.984375
-11.12,1596631481.0
-12.67,1596631481.015625
-14.61,1596631481.03125
-17.02,1596631481.046875
-19.77,1596631481.0625
-22.59,1596631481.078125
-25.22,1596631481.09375
-27.56,1596631481.109375
-29.73,1596631481.125
-32.12,1596631481.140625
-35.24,1596631481.15625
-39.43,1596631481.171875
-44.66,1596631481.1875
-50.41,1596631481.203125
-55.67,1596631481.21875
-59.24,1596631481.234375
-60.09,1596631481.25
-57.71,1596631481.265625
-52.25,1596631481.28125
-44.47,1596631481.296875
-35.48,1596631481.3125
-26.45,1596631481.328125
-18.27,1596631481.34375
-11.5,1596631481.359375
-6.3,1596631481.375
-2.51,1596631481.390625
0.26,1596631481.40625
2.47,1596631481.421875
4.59,1596631481.4375
6.92,1596631481.453125
9.58,1596631481.46875
12.49,1596631481.484375
15.44,1596631481.5
18.22,1596631481.515625
20.66,1596631481.53125
22.69,1596631481.546875
24.32,1596631481.5625
25.63,1596631481.578125
26.69,1596631481.59375
27.63,1596631481.609375
28.52,1596631481.625
29.41,1596631481.640625
30.23,1596631481.65625
30.88,1596631481.671875
31.18,1596631481.6875
31.0,1596631481.703125
30.34,1596631481.71875
29.31,1596631481.734375
28.06,1596631481.75
26.77,1596631481.765625
25.57,1596631481.78125
24.52,1596631481.796875
23.61,1596631481.8125
22.85,1596631481.828125
22.19,1596631481.84375
21.54,1596631481.859375
20.74,1596631481.875
19.67,1596631481.890625
18.26,1596631481.90625
16.62,1596631481.921875
14.94,1596631481.9375
13.48,1596631481.953125
12.38,1596631481.96875
11.65,1596631481.984375
11.12,1596631482.0
10.54,1596631482.015625
9.74,1596631482.03125
8.65,1596631482.046875
7.31,1596631482.0625
5.81,1596631482.078125
4.23,1596631482.09375
2.57,1596631482.109375
0.86,1596631482.125
-0.87,1596631482.140625
-2.61,1596631482.15625
-4.31,1596631482.171875
-5.96,1596631482.1875
-7.59,1596631482.203125
-9.31,1596631482.21875
-11.21,1596631482.234375
-13.4,1596631482.25
-15.89,1596631482.265625
-18.64,1596631482.28125
-21.49,1596631482.296875
-24.24,1596631482.3125
-26.73,1596631482.328125
-28.94,1596631482.34375
-30.98,1596631482.359375
-33.16,1596631482.375
-35.8,1596631482.390625
-39.1,1596631482.40625
-42.98,1596631482.421875
-46.97,1596631482.4375
-50.34,1596631482.453125
-52.21,1596631482.46875
-51.8,1596631482.484375
-48.66,1596631482.5
-42.76,1596631482.515625
-34.57,1596631482.53125
-24.93,1596631482.546875
-14.87,1596631482.5625
-5.44,1596631482.578125
2.58,1596631482.59375
8.77,1596631482.609375
13.18,1596631482.625
16.2,1596631482.640625
18.46,1596631482.65625
20.58,1596631482.671875
23.0,1596631482.6875
25.87,1596631482.703125
29.06,1596631482.71875
32.26,1596631482.734375
35.18,1596631482.75
37.59,1596631482.765625
39.46,1596631482.78125
40.9,1596631482.796875
42.11,1596631482.8125
43.32,1596631482.828125
44.66,1596631482.84375
46.16,1596631482.859375
47.74,1596631482.875
49.1,1596631482.890625
49.84,1596631482.90625
49.39,1596631482.921875
47.13,1596631482.9375
42.49,1596631482.953125
35.24,1596631482.96875
25.65,1596631482.984375
14.53,1596631483.0
3.15,1596631483.015625
-7.14,1596631483.03125
-15.23,1596631483.046875
-20.56,1596631483.0625
-23.19,1596631483.078125
-23.66,1596631483.09375
-22.68,1596631483.109375
-20.89,1596631483.125
-18.75,1596631483.140625
-16.49,1596631483.15625
-14.25,1596631483.171875
-12.15,1596631483.1875
-10.3,1596631483.203125
-8.79,1596631483.21875
-7.64,1596631483.234375
-6.83,1596631483.25
-6.28,1596631483.265625
-5.92,1596631483.28125
-5.67,1596631483.296875
-5.53,1596631483.3125
-5.54,1596631483.328125
-5.72,1596631483.34375
-6.09,1596631483.359375
-6.66,1596631483.375
-7.42,1596631483.390625
-8.43,1596631483.40625
-9.76,1596631483.421875
-11.48,1596631483.4375
-13.66,1596631483.453125
-16.3,1596631483.46875
-19.24,1596631483.484375
-22.27,1596631483.5
-25.13,1596631483.515625
-27.66,1596631483.53125
-29.85,1596631483.546875
-31.95,1596631483.5625
-34.31,1596631483.578125
-37.37,1596631483.59375
-41.38,1596631483.609375
-46.28,1596631483.625
-51.58,1596631483.640625
-56.4,1596631483.65625
-59.65,1596631483.671875
-60.31,1596631483.6875
-57.77,1596631483.703125
-52.03,1596631483.71875
-43.76,1596631483.734375
-34.1,1596631483.75
-24.37,1596631483.765625
-15.72,1596631483.78125
-8.79,1596631483.796875
-3.69,1596631483.8125
-0.09,1596631483.828125
2.63,1596631483.84375
5.08,1596631483.859375
7.7,1596631483.875
10.67,1596631483.890625
13.96,1596631483.90625
17.32,1596631483.921875
20.47,1596631483.9375
23.1,1596631483.953125
25.07,1596631483.96875
26.35,1596631483.984375
27.05,1596631484.0
27.37,1596631484.015625
27.55,1596631484.03125
27.79,1596631484.046875
28.25,1596631484.0625
28.98,1596631484.078125
30.01,1596631484.09375
31.22,1596631484.109375
32.41,1596631484.125
33.3,1596631484.140625
33.56,1596631484.15625
33.03,1596631484.171875
31.71,1596631484.1875
29.93,1596631484.203125
28.09,1596631484.21875
26.58,1596631484.234375
25.59,1596631484.25
25.0,1596631484.265625
24.53,1596631484.28125
23.85,1596631484.296875
22.83,1596631484.3125
21.53,1596631484.328125
20.14,1596631484.34375
18.84,1596631484.359375
17.68,1596631484.375
16.53,1596631484.390625
15.25,1596631484.40625
13.68,1596631484.421875
11.86,1596631484.4375
9.91,1596631484.453125
8.04,1596631484.46875
6.39,1596631484.484375
5.0,1596631484.5
3.79,1596631484.515625
2.57,1596631484.53125
1.22,1596631484.546875
-0.33,1596631484.5625
-1.97,1596631484.578125
-3.58,1596631484.59375
-4.99,1596631484.609375
-6.2,1596631484.625
-7.32,1596631484.640625
-8.58,1596631484.65625
-10.22,1596631484.671875
-12.38,1596631484.6875
-15.07,1596631484.703125
-18.15,1596631484.71875
-21.41,1596631484.734375
-24.61,1596631484.75
-27.6,1596631484.765625
-30.31,1596631484.78125
-32.78,1596631484.796875
-35.22,1596631484.8125
-37.9,1596631484.828125
-41.15,1596631484.84375
-45.18,1596631484.859375
-49.92,1596631484.875
-54.92,1596631484.890625
-59.35,1596631484.90625
-62.14,1596631484.921875
-62.33,1596631484.9375
-59.35,1596631484.953125
-53.23,1596631484.96875
-44.67,1596631484.984375
-34.78,1596631485.0
-24.81,1596631485.015625
-15.83,1596631485.03125
-8.51,1596631485.046875
-3.06,1596631485.0625
0.7,1596631485.078125
3.24,1596631485.09375
5.16,1596631485.109375
7.03,1596631485.125
9.27,1596631485.140625
11.97,1596631485.15625
14.98,1596631485.171875
17.95,1596631485.1875
20.56,1596631485.203125
22.7,1596631485.21875
24.4,1596631485.234375
25.86,1596631485.25
27.22,1596631485.265625
28.55,1596631485.28125
29.82,1596631485.296875
31.03,1596631485.3125
32.18,1596631485.328125
33.36,1596631485.34375
34.53,1596631485.359375
35.51,1596631485.375
36.01,1596631485.390625
35.72,1596631485.40625
34.54,1596631485.421875
32.61,1596631485.4375
30.28,1596631485.453125
27.97,1596631485.46875
26.01,1596631485.484375
24.52,1596631485.5
23.44,1596631485.515625
22.62,1596631485.53125
21.89,1596631485.546875
21.11,1596631485.5625
20.19,1596631485.578125
19.08,1596631485.59375
17.77,1596631485.609375
16.34,1596631485.625
14.88,1596631485.640625
13.52,1596631485.65625
12.35,1596631485.671875
11.33,1596631485.6875
10.34,1596631485.703125
9.17,1596631485.71875
7.71,1596631485.734375
5.95,1596631485.75
4.05,1596631485.765625
2.18,1596631485.78125
0.46,1596631485.796875
-1.14,1596631485.8125
-2.77,1596631485.828125
-4.61,1596631485.84375
-6.77,1596631485.859375
-9.28,1596631485.875
-12.11,1596631485.890625
-15.18,1596631485.90625
-18.43,1596631485.921875
-21.78,1596631485.9375
-25.1,1596631485.953125
-28.25,1596631485.96875
-31.11,1596631485.984375
-33.74,1596631486.0
-36.4,1596631486.015625
-39.56,1596631486.03125
-43.66,1596631486.046875
-48.83,1596631486.0625
-54.69,1596631486.078125
-60.29,1596631486.09375
-64.36,1596631486.109375
-65.66,1596631486.125
-63.41,1596631486.140625
-57.59,1596631486.15625
-48.98,1596631486.171875
-38.88,1596631486.1875
-28.69,1596631486.203125
-19.52,1596631486.21875
-11.92,1596631486.234375
-5.9,1596631486.25
-1.13,1596631486.265625
2.86,1596631486.28125
6.5,1596631486.296875
10.07,1596631486.3125
13.7,1596631486.328125
17.39,1596631486.34375
21.03,1596631486.359375
24.39,1596631486.375
27.28,1596631486.390625
29.51,1596631486.40625
31.07,1596631486.421875
32.1,1596631486.4375
32.82,1596631486.453125
33.52,1596631486.46875
34.4,1596631486.484375
35.53,1596631486.5
36.8,1596631486.515625
38.01,1596631486.53125
38.96,1596631486.546875
39.46,1596631486.5625
39.45,1596631486.578125
38.94,1596631486.59375
37.99,1596631486.609375
36.67,1596631486.625
35.1,1596631486.640625
33.35,1596631486.65625
31.49,1596631486.671875
29.57,1596631486.6875
27.59,1596631486.703125
25.61,1596631486.71875
23.68,1596631486.734375
21.9,1596631486.75
20.35,1596631486.765625
19.08,1596631486.78125
18.05,1596631486.796875
17.18,1596631486.8125
16.38,1596631486.828125
15.56,1596631486.84375
14.67,1596631486.859375
13.72,1596631486.875
12.69,1596631486.890625
11.61,1596631486.90625
10.49,1596631486.921875
9.4,1596631486.9375
8.44,1596631486.953125
7.67,1596631486.96875
7.06,1596631486.984375
6.43,1596631487.0
5.49,1596631487.015625
4.01,1596631487.03125
1.89,1596631487.046875
-0.74,1596631487.0625
-3.57,1596631487.078125
-6.26,1596631487.09375
-8.57,1596631487.109375
-10.45,1596631487.125
-12.1,1596631487.140625
-13.82,1596631487.15625
-15.85,1596631487.171875
-18.27,1596631487.1875
-20.95,1596631487.203125
-23.62,1596631487.21875
-26.04,1596631487.234375
-28.15,1596631487.25
-30.13,1596631487.265625
-32.33,1596631487.28125
-35.16,1596631487.296875
-38.92,1596631487.3125
-43.62,1596631487.328125
-48.91,1596631487.34375
-54.07,1596631487.359375
-58.11,1596631487.375
-60.03,1596631487.390625
-59.04,1596631487.40625
-54.82,1596631487.421875
-47.68,1596631487.4375
-38.47,1596631487.453125
-28.44,1596631487.46875
-18.83,1596631487.484375
-10.61,1596631487.5
-4.25,1596631487.515625
0.29,1596631487.53125
3.46,1596631487.546875
5.89,1596631487.5625
8.1,1596631487.578125
10.43,1596631487.59375
12.98,1596631487.609375
15.65,1596631487.625
18.26,1596631487.640625
20.66,1596631487.65625
22.73,1596631487.671875
24.39,1596631487.6875
25.65,1596631487.703125
26.54,1596631487.71875
27.18,1596631487.734375
27.73,1596631487.75
28.33,1596631487.765625
29.09,1596631487.78125
30.0,1596631487.796875
30.93,1596631487.8125
31.68,1596631487.828125
32.07,1596631487.84375
31.94,1596631487.859375
31.25,1596631487.875
30.08,1596631487.890625
28.57,1596631487.90625
26.92,1596631487.921875
25.3,1596631487.9375
23.85,1596631487.953125
22.6,1596631487.96875
21.51,1596631487.984375
20.46,1596631488.0
19.34,1596631488.015625
18.09,1596631488.03125
16.68,1596631488.046875
15.2,1596631488.0625
13.8,1596631488.078125
12.64,1596631488.09375
11.81,1596631488.109375
11.29,1596631488.125
10.88,1596631488.140625
10.29,1596631488.15625
9.24,1596631488.171875
7.61,1596631488.1875
5.46,1596631488.203125
3.03,1596631488.21875
0.59,1596631488.234375
-1.73,1596631488.25
-3.98,1596631488.265625
-6.39,1596631488.28125
-9.18,1596631488.296875
-12.4,1596631488.3125
-15.86,1596631488.328125
-19.18,1596631488.34375
-22.01,1596631488.359375
-24.17,1596631488.375
-25.76,1596631488.390625
-27.1,1596631488.40625
-28.6,1596631488.421875
-30.62,1596631488.4375
-33.4,1596631488.453125
-37.05,1596631488.46875
-41.54,1596631488.484375
-46.54,1596631488.5
-51.43,1596631488.515625
-55.25,1596631488.53125
-56.92,1596631488.546875
-55.56,1596631488.5625
-50.88,1596631488.578125
-43.34,1596631488.59375
-34.03,1596631488.609375
-24.32,1596631488.625
-15.45,1596631488.640625
-8.14,1596631488.65625
-2.59,1596631488.671875
1.47,1596631488.6875
4.54,1596631488.703125
7.1,1596631488.71875
9.5,1596631488.734375
11.94,1596631488.75
14.47,1596631488.765625
16.97,1596631488.78125
19.26,1596631488.796875
21.14,1596631488.8125
22.51,1596631488.828125
23.36,1596631488.84375
23.83,1596631488.859375
24.13,1596631488.875
24.44,1596631488.890625
24.85,1596631488.90625
25.39,1596631488.921875
26.05,1596631488.9375
26.82,1596631488.953125
27.68,1596631488.96875
28.55,1596631488.984375
29.28,1596631489.0
29.61,1596631489.015625
29.34,1596631489.03125
28.38,1596631489.046875
26.86,1596631489.0625
25.1,1596631489.078125
23.47,1596631489.09375
22.25,1596631489.109375
21.52,1596631489.125
21.15,1596631489.140625
20.88,1596631489.15625
20.45,1596631489.171875
19.71,1596631489.1875
18.67,1596631489.203125
17.48,1596631489.21875
16.33,1596631489.234375
15.38,1596631489.25
14.68,1596631489.265625
14.12,1596631489.28125
13.6,1596631489.296875
12.99,1596631489.3125
12.24,1596631489.328125
11.4,1596631489.34375
10.53,1596631489.359375
9.67,1596631489.375
8.78,1596631489.390625
7.73,1596631489.40625
6.41,1596631489.421875
4.78,1596631489.4375
2.93,1596631489.453125
1.08,1596631489.46875
-0.58,1596631489.484375
-1.87,1596631489.5
-2.82,1596631489.515625
-3.55,1596631489.53125
-4.31,1596631489.546875
-5.3,1596631489.5625
-6.62,1596631489.578125
-8.18,1596631489.59375
-9.8,1596631489.609375
-11.28,1596631489.625
-12.5,1596631489.640625
-13.54,1596631489.65625
-14.6,1596631489.671875
-15.99,1596631489.6875
-17.89,1596631489.703125
-20.36,1596631489.71875
-23.22,1596631489.734375
-26.17,1596631489.75
-28.87,1596631489.765625
-31.18,1596631489.78125
-33.12,1596631489.796875
-34.95,1596631489.8125
-36.98,1596631489.828125
-39.54,1596631489.84375
-42.81,1596631489.859375
-46.79,1596631489.875
-51.24,1596631489.890625
-55.59,1596631489.90625
-59.01,1596631489.921875
-60.53,1596631489.9375
-59.24,1596631489.953125
-54.69,1596631489.96875
-47.11,1596631489.984375
-37.4,1596631490.0
-26.95,1596631490.015625
-17.16,1596631490.03125
-9.05,1596631490.046875
-3.02,1596631490.0625
1.14,1596631490.078125
3.99,1596631490.09375
6.17,1596631490.109375
8.15,1596631490.125
10.18,1596631490.140625
12.29,1596631490.15625
14.4,1596631490.171875
16.39,1596631490.1875
18.15,1596631490.203125
19.68,1596631490.21875
20.98,1596631490.234375
22.1,1596631490.25
23.04,1596631490.265625
23.81,1596631490.28125
24.41,1596631490.296875
24.89,1596631490.3125
25.31,1596631490.328125
25.76,1596631490.34375
26.29,1596631490.359375
26.82,1596631490.375
27.23,1596631490.390625
27.35,1596631490.40625
27.02,1596631490.421875
26.22,1596631490.4375
25.05,1596631490.453125
23.71,1596631490.46875
22.37,1596631490.484375
21.17,1596631490.5
20.1,1596631490.515625
19.08,1596631490.53125
17.99,1596631490.546875
16.79,1596631490.5625
15.52,1596631490.578125
14.29,1596631490.59375
13.2,1596631490.609375
12.29,1596631490.625
11.49,1596631490.640625
10.72,1596631490.65625
9.89,1596631490.671875
8.98,1596631490.6875
8.03,1596631490.703125
7.08,1596631490.71875
6.17,1596631490.734375
5.31,1596631490.75
4.44,1596631490.765625
3.53,1596631490.78125
2.49,1596631490.796875
1.26,1596631490.8125
-0.19,1596631490.828125
-1.85,1596631490.84375
-3.66,1596631490.859375
-5.55,1596631490.875
-7.52,1596631490.890625
-9.62,1596631490.90625
-11.98,1596631490.921875
-14.63,1596631490.9375
-17.51,1596631490.953125
-20.38,1596631490.96875
-22.98,1596631490.984375
-25.09,1596631491.0
-26.66,1596631491.015625
-27.85,1596631491.03125
-28.93,1596631491.046875
-30.26,1596631491.0625
-32.18,1596631491.078125
-34.96,1596631491.09375
-38.72,1596631491.109375
-43.27,1596631491.125
-48.04,1596631491.140625
-52.08,1596631491.15625
-54.28,1596631491.171875
-53.67,1596631491.1875
-49.83,1596631491.203125
-43.05,1596631491.21875
-34.27,1596631491.234375
-24.83,1596631491.25
-16.0,1596631491.265625
-8.66,1596631491.28125
-3.14,1596631491.296875
0.74,1596631491.3125
3.43,1596631491.328125
5.47,1596631491.34375
7.25,1596631491.359375
9.01,1596631491.375
10.82,1596631491.390625
12.66,1596631491.40625
14.5,1596631491.421875
16.24,1596631491.4375
17.83,1596631491.453125
19.17,1596631491.46875
20.2,1596631491.484375
20.94,1596631491.5
21.53,1596631491.515625
22.15,1596631491.53125
23.01,1596631491.546875
24.15,1596631491.5625
25.44,1596631491.578125
26.53,1596631491.59375
27.05,1596631491.609375
26.73,1596631491.625
25.57,1596631491.640625
23.84,1596631491.65625
21.93,1596631491.671875
20.19,1596631491.6875
18.79,1596631491.703125
17.69,1596631491.71875
16.79,1596631491.734375
16.0,1596631491.75
15.28,1596631491.765625
14.72,1596631491.78125
14.32,1596631491.796875
14.06,1596631491.8125
13.83,1596631491.828125
13.5,1596631491.84375
13.01,1596631491.859375
12.36,1596631491.875
11.57,1596631491.890625
10.67,1596631491.90625
9.67,1596631491.921875
8.56,1596631491.9375
7.4,1596631491.953125
6.29,1596631491.96875
5.35,1596631491.984375
4.59,1596631492.0
3.94,1596631492.015625
3.2,1596631492.03125
2.13,1596631492.046875
0.56,1596631492.0625
-1.53,1596631492.078125
-3.94,1596631492.09375
-6.39,1596631492.109375
-8.63,1596631492.125
-10.53,1596631492.140625
-12.14,1596631492.15625
-13.71,1596631492.171875
-15.52,1596631492.1875
-17.77,1596631492.203125
-20.52,1596631492.21875
-23.62,1596631492.234375
-26.81,1596631492.25
-29.81,1596631492.265625
-32.45,1596631492.28125
-34.75,1596631492.296875
-36.93,1596631492.3125
-39.3,1596631492.328125
-42.25,1596631492.34375
-45.99,1596631492.359375
-50.47,1596631492.375
-55.18,1596631492.390625
-59.26,1596631492.40625
-61.6,1596631492.421875
-61.22,1596631492.4375
-57.61,1596631492.453125
-50.94,1596631492.46875
-42.13,1596631492.484375
-32.5,1596631492.5
-23.43,1596631492.515625
-15.9,1596631492.53125
-10.3,1596631492.546875
-6.43,1596631492.5625
-3.74,1596631492.578125
-1.61,1596631492.59375
0.47,1596631492.609375
2.76,1596631492.625
5.32,1596631492.640625
8.06,1596631492.65625
10.82,1596631492.671875
13.43,1596631492.6875
15.73,1596631492.703125
17.65,1596631492.71875
19.21,1596631492.734375
20.55,1596631492.75
21.83,1596631492.765625
23.18,1596631492.78125
24.64,1596631492.796875
26.13,1596631492.8125
27.57,1596631492.828125
28.81,1596631492.84375
29.79,1596631492.859375
30.41,1596631492.875
30.64,1596631492.890625
30.41,1596631492.90625
29.73,1596631492.921875
28.62,1596631492.9375
27.17,1596631492.953125
25.53,1596631492.96875
23.86,1596631492.984375
22.31,1596631493.0
21.0,1596631493.015625
19.98,1596631493.03125
19.26,1596631493.046875
18.77,1596631493.0625
18.44,1596631493.078125
18.12,1596631493.09375
17.73,1596631493.109375
17.23,1596631493.125
16.6,1596631493.140625
15.83,1596631493.15625
14.88,1596631493.171875
13.72,1596631493.1875
12.33,1596631493.203125
10.79,1596631493.21875
9.22,1596631493.234375
7.79,1596631493.25
6.61,1596631493.265625
5.73,1596631493.28125
5.07,1596631493.296875
4.48,1596631493.3125
3.78,1596631493.328125
2.86,1596631493.34375
1.64,1596631493.359375
0.16,1596631493.375
-1.51,1596631493.390625
-3.31,1596631493.40625
-5.18,1596631493.421875
-7.11,1596631493.4375
-9.1,1596631493.453125
-11.2,1596631493.46875
-13.42,1596631493.484375
-15.8,1596631493.5
-18.34,1596631493.515625
-21.02,1596631493.53125
-23.81,1596631493.546875
-26.57,1596631493.5625
-29.19,1596631493.578125
-31.54,1596631493.59375
-33.65,1596631493.609375
-35.71,1596631493.625
-38.12,1596631493.640625
-41.31,1596631493.65625
-45.52,1596631493.671875
-50.59,1596631493.6875
-55.79,1596631493.703125
-60.02,1596631493.71875
-62.01,1596631493.734375
-60.85,1596631493.75
-56.25,1596631493.765625
-48.73,1596631493.78125
-39.46,1596631493.796875
-29.85,1596631493.8125
-21.16,1596631493.828125
-14.15,1596631493.84375
-9.0,1596631493.859375
-5.38,1596631493.875
-2.65,1596631493.890625
-0.19,1596631493.90625
2.43,1596631493.921875
5.4,1596631493.9375
8.72,1596631493.953125
12.22,1596631493.96875
15.75,1596631493.984375
19.14,1596631494.0
22.25,1596631494.015625
24.99,1596631494.03125
27.25,1596631494.046875
28.99,1596631494.0625
30.23,1596631494.078125
31.09,1596631494.09375
31.8,1596631494.109375
32.59,1596631494.125
33.6,1596631494.140625
34.81,1596631494.15625
35.97,1596631494.171875
36.72,1596631494.1875
36.74,1596631494.203125
35.86,1596631494.21875
34.17,1596631494.234375
31.95,1596631494.25
29.57,1596631494.265625
27.38,1596631494.28125
25.57,1596631494.296875
24.19,1596631494.3125
23.17,1596631494.328125
22.38,1596631494.34375
21.72,1596631494.359375
21.01,1596631494.375
20.12,1596631494.390625
18.99,1596631494.40625
17.58,1596631494.421875
15.99,1596631494.4375
14.38,1596631494.453125
12.86,1596631494.46875
11.49,1596631494.484375
10.16,1596631494.5
8.72,1596631494.515625
6.99,1596631494.53125
4.92,1596631494.546875
2.61,1596631494.5625
0.24,1596631494.578125
-2.01,1596631494.59375
-4.01,1596631494.609375
-5.83,1596631494.625
-7.64,1596631494.640625
-9.65,1596631494.65625
-12.05,1596631494.671875
-14.87,1596631494.6875
-17.99,1596631494.703125
-21.14,1596631494.71875
-24.04,1596631494.734375
-26.47,1596631494.75
-28.37,1596631494.765625
-29.92,1596631494.78125
-31.47,1596631494.796875
-33.5,1596631494.8125
-36.47,1596631494.828125
-40.62,1596631494.84375
-45.82,1596631494.859375
-51.57,1596631494.875
-56.9,1596631494.890625
-60.64,1596631494.90625
-61.77,1596631494.921875
-59.63,1596631494.9375
-54.25,1596631494.953125
-46.33,1596631494.96875
-37.01,1596631494.984375
-27.6,1596631495.0
-19.16,1596631495.015625
-12.33,1596631495.03125
-7.28,1596631495.046875
-3.76,1596631495.0625
-1.24,1596631495.078125
0.96,1596631495.09375
3.46,1596631495.109375
6.69,1596631495.125
10.72,1596631495.140625
15.23,1596631495.15625
19.6,1596631495.171875
23.21,1596631495.1875
25.69,1596631495.203125
27.08,1596631495.21875
27.79,1596631495.234375
28.31,1596631495.25
29.03,1596631495.265625
30.04,1596631495.28125
31.25,1596631495.296875
32.45,1596631495.3125
33.54,1596631495.328125
34.5,1596631495.34375
35.34,1596631495.359375
35.99,1596631495.375
36.26,1596631495.390625
35.94,1596631495.40625
34.89,1596631495.421875
33.21,1596631495.4375
31.25,1596631495.453125
29.37,1596631495.46875
27.91,1596631495.484375
26.92,1596631495.5
26.22,1596631495.515625
25.47,1596631495.53125
24.45,1596631495.546875
23.11,1596631495.5625
21.64,1596631495.578125
20.34,1596631495.59375
19.41,1596631495.609375
18.89,1596631495.625
18.6,1596631495.640625
18.28,1596631495.65625
17.66,1596631495.671875
16.64,1596631495.6875
15.21,1596631495.703125
13.5,1596631495.71875
11.63,1596631495.734375
9.71,1596631495.75
7.88,1596631495.765625
6.2,1596631495.78125
4.74,1596631495.796875
3.47,1596631495.8125
2.27,1596631495.828125
0.93,1596631495.84375
-0.74,1596631495.859375
-2.8,1596631495.875
-5.1,1596631495.890625
-7.31,1596631495.90625
-9.08,1596631495.921875
-10.28,1596631495.9375
-11.03,1596631495.953125
-11.78,1596631495.96875
-13.01,1596631495.984375
-15.02,1596631496.0
-17.78,1596631496.015625
-20.95,1596631496.03125
-24.14,1596631496.046875
-27.09,1596631496.0625
-29.81,1596631496.078125
-32.55,1596631496.09375
-35.62,1596631496.109375
-39.29,1596631496.125
-43.69,1596631496.140625
-48.82,1596631496.15625
-54.45,1596631496.171875
-60.15,1596631496.1875
-65.16,1596631496.203125
-68.47,1596631496.21875
-69.09,1596631496.234375
-66.35,1596631496.25
-60.21,1596631496.265625
-51.42,1596631496.28125
-41.26,1596631496.296875
-31.15,1596631496.3125
-22.25,1596631496.328125
-15.1,1596631496.34375
-9.63,1596631496.359375
-5.28,1596631496.375
-1.38,1596631496.390625
2.64,1596631496.40625
7.03,1596631496.421875
11.73,1596631496.4375
16.44,1596631496.453125
20.83,1596631496.46875
24.63,1596631496.484375
27.71,1596631496.5
30.02,1596631496.515625
31.59,1596631496.53125
32.47,1596631496.546875
32.81,1596631496.5625
32.81,1596631496.578125
32.78,1596631496.59375
33.0,1596631496.609375
33.59,1596631496.625
34.44,1596631496.640625
35.27,1596631496.65625
35.72,1596631496.671875
35.58,1596631496.6875
34.77,1596631496.703125
33.39,1596631496.71875
31.62,1596631496.734375
29.61,1596631496.75
27.52,1596631496.765625
25.49,1596631496.78125
23.68,1596631496.796875
22.2,1596631496.8125
21.1,1596631496.828125
20.3,1596631496.84375
19.65,1596631496.859375
18.94,1596631496.875
17.99,1596631496.890625
16.67,1596631496.90625
14.92,1596631496.921875
12.75,1596631496.9375
10.27,1596631496.953125
7.7,1596631496.96875
5.25,1596631496.984375
3.09,1596631497.0
1.2,1596631497.015625
-0.66,1596631497.03125
-2.78,1596631497.046875
-5.43,1596631497.0625
-8.66,1596631497.078125
-12.29,1596631497.09375
-15.99,1596631497.109375
-19.39,1596631497.125
-22.25,1596631497.140625
-24.54,1596631497.15625
-26.45,1596631497.171875
-28.33,1596631497.1875
-30.57,1596631497.203125
-33.47,1596631497.21875
-37.07,1596631497.234375
-41.12,1596631497.25
-45.0,1596631497.265625
-47.86,1596631497.28125
-48.79,1596631497.296875
-47.07,1596631497.3125
-42.4,1596631497.328125
-35.08,1596631497.34375
-25.98,1596631497.359375
-16.31,1596631497.375
-7.33,1596631497.390625
0.08,1596631497.40625
5.61,1596631497.421875
9.55,1596631497.4375
12.55,1596631497.453125
15.33,1596631497.46875
18.32,1596631497.484375
21.49,1596631497.5
24.55,1596631497.515625
27.08,1596631497.53125
28.82,1596631497.546875
29.8,1596631497.5625
30.29,1596631497.578125
30.62,1596631497.59375
31.04,1596631497.609375
31.6,1596631497.625
32.22,1596631497.640625
32.78,1596631497.65625
33.21,1596631497.671875
33.53,1596631497.6875
33.76,1596631497.703125
33.88,1596631497.71875
33.79,1596631497.734375
33.34,1596631497.75
32.46,1596631497.765625
31.18,1596631497.78125
29.64,1596631497.796875
28.04,1596631497.8125
26.55,1596631497.828125
25.25,1596631497.84375
24.15,1596631497.859375
23.2,1596631497.875
22.34,1596631497.890625
21.52,1596631497.90625
20.72,1596631497.921875
19.88,1596631497.9375
18.98,1596631497.953125
18.0,1596631497.96875
17.0,1596631497.984375
16.06,1596631498.0
15.25,1596631498.015625
14.6,1596631498.03125
14.0,1596631498.046875
13.27,1596631498.0625
12.15,1596631498.078125
10.42,1596631498.09375
8.0,1596631498.109375
5.0,1596631498.125
1.68,1596631498.140625
-1.6,1596631498.15625
-4.5,1596631498.171875
-6.85,1596631498.1875
-8.63,1596631498.203125
-10.03,1596631498.21875
-11.37,1596631498.234375
-13.1,1596631498.25
-15.67,1596631498.265625
-19.41,1596631498.28125
-24.39,1596631498.296875
-30.23,1596631498.3125
-36.14,1596631498.328125
-40.96,1596631498.34375
-43.51,1596631498.359375
-42.98,1596631498.375
-39.28,1596631498.390625
-33.11,1596631498.40625
-25.73,1596631498.421875
-18.59,1596631498.4375
-12.78,1596631498.453125
-8.74,1596631498.46875
-6.23,1596631498.484375
-4.6,1596631498.5
-3.11,1596631498.515625
-1.26,1596631498.53125
1.1,1596631498.546875
3.81,1596631498.5625
6.54,1596631498.578125
8.98,1596631498.59375
10.95,1596631498.609375
12.43,1596631498.625
13.55,1596631498.640625
14.49,1596631498.65625
15.47,1596631498.671875
16.59,1596631498.6875
17.93,1596631498.703125
19.47,1596631498.71875
21.11,1596631498.734375
22.77,1596631498.75
24.29,1596631498.765625
25.56,1596631498.78125
26.51,1596631498.796875
27.14,1596631498.8125
27.54,1596631498.828125
27.84,1596631498.84375
28.12,1596631498.859375
28.38,1596631498.875
28.5,1596631498.890625
28.37,1596631498.90625
27.95,1596631498.921875
27.36,1596631498.9375
26.79,1596631498.953125
26.41,1596631498.96875
26.18,1596631498.984375
25.91,1596631499.0
25.23,1596631499.015625
23.86,1596631499.03125
21.7,1596631499.046875
18.94,1596631499.0625
15.89,1596631499.078125
12.94,1596631499.09375
10.36,1596631499.109375
8.21,1596631499.125
6.31,1596631499.140625
4.14,1596631499.15625
0.89,1596631499.171875
-4.53,1596631499.1875
-13.18,1596631499.203125
-25.73,1596631499.21875
-41.96,1596631499.234375
-60.5,1596631499.25
-78.93,1596631499.265625
