PPG GREEN,time
1621796.0,1569567266.191
1621658.0,1569567266.23
1621299.0,1569567266.27
1621659.0,1569567266.311
1623415.0,1569567266.35
1625587.0,1569567266.39
1628353.0,1569567266.431
1631184.0,1569567266.471
1634225.0,1569567266.51
1637683.0,1569567266.551
1640538.0,1569567266.591
1642630.0,1569567266.631
1638063.0,1569567266.672
1631105.0,1569567266.711
1625978.0,1569567266.751
1622793.0,1569567266.792
1620304.0,1569567266.831
1619315.0,1569567266.872
1619385.0,1569567266.912
1619222.0,1569567266.951
1618622.0,1569567266.991
1619514.0,1569567267.032
1620846.0,1569567267.072
1623452.0,1569567267.111
1626108.0,1569567267.153
1628983.0,1569567267.192
1631897.0,1569567267.232
1635031.0,1569567267.274
1638250.0,1569567267.312
1638778.0,1569567267.352
1633233.0,1569567267.393
1626249.0,1569567267.432
1622207.0,1569567267.473
1619308.0,1569567267.513
1617214.0,1569567267.552
1616658.0,1569567267.592
1616946.0,1569567267.634
1616600.0,1569567267.673
1616676.0,1569567267.713
1617723.0,1569567267.754
1619592.0,1569567267.793
1622267.0,1569567267.833
1625284.0,1569567267.875
1628209.0,1569567267.913
1630986.0,1569567267.953
1634036.0,1569567267.994
1637416.0,1569567268.033
1639628.0,1569567268.074
1635301.0,1569567268.114
1628708.0,1569567268.153
1623705.0,1569567268.193
1620832.0,1569567268.235
1618883.0,1569567268.274
1618408.0,1569567268.314
1618793.0,1569567268.355
1618231.0,1569567268.394
1618158.0,1569567268.434
1618866.0,1569567268.476
1620489.0,1569567268.514
1622552.0,1569567268.554
1625576.0,1569567268.595
1628593.0,1569567268.634
1631248.0,1569567268.675
1634447.0,1569567268.715
1637739.0,1569567268.754
1641089.0,1569567268.795
1641702.0,1569567268.836
1636570.0,1569567268.875
1631156.0,1569567268.915
1625334.0,1569567269.035
1625834.0,1569567269.077
1626177.0,1569567269.115
1627856.0,1569567268.956
1626065.0,1569567269.155
1626068.0,1569567268.995
1626321.0,1569567269.196
1627614.0,1569567269.235
1629795.0,1569567269.276
1632421.0,1569567269.316
1635589.0,1569567269.355
1638796.0,1569567269.395
1641946.0,1569567269.436
1645189.0,1569567269.476
1651518.0,1569567269.557
1649012.0,1569567269.596
1643024.0,1569567269.636
1638270.0,1569567269.677
1635775.0,1569567269.716
1634060.0,1569567269.756
1634051.0,1569567269.797
1633908.0,1569567269.836
1633680.0,1569567269.877
1633347.0,1569567269.917
1633675.0,1569567269.956
1634844.0,1569567269.996
1637099.0,1569567270.037
1640184.0,1569567270.077
1643005.0,1569567270.116
1646021.0,1569567270.158
1649070.0,1569567270.197
1652294.0,1569567270.237
1655881.0,1569567270.278
1657543.0,1569567270.317
1653158.0,1569567270.357
1646524.0,1569567270.398
1641964.0,1569567270.437
1638863.0,1569567270.478
1636692.0,1569567270.518
1636190.0,1569567270.557
1635969.0,1569567270.597
1635376.0,1569567270.638
1635387.0,1569567270.678
1635910.0,1569567270.717
1637526.0,1569567270.758
1639813.0,1569567270.797
1642424.0,1569567270.837
1645422.0,1569567270.879
1648469.0,1569567270.918
1651106.0,1569567270.958
1654292.0,1569567270.999
1657549.0,1569567271.038
1660437.0,1569567271.079
1648520.0,1569567269.515
1656961.0,1569567271.119
1650282.0,1569567271.158
1638248.0,1569567271.318
1638078.0,1569567271.359
1645185.0,1569567271.198
1637067.0,1569567271.439
1642028.0,1569567271.239
1639413.0,1569567271.279
1637532.0,1569567271.398
1637433.0,1569567271.48
1638825.0,1569567271.519
1643446.0,1569567271.6
1649229.0,1569567271.68
1640938.0,1569567271.559
1646226.0,1569567271.639
1652343.0,1569567271.72
1655214.0,1569567271.759
1658592.0,1569567271.799
1661944.0,1569567271.84
1656921.0,1569567271.919
1647176.0,1569567272.0
1662658.0,1569567271.88
1644819.0,1569567272.04
1642959.0,1569567272.081
1651363.0,1569567271.96
1642524.0,1569567272.12
1641638.0,1569567272.201
1642323.0,1569567272.16
1641558.0,1569567272.24
1642014.0,1569567272.281
1643629.0,1569567272.321
1645797.0,1569567272.36
1648315.0,1569567272.4
1650952.0,1569567272.441
1653907.0,1569567272.481
1656728.0,1569567272.52
1659474.0,1569567272.562
1662563.0,1569567272.601
1666252.0,1569567272.641
1667238.0,1569567272.682
1662236.0,1569567272.721
1656402.0,1569567272.761
1652331.0,1569567272.802
1649908.0,1569567272.841
1648403.0,1569567272.882
1647994.0,1569567272.922
1648184.0,1569567272.961
1647358.0,1569567273.001
1646568.0,1569567273.042
1647404.0,1569567273.082
1648701.0,1569567273.121
1650504.0,1569567273.163
1653163.0,1569567273.202
1655759.0,1569567273.242
1658245.0,1569567273.283
1660997.0,1569567273.322
1663711.0,1569567273.362
1666754.0,1569567273.403
1668890.0,1569567273.442
1665789.0,1569567273.483
1659751.0,1569567273.523
1655653.0,1569567273.562
1653415.0,1569567273.602
1652246.0,1569567273.643
1652669.0,1569567273.683
1652558.0,1569567273.722
1652516.0,1569567273.763
1652132.0,1569567273.802
1652739.0,1569567273.843
1654268.0,1569567273.884
1656121.0,1569567273.923
1659030.0,1569567273.963
1662081.0,1569567274.004
1665773.0,1569567274.043
1669374.0,1569567274.084
1672321.0,1569567274.124
1674703.0,1569567274.163
1675211.0,1569567274.203
1669605.0,1569567274.244
1662191.0,1569567274.284
1656768.0,1569567274.323
1652809.0,1569567274.364
1649156.0,1569567274.403
1645836.0,1569567274.443
1634161.0,1569567274.524
1635295.0,1569567274.564
1638935.0,1569567274.605
1643480.0,1569567274.485
1652707.0,1569567274.684
1660964.0,1569567274.725
1644174.0,1569567274.644
1669391.0,1569567274.764
1674444.0,1569567274.804
1677764.0,1569567274.845
1680007.0,1569567274.885
1681875.0,1569567274.924
1681907.0,1569567274.965
1666474.0,1569567275.044
1659364.0,1569567275.086
1654146.0,1569567275.124
1649318.0,1569567275.164
1646112.0,1569567275.205
1644103.0,1569567275.244
1642164.0,1569567275.285
1639831.0,1569567275.326
1638511.0,1569567275.364
1674962.0,1569567275.004
1638553.0,1569567275.405
1640835.0,1569567275.485
1639345.0,1569567275.446
1642197.0,1569567275.525
1643856.0,1569567275.566
1645987.0,1569567275.605
1647679.0,1569567275.645
1650020.0,1569567275.687
1651266.0,1569567275.725
1646301.0,1569567275.765
1638639.0,1569567275.806
1633078.0,1569567275.845
1629048.0,1569567275.886
1625718.0,1569567275.926
1623409.0,1569567275.965
1622001.0,1569567276.005
1620332.0,1569567276.047
1618351.0,1569567276.086
1617412.0,1569567276.126
1616925.0,1569567276.167
1617337.0,1569567276.206
1617965.0,1569567276.246
1618368.0,1569567276.288
1619014.0,1569567276.326
1619730.0,1569567276.366
1620596.0,1569567276.407
1621933.0,1569567276.446
1622227.0,1569567276.487
1617209.0,1569567276.527
1608798.0,1569567276.566
1602486.0,1569567276.606
1598488.0,1569567276.647
1594994.0,1569567276.687
1593210.0,1569567276.726
1592063.0,1569567276.768
1590470.0,1569567276.807
1588700.0,1569567276.847
1588061.0,1569567276.888
1589095.0,1569567276.927
1589882.0,1569567276.967
1591833.0,1569567277.008
1593576.0,1569567277.047
1595822.0,1569567277.088
1597762.0,1569567277.128
1601935.0,1569567277.207
1599449.0,1569567277.248
1599861.0,1569567277.167
1592657.0,1569567277.288
1587192.0,1569567277.327
1583579.0,1569567277.368
1581313.0,1569567277.407
1580003.0,1569567277.447
1579315.0,1569567277.489
1578644.0,1569567277.527
1577357.0,1569567277.567
1577156.0,1569567277.609
1577644.0,1569567277.648
1578878.0,1569567277.688
1580925.0,1569567277.729
1582800.0,1569567277.768
1584834.0,1569567277.808
1586943.0,1569567277.849
1588893.0,1569567277.889
1591127.0,1569567277.928
1591337.0,1569567277.969
1585052.0,1569567278.008
1577462.0,1569567278.048
1572111.0,1569567278.09
1568475.0,1569567278.128
1565673.0,1569567278.169
1564591.0,1569567278.21
1563126.0,1569567278.33
1564234.0,1569567278.249
1563613.0,1569567278.289
1567564.0,1569567278.45
1564031.0,1569567278.369
1570118.0,1569567278.49
1572518.0,1569567278.529
1574969.0,1569567278.57
1577007.0,1569567278.609
1579415.0,1569567278.649
1582112.0,1569567278.691
1583529.0,1569567278.729
1565254.0,1569567278.409
1578252.0,1569567278.769
1570943.0,1569567278.811
1565678.0,1569567278.85
1562634.0,1569567278.89
1559848.0,1569567278.931
1558672.0,1569567278.97
1558488.0,1569567279.01
1557811.0,1569567279.051
1557076.0,1569567279.091
1557315.0,1569567279.13
1558302.0,1569567279.171
1559904.0,1569567279.21
1561953.0,1569567279.25
1564222.0,1569567279.292
1566513.0,1569567279.33
1570970.0,1569567279.412
1568748.0,1569567279.371
1573683.0,1569567279.451
1575610.0,1569567279.491
1565116.0,1569567279.571
1572509.0,1569567279.532
1560008.0,1569567279.611
1557028.0,1569567279.652
1554585.0,1569567279.731
1555308.0,1569567279.692
1554703.0,1569567279.772
1553979.0,1569567279.811
1553297.0,1569567279.851
1553626.0,1569567279.893
1554697.0,1569567279.932
1556710.0,1569567279.972
1559477.0,1569567280.013
1562258.0,1569567280.052
1564697.0,1569567280.092
1567312.0,1569567280.133
1570275.0,1569567280.172
1573313.0,1569567280.212
1574185.0,1569567280.253
1568959.0,1569567280.293
1563702.0,1569567280.332
1560416.0,1569567280.373
1559368.0,1569567280.413
1558740.0,1569567280.453
1559575.0,1569567280.495
1560052.0,1569567280.573
1560203.0,1569567280.533
1560556.0,1569567280.615
1561846.0,1569567280.654
1564160.0,1569567280.694
1566662.0,1569567280.735
1569644.0,1569567280.774
1572644.0,1569567280.814
1575303.0,1569567280.855
1578477.0,1569567280.895
1581204.0,1569567280.934
1583995.0,1569567280.975
1580537.0,1569567281.014
1573108.0,1569567281.054
1567584.0,1569567281.096
1559913.0,1569567281.215
1561233.0,1569567281.174
1559758.0,1569567281.254
1564063.0,1569567281.134
1558775.0,1569567281.336
1559260.0,1569567281.295
1558803.0,1569567281.375
1560122.0,1569567281.415
1563834.0,1569567281.496
1561927.0,1569567281.456
1566299.0,1569567281.535
1568791.0,1569567281.576
1571226.0,1569567281.615
1573780.0,1569567281.655
1576467.0,1569567281.697
1577770.0,1569567281.735
1572548.0,1569567281.775
1565237.0,1569567281.817
1560681.0,1569567281.856
1557779.0,1569567281.896
1554989.0,1569567281.976
1554243.0,1569567282.136
1555792.0,1569567282.177
1559931.0,1569567282.256
1555508.0,1569567281.937
1562447.0,1569567282.298
1557766.0,1569567282.216
1564824.0,1569567282.337
1554400.0,1569567282.057
1553884.0,1569567282.097
1554844.0,1569567282.016
1569856.0,1569567282.418
1573054.0,1569567282.497
1572624.0,1569567282.457
1567380.0,1569567282.538
1560721.0,1569567282.577
1567403.0,1569567282.377
1556717.0,1569567282.617
1552775.0,1569567282.698
1554363.0,1569567282.658
1552461.0,1569567282.737
1552122.0,1569567282.778
1551181.0,1569567282.817
1550989.0,1569567282.857
1551534.0,1569567282.899
1552843.0,1569567282.938
1554910.0,1569567282.978
1557144.0,1569567283.019
1559582.0,1569567283.058
1561907.0,1569567283.099
1564497.0,1569567283.139
1567361.0,1569567283.178
1557193.0,1569567283.338
1561896.0,1569567283.299
1570133.0,1569567283.218
1568102.0,1569567283.259
1555618.0,1569567283.38
1554589.0,1569567283.419
1555110.0,1569567283.459
1555436.0,1569567283.501
1558751.0,1569567283.659
1556493.0,1569567283.62
1555768.0,1569567283.579
1555872.0,1569567283.539
1561317.0,1569567283.7
1564178.0,1569567283.74
1567030.0,1569567283.779
1570089.0,1569567283.819
1572851.0,1569567283.861
1575934.0,1569567283.9
1578917.0,1569567283.94
1577482.0,1569567283.981
1570609.0,1569567284.02
1564488.0,1569567284.06
1560713.0,1569567284.102
1558122.0,1569567284.14
1555953.0,1569567284.26
1555465.0,1569567284.301
1555433.0,1569567284.341
1556419.0,1569567284.38
1549389.0,1569567284.981
1548653.0,1569567285.021
1562980.0,1569567284.501
1556636.0,1569567284.18
1556187.0,1569567284.221
1558200.0,1569567284.42
1560425.0,1569567284.462
1570611.0,1569567284.621
1573096.0,1569567284.661
1573954.0,1569567284.703
1567920.0,1569567284.582
1568110.0,1569567284.741
1565507.0,1569567284.541
1548452.0,1569567285.063
1560674.0,1569567284.781
1555818.0,1569567284.822
1552696.0,1569567284.861
1550180.0,1569567284.902
1549601.0,1569567284.942
1548835.0,1569567285.102
1550060.0,1569567285.142
1552124.0,1569567285.183
1557219.0,1569567285.262
1559547.0,1569567285.304
1562199.0,1569567285.342
1554458.0,1569567285.222
1564778.0,1569567285.382
1567694.0,1569567285.423
1568261.0,1569567285.462
1562085.0,1569567285.503
1555030.0,1569567285.543
1550488.0,1569567285.582
1545447.0,1569567285.664
1544806.0,1569567285.784
1547553.0,1569567285.622
1544238.0,1569567285.823
1548473.0,1569567285.943
1550796.0,1569567285.983
1553204.0,1569567286.024
1555775.0,1569567286.063
1558254.0,1569567286.104
1560520.0,1569567286.144
1563242.0,1569567286.183
1565698.0,1569567286.223
1563355.0,1569567286.265
1555794.0,1569567286.304
1549992.0,1569567286.344
1546740.0,1569567286.385
1544187.0,1569567286.424
1543241.0,1569567286.464
1542893.0,1569567286.506
1542260.0,1569567286.544
1541278.0,1569567286.584
1540753.0,1569567286.625
1541616.0,1569567286.664
1543142.0,1569567286.705
1545004.0,1569567286.746
1547048.0,1569567286.785
1549268.0,1569567286.824
1551297.0,1569567286.866
1544898.0,1569567285.863
1546431.0,1569567285.905
1553373.0,1569567286.905
1555777.0,1569567286.945
1545183.0,1569567285.703
1545149.0,1569567285.743
1558614.0,1569567286.986
1557246.0,1569567287.025
1544309.0,1569567287.106
1550398.0,1569567287.065
1541261.0,1569567287.145
1539745.0,1569567287.226
1539828.0,1569567287.185
1540033.0,1569567287.265
1540208.0,1569567287.305
1539493.0,1569567287.346
1539630.0,1569567287.385
1540848.0,1569567287.425
1543171.0,1569567287.466
1545666.0,1569567287.506
1548744.0,1569567287.545
1551546.0,1569567287.586
1554495.0,1569567287.625
1557153.0,1569567287.665
1560724.0,1569567287.707
1560526.0,1569567287.745
1554029.0,1569567287.785
1547915.0,1569567287.826
1544241.0,1569567287.865
1542718.0,1569567287.906
1541957.0,1569567287.986
1541946.0,1569567288.026
1541652.0,1569567288.067
1541787.0,1569567288.107
1542603.0,1569567288.146
1544713.0,1569567288.187
1541449.0,1569567287.947
1547256.0,1569567288.226
1550228.0,1569567288.266
1552793.0,1569567288.308
1558443.0,1569567288.386
1555523.0,1569567288.346
1561350.0,1569567288.427
1560622.0,1569567288.466
1545841.0,1569567288.547
1553477.0,1569567288.507
1537739.0,1569567288.626
1535293.0,1569567288.668
1534548.0,1569567288.707
1534072.0,1569567288.747
1533420.0,1569567288.788
1532970.0,1569567288.827
1533167.0,1569567288.867
1534907.0,1569567288.909
1539716.0,1569567288.987
1540914.0,1569567288.586
1542575.0,1569567289.028
1545047.0,1569567289.067
1547883.0,1569567289.108
1550742.0,1569567289.148
1537315.0,1569567288.947
1552038.0,1569567289.187
1546237.0,1569567289.227
1538049.0,1569567289.268
1532562.0,1569567289.308
1529394.0,1569567289.347
1526757.0,1569567289.388
1525666.0,1569567289.427
1525761.0,1569567289.468
1525223.0,1569567289.509
1524603.0,1569567289.548
1525003.0,1569567289.588
1526102.0,1569567289.629
1528135.0,1569567289.668
1530796.0,1569567289.709
1533039.0,1569567289.749
1535728.0,1569567289.788
1537824.0,1569567289.828
1540584.0,1569567289.869
1543360.0,1569567289.909
1541367.0,1569567289.948
1533148.0,1569567289.989
1526447.0,1569567290.028
1522574.0,1569567290.068
1520071.0,1569567290.11
1518896.0,1569567290.148
1518451.0,1569567290.188
1518120.0,1569567290.229
1517139.0,1569567290.269
1516637.0,1569567290.31
1517716.0,1569567290.35
1519320.0,1569567290.387
1521722.0,1569567290.428
1524212.0,1569567290.469
1526984.0,1569567290.509
1529383.0,1569567290.548
1532278.0,1569567290.59
1535338.0,1569567290.669
1535413.0,1569567290.629
1528710.0,1569567290.711
1522364.0,1569567290.75
1517455.0,1569567290.831
1516781.0,1569567290.87
1517434.0,1569567290.911
1518918.0,1569567290.79
1518016.0,1569567290.951
1517595.0,1569567290.99
1519659.0,1569567291.072
1518110.0,1569567291.03
1525186.0,1569567291.151
1528504.0,1569567291.192
1531521.0,1569567291.231
1534272.0,1569567291.271
1537672.0,1569567291.313
1541134.0,1569567291.351
1542919.0,1569567291.391
1537253.0,1569567291.432
1529405.0,1569567291.471
1524214.0,1569567291.511
1521470.0,1569567291.549
1519265.0,1569567291.588
1522114.0,1569567291.111
1518446.0,1569567291.628
1519022.0,1569567291.67
1518649.0,1569567291.71
1518589.0,1569567291.749
1519408.0,1569567291.79
1521742.0,1569567291.829
1524517.0,1569567291.869
1527172.0,1569567291.911
1530664.0,1569567291.95
1533486.0,1569567291.987
1539655.0,1569567292.058
1543416.0,1569567292.098
1544042.0,1569567292.139
1537222.0,1569567292.178
1529616.0,1569567292.218
1536471.0,1569567292.019
1525228.0,1569567292.259
1522309.0,1569567292.299
1520073.0,1569567292.338
1520007.0,1569567292.379
1520535.0,1569567292.41
1520202.0,1569567292.45
1521724.0,1569567292.53
1524003.0,1569567292.57
1526956.0,1569567292.612
1529962.0,1569567292.651
1533095.0,1569567292.691
1536122.0,1569567292.732
1539608.0,1569567292.771
1542900.0,1569567292.811
1520344.0,1569567292.492
1546198.0,1569567292.852
1549210.0,1569567292.892
1544993.0,1569567292.931
1537174.0,1569567292.972
1532131.0,1569567293.011
1529362.0,1569567293.051
1527357.0,1569567293.093
1526444.0,1569567293.131
1526930.0,1569567293.171
1526864.0,1569567293.213
1526420.0,1569567293.252
1527110.0,1569567293.292
1528868.0,1569567293.333
1531347.0,1569567293.372
1536903.0,1569567293.453
1534261.0,1569567293.412
1542552.0,1569567293.532
1545440.0,1569567293.573
1539735.0,1569567293.493
1538909.0,1569567293.772
1540356.0,1569567294.004
1542382.0,1569567294.043
1548173.0,1569567294.122
1548510.0,1569567293.612
1559320.0,1569567294.244
1536756.0,1569567293.852
1571629.0,1569567294.403
1565454.0,1569567294.442
1543120.0,1569567293.732
1571100.0,1569567294.362
1552127.0,1569567294.164
1549919.0,1569567293.694
1562617.0,1569567294.802
1539139.0,1569567293.927
1575980.0,1569567294.962
1537294.0,1569567293.814
1557162.0,1569567294.562
1551872.0,1569567293.652
1558115.0,1569567294.523
1560459.0,1569567294.482
1559067.0,1569567294.683
1544765.0,1569567294.083
1559728.0,1569567294.722
1557962.0,1569567294.643
1565686.0,1569567294.842
1539942.0,1569567293.966
1563353.0,1569567294.286
1555809.0,1569567294.203
1560466.0,1569567294.763
1567303.0,1569567294.324
1537913.0,1569567293.893
1568985.0,1569567294.884
1572308.0,1569567294.922
1579293.0,1569567295.004
1556765.0,1569567294.602
1582889.0,1569567295.043
1586493.0,1569567295.083
1589969.0,1569567295.124
1587647.0,1569567295.163
1580336.0,1569567295.203
1575268.0,1569567295.244
1572178.0,1569567295.284
1570143.0,1569567295.323
1569184.0,1569567295.364
1570104.0,1569567295.443
1570318.0,1569567295.485
1570005.0,1569567295.403
1572671.0,1569567295.563
1570920.0,1569567295.523
1575031.0,1569567295.605
1577955.0,1569567295.644
1581443.0,1569567295.684
1584468.0,1569567295.725
1587588.0,1569567295.764
1594477.0,1569567295.845
1590968.0,1569567295.804
1596644.0,1569567295.924
1589712.0,1569567295.965
1584120.0,1569567296.004
1576865.0,1569567296.124
1580533.0,1569567296.044
1577355.0,1569567296.164
1577414.0,1569567296.206
1578228.0,1569567296.086
1598056.0,1569567295.885
1577219.0,1569567296.245
1577746.0,1569567296.285
1578919.0,1569567296.326
1581271.0,1569567296.365
1583819.0,1569567296.405
1586412.0,1569567296.446
1588877.0,1569567296.486
1591713.0,1569567296.525
1594690.0,1569567296.566
1597374.0,1569567296.605
1600700.0,1569567296.645
1601683.0,1569567296.687
1595324.0,1569567296.725
1588710.0,1569567296.765
1584454.0,1569567296.806
1582021.0,1569567296.845
1580287.0,1569567296.886
1580303.0,1569567296.927
1580166.0,1569567296.966
1579214.0,1569567297.006
1578876.0,1569567297.047
1579517.0,1569567297.087
1581150.0,1569567297.126
1583087.0,1569567297.167
1585406.0,1569567297.206
1587724.0,1569567297.246
1590284.0,1569567297.288
1592957.0,1569567297.326
1595874.0,1569567297.366
1599240.0,1569567297.408
1597776.0,1569567297.447
1585915.0,1569567297.528
1581909.0,1569567297.607
1581864.0,1569567297.648
1582657.0,1569567297.688
1582817.0,1569567297.727
1582421.0,1569567297.768
1583535.0,1569567297.807
1585204.0,1569567297.847
1587627.0,1569567297.889
1590496.0,1569567297.927
1593480.0,1569567297.968
1596564.0,1569567298.009
1599261.0,1569567298.048
1591017.0,1569567297.487
1583418.0,1569567297.567
1602449.0,1569567298.088
1605894.0,1569567298.168
1605606.0,1569567298.129
1591841.0,1569567298.249
1598870.0,1569567298.208
1587684.0,1569567298.289
1584611.0,1569567298.328
1581882.0,1569567298.408
1582461.0,1569567298.369
1580846.0,1569567298.49
1580477.0,1569567298.529
1581231.0,1569567298.569
1582501.0,1569567298.61
1584598.0,1569567298.649
1587251.0,1569567298.69
1589612.0,1569567298.73
1592198.0,1569567298.769
1581585.0,1569567298.448
1594646.0,1569567298.809
1597720.0,1569567298.85
1600376.0,1569567298.89
1596693.0,1569567298.929
1588329.0,1569567298.97
1581849.0,1569567299.009
1577835.0,1569567299.049
1574994.0,1569567299.091
1573203.0,1569567299.13
1572939.0,1569567299.17
1572163.0,1569567299.211
1571161.0,1569567299.25
1571400.0,1569567299.29
1572209.0,1569567299.331
1574231.0,1569567299.37
1576229.0,1569567299.41
1578650.0,1569567299.451
1581175.0,1569567299.491
1583654.0,1569567299.53
1586137.0,1569567299.571
1588854.0,1569567299.61
1591361.0,1569567299.65
1587486.0,1569567299.692
1579160.0,1569567299.73
1572907.0,1569567299.77
1568895.0,1569567299.812
1565942.0,1569567299.851
1564425.0,1569567299.891
1563980.0,1569567299.932
1562998.0,1569567299.971
1561747.0,1569567300.011
1561262.0,1569567300.052
1561957.0,1569567300.092
1563545.0,1569567300.131
1565367.0,1569567300.172
1567516.0,1569567300.211
1573876.0,1569567300.331
1569722.0,1569567300.251
1576142.0,1569567300.371
1577437.0,1569567300.413
1571615.0,1569567300.293
1559317.0,1569567300.533
1555399.0,1569567300.612
1556870.0,1569567300.572
1571837.0,1569567300.452
1563921.0,1569567300.492
1555198.0,1569567300.653
1555255.0,1569567300.693
1554400.0,1569567300.732
1553695.0,1569567300.773
1554521.0,1569567300.812
1556840.0,1569567300.852
1558886.0,1569567300.894
1561738.0,1569567300.932
1564842.0,1569567300.972
1570599.0,1569567301.053
1573703.0,1569567301.093
1576139.0,1569567301.134
1572178.0,1569567301.173
1564175.0,1569567301.213
1558809.0,1569567301.254
1556186.0,1569567301.294
1554357.0,1569567301.333
1567496.0,1569567301.014
1554000.0,1569567301.374
1554201.0,1569567301.413
1553828.0,1569567301.453
1553370.0,1569567301.495
1553907.0,1569567301.533
1555689.0,1569567301.574
1558212.0,1569567301.615
1560960.0,1569567301.654
1563770.0,1569567301.694
1566582.0,1569567301.735
1569534.0,1569567301.774
1572519.0,1569567301.814
1574715.0,1569567301.855
1570168.0,1569567301.895
1561257.0,1569567301.934
1555467.0,1569567301.975
1551560.0,1569567302.014
1548596.0,1569567302.054
1547430.0,1569567302.096
1547394.0,1569567302.134
1546912.0,1569567302.175
1546181.0,1569567302.216
1546821.0,1569567302.255
1548217.0,1569567302.296
1553296.0,1569567302.375
1558756.0,1569567302.456
1564712.0,1569567302.535
1562694.0,1569567302.615
1554092.0,1569567302.655
1548107.0,1569567302.697
1550575.0,1569567302.336
1555764.0,1569567302.415
1561617.0,1569567302.496
1567080.0,1569567302.576
1544739.0,1569567302.736
1542101.0,1569567302.776
1540933.0,1569567302.856
1540949.0,1569567302.817
1540238.0,1569567302.937
1540731.0,1569567302.897
1540555.0,1569567302.976
1541875.0,1569567303.016
1543945.0,1569567303.057
1546708.0,1569567303.097
1549487.0,1569567303.136
1552342.0,1569567303.177
1554883.0,1569567303.216
1557863.0,1569567303.257
1560542.0,1569567303.298
1557150.0,1569567303.337
1548624.0,1569567303.377
1542304.0,1569567303.418
1538846.0,1569567303.457
1536488.0,1569567303.498
1535497.0,1569567303.538
1535601.0,1569567303.577
1535167.0,1569567303.617
1534356.0,1569567303.658
1534342.0,1569567303.698
1535896.0,1569567303.737
1537983.0,1569567303.779
1542586.0,1569567303.858
1540065.0,1569567303.818
1547137.0,1569567303.938
1544619.0,1569567303.9
1551754.0,1569567304.019
1549848.0,1569567303.978
1546242.0,1569567304.058
1533121.0,1569567304.139
1530554.0,1569567304.178
1538121.0,1569567304.099
1529537.0,1569567304.219
1529826.0,1569567304.26
1529848.0,1569567304.299
1529567.0,1569567304.339
1529800.0,1569567304.38
1530766.0,1569567304.466
1532840.0,1569567304.506
1535824.0,1569567304.548
1538781.0,1569567304.586
1541902.0,1569567304.626
1545124.0,1569567304.667
1548321.0,1569567304.706
1551625.0,1569567304.747
1549517.0,1569567304.788
1532761.0,1569567304.908
1535780.0,1569567304.867
1541646.0,1569567304.827
1530619.0,1569567304.948
1530074.0,1569567304.987
1530968.0,1569567305.028
1531377.0,1569567305.067
1531397.0,1569567305.107
1532185.0,1569567305.149
1534120.0,1569567305.187
1536931.0,1569567305.227
1540215.0,1569567305.269
1543603.0,1569567305.308
1546742.0,1569567305.348
1550126.0,1569567305.389
1553824.0,1569567305.428
1556639.0,1569567305.468
1552810.0,1569567305.509
1544370.0,1569567305.549
1538333.0,1569567305.588
1534475.0,1569567305.629
1531709.0,1569567305.668
1530367.0,1569567305.709
1531037.0,1569567305.75
1531088.0,1569567305.789
1530888.0,1569567305.829
1531722.0,1569567305.87
1533556.0,1569567305.909
1539580.0,1569567305.99
1549276.0,1569567306.111
1545969.0,1569567306.069
1542733.0,1569567306.029
1536359.0,1569567305.95
1552770.0,1569567306.15
1556679.0,1569567306.19
1557545.0,1569567306.231
1551097.0,1569567306.27
1543329.0,1569567306.31
1539094.0,1569567306.352
1536081.0,1569567306.39
1534191.0,1569567306.43
1534090.0,1569567306.471
1535078.0,1569567306.51
1535023.0,1569567306.551
1535354.0,1569567306.592
1536792.0,1569567306.631
1539136.0,1569567306.671
1542204.0,1569567306.712
1545176.0,1569567306.752
1548369.0,1569567306.791
1551636.0,1569567306.832
1554800.0,1569567306.871
1557955.0,1569567306.911
1561472.0,1569567306.953
1564871.0,1569567306.992
1563258.0,1569567307.032
1549570.0,1569567307.112
1555415.0,1569567307.073
1546364.0,1569567307.153
1544328.0,1569567307.193
1544135.0,1569567307.272
1543650.0,1569567307.232
1544605.0,1569567307.393
1544259.0,1569567307.313
1544184.0,1569567307.353
1546581.0,1569567307.434
1551606.0,1569567307.513
1549079.0,1569567307.473
1554577.0,1569567307.555
1557993.0,1569567307.593
1560865.0,1569567307.633
1564146.0,1569567307.674
1568052.0,1569567307.713
1571719.0,1569567307.754
1571141.0,1569567307.794
1565415.0,1569567307.833
1561297.0,1569567307.873
1559469.0,1569567307.914
1559083.0,1569567307.954
1559890.0,1569567307.994
1561656.0,1569567308.035
1562871.0,1569567308.074
1563775.0,1569567308.114
1565878.0,1569567308.155
1568496.0,1569567308.194
1572097.0,1569567308.234
1579984.0,1569567308.314
1576034.0,1569567308.275
1587894.0,1569567308.395
1583972.0,1569567308.355
1592112.0,1569567308.434
1596292.0,1569567308.474
1599757.0,1569567308.515
1596555.0,1569567308.555
1590780.0,1569567308.594
1586877.0,1569567308.635
1585108.0,1569567308.674
1583773.0,1569567308.715
1583639.0,1569567308.756
1585554.0,1569567308.835
1584814.0,1569567308.795
1586386.0,1569567308.876
1588092.0,1569567308.915
1590812.0,1569567308.956
1593894.0,1569567308.996
1597332.0,1569567309.035
1601040.0,1569567309.075
1604396.0,1569567309.116
1608140.0,1569567309.156
1611808.0,1569567309.195
1616005.0,1569567309.236
1617884.0,1569567309.275
1612956.0,1569567309.316
1607133.0,1569567309.358
1603851.0,1569567309.396
1601678.0,1569567309.437
1599999.0,1569567309.478
1599959.0,1569567309.517
1601093.0,1569567309.556
1601011.0,1569567309.596
1601681.0,1569567309.636
1603399.0,1569567309.667
1605530.0,1569567309.708
1608313.0,1569567309.747
1611407.0,1569567309.787
1614474.0,1569567309.828
1617607.0,1569567309.867
1620465.0,1569567309.907
1623986.0,1569567309.949
1627036.0,1569567309.987
1628088.0,1569567310.027
1622392.0,1569567310.068
1616208.0,1569567310.108
1612578.0,1569567310.148
1610087.0,1569567310.189
1607663.0,1569567310.228
1607303.0,1569567310.268
1607349.0,1569567310.309
1606744.0,1569567310.349
1606286.0,1569567310.383
1607156.0,1569567310.42
1608418.0,1569567310.456
1610449.0,1569567310.497
1612747.0,1569567310.539
1614958.0,1569567310.577
1617029.0,1569567310.617
1619391.0,1569567310.658
1622072.0,1569567310.691
1624091.0,1569567310.732
1621295.0,1569567310.773
1614806.0,1569567310.812
1610221.0,1569567310.852
1608132.0,1569567310.893
1606217.0,1569567310.933
1606291.0,1569567310.972
1606654.0,1569567311.013
1606138.0,1569567311.052
1605844.0,1569567311.092
1607028.0,1569567311.134
1608789.0,1569567311.172
1611300.0,1569567311.213
1613971.0,1569567311.254
1616854.0,1569567311.293
1619404.0,1569567311.334
1622391.0,1569567311.374
1625605.0,1569567311.413
1626972.0,1569567311.453
1621467.0,1569567311.494
1615106.0,1569567311.534
1610911.0,1569567311.573
1608561.0,1569567311.614
1606690.0,1569567311.654
1606340.0,1569567311.694
1606448.0,1569567311.735
1606181.0,1569567311.774
1606809.0,1569567311.855
1605918.0,1569567311.814
1608561.0,1569567311.894
1613264.0,1569567311.975
1610894.0,1569567311.935
1616044.0,1569567312.015
1618380.0,1569567312.055
1621092.0,1569567312.096
1623910.0,1569567312.135
1623800.0,1569567312.175
1616691.0,1569567312.216
1609301.0,1569567312.255
1604280.0,1569567312.295
1600250.0,1569567312.337
1597029.0,1569567312.375
1595532.0,1569567312.415
1594716.0,1569567312.456
1593613.0,1569567312.495
1592527.0,1569567312.536
1593073.0,1569567312.576
1594416.0,1569567312.615
1596392.0,1569567312.655
1598025.0,1569567312.697
1600314.0,1569567312.736
1602527.0,1569567312.776
1604978.0,1569567312.817
1607832.0,1569567312.856
1609008.0,1569567312.896
1602632.0,1569567312.938
1594738.0,1569567312.976
1589058.0,1569567313.016
1584921.0,1569567313.057
1581627.0,1569567313.096
1580401.0,1569567313.137
1580008.0,1569567313.177
1578640.0,1569567313.216
1577961.0,1569567313.256
1578270.0,1569567313.297
1579194.0,1569567313.337
1580941.0,1569567313.376
1583044.0,1569567313.418
1585419.0,1569567313.457
1587359.0,1569567313.497
1589335.0,1569567313.539
1592053.0,1569567313.577
1593615.0,1569567313.617
1589718.0,1569567313.658
1581365.0,1569567313.697
1575050.0,1569567313.738
1571587.0,1569567313.778
1568477.0,1569567313.817
1567290.0,1569567313.857
1567068.0,1569567313.898
1565863.0,1569567313.938
1564564.0,1569567313.977
1564512.0,1569567314.019
1565911.0,1569567314.058
1567496.0,1569567314.098
1569547.0,1569567314.139
1571826.0,1569567314.178
1573977.0,1569567314.218
1576541.0,1569567314.259
1579215.0,1569567314.298
1580329.0,1569567314.339
1574553.0,1569567314.379
1567035.0,1569567314.418
1563303.0,1569567314.458
1560845.0,1569567314.5
1559686.0,1569567314.539
1559888.0,1569567314.578
1560758.0,1569567314.62
1560390.0,1569567314.659
1560482.0,1569567314.699
1561650.0,1569567314.74
1563934.0,1569567314.779
1566540.0,1569567314.819
1569596.0,1569567314.86
1572786.0,1569567314.899
1575646.0,1569567314.94
1579153.0,1569567314.98
1582027.0,1569567315.019
1579404.0,1569567315.059
1571386.0,1569567315.1
1565201.0,1569567315.14
1561436.0,1569567315.179
1559090.0,1569567315.22
1557752.0,1569567315.259
1558113.0,1569567315.299
1558299.0,1569567315.341
1557780.0,1569567315.379
1558409.0,1569567315.42
1559928.0,1569567315.461
1562593.0,1569567315.5
1565564.0,1569567315.54
1568378.0,1569567315.581
1571427.0,1569567315.62
1574477.0,1569567315.66
1577817.0,1569567315.701
1580145.0,1569567315.741
1575189.0,1569567315.78
1567022.0,1569567315.821
1561369.0,1569567315.86
1557992.0,1569567315.9
1555264.0,1569567315.942
1554191.0,1569567315.981
1554719.0,1569567316.021
1554753.0,1569567316.063
1554851.0,1569567316.101
1556050.0,1569567316.14
1557810.0,1569567316.18
1560781.0,1569567316.219
1563649.0,1569567316.26
1566884.0,1569567316.301
1570151.0,1569567316.341
1573418.0,1569567316.38
1576664.0,1569567316.422
1579982.0,1569567316.466
1577075.0,1569567316.506
1568877.0,1569567316.548
1562767.0,1569567316.586
1559577.0,1569567316.626
1557012.0,1569567316.668
1555951.0,1569567316.707
1556127.0,1569567316.747
1556231.0,1569567316.788
1555847.0,1569567316.827
1556279.0,1569567316.867
1558018.0,1569567316.908
1560108.0,1569567316.948
1562636.0,1569567316.987
1565604.0,1569567317.028
1568240.0,1569567317.067
1571170.0,1569567317.107
1574219.0,1569567317.149
1576996.0,1569567317.187
1577339.0,1569567317.228
1570243.0,1569567317.269
1563685.0,1569567317.308
1560335.0,1569567317.348
1558353.0,1569567317.389
1557641.0,1569567317.429
1558213.0,1569567317.469
1558651.0,1569567317.51
1558167.0,1569567317.55
1558856.0,1569567317.589
1560553.0,1569567317.631
1562770.0,1569567317.67
1565936.0,1569567317.71
1569396.0,1569567317.748
1572383.0,1569567317.787
1575635.0,1569567317.827
1579165.0,1569567317.868
1582663.0,1569567317.907
1580358.0,1569567317.947
1573903.0,1569567317.988
1569498.0,1569567318.027
1567853.0,1569567318.067
1567328.0,1569567318.108
1568144.0,1569567318.148
1570084.0,1569567318.187
1570922.0,1569567318.228
1571660.0,1569567318.267
1573334.0,1569567318.307
1575920.0,1569567318.349
1579096.0,1569567318.387
1582640.0,1569567318.427
1586515.0,1569567318.47
1590000.0,1569567318.509
1593795.0,1569567318.55
1597711.0,1569567318.59
1599630.0,1569567318.629
1594288.0,1569567318.67
1587653.0,1569567318.711
1583889.0,1569567318.751
1581946.0,1569567318.79
1580454.0,1569567318.832
1580712.0,1569567318.871
1581963.0,1569567318.909
1582278.0,1569567318.951
1582629.0,1569567318.981
1584649.0,1569567319.021
1590187.0,1569567319.101
1586860.0,1569567319.062
1593387.0,1569567319.142
1596908.0,1569567319.182
1600181.0,1569567319.221
1603586.0,1569567319.261
1607416.0,1569567319.302
1606679.0,1569567319.342
1599721.0,1569567319.381
1593776.0,1569567319.423
1590409.0,1569567319.462
1588415.0,1569567319.502
1586945.0,1569567319.543
1587593.0,1569567319.582
1588277.0,1569567319.622
1588127.0,1569567319.663
1589149.0,1569567319.697
1590571.0,1569567319.738
1593411.0,1569567319.772
1596117.0,1569567319.809
1599096.0,1569567319.849
1601882.0,1569567319.89
1605108.0,1569567319.93
1608484.0,1569567319.97
1611452.0,1569567320.01
1610315.0,1569567320.049
1603258.0,1569567320.09
1596550.0,1569567320.131
1593021.0,1569567320.17
1590661.0,1569567320.21
1589383.0,1569567320.251
1589501.0,1569567320.29
1589323.0,1569567320.331
1588811.0,1569567320.371
1588761.0,1569567320.41
1589744.0,1569567320.45
1591832.0,1569567320.491
1594175.0,1569567320.531
1596643.0,1569567320.571
1598868.0,1569567320.612
1601263.0,1569567320.651
1603938.0,1569567320.691
1606439.0,1569567320.733
1603681.0,1569567320.771
1596161.0,1569567320.811
1590754.0,1569567320.852
1588086.0,1569567320.891
1586145.0,1569567320.93
1586387.0,1569567320.97
1586704.0,1569567321.01
1586881.0,1569567321.05
1586579.0,1569567321.091
1587353.0,1569567321.131
1589136.0,1569567321.17
1591872.0,1569567321.212
1594718.0,1569567321.251
1597946.0,1569567321.289
1600950.0,1569567321.331
1604163.0,1569567321.37
1607700.0,1569567321.41
1608476.0,1569567321.447
1602066.0,1569567321.486
1595871.0,1569567321.527
1592572.0,1569567321.567
1590905.0,1569567321.606
1590348.0,1569567321.646
1591186.0,1569567321.688
1591931.0,1569567321.727
1592169.0,1569567321.767
1592575.0,1569567321.808
1593922.0,1569567321.847
1596362.0,1569567321.887
1599283.0,1569567321.929
1602846.0,1569567321.967
1606025.0,1569567322.007
1609101.0,1569567322.049
1612627.0,1569567322.088
1614725.0,1569567322.129
1609713.0,1569567322.17
1601807.0,1569567322.209
1596798.0,1569567322.25
1593656.0,1569567322.291
1591173.0,1569567322.33
1590253.0,1569567322.37
1590521.0,1569567322.411
1590665.0,1569567322.45
1590198.0,1569567322.49
1591120.0,1569567322.532
1592845.0,1569567322.57
1595248.0,1569567322.611
1597973.0,1569567322.65
1600890.0,1569567322.682
1603739.0,1569567322.723
1606915.0,1569567322.764
1610028.0,1569567322.803
1609101.0,1569567322.843
1600905.0,1569567322.884
1593572.0,1569567322.924
1589280.0,1569567322.963
1586535.0,1569567323.004
1584686.0,1569567323.043
1584432.0,1569567323.083
1584171.0,1569567323.125
1583563.0,1569567323.164
1583383.0,1569567323.204
1584535.0,1569567323.245
1586400.0,1569567323.284
1588632.0,1569567323.324
1591281.0,1569567323.366
1593755.0,1569567323.405
1596231.0,1569567323.441
1599292.0,1569567323.475
1601728.0,1569567323.515
1599073.0,1569567323.553
1590009.0,1569567323.593
1583409.0,1569567323.631
1579563.0,1569567323.672
1577234.0,1569567323.714
1575899.0,1569567323.752
1576096.0,1569567323.792
1575529.0,1569567323.834
1574349.0,1569567323.875
1574347.0,1569567323.916
1575358.0,1569567323.956
1577327.0,1569567323.995
1579413.0,1569567324.035
1581720.0,1569567324.077
1584002.0,1569567324.116
1586548.0,1569567324.156
1589315.0,1569567324.197
1589822.0,1569567324.236
1582859.0,1569567324.276
1575281.0,1569567324.318
1571473.0,1569567324.356
1569280.0,1569567324.396
1569098.0,1569567324.476
1568427.0,1569567324.437
1569846.0,1569567324.517
1569825.0,1569567324.593
1569322.0,1569567324.557
1573686.0,1569567324.673
1571342.0,1569567324.631
1576733.0,1569567324.713
1580129.0,1569567324.752
1583281.0,1569567324.794
1586695.0,1569567324.833
1590804.0,1569567324.873
1585545.0,1569567324.952
1592112.0,1569567324.915
1574341.0,1569567325.034
1572030.0,1569567325.073
1578177.0,1569567324.992
1571189.0,1569567325.112
1571549.0,1569567325.145
1572722.0,1569567325.184
1572458.0,1569567325.224
1572983.0,1569567325.265
1574250.0,1569567325.305
1576935.0,1569567325.344
1579848.0,1569567325.386
1583237.0,1569567325.425
1587013.0,1569567325.465
1590085.0,1569567325.506
1593893.0,1569567325.545
1595906.0,1569567325.585
1590525.0,1569567325.626
1582342.0,1569567325.665
1576450.0,1569567325.706
1573624.0,1569567325.746
1571315.0,1569567325.779
1570783.0,1569567325.814
1571202.0,1569567325.854
1571303.0,1569567325.892
1571237.0,1569567325.931
1572269.0,1569567325.972
1574124.0,1569567326.011
1577044.0,1569567326.051
1580031.0,1569567326.093
1583367.0,1569567326.131
1586818.0,1569567326.172
1589947.0,1569567326.213
1593720.0,1569567326.252
1595006.0,1569567326.293
1588463.0,1569567326.334
1580342.0,1569567326.373
1575386.0,1569567326.413
1572726.0,1569567326.454
1570544.0,1569567326.494
1570352.0,1569567326.533
1570871.0,1569567326.574
1570275.0,1569567326.613
1570498.0,1569567326.653
1571196.0,1569567326.695
1573056.0,1569567326.733
1575701.0,1569567326.773
1578836.0,1569567326.815
1581510.0,1569567326.854
1584670.0,1569567326.894
1587284.0,1569567326.935
1590291.0,1569567326.974
1593270.0,1569567327.014
1590264.0,1569567327.055
1581376.0,1569567327.095
1575152.0,1569567327.134
1572001.0,1569567327.175
1569822.0,1569567327.214
1568986.0,1569567327.254
1569220.0,1569567327.296
1568790.0,1569567327.334
1567902.0,1569567327.375
1568034.0,1569567327.416
1569329.0,1569567327.455
1571513.0,1569567327.49
1574271.0,1569567327.531
1576752.0,1569567327.57
1579537.0,1569567327.61
1582599.0,1569567327.651
1585217.0,1569567327.691
1588329.0,1569567327.73
1584850.0,1569567327.771
1576930.0,1569567327.81
1571876.0,1569567327.85
1569831.0,1569567327.892
1569586.0,1569567327.971
1568723.0,1569567327.931
1570393.0,1569567328.012
1570541.0,1569567328.051
1570962.0,1569567328.092
1572337.0,1569567328.132
1574833.0,1569567328.172
1577917.0,1569567328.212
1581476.0,1569567328.253
1585088.0,1569567328.293
1589069.0,1569567328.332
1592584.0,1569567328.374
1596681.0,1569567328.414
1597141.0,1569567328.454
1590202.0,1569567328.496
1583905.0,1569567328.534
1580401.0,1569567328.575
1578650.0,1569567328.616
1577844.0,1569567328.655
1578743.0,1569567328.695
1579749.0,1569567328.736
1579581.0,1569567328.775
1580095.0,1569567328.815
1582023.0,1569567328.856
1584674.0,1569567328.896
1588269.0,1569567328.935
1591622.0,1569567328.977
1595306.0,1569567329.016
1598708.0,1569567329.056
1602580.0,1569567329.098
1605899.0,1569567329.136
1603614.0,1569567329.176
1595261.0,1569567329.217
1589115.0,1569567329.256
1585875.0,1569567329.297
1583669.0,1569567329.337
1582539.0,1569567329.377
1583330.0,1569567329.417
1583947.0,1569567329.46
1583935.0,1569567329.5
1584717.0,1569567329.539
1586610.0,1569567329.58
1589452.0,1569567329.619
1592808.0,1569567329.659
1596407.0,1569567329.701
1599547.0,1569567329.74
1603320.0,1569567329.78
1606918.0,1569567329.821
1610370.0,1569567329.861
1607312.0,1569567329.902
1599202.0,1569567329.942
1593363.0,1569567329.981
1590332.0,1569567330.021
1588270.0,1569567330.062
1587408.0,1569567330.102
1587886.0,1569567330.142
1588089.0,1569567330.183
1587990.0,1569567330.222
1588288.0,1569567330.262
1589911.0,1569567330.304
1592311.0,1569567330.342
1595431.0,1569567330.382
1598110.0,1569567330.423
1601292.0,1569567330.462
1604158.0,1569567330.503
1607589.0,1569567330.543
1610491.0,1569567330.582
1608117.0,1569567330.622
1599994.0,1569567330.661
1593885.0,1569567330.7
1590866.0,1569567330.739
1589062.0,1569567330.781
1588442.0,1569567330.819
1588887.0,1569567330.86
1588352.0,1569567330.902
1587539.0,1569567330.94
1587949.0,1569567330.98
1589180.0,1569567331.021
1591486.0,1569567331.06
1596568.0,1569567331.142
1593819.0,1569567331.101
1599147.0,1569567331.174
1601739.0,1569567331.214
1604807.0,1569567331.255
1607478.0,1569567331.295
1604198.0,1569567331.334
1596323.0,1569567331.375
1591447.0,1569567331.414
1589004.0,1569567331.454
1587582.0,1569567331.496
1587771.0,1569567331.535
1588770.0,1569567331.575
1588635.0,1569567331.616
1588596.0,1569567331.655
1589611.0,1569567331.696
1591873.0,1569567331.736
1594740.0,1569567331.775
1597685.0,1569567331.815
1600782.0,1569567331.856
1604343.0,1569567331.894
1607507.0,1569567331.928
1611068.0,1569567331.96
1611886.0,1569567332.0
1604938.0,1569567332.041
1597940.0,1569567332.083
1594606.0,1569567332.121
1592762.0,1569567332.161
1591427.0,1569567332.203
1591745.0,1569567332.242
1592224.0,1569567332.283
1592130.0,1569567332.324
1592039.0,1569567332.363
1593384.0,1569567332.397
1593384.0,1569567332.438
1596287.0,1569567332.478
1599043.0,1569567332.517
1605448.0,1569567332.597
1602182.0,1569567332.558
1608761.0,1569567332.637
1612003.0,1569567332.679
1615416.0,1569567332.718
1607177.0,1569567332.799
1615146.0,1569567332.758
1595073.0,1569567332.879
1599567.0,1569567332.838
1591854.0,1569567332.919
1589649.0,1569567332.958
1589375.0,1569567332.998
1589470.0,1569567333.039
1588858.0,1569567333.079
1588714.0,1569567333.119
1589589.0,1569567333.161
1591832.0,1569567333.2
1594263.0,1569567333.241
1597151.0,1569567333.283
1600535.0,1569567333.321
1603373.0,1569567333.362
1606369.0,1569567333.403
1609752.0,1569567333.442
1610972.0,1569567333.483
1604147.0,1569567333.524
1595285.0,1569567333.563
1590060.0,1569567333.603
1586898.0,1569567333.639
1584280.0,1569567333.678
1583522.0,1569567333.718
1583439.0,1569567333.759
1583008.0,1569567333.798
1582360.0,1569567333.838
1583194.0,1569567333.88
1584780.0,1569567333.918
1587019.0,1569567333.958
1589936.0,1569567333.999
1592536.0,1569567334.038
1595157.0,1569567334.079
1597946.0,1569567334.12
1600766.0,1569567334.159
1603424.0,1569567334.199
1590151.0,1569567334.28
1599428.0,1569567334.24
1583482.0,1569567334.319
1579776.0,1569567334.361
1577034.0,1569567334.4
1576063.0,1569567334.44
1576323.0,1569567334.481
1575208.0,1569567334.521
1574242.0,1569567334.561
1574211.0,1569567334.603
1575260.0,1569567334.642
1577434.0,1569567334.683
1579746.0,1569567334.724
1581978.0,1569567334.763
1584763.0,1569567334.803
1587065.0,1569567334.843
1589771.0,1569567334.876
1592387.0,1569567334.915
1589470.0,1569567334.956
1580393.0,1569567334.995
1573836.0,1569567335.035
1570861.0,1569567335.077
1568844.0,1569567335.115
1568787.0,1569567335.155
1569125.0,1569567335.197
1568770.0,1569567335.236
1568044.0,1569567335.276
1568801.0,1569567335.317
1570630.0,1569567335.356
1573461.0,1569567335.396
1576208.0,1569567335.437
1579525.0,1569567335.477
1582932.0,1569567335.516
1586336.0,1569567335.558
1590083.0,1569567335.594
1593357.0,1569567335.63
1590461.0,1569567335.672
1581598.0,1569567335.704
1574968.0,1569567335.742
1571992.0,1569567335.783
1570278.0,1569567335.822
1569724.0,1569567335.863
1570403.0,1569567335.904
1570321.0,1569567335.943
1569996.0,1569567335.983
1570255.0,1569567336.024
1572008.0,1569567336.064
1574693.0,1569567336.104
1577668.0,1569567336.145
1580741.0,1569567336.184
1583595.0,1569567336.224
1586895.0,1569567336.266
1589854.0,1569567336.304
1593369.0,1569567336.344
1595583.0,1569567336.385
1589416.0,1569567336.424
1579786.0,1569567336.465
1573871.0,1569567336.505
1570374.0,1569567336.544
1567760.0,1569567336.584
1566661.0,1569567336.625
1567537.0,1569567336.665
1567272.0,1569567336.704
1566670.0,1569567336.746
1567669.0,1569567336.782
1569925.0,1569567336.822
1573071.0,1569567336.864
1576887.0,1569567336.903
1581054.0,1569567336.943
1584836.0,1569567336.984
1588926.0,1569567337.023
1592881.0,1569567337.064
1597153.0,1569567337.104
1599488.0,1569567337.143
1592834.0,1569567337.183
1584239.0,1569567337.225
1579322.0,1569567337.265
1575164.0,1569567337.337
1576502.0,1569567337.304
1575771.0,1569567337.376
1577728.0,1569567337.417
1578567.0,1569567337.458
1579201.0,1569567337.497
1581142.0,1569567337.537
1584456.0,1569567337.578
1588781.0,1569567337.617
1592804.0,1569567337.658
1596986.0,1569567337.698
1601132.0,1569567337.737
1604827.0,1569567337.777
1609563.0,1569567337.818
1614117.0,1569567337.858
1614510.0,1569567337.897
1606413.0,1569567337.939
1598628.0,1569567337.978
1594340.0,1569567338.018
1591599.0,1569567338.058
1590287.0,1569567338.092
1590941.0,1569567338.133
1591046.0,1569567338.165
1591027.0,1569567338.204
1591061.0,1569567338.245
1592616.0,1569567338.286
1594955.0,1569567338.325
1598079.0,1569567338.364
1598079.0,1569567338.397
1601457.0,1569567338.437
1605625.0,1569567338.477
1609768.0,1569567338.518
1613637.0,1569567338.557
1617414.0,1569567338.597
1617019.0,1569567338.639
1609291.0,1569567338.677
1603061.0,1569567338.717
1600859.0,1569567338.758
1599842.0,1569567338.797
1600224.0,1569567338.838
1601927.0,1569567338.879
1602806.0,1569567338.918
1602794.0,1569567338.958
1603555.0,1569567338.999
1605839.0,1569567339.039
1609282.0,1569567339.075
1613082.0,1569567339.111
1617139.0,1569567339.146
1621227.0,1569567339.183
1625347.0,1569567339.225
1629828.0,1569567339.264
1631601.0,1569567339.304
1624937.0,1569567339.345
1617701.0,1569567339.384
1614544.0,1569567339.425
1613502.0,1569567339.467
1613422.0,1569567339.506
1615004.0,1569567339.546
1616231.0,1569567339.587
1616631.0,1569567339.626
1617351.0,1569567339.666
1619328.0,1569567339.707
1622032.0,1569567339.746
1625447.0,1569567339.786
1628943.0,1569567339.828
1632855.0,1569567339.866
1636545.0,1569567339.906
1640075.0,1569567339.947
1639198.0,1569567339.986
1630154.0,1569567340.027
1622116.0,1569567340.068
1617546.0,1569567340.107
1615272.0,1569567340.147
1613466.0,1569567340.188
1613822.0,1569567340.227
1614742.0,1569567340.264
1614832.0,1569567340.305
1615477.0,1569567340.344
1617061.0,1569567340.383
1619831.0,1569567340.422
1622869.0,1569567340.461
1626593.0,1569567340.5
1630029.0,1569567340.539
1634060.0,1569567340.578
1637865.0,1569567340.617
1635521.0,1569567340.656
1625988.0,1569567340.695
1618612.0,1569567340.734
1613862.0,1569567340.773
1611142.0,1569567340.812
1609627.0,1569567340.851
1610627.0,1569567340.89
1611437.0,1569567340.929
1611639.0,1569567340.968
1612263.0,1569567341.007
1614205.0,1569567341.046
1617160.0,1569567341.085
1620556.0,1569567341.124
1624469.0,1569567341.163
1628650.0,1569567341.202
1632869.0,1569567341.241
1636966.0,1569567341.28
1639285.0,1569567341.319
1632599.0,1569567341.358
1623654.0,1569567341.397
1617631.0,1569567341.436
1614394.0,1569567341.475
1611984.0,1569567341.514
1611800.0,1569567341.553
1612429.0,1569567341.592
1612830.0,1569567341.631
1612873.0,1569567341.67
1613789.0,1569567341.709
1615581.0,1569567341.748
1618232.0,1569567341.787
1618232.0,1569567341.826
1621244.0,1569567341.865
1623885.0,1569567341.904
1626784.0,1569567341.943
1629945.0,1569567341.982
1633718.0,1569567342.021
1634960.0,1569567342.06
1619092.0,1569567342.138
1627622.0,1569567342.099
1613951.0,1569567342.177
1611411.0,1569567342.216
1610104.0,1569567342.255
1610463.0,1569567342.333
1609434.0,1569567342.372
1609060.0,1569567342.411
1609987.0,1569567342.45
1611743.0,1569567342.489
1614396.0,1569567342.528
1617399.0,1569567342.567
1610394.0,1569567342.294
1620778.0,1569567342.606
1627516.0,1569567342.684
1623951.0,1569567342.645
1631626.0,1569567342.762
1631556.0,1569567342.723
1623408.0,1569567342.801
1616269.0,1569567342.84
1613114.0,1569567342.879
1614763.0,1569567343.035
1615262.0,1569567343.074
1611752.0,1569567342.957
1613749.0,1569567342.996
1611948.0,1569567342.918
1616309.0,1569567343.113
1618243.0,1569567343.152
1621304.0,1569567343.191
1624631.0,1569567343.23
1628421.0,1569567343.269
1632968.0,1569567343.308
1646894.0,1569567343.425
1647260.0,1569567343.464
1637213.0,1569567343.347
1626980.0,1569567343.581
1642250.0,1569567343.386
1631105.0,1569567343.542
1638677.0,1569567343.503
1622952.0,1569567343.659
1624296.0,1569567343.62
1622979.0,1569567343.698
1622936.0,1569567343.776
1622997.0,1569567343.737
1623033.0,1569567343.815
1624293.0,1569567343.854
1627505.0,1569567343.893
1630808.0,1569567343.932
1634983.0,1569567343.971
1639385.0,1569567344.01
1647497.0,1569567344.088
1643270.0,1569567344.049
1651880.0,1569567344.127
1655503.0,1569567344.166
1651507.0,1569567344.205
1641779.0,1569567344.244
1634484.0,1569567344.283
1630452.0,1569567344.322
1627350.0,1569567344.361
1625769.0,1569567344.4
1626212.0,1569567344.439
1626626.0,1569567344.478
1626551.0,1569567344.517
1627013.0,1569567344.556
1628930.0,1569567344.595
1631531.0,1569567344.634
1634439.0,1569567344.673
1637824.0,1569567344.712
1641461.0,1569567344.751
1645088.0,1569567344.79
1648913.0,1569567344.829
1652966.0,1569567344.868
1654906.0,1569567344.907
1648045.0,1569567344.946
1638241.0,1569567344.985
1632237.0,1569567345.024
1628653.0,1569567345.063
1626085.0,1569567345.102
1625349.0,1569567345.141
1625566.0,1569567345.18
1625361.0,1569567345.219
1624985.0,1569567345.258
1625680.0,1569567345.297
1627940.0,1569567345.336
1630602.0,1569567345.375
1633886.0,1569567345.414
1637298.0,1569567345.453
1640467.0,1569567345.492
1643936.0,1569567345.531
1647269.0,1569567345.57
1651474.0,1569567345.609
1653919.0,1569567345.648
1647250.0,1569567345.687
1637360.0,1569567345.726
1631581.0,1569567345.765
1628016.0,1569567345.804
1625355.0,1569567345.843
1624916.0,1569567345.882
1624687.0,1569567345.921
1623606.0,1569567345.96
1622558.0,1569567345.999
1622411.0,1569567346.038
1623651.0,1569567346.077
1625965.0,1569567346.116
1628225.0,1569567346.155
1631249.0,1569567346.194
1633850.0,1569567346.233
1636763.0,1569567346.272
1639478.0,1569567346.311
1642411.0,1569567346.35
1640043.0,1569567346.389
1629975.0,1569567346.428
1621433.0,1569567346.467
1617416.0,1569567346.506
1615105.0,1569567346.545
1614074.0,1569567346.584
1613779.0,1569567346.623
1612526.0,1569567346.662
1610716.0,1569567346.701
1609712.0,1569567346.74
1609712.0,1569567346.779
1610609.0,1569567346.818
1612024.0,1569567346.857
1614149.0,1569567346.896
1616102.0,1569567346.936
1618147.0,1569567346.976
1620608.0,1569567347.016
1623131.0,1569567347.056
1622683.0,1569567347.096
1613044.0,1569567347.136
1603378.0,1569567347.176
1597854.0,1569567347.216
1594881.0,1569567347.256
1593196.0,1569567347.296
1593244.0,1569567347.336
1592908.0,1569567347.376
1591134.0,1569567347.416
1590251.0,1569567347.456
1591122.0,1569567347.496
1596003.0,1569567347.576
1593478.0,1569567347.536
1599126.0,1569567347.616
1602390.0,1569567347.656
1605873.0,1569567347.696
1609220.0,1569567347.736
1606585.0,1569567347.776
1596653.0,1569567347.816
1589298.0,1569567347.856
1586107.0,1569567347.896
1584458.0,1569567347.936
1584174.0,1569567347.976
1585723.0,1569567348.016
1586609.0,1569567348.056
1586517.0,1569567348.096
1587694.0,1569567348.136
1590357.0,1569567348.176
1593971.0,1569567348.216
1598110.0,1569567348.256
1602613.0,1569567348.296
1606870.0,1569567348.336
1611359.0,1569567348.376
1615926.0,1569567348.416
1618709.0,1569567348.456
1610915.0,1569567348.496
1602073.0,1569567348.536
1597332.0,1569567348.576
1594970.0,1569567348.616
1593550.0,1569567348.656
1594246.0,1569567348.696
1595696.0,1569567348.736
1596116.0,1569567348.776
1596768.0,1569567348.816
1598385.0,1569567348.856
1601663.0,1569567348.896
1605900.0,1569567348.936
1610023.0,1569567348.976
1614780.0,1569567349.016
1619028.0,1569567349.056
1623922.0,1569567349.096
1628403.0,1569567349.136
1633114.0,1569567349.176
1629257.0,1569567349.216
1619290.0,1569567349.256
1612576.0,1569567349.296
1609079.0,1569567349.336
1606971.0,1569567349.376
1605974.0,1569567349.416
1607163.0,1569567349.456
1607765.0,1569567349.496
1608270.0,1569567349.536
1609085.0,1569567349.576
1611592.0,1569567349.616
1614948.0,1569567349.656
1619112.0,1569567349.696
1623543.0,1569567349.736
1627741.0,1569567349.776
1631990.0,1569567349.816
1636392.0,1569567349.856
1641039.0,1569567349.896
1644731.0,1569567349.936
1638737.0,1569567349.976
1629402.0,1569567350.016
1623392.0,1569567350.056
1620392.0,1569567350.096
1618143.0,1569567350.136
1617742.0,1569567350.176
1619182.0,1569567350.216
1619458.0,1569567350.256
1620285.0,1569567350.296
1621512.0,1569567350.336
1624197.0,1569567350.376
1628172.0,1569567350.416
1632319.0,1569567350.456
1632319.0,1569567350.496
1636915.0,1569567350.536
1641382.0,1569567350.576
1645850.0,1569567350.616
1650584.0,1569567350.656
1655791.0,1569567350.696
1659953.0,1569567350.736
1656039.0,1569567350.776
1648739.0,1569567350.816
1644054.0,1569567350.856
1642130.0,1569567350.896
1641455.0,1569567350.936
1641709.0,1569567350.976
1643375.0,1569567351.016
1644368.0,1569567351.056
1645112.0,1569567351.096
1647047.0,1569567351.136
1649888.0,1569567351.176
1653629.0,1569567351.216
1657672.0,1569567351.256
1662187.0,1569567351.296
1666248.0,1569567351.336
1670680.0,1569567351.376
1675326.0,1569567351.416
1679788.0,1569567351.456
1683968.0,1569567351.496
1680901.0,1569567351.536
1674387.0,1569567351.576
1670962.0,1569567351.616
1670274.0,1569567351.656
1669894.0,1569567351.696
1671406.0,1569567351.736
1673132.0,1569567351.776
1673789.0,1569567351.816
1674931.0,1569567351.856
1676726.0,1569567351.896
1679438.0,1569567351.936
1682850.0,1569567351.976
1686713.0,1569567352.016
1690491.0,1569567352.056
1694558.0,1569567352.096
1698557.0,1569567352.136
1702615.0,1569567352.173
1706927.0,1569567352.213
1707828.0,1569567352.255
1696923.0,1569567352.374
1697554.0,1569567352.454
1701571.0,1569567352.573
1705209.0,1569567352.653
1716027.0,1569567352.77
1719937.0,1569567352.81
1701134.0,1569567352.533
1699753.0,1569567352.494
1726086.0,1569567353.002
1702832.0,1569567352.616
1723823.0,1569567352.852
1696781.0,1569567352.413
1727824.0,1569567352.89
1702578.0,1569567352.293
1722551.0,1569567353.043
1732301.0,1569567352.922
1711883.0,1569567352.731
1708786.0,1569567352.69
1698383.0,1569567352.333
1720944.0,1569567353.123
1721747.0,1569567353.163
1723742.0,1569567353.204
1731818.0,1569567352.963
1725098.0,1569567353.243
1725627.0,1569567353.283
1727532.0,1569567353.324
1729795.0,1569567353.363
1733048.0,1569567353.403
1736925.0,1569567353.445
1740633.0,1569567353.483
1744437.0,1569567353.523
1748466.0,1569567353.564
1752130.0,1569567353.603
1756015.0,1569567353.645
1753614.0,1569567353.681
1747144.0,1569567353.72
1742877.0,1569567353.751
1740652.0,1569567353.793
1739477.0,1569567353.832
1721462.0,1569567353.084
1738492.0,1569567353.872
1739517.0,1569567353.914
1739966.0,1569567353.952
1739930.0,1569567353.993
1741003.0,1569567354.033
1742722.0,1569567354.071
1745211.0,1569567354.112
1748291.0,1569567354.149
1748291.0,1569567354.188
1750964.0,1569567354.229
1754342.0,1569567354.269
1757367.0,1569567354.308
1760768.0,1569567354.348
1764287.0,1569567354.39
1764404.0,1569567354.429
1757431.0,1569567354.469
1750488.0,1569567354.51
1746489.0,1569567354.549
1743720.0,1569567354.589
1741350.0,1569567354.631
1740764.0,1569567354.669
1741022.0,1569567354.709
1739333.0,1569567354.789
1740040.0,1569567354.83
1741610.0,1569567354.871
1743877.0,1569567354.91
1740020.0,1569567354.75
1748758.0,1569567354.993
1746386.0,1569567354.951
1751344.0,1569567355.032
1754480.0,1569567355.072
1757329.0,1569567355.113
1759659.0,1569567355.152
1755031.0,1569567355.192
1746494.0,1569567355.235
1740436.0,1569567355.273
1736861.0,1569567355.313
1733711.0,1569567355.354
1731949.0,1569567355.39
1731420.0,1569567355.43
1730271.0,1569567355.471
1729253.0,1569567355.51
1729050.0,1569567355.55
1730029.0,1569567355.591
1731570.0,1569567355.631
1733227.0,1569567355.67
1735362.0,1569567355.711
1737196.0,1569567355.75
1739617.0,1569567355.79
1742107.0,1569567355.832
1744581.0,1569567355.87
1745068.0,1569567355.91
1737544.0,1569567355.951
1729041.0,1569567355.991
1724207.0,1569567356.031
1720610.0,1569567356.072
1717917.0,1569567356.111
1716761.0,1569567356.152
1715851.0,1569567356.193
1713866.0,1569567356.233
1712262.0,1569567356.272
1712209.0,1569567356.314
1712893.0,1569567356.353
1714192.0,1569567356.393
1716103.0,1569567356.436
1717551.0,1569567356.474
1719368.0,1569567356.512
1721542.0,1569567356.554
1723931.0,1569567356.592
1724965.0,1569567356.628
1718066.0,1569567356.668
1709785.0,1569567356.707
1704700.0,1569567356.747
1701695.0,1569567356.788
1699607.0,1569567356.828
1699283.0,1569567356.868
1699074.0,1569567356.909
1697506.0,1569567356.948
1696365.0,1569567356.988
1696837.0,1569567357.03
1698125.0,1569567357.068
1700320.0,1569567357.108
1702654.0,1569567357.149
1705383.0,1569567357.188
1707651.0,1569567357.229
1710652.0,1569567357.269
1713862.0,1569567357.301
1711542.0,1569567357.335
1703496.0,1569567357.376
1696987.0,1569567357.412
1693504.0,1569567357.451
1691543.0,1569567357.492
1690519.0,1569567357.532
1690680.0,1569567357.572
1690520.0,1569567357.614
1689876.0,1569567357.652
1690277.0,1569567357.692
1691631.0,1569567357.734
1693909.0,1569567357.773
1696468.0,1569567357.814
1699816.0,1569567357.855
1702875.0,1569567357.894
1706068.0,1569567357.934
1709581.0,1569567357.975
1711388.0,1569567358.015
1705146.0,1569567358.054
1696815.0,1569567358.096
1691758.0,1569567358.135
1688589.0,1569567358.175
1686274.0,1569567358.217
1685455.0,1569567358.255
1685426.0,1569567358.295
1685149.0,1569567358.336
1684691.0,1569567358.375
1685312.0,1569567358.416
1687605.0,1569567358.456
1690123.0,1569567358.495
1693245.0,1569567358.535
1696686.0,1569567358.573
1699795.0,1569567358.613
1703223.0,1569567358.653
1706696.0,1569567358.693
1707233.0,1569567358.732
1699848.0,1569567358.772
1692567.0,1569567358.814
1688537.0,1569567358.853
1685719.0,1569567358.893
1684224.0,1569567358.934
1684060.0,1569567358.974
1684622.0,1569567359.015
1684299.0,1569567359.053
1684735.0,1569567359.085
1686020.0,1569567359.125
1688352.0,1569567359.166
1691715.0,1569567359.206
1694995.0,1569567359.245
1698606.0,1569567359.286
1701734.0,1569567359.325
1705388.0,1569567359.365
1709367.0,1569567359.407
1711033.0,1569567359.445
1704778.0,1569567359.486
1697951.0,1569567359.527
1694215.0,1569567359.566
1692056.0,1569567359.606
1690856.0,1569567359.647
1691201.0,1569567359.686
1691700.0,1569567359.726
1691721.0,1569567359.768
1691851.0,1569567359.808
1692871.0,1569567359.844
1695193.0,1569567359.877
1697599.0,1569567359.915
1700900.0,1569567359.953
1703827.0,1569567359.996
1706869.0,1569567360.034
1710176.0,1569567360.074
1713550.0,1569567360.116
1715417.0,1569567360.155
1709987.0,1569567360.196
1703410.0,1569567360.236
1700135.0,1569567360.275
1698740.0,1569567360.312
1697798.0,1569567360.353
1698448.0,1569567360.393
1698858.0,1569567360.432
1698611.0,1569567360.473
1698943.0,1569567360.512
1700471.0,1569567360.552
1702757.0,1569567360.594
1705588.0,1569567360.633
1709229.0,1569567360.673
1712276.0,1569567360.714
1715819.0,1569567360.753
1719103.0,1569567360.794
1722814.0,1569567360.834
1722099.0,1569567360.873
1716192.0,1569567360.913
1711847.0,1569567360.954
1710696.0,1569567360.994
1710389.0,1569567361.033
1711070.0,1569567361.075
1712921.0,1569567361.114
1713411.0,1569567361.155
1714046.0,1569567361.197
1715353.0,1569567361.235
1718088.0,1569567361.275
1721310.0,1569567361.317
1724641.0,1569567361.356
1728240.0,1569567361.397
1731926.0,1569567361.436
1735868.0,1569567361.474
1739461.0,1569567361.514
1739461.0,1569567361.548
1741406.0,1569567361.588
1735955.0,1569567361.627
1730057.0,1569567361.668
1727642.0,1569567361.707
1725968.0,1569567361.747
1725573.0,1569567361.789
1726224.0,1569567361.827
1726877.0,1569567361.868
1727231.0,1569567361.909
1727973.0,1569567361.948
1729308.0,1569567361.988
1731948.0,1569567362.029
1734623.0,1569567362.068
1737838.0,1569567362.108
1741090.0,1569567362.149
1744548.0,1569567362.189
1748192.0,1569567362.223
1751316.0,1569567362.265
1749592.0,1569567362.294
1742528.0,1569567362.334
1738185.0,1569567362.376
1735631.0,1569567362.415
1734276.0,1569567362.455
1733672.0,1569567362.497
1734735.0,1569567362.533
1735029.0,1569567362.575
1734549.0,1569567362.615
1735497.0,1569567362.654
1737256.0,1569567362.694
1739618.0,1569567362.735
1742796.0,1569567362.771
1745784.0,1569567362.81
1749110.0,1569567362.851
1751787.0,1569567362.89
1755490.0,1569567362.93
1758023.0,1569567362.972
1754673.0,1569567363.01
1747863.0,1569567363.051
1743440.0,1569567363.092
1741541.0,1569567363.131
1740232.0,1569567363.171
1739446.0,1569567363.212
1740067.0,1569567363.251
1739431.0,1569567363.291
1739187.0,1569567363.332
1739432.0,1569567363.372
1740736.0,1569567363.411
1742887.0,1569567363.449
1745021.0,1569567363.483
1747792.0,1569567363.523
1750410.0,1569567363.559
1753097.0,1569567363.595
1756068.0,1569567363.635
1757212.0,1569567363.677
1751981.0,1569567363.716
1745081.0,1569567363.757
1741092.0,1569567363.798
1739185.0,1569567363.837
1738363.0,1569567363.877
1738499.0,1569567363.917
1738372.0,1569567363.956
1737159.0,1569567363.993
1737159.0,1569567364.034
1736495.0,1569567364.132
1736852.0,1569567364.172
1738401.0,1569567364.214
1740874.0,1569567364.252
1743239.0,1569567364.292
1745809.0,1569567364.333
1747960.0,1569567364.372
1750602.0,1569567364.413
1753457.0,1569567364.453
1750621.0,1569567364.492
1743144.0,1569567364.532
1738437.0,1569567364.574
1736576.0,1569567364.613
1735259.0,1569567364.653
1735316.0,1569567364.694
1735753.0,1569567364.733
1735275.0,1569567364.774
1734800.0,1569567364.816
1735459.0,1569567364.854
1736777.0,1569567364.895
1739219.0,1569567364.936
1741622.0,1569567364.975
1744457.0,1569567365.016
1747525.0,1569567365.057
1750393.0,1569567365.096
1753193.0,1569567365.133
1751336.0,1569567365.175
1743207.0,1569567365.215
1737291.0,1569567365.254
1733694.0,1569567365.295
1731866.0,1569567365.334
1730309.0,1569567365.374
1730122.0,1569567365.416
1729752.0,1569567365.454
1728983.0,1569567365.494
1728500.0,1569567365.535
1729789.0,1569567365.574
1731243.0,1569567365.615
1733275.0,1569567365.655
1736089.0,1569567365.694
1738308.0,1569567365.734
1741102.0,1569567365.775
1744154.0,1569567365.815
1743980.0,1569567365.855
1736264.0,1569567365.896
1728194.0,1569567365.935
1723658.0,1569567365.975
1720102.0,1569567366.018
1717588.0,1569567366.056
1716745.0,1569567366.096
1716382.0,1569567366.138
1714727.0,1569567366.177
1713762.0,1569567366.218
1714027.0,1569567366.259
1715203.0,1569567366.295
1717345.0,1569567366.335
1719456.0,1569567366.377
1721833.0,1569567366.417
1724507.0,1569567366.456
1727215.0,1569567366.497
1729996.0,1569567366.536
1727584.0,1569567366.576
1718810.0,1569567366.618
1712003.0,1569567366.657
1708016.0,1569567366.697
1705243.0,1569567366.738
1703530.0,1569567366.777
1703412.0,1569567366.818
1702509.0,1569567366.858
1701225.0,1569567366.897
1700779.0,1569567366.937
1701236.0,1569567366.978
1702540.0,1569567367.018
1704948.0,1569567367.057
1707128.0,1569567367.098
1709630.0,1569567367.137
1712239.0,1569567367.177
1714580.0,1569567367.219
1716595.0,1569567367.257
1712261.0,1569567367.297
1702977.0,1569567367.339
1696739.0,1569567367.378
1693446.0,1569567367.418
1691336.0,1569567367.459
1690155.0,1569567367.498
1689746.0,1569567367.538
1688400.0,1569567367.58
1686886.0,1569567367.618
1686938.0,1569567367.656
1687885.0,1569567367.697
1689840.0,1569567367.734
1691574.0,1569567367.774
1693710.0,1569567367.816
1695947.0,1569567367.854
1698418.0,1569567367.894
1701399.0,1569567367.935
1701263.0,1569567367.974
1693867.0,1569567368.015
1686802.0,1569567368.056
1683332.0,1569567368.095
1681626.0,1569567368.135
1681319.0,1569567368.176
1681881.0,1569567368.215
1681473.0,1569567368.255
1681374.0,1569567368.296
1681506.0,1569567368.335
1682915.0,1569567368.375
1685570.0,1569567368.418
1688529.0,1569567368.456
1691966.0,1569567368.496
1694939.0,1569567368.538
1698553.0,1569567368.577
1702115.0,1569567368.618
1703774.0,1569567368.659
1697306.0,1569567368.698
1690066.0,1569567368.738
1686542.0,1569567368.779
1684799.0,1569567368.819
1683578.0,1569567368.856
1684643.0,1569567368.898
1684982.0,1569567368.936
1684642.0,1569567368.973
1685248.0,1569567369.015
1686581.0,1569567369.053
1689028.0,1569567369.093
1691915.0,1569567369.134
1695233.0,1569567369.173
1698690.0,1569567369.214
1702152.0,1569567369.255
1705765.0,1569567369.294
1709041.0,1569567369.334
1704591.0,1569567369.375
1696474.0,1569567369.415
1691608.0,1569567369.454
1688906.0,1569567369.495
1686981.0,1569567369.534
1686626.0,1569567369.574
1686957.0,1569567369.616
1687063.0,1569567369.655
1686504.0,1569567369.696
1687338.0,1569567369.737
1689498.0,1569567369.776
1692198.0,1569567369.817
1695051.0,1569567369.858
1698323.0,1569567369.897
1701510.0,1569567369.937
1705375.0,1569567369.979
1708957.0,1569567370.019
1708759.0,1569567370.058
1701946.0,1569567370.097
1695570.0,1569567370.136
1691930.0,1569567370.176
1690017.0,1569567370.218
1688815.0,1569567370.256
1689320.0,1569567370.296
1689451.0,1569567370.337
1689567.0,1569567370.376
1689472.0,1569567370.417
1691153.0,1569567370.457
1693622.0,1569567370.496
1696623.0,1569567370.536
1699992.0,1569567370.578
1703281.0,1569567370.617
1706384.0,1569567370.657
1709880.0,1569567370.698
1713263.0,1569567370.737
1711981.0,1569567370.778
1704638.0,1569567370.82
1699066.0,1569567370.858
1695890.0,1569567370.898
1694431.0,1569567370.94
1693171.0,1569567370.979
1693615.0,1569567371.018
1693393.0,1569567371.059
1692864.0,1569567371.098
1692788.0,1569567371.138
1693991.0,1569567371.18
1696363.0,1569567371.219
1698511.0,1569567371.259
1701226.0,1569567371.299
1704183.0,1569567371.329
1706626.0,1569567371.369
1709674.0,1569567371.411
1712635.0,1569567371.45
1710405.0,1569567371.49
1703104.0,1569567371.531
1698367.0,1569567371.57
1696621.0,1569567371.611
1695475.0,1569567371.651
1695837.0,1569567371.69
1696604.0,1569567371.73
1696151.0,1569567371.771
1695890.0,1569567371.811
1696899.0,1569567371.85
1699001.0,1569567371.892
1701454.0,1569567371.931
1704346.0,1569567371.971
1707523.0,1569567372.01
1710470.0,1569567372.041
1714110.0,1569567372.079
1717623.0,1569567372.118
1718267.0,1569567372.157
1712239.0,1569567372.198
1706434.0,1569567372.239
1704018.0,1569567372.278
1703103.0,1569567372.318
1703013.0,1569567372.359
1703934.0,1569567372.394
1704404.0,1569567372.433
1704406.0,1569567372.475
1705000.0,1569567372.514
1706603.0,1569567372.554
1709681.0,1569567372.596
1712472.0,1569567372.634
1715848.0,1569567372.674
1719058.0,1569567372.715
1722472.0,1569567372.754
1726294.0,1569567372.795
1728535.0,1569567372.835
1723384.0,1569567372.874
1716371.0,1569567372.915
1711963.0,1569567372.956
1709433.0,1569567372.996
1707525.0,1569567373.035
1707146.0,1569567373.076
1707787.0,1569567373.116
1707222.0,1569567373.156
1706850.0,1569567373.199
1707749.0,1569567373.237
1709326.0,1569567373.278
1712230.0,1569567373.318
1714799.0,1569567373.358
1717939.0,1569567373.398
1720850.0,1569567373.439
1724194.0,1569567373.478
1727408.0,1569567373.518
1726914.0,1569567373.56
1719175.0,1569567373.6
1712455.0,1569567373.639
1708707.0,1569567373.676
1706183.0,1569567373.715
1704531.0,1569567373.755
1704445.0,1569567373.797
1704076.0,1569567373.836
1703323.0,1569567373.876
1703207.0,1569567373.917
1704382.0,1569567373.956
1706358.0,1569567373.997
1709108.0,1569567374.037
1711774.0,1569567374.076
1714650.0,1569567374.116
1717721.0,1569567374.158
1720578.0,1569567374.197
1723833.0,1569567374.237
1721887.0,1569567374.278
1713723.0,1569567374.317
1707122.0,1569567374.358
1703417.0,1569567374.4
1700675.0,1569567374.438
1698685.0,1569567374.478
1698458.0,1569567374.519
1697527.0,1569567374.558
1696195.0,1569567374.599
1695761.0,1569567374.64
1696945.0,1569567374.679
1698347.0,1569567374.719
1700424.0,1569567374.761
1702529.0,1569567374.8
1705121.0,1569567374.84
1707571.0,1569567374.878
1709825.0,1569567374.913
1712755.0,1569567374.953
1709503.0,1569567374.995
1701152.0,1569567375.033
1694981.0,1569567375.073
1692233.0,1569567375.114
1689919.0,1569567375.153
1689219.0,1569567375.194
1689121.0,1569567375.235
1688189.0,1569567375.274
1686832.0,1569567375.314
1686658.0,1569567375.355
1688046.0,1569567375.395
1689597.0,1569567375.434
1691733.0,1569567375.475
1694362.0,1569567375.514
1696502.0,1569567375.554
1699156.0,1569567375.597
1702066.0,1569567375.635
1703695.0,1569567375.674
1698055.0,1569567375.716
1690013.0,1569567375.753
1685324.0,1569567375.789
1682869.0,1569567375.821
1681285.0,1569567375.86
1680849.0,1569567375.9
1680663.0,1569567375.942
1680180.0,1569567375.981
1679347.0,1569567376.021
1680152.0,1569567376.062
1681609.0,1569567376.101
1681609.0,1569567376.14
1684033.0,1569567376.179
1686814.0,1569567376.218
1689605.0,1569567376.257
1692240.0,1569567376.296
1695162.0,1569567376.335
1698419.0,1569567376.374
1699483.0,1569567376.413
1692082.0,1569567376.452
1684421.0,1569567376.491
1680106.0,1569567376.53
1677338.0,1569567376.569
1675192.0,1569567376.608
1674912.0,1569567376.647
1675062.0,1569567376.686
1674185.0,1569567376.725
1674175.0,1569567376.764
1674911.0,1569567376.803
1676950.0,1569567376.842
1679756.0,1569567376.881
1683084.0,1569567376.92
1685992.0,1569567376.959
1689021.0,1569567376.998
1692193.0,1569567377.037
1695701.0,1569567377.076
1698169.0,1569567377.115
1692700.0,1569567377.154
1684595.0,1569567377.193
1678717.0,1569567377.232
1675380.0,1569567377.271
1672114.0,1569567377.31
1671211.0,1569567377.349
1671520.0,1569567377.388
1670784.0,1569567377.427
1670232.0,1569567377.466
1670619.0,1569567377.505
1671885.0,1569567377.544
1674192.0,1569567377.583
1677079.0,1569567377.622
1680467.0,1569567377.661
1683944.0,1569567377.7
1687315.0,1569567377.739
1690908.0,1569567377.778
1694574.0,1569567377.817
1696034.0,1569567377.856
1689144.0,1569567377.895
1682354.0,1569567377.934
1677759.0,1569567377.973
1675175.0,1569567378.012
1673665.0,1569567378.051
1673872.0,1569567378.09
1674043.0,1569567378.129
1673837.0,1569567378.168
1673869.0,1569567378.207
1674743.0,1569567378.246
1677218.0,1569567378.285
1679987.0,1569567378.324
1683065.0,1569567378.363
1686524.0,1569567378.402
1690304.0,1569567378.441
1694091.0,1569567378.48
1698012.0,1569567378.519
1702038.0,1569567378.558
1704188.0,1569567378.597
1698131.0,1569567378.636
1688478.0,1569567378.714
1686793.0,1569567378.753
1691843.0,1569567378.675
1685645.0,1569567378.792
1685902.0,1569567378.831
1686316.0,1569567378.87
1685824.0,1569567378.909
1685812.0,1569567378.948
1686914.0,1569567378.987
1688665.0,1569567379.026
1691002.0,1569567379.065
1693898.0,1569567379.104
1697125.0,1569567379.143
1700302.0,1569567379.182
1703793.0,1569567379.221
1706860.0,1569567379.26
1710032.0,1569567379.299
1713185.0,1569567379.338
1710227.0,1569567379.377
1703222.0,1569567379.416
1699256.0,1569567379.455
1697817.0,1569567379.494
1697337.0,1569567379.533
1697703.0,1569567379.572
1698322.0,1569567379.611
1698620.0,1569567379.65
1698337.0,1569567379.689
1699055.0,1569567379.728
1700973.0,1569567379.767
1703378.0,1569567379.806
1706039.0,1569567379.845
1709334.0,1569567379.884
1712709.0,1569567379.923
1716065.0,1569567379.962
1718792.0,1569567380.001
1722404.0,1569567380.04
1724512.0,1569567380.079
1720049.0,1569567380.118
1713731.0,1569567380.157
1708982.0,1569567380.274
1710450.0,1569567380.196
1709719.0,1569567380.235
1709804.0,1569567380.313
1711283.0,1569567380.352
1711495.0,1569567380.391
1711925.0,1569567380.43
1713848.0,1569567380.469
1719687.0,1569567380.549
1716724.0,1569567380.509
1723438.0,1569567380.589
1727424.0,1569567380.629
1731029.0,1569567380.669
1731029.0,1569567380.709
1734632.0,1569567380.749
1738163.0,1569567380.789
1742062.0,1569567380.829
1741241.0,1569567380.869
1734918.0,1569567380.909
1730418.0,1569567380.949
1728033.0,1569567380.989
1726484.0,1569567381.029
1725324.0,1569567381.069
1726014.0,1569567381.109
1726389.0,1569567381.149
1726438.0,1569567381.189
1726703.0,1569567381.229
1728012.0,1569567381.269
1730451.0,1569567381.309
1733197.0,1569567381.349
1736313.0,1569567381.389
1739366.0,1569567381.429
1742714.0,1569567381.469
1745685.0,1569567381.509
1749490.0,1569567381.549
1752073.0,1569567381.589
1748365.0,1569567381.629
1740967.0,1569567381.669
1736421.0,1569567381.709
1733871.0,1569567381.749
1731601.0,1569567381.789
1730880.0,1569567381.829
1731045.0,1569567381.869
1730999.0,1569567381.909
1730483.0,1569567381.949
1730856.0,1569567381.989
1732516.0,1569567382.029
1734878.0,1569567382.069
1737489.0,1569567382.109
1740314.0,1569567382.149
1743210.0,1569567382.189
1745913.0,1569567382.229
1749253.0,1569567382.269
1752269.0,1569567382.309
1755685.0,1569567382.349
1753331.0,1569567382.389
1746294.0,1569567382.429
1741063.0,1569567382.469
1737797.0,1569567382.509
1735660.0,1569567382.549
1734735.0,1569567382.589
1734762.0,1569567382.629
1734294.0,1569567382.669
1733608.0,1569567382.709
1733659.0,1569567382.749
1734878.0,1569567382.789
1736717.0,1569567382.829
1738982.0,1569567382.869
1741928.0,1569567382.909
1744325.0,1569567382.949
1750415.0,1569567383.029
1747553.0,1569567382.989
1753174.0,1569567383.069
1758313.0,1569567383.149
1756447.0,1569567383.109
1753445.0,1569567383.189
1745886.0,1569567383.229
1741798.0,1569567383.269
1739553.0,1569567383.309
1737404.0,1569567383.349
1736747.0,1569567383.389
1736478.0,1569567383.429
1735077.0,1569567383.469
1733919.0,1569567383.509
1734087.0,1569567383.549
1734769.0,1569567383.589
1736522.0,1569567383.629
1738505.0,1569567383.669
1740641.0,1569567383.709
1742686.0,1569567383.749
1744724.0,1569567383.789
1746909.0,1569567383.829
1749839.0,1569567383.869
1751841.0,1569567383.909
1747695.0,1569567383.949
1740283.0,1569567383.989
1735406.0,1569567384.029
1732712.0,1569567384.069
1730932.0,1569567384.109
1730535.0,1569567384.149
1730246.0,1569567384.189
1728379.0,1569567384.269
1728586.0,1569567384.309
1729417.0,1569567384.229
1729894.0,1569567384.349
1731874.0,1569567384.389
1733850.0,1569567384.429
1736036.0,1569567384.469
1738565.0,1569567384.509
1740868.0,1569567384.549
1743611.0,1569567384.589
1746385.0,1569567384.629
1746430.0,1569567384.669
1739851.0,1569567384.709
1732965.0,1569567384.749
1729483.0,1569567384.789
1727426.0,1569567384.829
1725441.0,1569567384.869
1725168.0,1569567384.909
1724983.0,1569567384.949
1723640.0,1569567384.989
1723371.0,1569567385.029
1723901.0,1569567385.069
1725545.0,1569567385.109
1727706.0,1569567385.149
1730186.0,1569567385.189
1732385.0,1569567385.229
1735163.0,1569567385.269
1737803.0,1569567385.309
1740596.0,1569567385.349
1743974.0,1569567385.389
1743709.0,1569567385.429
1736075.0,1569567385.469
1729011.0,1569567385.509
1724709.0,1569567385.549
1721508.0,1569567385.589
1718997.0,1569567385.629
1717890.0,1569567385.669
1717562.0,1569567385.709
1716363.0,1569567385.749
1715449.0,1569567385.789
1715923.0,1569567385.829
1716971.0,1569567385.869
1718541.0,1569567385.909
1720874.0,1569567385.949
1722936.0,1569567385.989
1725211.0,1569567386.029
1727623.0,1569567386.069
1730521.0,1569567386.109
1733746.0,1569567386.149
1736041.0,1569567386.189
1731332.0,1569567386.229
1723358.0,1569567386.269
1718091.0,1569567386.309
1715158.0,1569567386.349
1713125.0,1569567386.389
1711991.0,1569567386.429
1711604.0,1569567386.469
1711167.0,1569567386.509
1710526.0,1569567386.549
1710664.0,1569567386.589
1711591.0,1569567386.629
1713899.0,1569567386.669
1715787.0,1569567386.709
1717990.0,1569567386.749
1720865.0,1569567386.789
1723229.0,1569567386.829
1725796.0,1569567386.869
1728881.0,1569567386.909
1731697.0,1569567386.949
1731465.0,1569567386.989
1724358.0,1569567387.029
1718161.0,1569567387.069
1714260.0,1569567387.109
1711942.0,1569567387.149
1709920.0,1569567387.189
1709879.0,1569567387.229
1709186.0,1569567387.269
1708392.0,1569567387.309
1707904.0,1569567387.349
1708058.0,1569567387.389
1709504.0,1569567387.429
1710948.0,1569567387.469
1712881.0,1569567387.509
1715247.0,1569567387.549
1717246.0,1569567387.589
1719533.0,1569567387.629
1722058.0,1569567387.669
1725167.0,1569567387.709
1724911.0,1569567387.749
1718318.0,1569567387.789
1712198.0,1569567387.829
1709656.0,1569567387.869
1707596.0,1569567387.909
1706472.0,1569567387.949
1706742.0,1569567388.042
1706636.0,1569567388.082
1706241.0,1569567388.124
1706626.0,1569567388.163
1707920.0,1569567388.203
1709995.0,1569567388.244
1712613.0,1569567388.283
1715394.0,1569567388.323
1718150.0,1569567388.364
1721155.0,1569567388.403
1723866.0,1569567388.443
1727671.0,1569567388.484
1730145.0,1569567388.524
1726049.0,1569567388.563
1719352.0,1569567388.604
1715453.0,1569567388.643
1713373.0,1569567388.683
1711446.0,1569567388.724
1711195.0,1569567388.762
1711310.0,1569567388.8
1711491.0,1569567388.841
1711097.0,1569567388.881
1711877.0,1569567388.917
1713602.0,1569567388.949
1716191.0,1569567388.988
1719210.0,1569567389.028
1722125.0,1569567389.069
1725207.0,1569567389.109
1728481.0,1569567389.148
1731905.0,1569567389.189
1735244.0,1569567389.228
1737111.0,1569567389.268
1731112.0,1569567389.31
1724595.0,1569567389.349
1720937.0,1569567389.389
1718330.0,1569567389.43
1715865.0,1569567389.469
1714990.0,1569567389.51
1714907.0,1569567389.55
1714604.0,1569567389.589
1714358.0,1569567389.629
1715151.0,1569567389.67
1716673.0,1569567389.71
1719073.0,1569567389.748
1721716.0,1569567389.789
1724321.0,1569567389.828
1727437.0,1569567389.869
1730470.0,1569567389.911
1733738.0,1569567389.949
1737058.0,1569567389.989
1739063.0,1569567390.031
1734254.0,1569567390.068
1727154.0,1569567390.109
1723244.0,1569567390.148
1723244.0,1569567390.181
1720468.0,1569567390.221
1717932.0,1569567390.262
1717243.0,1569567390.301
1716986.0,1569567390.341
1716195.0,1569567390.382
1716105.0,1569567390.421
1715995.0,1569567390.461
1717431.0,1569567390.503
1719554.0,1569567390.541
1721838.0,1569567390.581
1724130.0,1569567390.622
1726728.0,1569567390.662
1729380.0,1569567390.702
1731686.0,1569567390.743
1734776.0,1569567390.782
1737406.0,1569567390.822
1734914.0,1569567390.86
1727606.0,1569567390.9
1721953.0,1569567390.934
1719116.0,1569567390.974
1716836.0,1569567391.01
1715380.0,1569567391.047
1715180.0,1569567391.089
1714078.0,1569567391.128
1712589.0,1569567391.168
1712095.0,1569567391.209
1712746.0,1569567391.245
1714413.0,1569567391.286
1716023.0,1569567391.327
1718078.0,1569567391.366
1719628.0,1569567391.406
1722033.0,1569567391.447
1724582.0,1569567391.487
1727123.0,1569567391.526
1729261.0,1569567391.567
1724903.0,1569567391.606
1718154.0,1569567391.646
1714220.0,1569567391.688
1712372.0,1569567391.726
1711317.0,1569567391.766
1711221.0,1569567391.808
1711715.0,1569567391.846
1711037.0,1569567391.887
1711134.0,1569567391.929
1711666.0,1569567391.968
1713686.0,1569567392.008
1716186.0,1569567392.049
1718995.0,1569567392.089
1722325.0,1569567392.128
1725106.0,1569567392.169
1728408.0,1569567392.209
1731902.0,1569567392.249
1734790.0,1569567392.291
1731818.0,1569567392.329
1724785.0,1569567392.37
1720245.0,1569567392.411
1717822.0,1569567392.448
1716295.0,1569567392.49
1715298.0,1569567392.531
1715611.0,1569567392.57
1715596.0,1569567392.61
1714819.0,1569567392.651
1715194.0,1569567392.691
1717021.0,1569567392.73
1718935.0,1569567392.771
1721582.0,1569567392.81
1724686.0,1569567392.85
1727344.0,1569567392.892
1730183.0,1569567392.93
1733289.0,1569567392.971
1736538.0,1569567393.012
1737049.0,1569567393.051
1729962.0,1569567393.091
1723562.0,1569567393.132
1719461.0,1569567393.171
1716647.0,1569567393.208
1714431.0,1569567393.25
1714026.0,1569567393.289
1714124.0,1569567393.329
1713305.0,1569567393.37
1713115.0,1569567393.409
1713828.0,1569567393.449
1715391.0,1569567393.491
1717690.0,1569567393.53
1720469.0,1569567393.57
1723110.0,1569567393.611
1725705.0,1569567393.65
1729058.0,1569567393.689
1731988.0,1569567393.73
1735333.0,1569567393.763
1735043.0,1569567393.803
1727933.0,1569567393.844
1721652.0,1569567393.884
1718271.0,1569567393.923
1715604.0,1569567393.964
1713810.0,1569567394.003
1713492.0,1569567394.043
1713382.0,1569567394.085
1711903.0,1569567394.124
1711496.0,1569567394.164
1712284.0,1569567394.205
1713617.0,1569567394.244
1715505.0,1569567394.285
1717919.0,1569567394.325
1720229.0,1569567394.364
1722580.0,1569567394.404
1725198.0,1569567394.445
1727637.0,1569567394.485
1730738.0,1569567394.525
1730381.0,1569567394.566
1723394.0,1569567394.605
1717362.0,1569567394.645
1714637.0,1569567394.687
1712341.0,1569567394.726
1711136.0,1569567394.765
1711181.0,1569567394.803
1710493.0,1569567394.843
1709424.0,1569567394.884
1709342.0,1569567394.92
1710160.0,1569567394.952
1712208.0,1569567394.99
1714331.0,1569567395.032
1716842.0,1569567395.068
1716842.0,1569567395.107
1719720.0,1569567395.149
1722150.0,1569567395.188
1725189.0,1569567395.228
1728217.0,1569567395.27
1730603.0,1569567395.308
1726489.0,1569567395.348
1720590.0,1569567395.389
1716910.0,1569567395.428
1715373.0,1569567395.469
1714655.0,1569567395.509
1715089.0,1569567395.548
1715742.0,1569567395.588
1715784.0,1569567395.629
1716044.0,1569567395.669
1717456.0,1569567395.708
1719576.0,1569567395.75
1722075.0,1569567395.789
1725016.0,1569567395.83
1728343.0,1569567395.871
1731539.0,1569567395.91
1734569.0,1569567395.95
1738081.0,1569567395.992
1741596.0,1569567396.031
1740298.0,1569567396.072
1733086.0,1569567396.113
1727528.0,1569567396.152
1725055.0,1569567396.192
1722703.0,1569567396.234
1721550.0,1569567396.273
1721513.0,1569567396.308
1721479.0,1569567396.349
1720808.0,1569567396.388
1721009.0,1569567396.428
1722469.0,1569567396.47
1724294.0,1569567396.509
1726760.0,1569567396.549
1729657.0,1569567396.59
1732204.0,1569567396.629
1735326.0,1569567396.67
1738216.0,1569567396.71
1741823.0,1569567396.749
1744059.0,1569567396.789
1739099.0,1569567396.83
1731831.0,1569567396.87
1727869.0,1569567396.909
1725288.0,1569567396.95
1723093.0,1569567396.99
1722118.0,1569567397.031
1722306.0,1569567397.073
1721839.0,1569567397.111
1721173.0,1569567397.151
1721894.0,1569567397.193
1723109.0,1569567397.232
1725714.0,1569567397.273
1727717.0,1569567397.314
1730603.0,1569567397.353
1733465.0,1569567397.393
1736363.0,1569567397.435
1738840.0,1569567397.472
1741798.0,1569567397.511
1744432.0,1569567397.547
1740332.0,1569567397.586
1732735.0,1569567397.626
1727950.0,1569567397.668
1724705.0,1569567397.707
1722546.0,1569567397.747
1721513.0,1569567397.788
1721231.0,1569567397.827
1720086.0,1569567397.868
1718757.0,1569567397.908
1718712.0,1569567397.947
1719912.0,1569567397.987
1721229.0,1569567398.028
1723095.0,1569567398.068
1724877.0,1569567398.107
1727015.0,1569567398.149
1729225.0,1569567398.188
1731589.0,1569567398.225
1734101.0,1569567398.268
1735430.0,1569567398.301
1729873.0,1569567398.341
1723299.0,1569567398.375
1719375.0,1569567398.41
1717226.0,1569567398.451
1716066.0,1569567398.491
1715848.0,1569567398.531
1715574.0,1569567398.571
1714578.0,1569567398.612
1714287.0,1569567398.652
1714533.0,1569567398.691
1715979.0,1569567398.732
1718240.0,1569567398.769
1720378.0,1569567398.809
1723016.0,1569567398.851
1725630.0,1569567398.889
1728159.0,1569567398.929
1731371.0,1569567398.97
1733242.0,1569567399.009
1728258.0,1569567399.05
1721596.0,1569567399.091
1718668.0,1569567399.13
1717250.0,1569567399.17
1716397.0,1569567399.211
1716693.0,1569567399.251
1717518.0,1569567399.29
1717199.0,1569567399.331
1717340.0,1569567399.37
1718836.0,1569567399.41
1721219.0,1569567399.453
1723855.0,1569567399.491
1727125.0,1569567399.532
1730188.0,1569567399.572
1733524.0,1569567399.612
1736913.0,1569567399.652
1740362.0,1569567399.693
1741645.0,1569567399.732
1735404.0,1569567399.772
1729269.0,1569567399.814
1726020.0,1569567399.854
1724452.0,1569567399.893
1722572.0,1569567399.934
1722687.0,1569567399.968
1723102.0,1569567400.008
1723113.0,1569567400.05
1722788.0,1569567400.088
1725942.0,1569567400.169
1724084.0,1569567400.128
1728961.0,1569567400.208
1731662.0,1569567400.249
1734531.0,1569567400.289
1741145.0,1569567400.369
1737636.0,1569567400.329
1744628.0,1569567400.41
1746405.0,1569567400.449
1740876.0,1569567400.489
1734118.0,1569567400.53
1730310.0,1569567400.569
1727729.0,1569567400.609
1725352.0,1569567400.651
1724531.0,1569567400.689
1724741.0,1569567400.729
1724647.0,1569567400.77
1724120.0,1569567400.81
1724598.0,1569567400.851
1726408.0,1569567400.891
1728976.0,1569567400.93
1731474.0,1569567400.97
1734248.0,1569567401.011
1737453.0,1569567401.051
1740468.0,1569567401.091
1743815.0,1569567401.132
1747046.0,1569567401.171
1746387.0,1569567401.212
1733396.0,1569567401.292
1730278.0,1569567401.332
1739357.0,1569567401.254
1727994.0,1569567401.373
1726166.0,1569567401.412
1726209.0,1569567401.453
1725947.0,1569567401.493
1724857.0,1569567401.532
1724378.0,1569567401.572
1725409.0,1569567401.614
1726981.0,1569567401.653
1729159.0,1569567401.693
1731570.0,1569567401.734
1734091.0,1569567401.773
1738985.0,1569567401.855
1741981.0,1569567401.893
1736553.0,1569567401.813
1744857.0,1569567401.933
1742676.0,1569567401.974
1735741.0,1569567402.013
1731088.0,1569567402.054
1728920.0,1569567402.092
1727383.0,1569567402.131
1727340.0,1569567402.171
1727619.0,1569567402.212
1727361.0,1569567402.252
1726569.0,1569567402.292
1727248.0,1569567402.332
1728635.0,1569567402.371
1731128.0,1569567402.412
1733675.0,1569567402.454
1736358.0,1569567402.492
1739462.0,1569567402.532
1748887.0,1569567402.653
1750134.0,1569567402.693
1744976.0,1569567402.732
1739570.0,1569567402.772
1745197.0,1569567402.612
1735762.0,1569567402.892
1736345.0,1569567402.853
1737007.0,1569567402.813
1742433.0,1569567402.573
1736873.0,1569567402.934
1737303.0,1569567402.973
1738066.0,1569567403.055
1737524.0,1569567403.013
1739604.0,1569567403.093
1741974.0,1569567403.133
1748520.0,1569567403.211
1745071.0,1569567403.174
1751494.0,1569567403.252
1754766.0,1569567403.293
1758244.0,1569567403.332
1761514.0,1569567403.372
1765228.0,1569567403.413
1762962.0,1569567403.453
1756169.0,1569567403.493
1752067.0,1569567403.532
1749900.0,1569567403.572
1747933.0,1569567403.611
1747421.0,1569567403.653
1747438.0,1569567403.689
1747749.0,1569567403.729
1747466.0,1569567403.771
1747549.0,1569567403.81
1749272.0,1569567403.85
1751399.0,1569567403.891
1753838.0,1569567403.93
1756752.0,1569567403.97
1759736.0,1569567404.012
1762869.0,1569567404.051
1765830.0,1569567404.09
1769236.0,1569567404.131
1772030.0,1569567404.17
1767839.0,1569567404.21
1761300.0,1569567404.252
1756794.0,1569567404.29
1753631.0,1569567404.33
1751499.0,1569567404.373
1750616.0,1569567404.412
1750388.0,1569567404.453
1749908.0,1569567404.493
1749159.0,1569567404.532
1749126.0,1569567404.572
1750258.0,1569567404.613
1752120.0,1569567404.653
1754224.0,1569567404.693
1756170.0,1569567404.733
1758610.0,1569567404.773
1760647.0,1569567404.813
1763266.0,1569567404.855
1766091.0,1569567404.893
1766580.0,1569567404.931
1760849.0,1569567404.972
1754400.0,1569567405.011
1751058.0,1569567405.052
1749375.0,1569567405.093
1747778.0,1569567405.132
1747725.0,1569567405.172
1747141.0,1569567405.213
1746361.0,1569567405.253
1745660.0,1569567405.292
1746613.0,1569567405.333
1747727.0,1569567405.372
1749897.0,1569567405.412
1751749.0,1569567405.454
1754638.0,1569567405.492
1756976.0,1569567405.532
1759849.0,1569567405.573
1762597.0,1569567405.612
1763016.0,1569567405.653
1757159.0,1569567405.694
1751948.0,1569567405.733
1749365.0,1569567405.773
1748166.0,1569567405.815
1747735.0,1569567405.855
1748645.0,1569567405.894
1748812.0,1569567405.935
1748590.0,1569567405.974
1748805.0,1569567406.014
1750510.0,1569567406.056
1752709.0,1569567406.095
1755147.0,1569567406.13
1758392.0,1569567406.171
1761075.0,1569567406.21
1764138.0,1569567406.25
1767800.0,1569567406.291
1770666.0,1569567406.33
1769579.0,1569567406.37
1762545.0,1569567406.411
1757816.0,1569567406.451
1755124.0,1569567406.49
1753676.0,1569567406.532
1752151.0,1569567406.571
1752353.0,1569567406.611
1752215.0,1569567406.652
1751745.0,1569567406.691
1751784.0,1569567406.731
1753177.0,1569567406.772
1755153.0,1569567406.811
1757764.0,1569567406.852
1760336.0,1569567406.894
1763033.0,1569567406.933
1765546.0,1569567406.973
1768812.0,1569567407.014
1771896.0,1569567407.054
1770161.0,1569567407.093
1763011.0,1569567407.135
1757132.0,1569567407.174
1754033.0,1569567407.214
1751528.0,1569567407.256
1749919.0,1569567407.295
1749927.0,1569567407.335
1749573.0,1569567407.376
1748756.0,1569567407.415
1748737.0,1569567407.456
1749765.0,1569567407.496
1751559.0,1569567407.535
1753492.0,1569567407.575
1756387.0,1569567407.617
1758772.0,1569567407.656
1760813.0,1569567407.696
1764013.0,1569567407.737
1766666.0,1569567407.776
1767111.0,1569567407.816
1760729.0,1569567407.858
1753929.0,1569567407.896
1750123.0,1569567407.936
1747607.0,1569567407.977
1745563.0,1569567408.016
1745180.0,1569567408.057
1744575.0,1569567408.097
1743191.0,1569567408.134
1742796.0,1569567408.174
1742848.0,1569567408.215
1744179.0,1569567408.255
1746037.0,1569567408.294
1747971.0,1569567408.335
1749953.0,1569567408.374
1752150.0,1569567408.414
1754323.0,1569567408.456
1757232.0,1569567408.495
1759193.0,1569567408.535
1754391.0,1569567408.576
1747442.0,1569567408.609
1743852.0,1569567408.65
1742065.0,1569567408.691
1740589.0,1569567408.73
1740877.0,1569567408.77
1741418.0,1569567408.811
1740438.0,1569567408.851
1740259.0,1569567408.89
1741545.0,1569567408.931
1742935.0,1569567408.97
1746038.0,1569567409.01
1748521.0,1569567409.052
1751203.0,1569567409.09
1754091.0,1569567409.131
1757473.0,1569567409.172
1760615.0,1569567409.211
1762174.0,1569567409.251
1756770.0,1569567409.292
1750978.0,1569567409.332
1747974.0,1569567409.37
1746451.0,1569567409.408
1745846.0,1569567409.443
1746223.0,1569567409.477
1747013.0,1569567409.516
1746572.0,1569567409.555
1746740.0,1569567409.596
1748482.0,1569567409.638
1750810.0,1569567409.676
1753266.0,1569567409.716
1756561.0,1569567409.758
1759497.0,1569567409.796
1762438.0,1569567409.837
1765914.0,1569567409.877
1769472.0,1569567409.916
1769816.0,1569567409.957
1763254.0,1569567409.998
1757635.0,1569567410.037
1754738.0,1569567410.077
1752736.0,1569567410.118
1751474.0,1569567410.157
1751179.0,1569567410.197
1751604.0,1569567410.239
1751101.0,1569567410.277
1751432.0,1569567410.317
1752828.0,1569567410.358
1754888.0,1569567410.397
1757440.0,1569567410.438
1760054.0,1569567410.478
1763299.0,1569567410.518
1766108.0,1569567410.558
1769192.0,1569567410.599
1772562.0,1569567410.636
1774692.0,1569567410.676
1769695.0,1569567410.717
1763691.0,1569567410.756
1760572.0,1569567410.797
1758728.0,1569567410.839
1757156.0,1569567410.877
1757059.0,1569567410.918
1757517.0,1569567410.957
1757423.0,1569567410.996
1757468.0,1569567411.037
1758082.0,1569567411.078
1759913.0,1569567411.117
1762438.0,1569567411.146
1762438.0,1569567411.188
1764813.0,1569567411.227
1767496.0,1569567411.267
1770337.0,1569567411.308
1772830.0,1569567411.347
1775508.0,1569567411.387
1778671.0,1569567411.429
1780343.0,1569567411.467
1775142.0,1569567411.507
1769380.0,1569567411.548
1766447.0,1569567411.587
1764649.0,1569567411.628
1763757.0,1569567411.669
1763859.0,1569567411.708
1763907.0,1569567411.748
1763260.0,1569567411.789
1763114.0,1569567411.829
1764262.0,1569567411.869
1765625.0,1569567411.905
1767933.0,1569567411.944
1770338.0,1569567411.983
1772747.0,1569567412.022
1775271.0,1569567412.061
1777796.0,1569567412.1
1781016.0,1569567412.139
1783690.0,1569567412.178
1774871.0,1569567412.256
1772258.0,1569567412.295
1780592.0,1569567412.217
1771256.0,1569567412.334
1770715.0,1569567412.373
1771690.0,1569567412.412
1772698.0,1569567412.451
1773077.0,1569567412.529
1772777.0,1569567412.49
1774242.0,1569567412.568
1776710.0,1569567412.607
1779752.0,1569567412.646
1782386.0,1569567412.685
1785810.0,1569567412.724
1788688.0,1569567412.763
1795061.0,1569567412.841
1797593.0,1569567412.88
1791907.0,1569567412.802
1793061.0,1569567412.919
1787611.0,1569567412.958
1784827.0,1569567412.997
1783144.0,1569567413.036
1782390.0,1569567413.075
1783213.0,1569567413.153
1783006.0,1569567413.192
1782551.0,1569567413.114
1783409.0,1569567413.231
1784264.0,1569567413.27
1786556.0,1569567413.309
1788730.0,1569567413.348
1791328.0,1569567413.387
1794253.0,1569567413.426
1796992.0,1569567413.465
1800168.0,1569567413.504
1803201.0,1569567413.543
1806159.0,1569567413.582
1802100.0,1569567413.621
1796039.0,1569567413.66
1791987.0,1569567413.699
1789688.0,1569567413.738
1787754.0,1569567413.777
1787108.0,1569567413.816
1787436.0,1569567413.855
1786873.0,1569567413.894
1786475.0,1569567413.933
1787050.0,1569567413.972
1788307.0,1569567414.011
1790371.0,1569567414.05
1792559.0,1569567414.089
1794932.0,1569567414.128
1797531.0,1569567414.167
1802960.0,1569567414.245
1805806.0,1569567414.284
1805810.0,1569567414.323
1799170.0,1569567414.362
1787777.0,1569567414.479
1793259.0,1569567414.401
1789680.0,1569567414.44
1785595.0,1569567414.518
1800046.0,1569567414.206
1785499.0,1569567414.557
1783236.0,1569567414.635
1782530.0,1569567414.713
1783409.0,1569567414.752
1783236.0,1569567414.674
1784672.0,1569567414.596
1784113.0,1569567414.791
1786011.0,1569567414.83
1787571.0,1569567414.869
1789554.0,1569567414.908
1791448.0,1569567414.947
1793304.0,1569567414.986
1795776.0,1569567415.025
1796733.0,1569567415.064
1791853.0,1569567415.103
1784996.0,1569567415.142
1781475.0,1569567415.181
1779505.0,1569567415.22
1777576.0,1569567415.259
1777506.0,1569567415.298
1777285.0,1569567415.337
1776519.0,1569567415.376
1775871.0,1569567415.415
1776752.0,1569567415.454
1778123.0,1569567415.493
1780057.0,1569567415.532
1782555.0,1569567415.571
1784686.0,1569567415.61
1787440.0,1569567415.649
1789783.0,1569567415.688
1792936.0,1569567415.727
1794657.0,1569567415.766
1789274.0,1569567415.805
1783724.0,1569567415.844
1780547.0,1569567415.883
1779306.0,1569567415.922
1778041.0,1569567415.961
1778882.0,1569567416.0
1778871.0,1569567416.039
1778164.0,1569567416.078
1778033.0,1569567416.117
1779251.0,1569567416.156
1781211.0,1569567416.195
1783433.0,1569567416.234
1786024.0,1569567416.273
1789128.0,1569567416.312
1791883.0,1569567416.351
1794416.0,1569567416.39
1797474.0,1569567416.429
1799166.0,1569567416.468
1794172.0,1569567416.507
1787512.0,1569567416.546
1783749.0,1569567416.586
1781543.0,1569567416.626
1779597.0,1569567416.666
1779259.0,1569567416.706
1779065.0,1569567416.746
1778559.0,1569567416.786
1778222.0,1569567416.826
1778833.0,1569567416.866
1780404.0,1569567416.906
1782450.0,1569567416.946
1785092.0,1569567416.986
1787303.0,1569567417.026
1790182.0,1569567417.066
1792817.0,1569567417.106
1795596.0,1569567417.146
1798130.0,1569567417.186
1793628.0,1569567417.226
1787014.0,1569567417.266
1782981.0,1569567417.306
1780670.0,1569567417.346
1778753.0,1569567417.386
1778150.0,1569567417.426
1778328.0,1569567417.466
1777661.0,1569567417.506
1777114.0,1569567417.546
1777200.0,1569567417.586
1778523.0,1569567417.626
1780460.0,1569567417.666
1784661.0,1569567417.746
1787111.0,1569567417.786
1789435.0,1569567417.826
1791687.0,1569567417.866
1782606.0,1569567417.706
1792950.0,1569567417.946
1794545.0,1569567417.906
1786227.0,1569567417.986
1781391.0,1569567418.026
1777094.0,1569567418.106
1779192.0,1569567418.066
1776174.0,1569567418.146
1776461.0,1569567418.186
1775797.0,1569567418.226
1774951.0,1569567418.266
1774745.0,1569567418.306
1775455.0,1569567418.346
1776898.0,1569567418.386
1778755.0,1569567418.426
1780972.0,1569567418.466
1783135.0,1569567418.506
1785348.0,1569567418.546
1787785.0,1569567418.586
1787643.0,1569567418.666
1790259.0,1569567418.626
1781722.0,1569567418.706
1777915.0,1569567418.746
1776184.0,1569567418.786
1775249.0,1569567418.826
1775610.0,1569567418.866
1776000.0,1569567418.906
1776038.0,1569567418.946
1775878.0,1569567418.986
1776586.0,1569567419.026
1778296.0,1569567419.066
1780999.0,1569567419.106
1783567.0,1569567419.146
1786695.0,1569567419.186
1789199.0,1569567419.226
1792345.0,1569567419.266
1795653.0,1569567419.306
1797888.0,1569567419.346
1793894.0,1569567419.386
1788065.0,1569567419.426
1785356.0,1569567419.466
1783959.0,1569567419.506
1782674.0,1569567419.546
1782925.0,1569567419.586
1783419.0,1569567419.626
1783611.0,1569567419.666
1783551.0,1569567419.706
1784833.0,1569567419.746
1786517.0,1569567419.786
1788743.0,1569567419.826
1791740.0,1569567419.866
1794610.0,1569567419.906
1797140.0,1569567419.946
1800215.0,1569567419.986
1802972.0,1569567420.026
1804101.0,1569567420.066
1798096.0,1569567420.106
1792924.0,1569567420.146
1789502.0,1569567420.186
1787759.0,1569567420.226
1786074.0,1569567420.266
1786138.0,1569567420.306
1786072.0,1569567420.346
1785807.0,1569567420.386
1785378.0,1569567420.426
1786375.0,1569567420.466
1788330.0,1569567420.506
1790276.0,1569567420.546
1792541.0,1569567420.586
1794984.0,1569567420.626
1797399.0,1569567420.666
1800245.0,1569567420.706
1803031.0,1569567420.746
1803795.0,1569567420.786
1798503.0,1569567420.826
1792006.0,1569567420.866
1788147.0,1569567420.906
1786086.0,1569567420.946
1783992.0,1569567420.986
1783364.0,1569567421.026
1782764.0,1569567421.066
1781441.0,1569567421.106
1780340.0,1569567421.146
1781002.0,1569567421.186
1781617.0,1569567421.226
1783559.0,1569567421.266
1785106.0,1569567421.306
1787196.0,1569567421.346
1789353.0,1569567421.386
1791052.0,1569567421.426
1793493.0,1569567421.466
1795348.0,1569567421.506
1791453.0,1569567421.546
1784886.0,1569567421.586
1781043.0,1569567421.626
1779247.0,1569567421.666
1777820.0,1569567421.706
1777779.0,1569567421.746
1777706.0,1569567421.786
1777706.0,1569567421.826
1777496.0,1569567421.866
1777129.0,1569567421.906
1777715.0,1569567421.946
1779412.0,1569567421.986
1781669.0,1569567422.026
1783976.0,1569567422.066
1786521.0,1569567422.106
1788653.0,1569567422.146
1791528.0,1569567422.186
1794632.0,1569567422.226
1795875.0,1569567422.266
1790713.0,1569567422.306
1785118.0,1569567422.346
1782050.0,1569567422.386
1780700.0,1569567422.426
1779349.0,1569567422.466
1779498.0,1569567422.506
1779688.0,1569567422.546
1779353.0,1569567422.586
1779349.0,1569567422.626
1780317.0,1569567422.666
1782204.0,1569567422.706
1784847.0,1569567422.746
1787066.0,1569567422.786
1790014.0,1569567422.826
1792645.0,1569567422.866
1795240.0,1569567422.906
1798437.0,1569567422.946
1799025.0,1569567422.986
1793612.0,1569567423.026
1787721.0,1569567423.066
1784399.0,1569567423.106
1781968.0,1569567423.146
1780246.0,1569567423.186
1779926.0,1569567423.226
1779754.0,1569567423.266
1779194.0,1569567423.306
1779168.0,1569567423.346
1780168.0,1569567423.386
1781801.0,1569567423.426
1784459.0,1569567423.466
1786696.0,1569567423.506
1789220.0,1569567423.546
1791921.0,1569567423.586
1794698.0,1569567423.626
1797631.0,1569567423.666
1799212.0,1569567423.706
1794407.0,1569567423.746
1788323.0,1569567423.786
1784734.0,1569567423.824
1782335.0,1569567423.864
1780469.0,1569567423.906
1779803.0,1569567423.944
1779734.0,1569567423.984
1778708.0,1569567424.026
1778111.0,1569567424.065
1778552.0,1569567424.105
1779495.0,1569567424.146
1781149.0,1569567424.185
1783039.0,1569567424.225
1784987.0,1569567424.266
1786908.0,1569567424.306
1788904.0,1569567424.345
1791310.0,1569567424.386
1793652.0,1569567424.425
1792416.0,1569567424.466
1785846.0,1569567424.507
1780563.0,1569567424.546
1778172.0,1569567424.586
1775831.0,1569567424.627
1774840.0,1569567424.666
1774568.0,1569567424.707
1774032.0,1569567424.747
1773264.0,1569567424.786
1773396.0,1569567424.826
1774369.0,1569567424.867
1776023.0,1569567424.907
1778268.0,1569567424.947
1780792.0,1569567424.988
1783544.0,1569567425.027
1786376.0,1569567425.067
1786117.0,1569567425.267
1783885.0,1569567425.308
1783089.0,1569567425.348
1782618.0,1569567425.387
1792551.0,1569567425.147
1783756.0,1569567425.427
1794935.0,1569567425.187
1791131.0,1569567425.228
1789331.0,1569567425.109
1784660.0,1569567425.468
1785096.0,1569567425.508
1785563.0,1569567425.547
1787340.0,1569567425.589
1789600.0,1569567425.628
1791860.0,1569567425.668
1794901.0,1569567425.709
1797896.0,1569567425.748
1800848.0,1569567425.788
1804203.0,1569567425.829
1807260.0,1569567425.868
1809321.0,1569567425.909
1805872.0,1569567425.949
1801000.0,1569567425.988
1797867.0,1569567426.028
1796491.0,1569567426.069
1795294.0,1569567426.109
1796215.0,1569567426.189
1796355.0,1569567426.228
1796469.0,1569567426.269
1797825.0,1569567426.31
1799564.0,1569567426.349
1801825.0,1569567426.389
1804682.0,1569567426.43
1807611.0,1569567426.469
1795347.0,1569567426.148
1813526.0,1569567426.55
1810484.0,1569567426.51
1816493.0,1569567426.589
1819691.0,1569567426.629
1817089.0,1569567426.67
1811936.0,1569567426.71
1808339.0,1569567426.749
1806364.0,1569567426.79
1805303.0,1569567426.829
1805430.0,1569567426.911
1804770.0,1569567426.87
1805983.0,1569567426.95
1806105.0,1569567426.99
1806518.0,1569567427.031
1807973.0,1569567427.07
1810425.0,1569567427.111
1813265.0,1569567427.151
1815426.0,1569567427.19
1818396.0,1569567427.23
1821170.0,1569567427.271
1824340.0,1569567427.311
1827265.0,1569567427.35
1826921.0,1569567427.391
1821281.0,1569567427.43
1817061.0,1569567427.47
1814447.0,1569567427.512
1812812.0,1569567427.551
1812174.0,1569567427.591
1812058.0,1569567427.632
1811803.0,1569567427.671
1810929.0,1569567427.712
1810946.0,1569567427.752
1811872.0,1569567427.791
1813144.0,1569567427.831
1815148.0,1569567427.872
1816993.0,1569567427.912
1818825.0,1569567427.951
1821283.0,1569567427.992
1823390.0,1569567428.031
1826257.0,1569567428.071
1826573.0,1569567428.113
1821244.0,1569567428.152
1816495.0,1569567428.192
1814452.0,1569567428.233
1812689.0,1569567428.272
1812413.0,1569567428.312
1813101.0,1569567428.353
1812705.0,1569567428.392
1811997.0,1569567428.432
1812073.0,1569567428.473
1813061.0,1569567428.513
1814603.0,1569567428.552
1816770.0,1569567428.593
1819326.0,1569567428.632
1821380.0,1569567428.672
1823809.0,1569567428.714
1826176.0,1569567428.753
1828690.0,1569567428.793
1827151.0,1569567428.834
1821356.0,1569567428.873
1817693.0,1569567428.914
1816178.0,1569567428.954
1815186.0,1569567428.993
1815286.0,1569567429.033
1815339.0,1569567429.074
1815377.0,1569567429.114
1814723.0,1569567429.153
1815380.0,1569567429.194
1816879.0,1569567429.233
1818669.0,1569567429.273
1821271.0,1569567429.315
1823444.0,1569567429.353
1826284.0,1569567429.394
1828861.0,1569567429.435
1831608.0,1569567429.474
1833472.0,1569567429.514
1829691.0,1569567429.555
1824238.0,1569567429.594
1821159.0,1569567429.634
1818875.0,1569567429.675
1817329.0,1569567429.715
1817399.0,1569567429.754
1817480.0,1569567429.795
1816831.0,1569567429.834
1816721.0,1569567429.874
1817340.0,1569567429.916
1818925.0,1569567429.954
1820789.0,1569567429.995
1822943.0,1569567430.036
1825539.0,1569567430.075
1827911.0,1569567430.115
1830311.0,1569567430.156
1833394.0,1569567430.196
1836207.0,1569567430.236
1833660.0,1569567430.274
1827623.0,1569567430.312
1823550.0,1569567430.351
1821312.0,1569567430.393
1819533.0,1569567430.431
1818539.0,1569567430.462
1818808.0,1569567430.504
1818200.0,1569567430.542
1818282.0,1569567430.583
1818482.0,1569567430.624
1819845.0,1569567430.663
1821983.0,1569567430.703
1823902.0,1569567430.744
1826535.0,1569567430.783
1828993.0,1569567430.823
1831797.0,1569567430.864
1834462.0,1569567430.904
1837155.0,1569567430.943
1839810.0,1569567430.985
1837170.0,1569567431.024
1831407.0,1569567431.064
1828151.0,1569567431.105
1826339.0,1569567431.145
1824703.0,1569567431.181
1824622.0,1569567431.214
1824771.0,1569567431.251
1824647.0,1569567431.292
1824741.0,1569567431.332
1824923.0,1569567431.371
1826157.0,1569567431.412
1828402.0,1569567431.453
1830651.0,1569567431.493
1832953.0,1569567431.532
1835141.0,1569567431.573
1837366.0,1569567431.612
1839826.0,1569567431.654
1842857.0,1569567431.69
1845169.0,1569567431.728
1843544.0,1569567431.768
1838528.0,1569567431.809
1835159.0,1569567431.848
1833456.0,1569567431.889
1832158.0,1569567431.929
1832510.0,1569567431.968
1832393.0,1569567432.009
1832327.0,1569567432.05
1832182.0,1569567432.089
1832550.0,1569567432.129
1834009.0,1569567432.17
1835572.0,1569567432.209
1837498.0,1569567432.249
1839822.0,1569567432.291
1841891.0,1569567432.329
1844304.0,1569567432.37
1846713.0,1569567432.411
1849694.0,1569567432.451
1851945.0,1569567432.492
1849353.0,1569567432.533
1845228.0,1569567432.571
1843566.0,1569567432.611
1843091.0,1569567432.653
1843230.0,1569567432.693
1844234.0,1569567432.732
1844852.0,1569567432.773
1845334.0,1569567432.812
1845950.0,1569567432.852
1847389.0,1569567432.894
1849382.0,1569567432.927
1851910.0,1569567432.968
1854597.0,1569567433.009
1857510.0,1569567433.048
1860427.0,1569567433.089
1863117.0,1569567433.129
1866323.0,1569567433.168
1868975.0,1569567433.208
1866390.0,1569567433.249
1862757.0,1569567433.289
1860451.0,1569567433.328
1860178.0,1569567433.369
1859819.0,1569567433.408
1860238.0,1569567433.449
1861261.0,1569567433.49
1861748.0,1569567433.529
1862473.0,1569567433.569
1863296.0,1569567433.61
1865353.0,1569567433.649
1867396.0,1569567433.688
1870113.0,1569567433.726
1872809.0,1569567433.76
1875663.0,1569567433.801
1878003.0,1569567433.84
1881205.0,1569567433.873
1884075.0,1569567433.913
1882562.0,1569567433.955
1877997.0,1569567433.993
1874708.0,1569567434.034
1873824.0,1569567434.076
1872110.0,1569567434.114
1871808.0,1569567434.155
1872076.0,1569567434.195
1872268.0,1569567434.227
1872268.0,1569567434.268
1872255.0,1569567434.308
1872661.0,1569567434.347
1873965.0,1569567434.387
1875928.0,1569567434.429
1878178.0,1569567434.468
1880174.0,1569567434.508
1882788.0,1569567434.549
1885110.0,1569567434.588
1887685.0,1569567434.628
1890334.0,1569567434.67
1891857.0,1569567434.708
1888290.0,1569567434.748
1883727.0,1569567434.789
1881473.0,1569567434.828
1880104.0,1569567434.869
1878837.0,1569567434.909
1878700.0,1569567434.946
1878663.0,1569567434.983
1878053.0,1569567435.025
1877958.0,1569567435.055
1878096.0,1569567435.093
1879495.0,1569567435.134
1880603.0,1569567435.172
1882693.0,1569567435.213
1884111.0,1569567435.255
1885886.0,1569567435.293
1888063.0,1569567435.333
1890185.0,1569567435.374
1892171.0,1569567435.413
1892969.0,1569567435.454
1888023.0,1569567435.489
1883318.0,1569567435.528
1881101.0,1569567435.568
1879347.0,1569567435.609
1878336.0,1569567435.649
1878762.0,1569567435.688
1878165.0,1569567435.729
1877462.0,1569567435.818
1876779.0,1569567435.858
1877497.0,1569567435.9
1878799.0,1569567435.938
1880338.0,1569567435.978
1882007.0,1569567436.019
1883942.0,1569567436.059
1885723.0,1569567436.099
1888085.0,1569567436.14
1890595.0,1569567436.179
1891666.0,1569567436.219
1887446.0,1569567436.26
1882982.0,1569567436.3
1880778.0,1569567436.339
1879310.0,1569567436.38
1878351.0,1569567436.419
1878850.0,1569567436.459
1878868.0,1569567436.501
1878429.0,1569567436.54
1878586.0,1569567436.58
1879323.0,1569567436.621
1880883.0,1569567436.66
1883023.0,1569567436.701
1885083.0,1569567436.741
1886863.0,1569567436.78
1889154.0,1569567436.82
1891544.0,1569567436.861
1894048.0,1569567436.901
1894362.0,1569567436.94
1889241.0,1569567436.982
1884575.0,1569567437.021
1882311.0,1569567437.061
1880468.0,1569567437.103
1878519.0,1569567437.141
1878713.0,1569567437.181
1878241.0,1569567437.222
1877701.0,1569567437.261
1877001.0,1569567437.302
1877695.0,1569567437.342
1878889.0,1569567437.381
1880318.0,1569567437.42
1882511.0,1569567437.462
1884016.0,1569567437.501
1885998.0,1569567437.539
1887783.0,1569567437.58
1890013.0,1569567437.616
1891303.0,1569567437.657
1887513.0,1569567437.693
1882479.0,1569567437.732
1879292.0,1569567437.767
1876891.0,1569567437.806
1875210.0,1569567437.845
1874619.0,1569567437.886
1874162.0,1569567437.927
1873289.0,1569567437.965
1873289.0,1569567438.001
1873020.0,1569567438.042
1873352.0,1569567438.082
1874521.0,1569567438.121
1875735.0,1569567438.162
1877152.0,1569567438.201
1879365.0,1569567438.241
1881003.0,1569567438.283
1882864.0,1569567438.322
1885287.0,1569567438.362
1886699.0,1569567438.442
1887291.0,1569567438.403
1881736.0,1569567438.483
1877282.0,1569567438.523
1874808.0,1569567438.562
1873159.0,1569567438.602
1871590.0,1569567438.643
1871402.0,1569567438.684
1870648.0,1569567438.724
1869742.0,1569567438.765
1869252.0,1569567438.804
1869911.0,1569567438.845
1870817.0,1569567438.887
1871920.0,1569567438.925
1873176.0,1569567438.966
1874942.0,1569567439.007
1876083.0,1569567439.046
1877974.0,1569567439.087
1879719.0,1569567439.128
1881329.0,1569567439.167
1878037.0,1569567439.198
1873503.0,1569567439.239
1870468.0,1569567439.279
1868884.0,1569567439.319
1867297.0,1569567439.36
1867699.0,1569567439.399
1867548.0,1569567439.439
1866605.0,1569567439.481
1866263.0,1569567439.519
1866994.0,1569567439.559
1867986.0,1569567439.6
1869142.0,1569567439.639
1870856.0,1569567439.68
1872526.0,1569567439.72
1874469.0,1569567439.759
1877079.0,1569567439.799
1879149.0,1569567439.841
1881835.0,1569567439.88
1879832.0,1569567439.92
1875276.0,1569567439.959
1872531.0,1569567439.998
1871263.0,1569567440.035
1870874.0,1569567440.069
1870734.0,1569567440.105
1871154.0,1569567440.145
1871169.0,1569567440.187
1871088.0,1569567440.226
1872121.0,1569567440.267
1873788.0,1569567440.307
1875427.0,1569567440.346
1877808.0,1569567440.387
1879985.0,1569567440.429
1882340.0,1569567440.469
1884762.0,1569567440.508
1887407.0,1569567440.549
1890061.0,1569567440.588
1890690.0,1569567440.628
1886118.0,1569567440.67
1882162.0,1569567440.708
1879464.0,1569567440.748
1877716.0,1569567440.79
1876192.0,1569567440.829
1876489.0,1569567440.869
1876335.0,1569567440.91
1875486.0,1569567440.949
1875537.0,1569567440.989
1875955.0,1569567441.03
1877699.0,1569567441.07
1879068.0,1569567441.109
1881335.0,1569567441.149
1883336.0,1569567441.188
1885618.0,1569567441.225
1887553.0,1569567441.267
1889802.0,1569567441.306
1892963.0,1569567441.346
1894610.0,1569567441.387
1891415.0,1569567441.427
1886964.0,1569567441.468
1883708.0,1569567441.508
1881559.0,1569567441.547
1880356.0,1569567441.588
1879407.0,1569567441.627
1879455.0,1569567441.658
1879348.0,1569567441.698
1878883.0,1569567441.739
1879397.0,1569567441.778
1880109.0,1569567441.818
1881788.0,1569567441.86
1883651.0,1569567441.898
1885528.0,1569567441.938
1887767.0,1569567441.979
1889745.0,1569567442.018
1892175.0,1569567442.059
1894372.0,1569567442.1
1897208.0,1569567442.139
1897240.0,1569567442.179
1892743.0,1569567442.22
1888408.0,1569567442.259
1885986.0,1569567442.299
1884318.0,1569567442.34
1883084.0,1569567442.373
1882875.0,1569567442.409
1882959.0,1569567442.449
1882078.0,1569567442.487
1881793.0,1569567442.527
1881926.0,1569567442.569
1882976.0,1569567442.608
1884173.0,1569567442.649
1885510.0,1569567442.69
1887092.0,1569567442.729
1889239.0,1569567442.767
1890486.0,1569567442.809
1892426.0,1569567442.848
1894458.0,1569567442.888
1896703.0,1569567442.93
1896168.0,1569567442.968
1891572.0,1569567443.006
1886718.0,1569567443.047
1885066.0,1569567443.086
1883358.0,1569567443.126
1882349.0,1569567443.167
1882440.0,1569567443.206
1881380.0,1569567443.247
1880227.0,1569567443.287
1880135.0,1569567443.326
1880070.0,1569567443.366
1881151.0,1569567443.407
1882121.0,1569567443.447
1883814.0,1569567443.486
1885199.0,1569567443.527
1886929.0,1569567443.566
1888686.0,1569567443.606
1890572.0,1569567443.648
1892480.0,1569567443.687
1891129.0,1569567443.727
1886502.0,1569567443.769
1882864.0,1569567443.808
1881047.0,1569567443.849
1879493.0,1569567443.89
1879191.0,1569567443.929
1879655.0,1569567443.969
1879002.0,1569567444.011
1878575.0,1569567444.05
1879010.0,1569567444.088
1879861.0,1569567444.129
1881640.0,1569567444.168
1883020.0,1569567444.208
1883020.0,1569567444.242
1884854.0,1569567444.281
1886940.0,1569567444.321
1888931.0,1569567444.362
1891458.0,1569567444.401
1893701.0,1569567444.442
1895424.0,1569567444.482
1891689.0,1569567444.521
1886349.0,1569567444.561
1883248.0,1569567444.603
1881022.0,1569567444.642
1879297.0,1569567444.682
1878148.0,1569567444.723
1877753.0,1569567444.762
1877150.0,1569567444.802
1876474.0,1569567444.844
1876215.0,1569567444.882
1876989.0,1569567444.922
1878097.0,1569567444.963
1879949.0,1569567445.002
1881310.0,1569567445.043
1883137.0,1569567445.084
1884569.0,1569567445.123
1886727.0,1569567445.163
1889056.0,1569567445.204
1889572.0,1569567445.242
1884442.0,1569567445.277
1878377.0,1569567445.311
1875143.0,1569567445.347
1872701.0,1569567445.388
1870138.0,1569567445.43
1869175.0,1569567445.468
1868706.0,1569567445.508
1867626.0,1569567445.549
1866609.0,1569567445.588
1866216.0,1569567445.629
1867067.0,1569567445.669
1867947.0,1569567445.708
1869514.0,1569567445.748
1871135.0,1569567445.79
1872722.0,1569567445.829
1874512.0,1569567445.869
1876507.0,1569567445.91
1878748.0,1569567445.949
1879170.0,1569567445.989
1873492.0,1569567446.031
1868496.0,1569567446.069
1865066.0,1569567446.109
1863024.0,1569567446.15
1860701.0,1569567446.189
1860019.0,1569567446.23
1859805.0,1569567446.271
1858336.0,1569567446.308
1857357.0,1569567446.348
1857587.0,1569567446.39
1858055.0,1569567446.429
1859562.0,1569567446.469
1860654.0,1569567446.51
1862392.0,1569567446.549
1863690.0,1569567446.59
1865409.0,1569567446.63
1867029.0,1569567446.668
1869103.0,1569567446.709
1870388.0,1569567446.75
1865447.0,1569567446.784
1859746.0,1569567446.825
1856055.0,1569567446.865
1853777.0,1569567446.904
1852102.0,1569567446.944
1851225.0,1569567446.985
1850753.0,1569567447.025
1849094.0,1569567447.064
1848393.0,1569567447.106
1847997.0,1569567447.145
1848339.0,1569567447.185
1849061.0,1569567447.227
1850306.0,1569567447.265
1851715.0,1569567447.305
1853070.0,1569567447.346
1854204.0,1569567447.385
1856048.0,1569567447.426
1858089.0,1569567447.459
1858239.0,1569567447.498
1853376.0,1569567447.529
1847774.0,1569567447.571
1845153.0,1569567447.611
1843414.0,1569567447.65
1841968.0,1569567447.692
1842012.0,1569567447.731
1842012.0,1569567447.77
1841336.0,1569567447.809
1840112.0,1569567447.848
1839701.0,1569567447.887
1840243.0,1569567447.926
1840906.0,1569567447.965
1842881.0,1569567448.004
1844447.0,1569567448.043
1846189.0,1569567448.082
1847874.0,1569567448.121
1850142.0,1569567448.16
1852143.0,1569567448.199
1853510.0,1569567448.238
1849231.0,1569567448.277
1843912.0,1569567448.316
1840610.0,1569567448.355
1839087.0,1569567448.394
1838025.0,1569567448.433
1837566.0,1569567448.472
1837771.0,1569567448.511
1837142.0,1569567448.55
1836442.0,1569567448.589
1837220.0,1569567448.628
1838684.0,1569567448.667
1840504.0,1569567448.706
1842346.0,1569567448.745
1844757.0,1569567448.784
1849057.0,1569567448.862
1846829.0,1569567448.823
1851843.0,1569567448.901
1854125.0,1569567448.94
1850620.0,1569567448.979
1845105.0,1569567449.018
1841423.0,1569567449.057
1837289.0,1569567449.135
1835792.0,1569567449.174
1835874.0,1569567449.213
1835342.0,1569567449.252
1838946.0,1569567449.096
1834550.0,1569567449.291
1835798.0,1569567449.369
1837481.0,1569567449.408
1838756.0,1569567449.447
1834765.0,1569567449.33
1840726.0,1569567449.486
1842927.0,1569567449.525
1844898.0,1569567449.564
1847431.0,1569567449.603
1850188.0,1569567449.642
1851324.0,1569567449.681
1846527.0,1569567449.72
1841021.0,1569567449.759
1837532.0,1569567449.798
1835438.0,1569567449.837
1833233.0,1569567449.876
1831841.0,1569567449.993
1832685.0,1569567449.915
1832561.0,1569567449.954
