bvp,time
64.0,1677486426.0
-0.0,1677486426.015625
-0.0,1677486426.03125
-0.0,1677486426.046875
-0.0,1677486426.0625
-0.0,1677486426.078125
-0.0,1677486426.09375
-0.0,1677486426.109375
-0.0,1677486426.125
-0.0,1677486426.140625
-0.0,1677486426.15625
0.0,1677486426.171875
0.01,1677486426.1875
0.01,1677486426.203125
-0.0,1677486426.21875
-0.03,1677486426.234375
-0.05,1677486426.25
-0.05,1677486426.265625
0.0,1677486426.28125
0.13,1677486426.296875
0.36,1677486426.3125
0.66,1677486426.328125
1.01,1677486426.34375
1.37,1677486426.359375
1.72,1677486426.375
2.06,1677486426.390625
2.4,1677486426.40625
2.79,1677486426.421875
3.24,1677486426.4375
3.8,1677486426.453125
4.42,1677486426.46875
5.06,1677486426.484375
5.66,1677486426.5
6.2,1677486426.515625
6.68,1677486426.53125
7.15,1677486426.546875
7.68,1677486426.5625
8.31,1677486426.578125
9.14,1677486426.59375
10.09,1677486426.609375
11.04,1677486426.625
11.88,1677486426.640625
12.56,1677486426.65625
13.14,1677486426.671875
13.76,1677486426.6875
14.65,1677486426.703125
15.96,1677486426.71875
17.91,1677486426.734375
20.32,1677486426.75
22.9,1677486426.765625
25.38,1677486426.78125
27.58,1677486426.796875
29.57,1677486426.8125
31.68,1677486426.828125
34.32,1677486426.84375
37.81,1677486426.859375
42.54,1677486426.875
48.15,1677486426.890625
54.1,1677486426.90625
59.83,1677486426.921875
64.97,1677486426.9375
69.58,1677486426.953125
74.14,1677486426.96875
79.34,1677486426.984375
85.71,1677486427.0
93.76,1677486427.015625
103.0,1677486427.03125
112.62,1677486427.046875
121.73,1677486427.0625
129.77,1677486427.078125
136.75,1677486427.09375
143.3,1677486427.109375
150.75,1677486427.125
157.77,1677486427.140625
166.64,1677486427.15625
177.95,1677486427.171875
191.79,1677486427.1875
206.97,1677486427.203125
220.57,1677486427.21875
228.25,1677486427.234375
225.36,1677486427.25
208.53,1677486427.265625
176.87,1677486427.28125
132.76,1677486427.296875
80.05,1677486427.3125
23.07,1677486427.328125
-34.94,1677486427.34375
-92.44,1677486427.359375
-149.16,1677486427.375
-205.23,1677486427.390625
-260.37,1677486427.40625
-313.74,1677486427.421875
-363.87,1677486427.4375
-409.83,1677486427.453125
-450.91,1677486427.46875
-486.5,1677486427.484375
-515.74,1677486427.5
-537.23,1677486427.515625
-549.22,1677486427.53125
-549.96,1677486427.546875
-538.37,1677486427.5625
-514.21,1677486427.578125
-478.67,1677486427.59375
-433.88,1677486427.609375
-382.45,1677486427.625
-327.02,1677486427.640625
-269.84,1677486427.65625
-212.63,1677486427.671875
-156.66,1677486427.6875
-102.95,1677486427.703125
-52.37,1677486427.71875
-5.9,1677486427.734375
35.58,1677486427.75
71.43,1677486427.765625
101.35,1677486427.78125
125.5,1677486427.796875
144.38,1677486427.8125
158.69,1677486427.828125
169.15,1677486427.84375
176.37,1677486427.859375
180.75,1677486427.875
182.57,1677486427.890625
182.07,1677486427.90625
179.51,1677486427.921875
175.23,1677486427.9375
169.65,1677486427.953125
163.18,1677486427.96875
156.15,1677486427.984375
148.81,1677486428.0
141.3,1677486428.015625
133.69,1677486428.03125
126.02,1677486428.046875
118.33,1677486428.0625
110.69,1677486428.078125
103.16,1677486428.09375
95.8,1677486428.109375
88.68,1677486428.125
81.83,1677486428.140625
75.25,1677486428.15625
68.95,1677486428.171875
62.95,1677486428.1875
57.25,1677486428.203125
51.86,1677486428.21875
46.78,1677486428.234375
42.03,1677486428.25
37.59,1677486428.265625
33.45,1677486428.28125
29.61,1677486428.296875
26.07,1677486428.3125
22.81,1677486428.328125
19.83,1677486428.34375
17.11,1677486428.359375
14.67,1677486428.375
12.48,1677486428.390625
10.54,1677486428.40625
8.83,1677486428.421875
7.35,1677486428.4375
6.07,1677486428.453125
4.97,1677486428.46875
4.05,1677486428.484375
3.27,1677486428.5
2.62,1677486428.515625
2.09,1677486428.53125
1.65,1677486428.546875
1.3,1677486428.5625
1.01,1677486428.578125
0.79,1677486428.59375
0.61,1677486428.609375
0.48,1677486428.625
0.37,1677486428.640625
0.3,1677486428.65625
0.25,1677486428.671875
0.21,1677486428.6875
0.19,1677486428.703125
0.19,1677486428.71875
0.19,1677486428.734375
0.21,1677486428.75
0.23,1677486428.765625
0.26,1677486428.78125
0.3,1677486428.796875
0.34,1677486428.8125
0.38,1677486428.828125
0.42,1677486428.84375
0.47,1677486428.859375
0.51,1677486428.875
0.56,1677486428.890625
0.61,1677486428.90625
0.67,1677486428.921875
0.72,1677486428.9375
0.79,1677486428.953125
0.85,1677486428.96875
0.92,1677486428.984375
1.0,1677486429.0
1.09,1677486429.015625
1.19,1677486429.03125
1.3,1677486429.046875
1.42,1677486429.0625
1.56,1677486429.078125
1.71,1677486429.09375
1.89,1677486429.109375
2.08,1677486429.125
2.29,1677486429.140625
2.53,1677486429.15625
2.79,1677486429.171875
3.08,1677486429.1875
3.4,1677486429.203125
3.75,1677486429.21875
4.13,1677486429.234375
4.55,1677486429.25
5.0,1677486429.265625
5.49,1677486429.28125
6.02,1677486429.296875
6.58,1677486429.3125
7.19,1677486429.328125
7.84,1677486429.34375
8.54,1677486429.359375
9.28,1677486429.375
10.06,1677486429.390625
10.89,1677486429.40625
11.77,1677486429.421875
12.69,1677486429.4375
13.66,1677486429.453125
14.69,1677486429.46875
15.78,1677486429.484375
16.93,1677486429.5
18.15,1677486429.515625
19.41,1677486429.53125
20.71,1677486429.546875
21.96,1677486429.5625
23.13,1677486429.578125
24.12,1677486429.59375
24.8,1677486429.609375
25.06,1677486429.625
24.79,1677486429.640625
23.87,1677486429.65625
22.24,1677486429.671875
19.9,1677486429.6875
16.86,1677486429.703125
13.19,1677486429.71875
9.05,1677486429.734375
4.6,1677486429.75
0.06,1677486429.765625
-4.37,1677486429.78125
-8.46,1677486429.796875
-12.03,1677486429.8125
-14.94,1677486429.828125
-17.12,1677486429.84375
-18.53,1677486429.859375
-19.23,1677486429.875
-19.32,1677486429.890625
-18.91,1677486429.90625
-18.12,1677486429.921875
-17.03,1677486429.9375
-15.72,1677486429.953125
-14.25,1677486429.96875
-12.65,1677486429.984375
-10.98,1677486430.0
-9.27,1677486430.015625
-7.61,1677486430.03125
-6.04,1677486430.046875
-4.55,1677486430.0625
-3.11,1677486430.078125
-1.63,1677486430.09375
-0.05,1677486430.109375
1.66,1677486430.125
3.52,1677486430.140625
5.52,1677486430.15625
7.49,1677486430.171875
9.32,1677486430.1875
11.03,1677486430.203125
12.69,1677486430.21875
14.43,1677486430.234375
16.39,1677486430.25
18.64,1677486430.265625
21.16,1677486430.28125
23.91,1677486430.296875
26.49,1677486430.3125
28.68,1677486430.328125
30.5,1677486430.34375
32.11,1677486430.359375
33.84,1677486430.375
35.97,1677486430.390625
38.64,1677486430.40625
41.77,1677486430.421875
45.16,1677486430.4375
48.05,1677486430.453125
49.99,1677486430.46875
50.95,1677486430.484375
51.24,1677486430.5
51.42,1677486430.515625
51.98,1677486430.53125
53.15,1677486430.546875
54.74,1677486430.5625
56.36,1677486430.578125
56.75,1677486430.59375
55.14,1677486430.609375
51.29,1677486430.625
45.39,1677486430.640625
37.79,1677486430.65625
28.64,1677486430.671875
17.36,1677486430.6875
2.21,1677486430.703125
-14.59,1677486430.71875
-33.19,1677486430.734375
-54.23,1677486430.75
-78.47,1677486430.765625
-106.34,1677486430.78125
-137.36,1677486430.796875
-169.55,1677486430.8125
-199.26,1677486430.828125
-221.83,1677486430.84375
-232.87,1677486430.859375
-230.59,1677486430.875
-215.85,1677486430.890625
-192.13,1677486430.90625
-164.31,1677486430.921875
-136.98,1677486430.9375
-113.11,1677486430.953125
-93.62,1677486430.96875
-77.92,1677486430.984375
-64.87,1677486431.0
-54.09,1677486431.015625
-45.46,1677486431.03125
-38.98,1677486431.046875
-34.42,1677486431.0625
-31.25,1677486431.078125
-28.87,1677486431.09375
-26.86,1677486431.109375
-25.12,1677486431.125
-23.76,1677486431.140625
-23.31,1677486431.15625
-23.92,1677486431.171875
-25.45,1677486431.1875
-27.54,1677486431.203125
-29.94,1677486431.21875
-32.64,1677486431.234375
-36.08,1677486431.25
-40.88,1677486431.265625
-47.52,1677486431.28125
-55.97,1677486431.296875
-65.17,1677486431.3125
-72.99,1677486431.328125
-76.8,1677486431.34375
-74.3,1677486431.359375
-64.42,1677486431.375
-47.85,1677486431.390625
-26.76,1677486431.40625
-4.16,1677486431.421875
17.22,1677486431.4375
35.63,1677486431.453125
50.57,1677486431.46875
62.43,1677486431.484375
71.92,1677486431.5
79.48,1677486431.515625
85.18,1677486431.53125
88.87,1677486431.546875
90.48,1677486431.5625
90.3,1677486431.578125
88.97,1677486431.59375
87.23,1677486431.609375
85.69,1677486431.625
84.55,1677486431.640625
83.61,1677486431.65625
82.45,1677486431.671875
80.72,1677486431.6875
78.33,1677486431.703125
75.54,1677486431.71875
72.78,1677486431.734375
70.38,1677486431.75
68.33,1677486431.765625
66.25,1677486431.78125
63.51,1677486431.796875
59.52,1677486431.8125
54.06,1677486431.828125
47.33,1677486431.84375
39.93,1677486431.859375
32.62,1677486431.875
25.99,1677486431.890625
20.26,1677486431.90625
15.23,1677486431.921875
10.38,1677486431.9375
5.14,1677486431.953125
-0.93,1677486431.96875
-7.93,1677486431.984375
-15.63,1677486432.0
-23.54,1677486432.015625
-31.12,1677486432.03125
-37.96,1677486432.046875
-43.95,1677486432.0625
-49.34,1677486432.078125
-54.73,1677486432.09375
-60.99,1677486432.109375
-68.92,1677486432.125
-78.97,1677486432.140625
-90.88,1677486432.15625
-103.39,1677486432.171875
-114.36,1677486432.1875
-121.21,1677486432.203125
-121.61,1677486432.21875
-114.21,1677486432.234375
-99.17,1677486432.25
-78.17,1677486432.265625
-53.87,1677486432.28125
-29.12,1677486432.296875
-6.18,1677486432.3125
13.69,1677486432.328125
30.19,1677486432.34375
43.63,1677486432.359375
54.42,1677486432.375
62.83,1677486432.390625
68.96,1677486432.40625
72.89,1677486432.421875
74.9,1677486432.4375
75.5,1677486432.453125
75.36,1677486432.46875
75.12,1677486432.484375
75.2,1677486432.5
75.71,1677486432.515625
76.45,1677486432.53125
77.1,1677486432.546875
77.37,1677486432.5625
77.1,1677486432.578125
76.31,1677486432.59375
75.15,1677486432.609375
73.74,1677486432.625
72.1,1677486432.640625
70.08,1677486432.65625
67.35,1677486432.671875
63.65,1677486432.6875
58.82,1677486432.703125
52.98,1677486432.71875
46.52,1677486432.734375
39.98,1677486432.75
33.88,1677486432.765625
28.54,1677486432.78125
23.99,1677486432.796875
19.97,1677486432.8125
16.03,1677486432.828125
11.63,1677486432.84375
6.37,1677486432.859375
0.07,1677486432.875
-7.12,1677486432.890625
-14.79,1677486432.90625
-22.37,1677486432.921875
-29.37,1677486432.9375
-35.55,1677486432.953125
-41.02,1677486432.96875
-46.22,1677486432.984375
-51.82,1677486433.0
-58.54,1677486433.015625
-66.98,1677486433.03125
-77.33,1677486433.046875
-89.1,1677486433.0625
-100.96,1677486433.078125
-110.75,1677486433.09375
-115.94,1677486433.109375
-114.34,1677486433.125
-104.91,1677486433.140625
-88.26,1677486433.15625
-66.54,1677486433.171875
-42.72,1677486433.1875
-19.67,1677486433.203125
0.64,1677486433.21875
17.47,1677486433.234375
31.02,1677486433.25
41.93,1677486433.265625
50.73,1677486433.28125
57.62,1677486433.296875
62.62,1677486433.3125
65.78,1677486433.328125
67.33,1677486433.34375
67.8,1677486433.359375
67.78,1677486433.375
67.81,1677486433.390625
68.17,1677486433.40625
68.84,1677486433.421875
69.58,1677486433.4375
70.07,1677486433.453125
70.03,1677486433.46875
69.31,1677486433.484375
67.96,1677486433.5
66.1,1677486433.515625
63.83,1677486433.53125
61.17,1677486433.546875
58.01,1677486433.5625
54.18,1677486433.578125
49.6,1677486433.59375
44.29,1677486433.609375
38.45,1677486433.625
32.42,1677486433.640625
26.57,1677486433.65625
21.19,1677486433.671875
16.47,1677486433.6875
12.36,1677486433.703125
8.64,1677486433.71875
4.91,1677486433.734375
0.73,1677486433.75
-4.23,1677486433.765625
-10.04,1677486433.78125
-16.49,1677486433.796875
-23.16,1677486433.8125
-29.55,1677486433.828125
-35.36,1677486433.84375
-40.49,1677486433.859375
-45.16,1677486433.875
-49.8,1677486433.890625
-54.97,1677486433.90625
-61.31,1677486433.921875
-69.32,1677486433.9375
-79.13,1677486433.953125
-90.2,1677486433.96875
-101.09,1677486433.984375
-109.62,1677486434.0
-113.3,1677486434.015625
-110.19,1677486434.03125
-99.66,1677486434.046875
-82.71,1677486434.0625
-61.69,1677486434.078125
-39.57,1677486434.09375
-18.88,1677486434.109375
-1.13,1677486434.125
13.35,1677486434.140625
25.04,1677486434.15625
34.61,1677486434.171875
42.47,1677486434.1875
48.66,1677486434.203125
53.07,1677486434.21875
55.71,1677486434.234375
56.86,1677486434.25
57.13,1677486434.265625
57.17,1677486434.28125
57.49,1677486434.296875
58.26,1677486434.3125
59.31,1677486434.328125
60.29,1677486434.34375
60.82,1677486434.359375
60.66,1677486434.375
59.79,1677486434.390625
58.4,1677486434.40625
56.76,1677486434.421875
55.03,1677486434.4375
53.17,1677486434.453125
50.89,1677486434.46875
47.83,1677486434.484375
43.66,1677486434.5
38.35,1677486434.515625
32.22,1677486434.53125
25.93,1677486434.546875
20.13,1677486434.5625
15.26,1677486434.578125
11.31,1677486434.59375
7.79,1677486434.609375
3.97,1677486434.625
-0.8,1677486434.640625
-6.72,1677486434.65625
-13.48,1677486434.671875
-20.38,1677486434.6875
-26.69,1677486434.703125
-32.01,1677486434.71875
-36.45,1677486434.734375
-40.57,1677486434.75
-45.12,1677486434.765625
-50.79,1677486434.78125
-58.01,1677486434.796875
-66.89,1677486434.8125
-77.19,1677486434.828125
-88.22,1677486434.84375
-98.73,1677486434.859375
-106.88,1677486434.875
-110.56,1677486434.890625
-107.98,1677486434.90625
-98.36,1677486434.921875
-82.38,1677486434.9375
-62.06,1677486434.953125
-40.13,1677486434.96875
-19.21,1677486434.984375
-1.03,1677486435.0
13.78,1677486435.015625
25.44,1677486435.03125
34.53,1677486435.046875
41.57,1677486435.0625
46.75,1677486435.078125
50.13,1677486435.09375
51.82,1677486435.109375
52.16,1677486435.125
51.72,1677486435.140625
51.15,1677486435.15625
50.9,1677486435.171875
51.09,1677486435.1875
51.51,1677486435.203125
51.72,1677486435.21875
51.36,1677486435.234375
50.32,1677486435.25
48.84,1677486435.265625
47.3,1677486435.28125
46.08,1677486435.296875
45.23,1677486435.3125
44.4,1677486435.328125
42.95,1677486435.34375
40.29,1677486435.359375
36.13,1677486435.375
30.69,1677486435.390625
24.61,1677486435.40625
18.7,1677486435.421875
13.6,1677486435.4375
9.53,1677486435.453125
6.21,1677486435.46875
2.97,1677486435.484375
-0.91,1677486435.5
-5.99,1677486435.515625
-12.36,1677486435.53125
-19.62,1677486435.546875
-27.0,1677486435.5625
-33.68,1677486435.578125
-39.13,1677486435.59375
-43.3,1677486435.609375
-46.66,1677486435.625
-50.07,1677486435.640625
-54.48,1677486435.65625
-60.66,1677486435.671875
-69.0,1677486435.6875
-79.25,1677486435.703125
-90.4,1677486435.71875
-100.71,1677486435.734375
-107.94,1677486435.75
-109.88,1677486435.765625
-105.02,1677486435.78125
-93.15,1677486435.796875
-75.54,1677486435.8125
-54.5,1677486435.828125
-32.75,1677486435.84375
-12.54,1677486435.859375
4.76,1677486435.875
18.75,1677486435.890625
29.6,1677486435.90625
37.73,1677486435.921875
43.47,1677486435.9375
47.12,1677486435.953125
49.0,1677486435.96875
49.56,1677486435.984375
49.4,1677486436.0
49.08,1677486436.015625
48.98,1677486436.03125
49.23,1677486436.046875
49.65,1677486436.0625
50.0,1677486436.078125
50.02,1677486436.09375
49.66,1677486436.109375
49.05,1677486436.125
48.39,1677486436.140625
47.81,1677486436.15625
47.24,1677486436.171875
46.37,1677486436.1875
44.76,1677486436.203125
42.05,1677486436.21875
38.14,1677486436.234375
33.29,1677486436.25
27.99,1677486436.265625
22.8,1677486436.28125
18.07,1677486436.296875
13.8,1677486436.3125
9.65,1677486436.328125
5.12,1677486436.34375
-0.21,1677486436.359375
-6.4,1677486436.375
-13.14,1677486436.390625
-19.83,1677486436.40625
-25.86,1677486436.421875
-30.92,1677486436.4375
-35.16,1677486436.453125
-39.12,1677486436.46875
-43.61,1677486436.484375
-49.43,1677486436.5
-57.12,1677486436.515625
-66.66,1677486436.53125
-77.3,1677486436.546875
-87.44,1677486436.5625
-94.88,1677486436.578125
-97.39,1677486436.59375
-93.39,1677486436.609375
-82.59,1677486436.625
-66.21,1677486436.640625
-46.62,1677486436.65625
-26.57,1677486436.671875
-8.39,1677486436.6875
6.6,1677486436.703125
18.16,1677486436.71875
26.79,1677486436.734375
33.2,1677486436.75
37.93,1677486436.765625
41.22,1677486436.78125
43.15,1677486436.796875
43.76,1677486436.8125
43.34,1677486436.828125
42.35,1677486436.84375
41.37,1677486436.859375
40.87,1677486436.875
41.04,1677486436.890625
41.74,1677486436.90625
42.57,1677486436.921875
43.06,1677486436.9375
42.86,1677486436.953125
41.86,1677486436.96875
40.13,1677486436.984375
37.83,1677486437.0
35.08,1677486437.015625
31.89,1677486437.03125
28.2,1677486437.046875
23.97,1677486437.0625
19.26,1677486437.078125
14.17,1677486437.09375
8.79,1677486437.109375
3.17,1677486437.125
-2.73,1677486437.140625
-8.88,1677486437.15625
-15.15,1677486437.171875
-21.31,1677486437.1875
-27.07,1677486437.203125
-32.3,1677486437.21875
-37.09,1677486437.234375
-41.87,1677486437.25
-47.27,1677486437.265625
-53.93,1677486437.28125
-62.24,1677486437.296875
-72.0,1677486437.3125
-82.19,1677486437.328125
-91.0,1677486437.34375
-96.21,1677486437.359375
-95.77,1677486437.375
-88.56,1677486437.390625
-74.91,1677486437.40625
-56.56,1677486437.421875
-36.12,1677486437.4375
-16.26,1677486437.453125
1.11,1677486437.46875
15.13,1677486437.484375
25.99,1677486437.5
34.35,1677486437.515625
40.89,1677486437.53125
45.96,1677486437.546875
49.64,1677486437.5625
51.91,1677486437.578125
52.87,1677486437.59375
52.87,1677486437.609375
52.39,1677486437.625
51.91,1677486437.640625
51.69,1677486437.65625
51.71,1677486437.671875
51.76,1677486437.6875
51.56,1677486437.703125
50.91,1677486437.71875
49.74,1677486437.734375
48.07,1677486437.75
45.87,1677486437.765625
43.07,1677486437.78125
39.54,1677486437.796875
35.24,1677486437.8125
30.29,1677486437.828125
24.94,1677486437.84375
19.48,1677486437.859375
14.04,1677486437.875
8.59,1677486437.890625
2.88,1677486437.90625
-3.3,1677486437.921875
-10.04,1677486437.9375
-17.18,1677486437.953125
-24.36,1677486437.96875
-31.21,1677486437.984375
-37.46,1677486438.0
-43.16,1677486438.015625
-48.67,1677486438.03125
-54.63,1677486438.046875
-61.77,1677486438.0625
-70.66,1677486438.078125
-81.27,1677486438.09375
-92.74,1677486438.109375
-103.3,1677486438.125
-110.57,1677486438.140625
-112.22,1677486438.15625
-106.76,1677486438.171875
-94.08,1677486438.1875
-75.61,1677486438.203125
-53.82,1677486438.21875
-31.52,1677486438.234375
-10.99,1677486438.25
6.44,1677486438.265625
20.5,1677486438.28125
31.62,1677486438.296875
40.49,1677486438.3125
47.66,1677486438.328125
53.42,1677486438.34375
57.83,1677486438.359375
60.88,1677486438.375
62.72,1677486438.390625
63.68,1677486438.40625
64.18,1677486438.421875
64.56,1677486438.4375
64.93,1677486438.453125
65.13,1677486438.46875
64.91,1677486438.484375
64.09,1677486438.5
62.72,1677486438.515625
61.12,1677486438.53125
59.63,1677486438.546875
58.42,1677486438.5625
57.29,1677486438.578125
55.76,1677486438.59375
53.23,1677486438.609375
49.27,1677486438.625
43.87,1677486438.640625
37.44,1677486438.65625
30.69,1677486438.671875
24.33,1677486438.6875
18.84,1677486438.703125
14.25,1677486438.71875
10.14,1677486438.734375
5.83,1677486438.75
0.63,1677486438.765625
-5.8,1677486438.78125
-13.35,1677486438.796875
-21.43,1677486438.8125
-29.3,1677486438.828125
-36.32,1677486438.84375
-42.24,1677486438.859375
-47.31,1677486438.875
-52.18,1677486438.890625
-57.74,1677486438.90625
-64.78,1677486438.921875
-73.83,1677486438.9375
-84.83,1677486438.953125
-96.92,1677486438.96875
-108.34,1677486438.984375
-116.77,1677486439.0
-119.83,1677486439.015625
-115.88,1677486439.03125
-104.56,1677486439.046875
-87.06,1677486439.0625
-65.74,1677486439.078125
-43.37,1677486439.09375
-22.33,1677486439.109375
-4.02,1677486439.125
11.18,1677486439.140625
23.67,1677486439.15625
34.03,1677486439.171875
42.73,1677486439.1875
49.93,1677486439.203125
55.59,1677486439.21875
59.69,1677486439.234375
62.37,1677486439.25
63.97,1677486439.265625
64.9,1677486439.28125
65.5,1677486439.296875
65.95,1677486439.3125
66.22,1677486439.328125
66.21,1677486439.34375
65.87,1677486439.359375
65.23,1677486439.375
64.44,1677486439.390625
63.59,1677486439.40625
62.7,1677486439.421875
61.6,1677486439.4375
60.08,1677486439.453125
57.98,1677486439.46875
55.22,1677486439.484375
51.86,1677486439.5
47.96,1677486439.515625
43.57,1677486439.53125
38.73,1677486439.546875
33.5,1677486439.5625
28.05,1677486439.578125
22.61,1677486439.59375
17.43,1677486439.609375
12.63,1677486439.625
8.09,1677486439.640625
3.52,1677486439.65625
-1.47,1677486439.671875
-7.13,1677486439.6875
-13.49,1677486439.703125
-20.28,1677486439.71875
-27.06,1677486439.734375
-33.43,1677486439.75
-39.18,1677486439.765625
-44.41,1677486439.78125
-49.49,1677486439.796875
-54.92,1677486439.8125
-61.27,1677486439.828125
-69.03,1677486439.84375
-78.49,1677486439.859375
-89.52,1677486439.875
-101.25,1677486439.890625
-111.97,1677486439.90625
-119.32,1677486439.921875
-120.89,1677486439.9375
-115.12,1677486439.953125
-101.92,1677486439.96875
-82.87,1677486439.984375
-60.77,1677486440.0
-38.64,1677486440.015625
-18.79,1677486440.03125
-2.26,1677486440.046875
11.06,1677486440.0625
21.94,1677486440.078125
31.17,1677486440.09375
39.18,1677486440.109375
46.03,1677486440.125
51.62,1677486440.140625
55.93,1677486440.15625
59.09,1677486440.171875
61.36,1677486440.1875
62.98,1677486440.203125
64.1,1677486440.21875
64.8,1677486440.234375
65.1,1677486440.25
65.05,1677486440.265625
64.77,1677486440.28125
64.36,1677486440.296875
63.9,1677486440.3125
63.34,1677486440.328125
62.59,1677486440.34375
61.47,1677486440.359375
59.79,1677486440.375
57.41,1677486440.390625
54.25,1677486440.40625
50.33,1677486440.421875
45.77,1677486440.4375
40.79,1677486440.453125
35.62,1677486440.46875
30.51,1677486440.484375
25.64,1677486440.5
21.13,1677486440.515625
16.97,1677486440.53125
13.05,1677486440.546875
9.17,1677486440.5625
5.06,1677486440.578125
0.46,1677486440.59375
-4.72,1677486440.609375
-10.43,1677486440.625
-16.48,1677486440.640625
-22.61,1677486440.65625
-28.59,1677486440.671875
-34.27,1677486440.6875
-39.66,1677486440.703125
-44.86,1677486440.71875
-50.15,1677486440.734375
-55.9,1677486440.75
-62.68,1677486440.765625
-70.98,1677486440.78125
-80.94,1677486440.796875
-91.96,1677486440.8125
-102.49,1677486440.828125
-110.23,1677486440.84375
-112.74,1677486440.859375
-108.33,1677486440.875
-96.71,1677486440.890625
-79.26,1677486440.90625
-58.54,1677486440.921875
-37.4,1677486440.9375
-18.15,1677486440.953125
-1.99,1677486440.96875
10.98,1677486440.984375
21.28,1677486441.0
29.6,1677486441.015625
36.35,1677486441.03125
41.69,1677486441.046875
45.64,1677486441.0625
48.3,1677486441.078125
50.0,1677486441.09375
51.13,1677486441.109375
52.13,1677486441.125
53.21,1677486441.140625
54.37,1677486441.15625
55.41,1677486441.171875
56.06,1677486441.1875
56.11,1677486441.203125
55.54,1677486441.21875
54.44,1677486441.234375
53.06,1677486441.25
51.59,1677486441.265625
50.11,1677486441.28125
48.51,1677486441.296875
46.5,1677486441.3125
43.71,1677486441.328125
39.9,1677486441.34375
35.05,1677486441.359375
29.49,1677486441.375
23.75,1677486441.390625
18.46,1677486441.40625
14.0,1677486441.421875
10.4,1677486441.4375
7.24,1677486441.453125
3.91,1677486441.46875
-0.18,1677486441.484375
-5.29,1677486441.5
-11.28,1677486441.515625
-17.64,1677486441.53125
-23.75,1677486441.546875
-29.11,1677486441.5625
-33.6,1677486441.578125
-37.46,1677486441.59375
-41.18,1677486441.609375
-45.35,1677486441.625
-50.51,1677486441.640625
-57.03,1677486441.65625
-64.98,1677486441.671875
-73.98,1677486441.6875
-82.96,1677486441.703125
-90.24,1677486441.71875
-93.76,1677486441.734375
-91.71,1677486441.75
-83.29,1677486441.765625
-69.06,1677486441.78125
-50.91,1677486441.796875
-31.4,1677486441.8125
-12.91,1677486441.828125
3.06,1677486441.84375
16.08,1677486441.859375
26.4,1677486441.875
34.5,1677486441.890625
40.64,1677486441.90625
44.79,1677486441.921875
47.0,1677486441.9375
47.63,1677486441.953125
47.46,1677486441.96875
47.48,1677486441.984375
48.42,1677486442.0
50.5,1677486442.015625
53.24,1677486442.03125
55.81,1677486442.046875
57.38,1677486442.0625
57.67,1677486442.078125
56.96,1677486442.09375
56.04,1677486442.109375
55.68,1677486442.125
56.22,1677486442.140625
57.29,1677486442.15625
57.96,1677486442.171875
57.06,1677486442.1875
53.73,1677486442.203125
47.67,1677486442.21875
39.31,1677486442.234375
29.72,1677486442.25
20.44,1677486442.265625
13.28,1677486442.28125
9.99,1677486442.296875
11.9,1677486442.3125
19.47,1677486442.328125
31.97,1677486442.34375
47.5,1677486442.359375
63.39,1677486442.375
76.87,1677486442.390625
85.77,1677486442.40625
88.91,1677486442.421875
86.1,1677486442.4375
77.8,1677486442.453125
64.74,1677486442.46875
47.68,1677486442.484375
27.63,1677486442.5
6.05,1677486442.515625
-14.96,1677486442.53125
-32.82,1677486442.546875
-45.15,1677486442.5625
-50.51,1677486442.578125
-48.96,1677486442.59375
-42.08,1677486442.609375
-32.47,1677486442.625
-22.92,1677486442.640625
-15.63,1677486442.65625
-11.67,1677486442.671875
-11.0,1677486442.6875
-12.78,1677486442.703125
-15.77,1677486442.71875
-18.86,1677486442.734375
-21.22,1677486442.75
-22.49,1677486442.765625
-22.71,1677486442.78125
-22.13,1677486442.796875
-21.09,1677486442.8125
-19.81,1677486442.828125
-18.39,1677486442.84375
-16.82,1677486442.859375
-15.16,1677486442.875
-13.62,1677486442.890625
-12.49,1677486442.90625
-12.0,1677486442.921875
-12.22,1677486442.9375
-12.96,1677486442.953125
-13.81,1677486442.96875
-14.3,1677486442.984375
-13.98,1677486443.0
-12.68,1677486443.015625
-10.69,1677486443.03125
-8.79,1677486443.046875
-8.22,1677486443.0625
-10.21,1677486443.078125
-15.56,1677486443.09375
-24.15,1677486443.109375
-34.89,1677486443.125
-46.04,1677486443.140625
-55.86,1677486443.15625
-63.25,1677486443.171875
-67.95,1677486443.1875
-70.42,1677486443.203125
-71.46,1677486443.21875
-71.94,1677486443.234375
-72.67,1677486443.25
-74.51,1677486443.265625
-78.21,1677486443.28125
-83.84,1677486443.296875
-90.23,1677486443.3125
-94.9,1677486443.328125
-94.7,1677486443.34375
-87.17,1677486443.359375
-71.87,1677486443.375
-50.76,1677486443.390625
-27.64,1677486443.40625
-6.4,1677486443.421875
10.56,1677486443.4375
23.21,1677486443.453125
33.36,1677486443.46875
43.38,1677486443.484375
54.7,1677486443.5
67.2,1677486443.515625
79.47,1677486443.53125
89.86,1677486443.546875
97.49,1677486443.5625
102.74,1677486443.578125
107.02,1677486443.59375
112.04,1677486443.609375
119.05,1677486443.625
128.16,1677486443.640625
138.03,1677486443.65625
146.07,1677486443.671875
148.76,1677486443.6875
142.17,1677486443.703125
122.69,1677486443.71875
87.98,1677486443.734375
38.16,1677486443.75
-23.17,1677486443.765625
-88.67,1677486443.78125
-148.48,1677486443.796875
-192.68,1677486443.8125
-214.46,1677486443.828125
-212.48,1677486443.84375
-191.31,1677486443.859375
-159.56,1677486443.875
-126.59,1677486443.890625
-99.35,1677486443.90625
-80.76,1677486443.921875
-70.16,1677486443.9375
-65.13,1677486443.953125
-63.37,1677486443.96875
-63.62,1677486443.984375
-65.38,1677486444.0
-68.06,1677486444.015625
-70.54,1677486444.03125
-71.48,1677486444.046875
-70.13,1677486444.0625
-67.12,1677486444.078125
-64.43,1677486444.09375
-64.58,1677486444.109375
-69.25,1677486444.125
-78.25,1677486444.140625
-89.2,1677486444.15625
-98.28,1677486444.171875
-101.57,1677486444.1875
-96.59,1677486444.203125
-83.17,1677486444.21875
-63.44,1677486444.234375
-40.88,1677486444.25
-19.07,1677486444.265625
-0.53,1677486444.28125
13.73,1677486444.296875
23.98,1677486444.3125
31.21,1677486444.328125
36.45,1677486444.34375
40.41,1677486444.359375
43.48,1677486444.375
45.85,1677486444.390625
47.64,1677486444.40625
48.93,1677486444.421875
49.76,1677486444.4375
50.06,1677486444.453125
49.66,1677486444.46875
48.28,1677486444.484375
45.51,1677486444.5
41.05,1677486444.515625
34.89,1677486444.53125
27.64,1677486444.546875
20.65,1677486444.5625
15.7,1677486444.578125
14.37,1677486444.59375
17.28,1677486444.609375
23.62,1677486444.625
31.33,1677486444.640625
37.82,1677486444.65625
40.97,1677486444.671875
39.9,1677486444.6875
35.1,1677486444.703125
28.0,1677486444.71875
20.23,1677486444.734375
12.96,1677486444.75
6.68,1677486444.765625
1.3,1677486444.78125
-3.38,1677486444.796875
-7.54,1677486444.8125
-11.19,1677486444.828125
-14.41,1677486444.84375
-17.54,1677486444.859375
-21.39,1677486444.875
-26.99,1677486444.890625
-35.23,1677486444.90625
-46.33,1677486444.921875
-59.41,1677486444.9375
-72.47,1677486444.953125
-82.75,1677486444.96875
-87.54,1677486444.984375
-84.99,1677486445.0
-74.64,1677486445.015625
-57.6,1677486445.03125
-36.12,1677486445.046875
-12.99,1677486445.0625
9.19,1677486445.078125
28.48,1677486445.09375
43.85,1677486445.109375
55.1,1677486445.125
62.65,1677486445.140625
67.27,1677486445.15625
69.77,1677486445.171875
70.93,1677486445.1875
71.37,1677486445.203125
71.55,1677486445.21875
71.79,1677486445.234375
72.34,1677486445.25
73.3,1677486445.265625
74.65,1677486445.28125
76.11,1677486445.296875
77.26,1677486445.3125
77.6,1677486445.328125
76.67,1677486445.34375
74.23,1677486445.359375
70.24,1677486445.375
64.86,1677486445.390625
58.4,1677486445.40625
51.18,1677486445.421875
43.5,1677486445.4375
35.64,1677486445.453125
27.78,1677486445.46875
20.0,1677486445.484375
12.29,1677486445.5
4.59,1677486445.515625
-3.13,1677486445.53125
-10.75,1677486445.546875
-18.02,1677486445.5625
-24.61,1677486445.578125
-30.22,1677486445.59375
-34.74,1677486445.609375
-38.34,1677486445.625
-41.45,1677486445.640625
-44.72,1677486445.65625
-48.84,1677486445.671875
-54.45,1677486445.6875
-61.87,1677486445.703125
-70.91,1677486445.71875
-80.62,1677486445.734375
-89.3,1677486445.75
-94.78,1677486445.765625
-94.99,1677486445.78125
-88.66,1677486445.796875
-75.83,1677486445.8125
-57.95,1677486445.828125
-37.43,1677486445.84375
-16.88,1677486445.859375
1.71,1677486445.875
17.32,1677486445.890625
29.87,1677486445.90625
39.72,1677486445.921875
47.13,1677486445.9375
52.04,1677486445.953125
54.12,1677486445.96875
53.17,1677486445.984375
49.46,1677486446.0
43.82,1677486446.015625
37.37,1677486446.03125
31.04,1677486446.046875
25.28,1677486446.0625
19.96,1677486446.078125
14.69,1677486446.09375
9.27,1677486446.109375
3.91,1677486446.125
-0.86,1677486446.140625
-4.51,1677486446.15625
-7.02,1677486446.171875
-8.98,1677486446.1875
-11.48,1677486446.203125
-15.56,1677486446.21875
-21.74,1677486446.234375
-29.72,1677486446.25
-38.54,1677486446.265625
-47.01,1677486446.28125
-54.24,1677486446.296875
-59.94,1677486446.3125
-64.43,1677486446.328125
-68.46,1677486446.34375
-72.88,1677486446.359375
-78.45,1677486446.375
-85.68,1677486446.390625
-94.71,1677486446.40625
-105.22,1677486446.421875
-116.28,1677486446.4375
-126.28,1677486446.453125
-133.2,1677486446.46875
-135.05,1677486446.484375
-130.5,1677486446.5
-119.41,1677486446.515625
-102.9,1677486446.53125
-83.02,1677486446.546875
-62.11,1677486446.5625
-42.05,1677486446.578125
-23.96,1677486446.59375
-8.16,1677486446.609375
5.49,1677486446.625
17.18,1677486446.640625
26.91,1677486446.65625
34.57,1677486446.671875
40.06,1677486446.6875
43.55,1677486446.703125
45.45,1677486446.71875
46.34,1677486446.734375
46.76,1677486446.75
47.08,1677486446.765625
47.5,1677486446.78125
48.09,1677486446.796875
48.85,1677486446.8125
49.66,1677486446.828125
50.27,1677486446.84375
50.32,1677486446.859375
49.46,1677486446.875
47.43,1677486446.890625
44.32,1677486446.90625
40.44,1677486446.921875
36.25,1677486446.9375
32.1,1677486446.953125
28.15,1677486446.96875
24.22,1677486446.984375
19.98,1677486447.0
14.92,1677486447.015625
8.57,1677486447.03125
0.57,1677486447.046875
-9.12,1677486447.0625
-19.97,1677486447.078125
-30.7,1677486447.09375
-39.37,1677486447.109375
-43.82,1677486447.125
-42.39,1677486447.140625
-34.58,1677486447.15625
-21.43,1677486447.171875
-5.22,1677486447.1875
11.33,1677486447.203125
25.95,1677486447.21875
37.44,1677486447.234375
45.81,1677486447.25
51.71,1677486447.265625
55.87,1677486447.28125
58.5,1677486447.296875
59.39,1677486447.3125
58.19,1677486447.328125
54.9,1677486447.34375
50.08,1677486447.359375
44.69,1677486447.375
39.75,1677486447.390625
35.92,1677486447.40625
33.32,1677486447.421875
31.6,1677486447.4375
30.16,1677486447.453125
28.38,1677486447.46875
25.79,1677486447.484375
22.13,1677486447.5
17.35,1677486447.515625
11.61,1677486447.53125
5.18,1677486447.546875
-1.58,1677486447.5625
-8.36,1677486447.578125
-14.95,1677486447.59375
-21.34,1677486447.609375
-27.7,1677486447.625
-34.34,1677486447.640625
-41.73,1677486447.65625
-50.31,1677486447.671875
-60.33,1677486447.6875
-71.48,1677486447.703125
-82.63,1677486447.71875
-91.83,1677486447.734375
-96.69,1677486447.75
-95.21,1677486447.765625
-86.49,1677486447.78125
-71.18,1677486447.796875
-51.31,1677486447.8125
-29.6,1677486447.828125
-8.59,1677486447.84375
10.03,1677486447.859375
25.57,1677486447.875
38.16,1677486447.890625
48.32,1677486447.90625
56.51,1677486447.921875
63.02,1677486447.9375
67.96,1677486447.953125
71.38,1677486447.96875
73.37,1677486447.984375
74.09,1677486448.0
73.68,1677486448.015625
72.32,1677486448.03125
70.15,1677486448.046875
67.33,1677486448.0625
64.09,1677486448.078125
60.69,1677486448.09375
57.34,1677486448.109375
54.11,1677486448.125
50.82,1677486448.140625
47.06,1677486448.15625
42.4,1677486448.171875
36.52,1677486448.1875
29.49,1677486448.203125
21.76,1677486448.21875
13.96,1677486448.234375
6.61,1677486448.25
-0.16,1677486448.265625
-6.64,1677486448.28125
-13.44,1677486448.296875
-21.29,1677486448.3125
-30.73,1677486448.328125
-41.97,1677486448.34375
-54.66,1677486448.359375
-67.71,1677486448.375
-79.28,1677486448.390625
-86.99,1677486448.40625
-88.61,1677486448.421875
-82.79,1677486448.4375
-69.71,1677486448.453125
-51.15,1677486448.46875
-29.94,1677486448.484375
-8.98,1677486448.5
9.7,1677486448.515625
25.34,1677486448.53125
38.28,1677486448.546875
49.36,1677486448.5625
59.3,1677486448.578125
68.34,1677486448.59375
76.29,1677486448.609375
82.71,1677486448.625
87.2,1677486448.640625
89.59,1677486448.65625
89.98,1677486448.671875
88.79,1677486448.6875
86.57,1677486448.703125
83.9,1677486448.71875
81.25,1677486448.734375
78.79,1677486448.75
76.45,1677486448.765625
74.04,1677486448.78125
71.38,1677486448.796875
68.36,1677486448.8125
64.96,1677486448.828125
61.17,1677486448.84375
56.85,1677486448.859375
51.83,1677486448.875
45.98,1677486448.890625
39.32,1677486448.90625
32.08,1677486448.921875
24.57,1677486448.9375
17.11,1677486448.953125
9.86,1677486448.96875
2.87,1677486448.984375
-3.9,1677486449.0
-10.42,1677486449.015625
-16.65,1677486449.03125
-22.52,1677486449.046875
-28.07,1677486449.0625
-33.53,1677486449.078125
-39.38,1677486449.09375
-46.2,1677486449.109375
-54.49,1677486449.125
-64.17,1677486449.140625
-74.45,1677486449.15625
-83.62,1677486449.171875
-89.52,1677486449.1875
-90.16,1677486449.203125
-84.49,1677486449.21875
-72.88,1677486449.234375
-57.07,1677486449.25
-39.59,1677486449.265625
-22.89,1677486449.28125
-8.67,1677486449.296875
2.34,1677486449.3125
10.18,1677486449.328125
15.15,1677486449.34375
17.51,1677486449.359375
17.45,1677486449.375
15.42,1677486449.390625
12.2,1677486449.40625
9.03,1677486449.421875
7.29,1677486449.4375
8.0,1677486449.453125
11.64,1677486449.46875
17.97,1677486449.484375
26.26,1677486449.5
35.61,1677486449.515625
45.1,1677486449.53125
53.94,1677486449.546875
61.44,1677486449.5625
67.1,1677486449.578125
70.7,1677486449.59375
72.45,1677486449.609375
72.86,1677486449.625
72.57,1677486449.640625
71.98,1677486449.65625
71.09,1677486449.671875
69.6,1677486449.6875
67.15,1677486449.703125
63.65,1677486449.71875
59.33,1677486449.734375
54.69,1677486449.75
50.17,1677486449.765625
45.92,1677486449.78125
41.79,1677486449.796875
37.46,1677486449.8125
32.7,1677486449.828125
27.46,1677486449.84375
21.91,1677486449.859375
16.32,1677486449.875
10.98,1677486449.890625
6.08,1677486449.90625
1.73,1677486449.921875
-2.18,1677486449.9375
-6.0,1677486449.953125
-10.23,1677486449.96875
-15.4,1677486449.984375
-21.75,1677486450.0
-29.05,1677486450.015625
-36.5,1677486450.03125
-42.89,1677486450.046875
-46.98,1677486450.0625
-47.77,1677486450.078125
-44.78,1677486450.09375
-38.07,1677486450.109375
-28.12,1677486450.125
-15.68,1677486450.140625
-1.62,1677486450.15625
13.08,1677486450.171875
27.41,1677486450.1875
40.38,1677486450.203125
51.1,1677486450.21875
58.92,1677486450.234375
63.48,1677486450.25
64.67,1677486450.265625
62.7,1677486450.28125
57.97,1677486450.296875
51.14,1677486450.3125
43.07,1677486450.328125
34.78,1677486450.34375
27.31,1677486450.359375
21.54,1677486450.375
17.92,1677486450.390625
16.43,1677486450.40625
16.58,1677486450.421875
17.58,1677486450.4375
18.62,1677486450.453125
19.09,1677486450.46875
18.8,1677486450.484375
17.97,1677486450.5
17.0,1677486450.515625
16.27,1677486450.53125
15.89,1677486450.546875
15.59,1677486450.5625
14.9,1677486450.578125
13.37,1677486450.59375
10.75,1677486450.609375
7.13,1677486450.625
2.77,1677486450.640625
-2.03,1677486450.65625
-7.13,1677486450.671875
-12.48,1677486450.6875
-18.08,1677486450.703125
-23.77,1677486450.71875
-29.29,1677486450.734375
-34.34,1677486450.75
-38.72,1677486450.765625
-42.49,1677486450.78125
-45.86,1677486450.796875
-49.16,1677486450.8125
-52.64,1677486450.828125
-56.42,1677486450.84375
-60.51,1677486450.859375
-64.8,1677486450.875
-69.0,1677486450.890625
-72.56,1677486450.90625
-74.71,1677486450.921875
-74.52,1677486450.9375
-71.18,1677486450.953125
-64.35,1677486450.96875
-54.34,1677486450.984375
-42.15,1677486451.0
-29.12,1677486451.015625
-16.6,1677486451.03125
-5.55,1677486451.046875
3.62,1677486451.0625
11.02,1677486451.078125
17.03,1677486451.09375
22.04,1677486451.109375
26.27,1677486451.125
29.74,1677486451.140625
32.28,1677486451.15625
33.69,1677486451.171875
33.84,1677486451.1875
32.72,1677486451.203125
30.41,1677486451.21875
27.07,1677486451.234375
22.9,1677486451.25
18.18,1677486451.265625
13.24,1677486451.28125
8.42,1677486451.296875
3.94,1677486451.3125
-0.18,1677486451.328125
-4.17,1677486451.34375
-8.35,1677486451.359375
-12.99,1677486451.375
-18.08,1677486451.390625
-23.36,1677486451.40625
-28.46,1677486451.421875
-33.04,1677486451.4375
-37.04,1677486451.453125
-40.6,1677486451.46875
-43.99,1677486451.484375
-47.45,1677486451.5
-51.05,1677486451.515625
-54.76,1677486451.53125
-58.5,1677486451.546875
-62.23,1677486451.5625
-65.92,1677486451.578125
-69.41,1677486451.59375
-72.53,1677486451.609375
-75.13,1677486451.625
-77.41,1677486451.640625
-80.23,1677486451.65625
-84.92,1677486451.671875
-92.84,1677486451.6875
-104.56,1677486451.703125
-119.08,1677486451.71875
-133.77,1677486451.734375
-145.08,1677486451.75
-149.71,1677486451.765625
-145.62,1677486451.78125
-132.39,1677486451.796875
-110.77,1677486451.8125
-82.02,1677486451.828125
-47.51,1677486451.84375
-8.89,1677486451.859375
31.36,1677486451.875
69.67,1677486451.890625
101.89,1677486451.90625
124.46,1677486451.921875
135.81,1677486451.9375
136.93,1677486451.953125
131.0,1677486451.96875
122.02,1677486451.984375
113.42,1677486452.0
106.99,1677486452.015625
102.93,1677486452.03125
100.43,1677486452.046875
98.53,1677486452.0625
96.68,1677486452.078125
94.8,1677486452.09375
93.06,1677486452.109375
91.43,1677486452.125
89.54,1677486452.140625
86.73,1677486452.15625
82.46,1677486452.171875
76.61,1677486452.1875
69.55,1677486452.203125
61.97,1677486452.21875
54.51,1677486452.234375
47.42,1677486452.25
40.42,1677486452.265625
32.9,1677486452.28125
24.3,1677486452.296875
14.52,1677486452.3125
4.11,1677486452.328125
-5.85,1677486452.34375
-14.15,1677486452.359375
-19.9,1677486452.375
-22.91,1677486452.390625
-23.72,1677486452.40625
-23.35,1677486452.421875
-22.94,1677486452.4375
-23.26,1677486452.453125
-24.54,1677486452.46875
-26.57,1677486452.484375
-28.88,1677486452.5
-31.06,1677486452.515625
-32.98,1677486452.53125
-34.81,1677486452.546875
-36.94,1677486452.5625
-39.8,1677486452.578125
-43.67,1677486452.59375
-48.52,1677486452.609375
-53.82,1677486452.625
-58.62,1677486452.640625
-61.72,1677486452.65625
-62.04,1677486452.671875
-58.99,1677486452.6875
-52.73,1677486452.703125
-44.1,1677486452.71875
-34.29,1677486452.734375
-24.46,1677486452.75
-15.41,1677486452.765625
-7.55,1677486452.78125
-0.97,1677486452.796875
4.28,1677486452.8125
8.11,1677486452.828125
10.41,1677486452.84375
11.21,1677486452.859375
10.79,1677486452.875
9.69,1677486452.890625
8.59,1677486452.90625
8.01,1677486452.921875
8.2,1677486452.9375
8.97,1677486452.953125
9.89,1677486452.96875
10.41,1677486452.984375
10.15,1677486453.0
9.01,1677486453.015625
7.21,1677486453.03125
5.1,1677486453.046875
3.07,1677486453.0625
1.34,1677486453.078125
-0.07,1677486453.09375
-1.34,1677486453.109375
-2.78,1677486453.125
-4.69,1677486453.140625
-7.28,1677486453.15625
-10.5,1677486453.171875
-14.12,1677486453.1875
-17.75,1677486453.203125
-21.05,1677486453.21875
-23.85,1677486453.234375
-26.24,1677486453.25
-28.49,1677486453.265625
-30.9,1677486453.28125
-33.7,1677486453.296875
-36.96,1677486453.3125
-40.58,1677486453.328125
-44.33,1677486453.34375
-47.79,1677486453.359375
-50.35,1677486453.375
-51.29,1677486453.390625
-49.97,1677486453.40625
-46.03,1677486453.421875
-39.7,1677486453.4375
-31.68,1677486453.453125
-22.96,1677486453.46875
-14.49,1677486453.484375
-6.87,1677486453.5
-0.36,1677486453.515625
5.03,1677486453.53125
9.3,1677486453.546875
12.39,1677486453.5625
14.13,1677486453.578125
14.5,1677486453.59375
13.7,1677486453.609375
12.21,1677486453.625
10.67,1677486453.640625
9.59,1677486453.65625
9.21,1677486453.671875
9.42,1677486453.6875
9.87,1677486453.703125
10.17,1677486453.71875
10.09,1677486453.734375
9.61,1677486453.75
8.92,1677486453.765625
8.2,1677486453.78125
7.52,1677486453.796875
6.74,1677486453.8125
5.64,1677486453.828125
4.02,1677486453.84375
1.84,1677486453.859375
-0.74,1677486453.875
-3.41,1677486453.890625
-5.9,1677486453.90625
-8.05,1677486453.921875
-9.88,1677486453.9375
-11.51,1677486453.953125
-13.12,1677486453.96875
-14.88,1677486453.984375
-17.02,1677486454.0
-19.74,1677486454.015625
-23.17,1677486454.03125
-27.21,1677486454.046875
-31.36,1677486454.0625
-34.67,1677486454.078125
-35.91,1677486454.09375
-34.04,1677486454.109375
-28.55,1677486454.125
-19.77,1677486454.140625
-8.75,1677486454.15625
3.15,1677486454.171875
14.68,1677486454.1875
25.09,1677486454.203125
34.13,1677486454.21875
41.86,1677486454.234375
48.34,1677486454.25
53.48,1677486454.265625
57.08,1677486454.28125
58.92,1677486454.296875
59.0,1677486454.3125
57.59,1677486454.328125
55.13,1677486454.34375
52.1,1677486454.359375
48.83,1677486454.375
45.37,1677486454.390625
41.54,1677486454.40625
36.98,1677486454.421875
31.39,1677486454.4375
24.68,1677486454.453125
17.09,1677486454.46875
9.11,1677486454.484375
1.29,1677486454.5
-5.92,1677486454.515625
-12.37,1677486454.53125
-18.16,1677486454.546875
-23.57,1677486454.5625
-28.75,1677486454.578125
-33.73,1677486454.59375
-38.29,1677486454.609375
-42.17,1677486454.625
-45.23,1677486454.640625
-47.57,1677486454.65625
-49.55,1677486454.671875
-51.65,1677486454.6875
-54.26,1677486454.703125
-57.58,1677486454.71875
-61.61,1677486454.734375
-66.22,1677486454.75
-71.18,1677486454.765625
-76.22,1677486454.78125
-80.84,1677486454.796875
-84.27,1677486454.8125
-85.52,1677486454.828125
-83.62,1677486454.84375
-78.01,1677486454.859375
-68.74,1677486454.875
-56.56,1677486454.890625
-42.66,1677486454.90625
-28.37,1677486454.921875
-14.82,1677486454.9375
-2.76,1677486454.953125
7.51,1677486454.96875
16.11,1677486454.984375
23.39,1677486455.0
29.88,1677486455.015625
36.02,1677486455.03125
42.08,1677486455.046875
47.95,1677486455.0625
53.26,1677486455.078125
57.51,1677486455.09375
60.37,1677486455.109375
61.88,1677486455.125
62.46,1677486455.140625
62.82,1677486455.15625
63.79,1677486455.171875
66.24,1677486455.1875
70.9,1677486455.203125
78.15,1677486455.21875
87.55,1677486455.234375
97.5,1677486455.25
105.28,1677486455.265625
107.69,1677486455.28125
102.11,1677486455.296875
87.61,1677486455.3125
65.49,1677486455.328125
38.83,1677486455.34375
11.39,1677486455.359375
-13.72,1677486455.375
-34.8,1677486455.390625
-51.6,1677486455.40625
-64.65,1677486455.421875
-74.62,1677486455.4375
-81.87,1677486455.453125
-86.62,1677486455.46875
-89.26,1677486455.484375
-90.56,1677486455.5
-91.58,1677486455.515625
-93.31,1677486455.53125
-96.27,1677486455.546875
-100.28,1677486455.5625
-104.5,1677486455.578125
-107.61,1677486455.59375
-108.22,1677486455.609375
-105.32,1677486455.625
-98.61,1677486455.640625
-88.6,1677486455.65625
-76.43,1677486455.671875
-63.47,1677486455.6875
-50.73,1677486455.703125
-38.68,1677486455.71875
-27.19,1677486455.734375
-15.97,1677486455.75
-4.97,1677486455.765625
5.4,1677486455.78125
14.38,1677486455.796875
21.28,1677486455.8125
25.84,1677486455.828125
28.42,1677486455.84375
29.76,1677486455.859375
30.65,1677486455.875
31.63,1677486455.890625
32.81,1677486455.90625
34.07,1677486455.921875
35.18,1677486455.9375
36.14,1677486455.953125
37.08,1677486455.96875
38.21,1677486455.984375
39.6,1677486456.0
41.1,1677486456.015625
42.31,1677486456.03125
42.8,1677486456.046875
42.25,1677486456.0625
40.62,1677486456.078125
38.15,1677486456.09375
35.21,1677486456.109375
32.22,1677486456.125
29.41,1677486456.140625
26.78,1677486456.15625
24.17,1677486456.171875
21.31,1677486456.1875
18.01,1677486456.203125
14.18,1677486456.21875
9.93,1677486456.234375
5.44,1677486456.25
0.89,1677486456.265625
-3.67,1677486456.28125
-8.34,1677486456.296875
-13.45,1677486456.3125
-19.43,1677486456.328125
-26.72,1677486456.34375
-35.62,1677486456.359375
-46.05,1677486456.375
-57.36,1677486456.390625
-68.33,1677486456.40625
-77.24,1677486456.421875
-82.27,1677486456.4375
-82.0,1677486456.453125
-75.89,1677486456.46875
-64.53,1677486456.484375
-49.46,1677486456.5
-32.68,1677486456.515625
-16.08,1677486456.53125
-0.97,1677486456.546875
12.12,1677486456.5625
23.23,1677486456.578125
32.63,1677486456.59375
40.52,1677486456.609375
46.87,1677486456.625
51.57,1677486456.640625
54.52,1677486456.65625
55.87,1677486456.671875
55.98,1677486456.6875
55.36,1677486456.703125
54.45,1677486456.71875
53.49,1677486456.734375
52.55,1677486456.75
51.54,1677486456.765625
50.43,1677486456.78125
49.22,1677486456.796875
47.99,1677486456.8125
46.73,1677486456.828125
45.33,1677486456.84375
43.47,1677486456.859375
40.78,1677486456.875
36.99,1677486456.890625
32.07,1677486456.90625
26.32,1677486456.921875
20.21,1677486456.9375
14.27,1677486456.953125
8.85,1677486456.96875
3.97,1677486456.984375
-0.59,1677486457.0
-5.19,1677486457.015625
-10.12,1677486457.03125
-15.43,1677486457.046875
-20.99,1677486457.0625
-26.53,1677486457.078125
-31.86,1677486457.09375
-36.91,1677486457.109375
-41.87,1677486457.125
-47.06,1677486457.140625
-52.95,1677486457.15625
-59.91,1677486457.171875
-68.04,1677486457.1875
-76.87,1677486457.203125
-85.2,1677486457.21875
-91.24,1677486457.234375
-93.1,1677486457.25
-89.42,1677486457.265625
-79.96,1677486457.28125
-65.71,1677486457.296875
-48.6,1677486457.3125
-30.82,1677486457.328125
-14.12,1677486457.34375
0.47,1677486457.359375
12.66,1677486457.375
22.57,1677486457.390625
30.36,1677486457.40625
36.13,1677486457.421875
39.89,1677486457.4375
41.74,1677486457.453125
41.96,1677486457.46875
41.03,1677486457.484375
39.6,1677486457.5
38.27,1677486457.515625
37.52,1677486457.53125
37.52,1677486457.546875
38.16,1677486457.5625
39.07,1677486457.578125
39.75,1677486457.59375
39.79,1677486457.609375
38.96,1677486457.625
37.23,1677486457.640625
34.72,1677486457.65625
31.65,1677486457.671875
28.18,1677486457.6875
24.45,1677486457.703125
20.5,1677486457.71875
16.36,1677486457.734375
12.02,1677486457.75
7.48,1677486457.765625
2.83,1677486457.78125
-1.81,1677486457.796875
-6.29,1677486457.8125
-10.53,1677486457.828125
-14.54,1677486457.84375
-18.46,1677486457.859375
-22.51,1677486457.875
-27.0,1677486457.890625
-32.24,1677486457.90625
-38.59,1677486457.921875
-46.33,1677486457.9375
-55.55,1677486457.953125
-65.86,1677486457.96875
-76.17,1677486457.984375
-84.78,1677486458.0
-89.71,1677486458.015625
-89.32,1677486458.03125
-82.89,1677486458.046875
-70.93,1677486458.0625
-54.97,1677486458.078125
-37.08,1677486458.09375
-19.17,1677486458.109375
-2.51,1677486458.125
12.32,1677486458.140625
25.24,1677486458.15625
36.34,1677486458.171875
45.6,1677486458.1875
52.77,1677486458.203125
57.64,1677486458.21875
60.19,1677486458.234375
60.86,1677486458.25
60.42,1677486458.265625
59.75,1677486458.28125
59.53,1677486458.296875
59.98,1677486458.3125
60.89,1677486458.328125
61.83,1677486458.34375
62.42,1677486458.359375
62.52,1677486458.375
62.15,1677486458.390625
61.35,1677486458.40625
60.0,1677486458.421875
57.81,1677486458.4375
54.5,1677486458.453125
50.01,1677486458.46875
44.59,1677486458.484375
38.78,1677486458.5
33.16,1677486458.515625
28.09,1677486458.53125
23.59,1677486458.546875
19.36,1677486458.5625
14.99,1677486458.578125
10.1,1677486458.59375
4.55,1677486458.609375
-1.54,1677486458.625
-7.9,1677486458.640625
-14.21,1677486458.65625
-20.17,1677486458.671875
-25.71,1677486458.6875
-30.99,1677486458.703125
-36.45,1677486458.71875
-42.75,1677486458.734375
-50.56,1677486458.75
-60.2,1677486458.765625
-71.22,1677486458.78125
-82.21,1677486458.796875
-90.98,1677486458.8125
-95.11,1677486458.828125
-92.77,1677486458.84375
-83.46,1677486458.859375
-68.21,1677486458.875
-49.28,1677486458.890625
-29.35,1677486458.90625
-10.65,1677486458.921875
5.57,1677486458.9375
19.0,1677486458.953125
29.87,1677486458.96875
38.49,1677486458.984375
44.89,1677486459.0
48.95,1677486459.015625
50.67,1677486459.03125
50.41,1677486459.046875
48.9,1677486459.0625
47.02,1677486459.078125
45.37,1677486459.09375
44.08,1677486459.109375
42.78,1677486459.125
40.88,1677486459.140625
37.96,1677486459.15625
33.99,1677486459.171875
29.33,1677486459.1875
24.49,1677486459.203125
19.8,1677486459.21875
15.26,1677486459.234375
10.56,1677486459.25
5.24,1677486459.265625
-0.98,1677486459.28125
-8.04,1677486459.296875
-15.56,1677486459.3125
-22.85,1677486459.328125
-29.18,1677486459.34375
-33.87,1677486459.359375
-36.5,1677486459.375
-36.99,1677486459.390625
-35.75,1677486459.40625
-33.56,1677486459.421875
-31.5,1677486459.4375
-30.56,1677486459.453125
-31.43,1677486459.46875
-34.19,1677486459.484375
-38.4,1677486459.5
-43.3,1677486459.515625
-48.24,1677486459.53125
-52.99,1677486459.546875
-57.81,1677486459.5625
-63.35,1677486459.578125
-70.14,1677486459.59375
-78.13,1677486459.609375
-86.43,1677486459.625
-93.36,1677486459.640625
-96.85,1677486459.65625
-95.11,1677486459.671875
-87.17,1677486459.6875
-73.19,1677486459.703125
-54.33,1677486459.71875
-32.36,1677486459.734375
-9.18,1677486459.75
13.55,1677486459.765625
34.56,1677486459.78125
53.0,1677486459.796875
68.35,1677486459.8125
80.4,1677486459.828125
89.25,1677486459.84375
95.3,1677486459.859375
99.18,1677486459.875
101.6,1677486459.890625
103.2,1677486459.90625
104.47,1677486459.921875
105.62,1677486459.9375
106.67,1677486459.953125
107.42,1677486459.96875
107.58,1677486459.984375
106.88,1677486460.0
105.2,1677486460.015625
102.63,1677486460.03125
99.47,1677486460.046875
96.05,1677486460.0625
92.53,1677486460.078125
88.76,1677486460.09375
84.36,1677486460.109375
78.84,1677486460.125
72.02,1677486460.140625
64.16,1677486460.15625
56.0,1677486460.171875
48.43,1677486460.1875
42.08,1677486460.203125
37.03,1677486460.21875
32.71,1677486460.234375
28.2,1677486460.25
22.66,1677486460.265625
15.71,1677486460.28125
7.55,1677486460.296875
-1.15,1677486460.3125
-9.58,1677486460.328125
-17.11,1677486460.34375
-23.51,1677486460.359375
-29.01,1677486460.375
-34.26,1677486460.390625
-40.18,1677486460.40625
-47.68,1677486460.421875
-57.34,1677486460.4375
-68.96,1677486460.453125
-81.27,1677486460.46875
-92.05,1677486460.484375
-98.64,1677486460.5
-98.82,1677486460.515625
-91.61,1677486460.53125
-77.69,1677486460.546875
-59.06,1677486460.5625
-38.36,1677486460.578125
-17.93,1677486460.59375
0.8,1677486460.609375
17.33,1677486460.625
31.81,1677486460.640625
44.47,1677486460.65625
55.27,1677486460.671875
63.86,1677486460.6875
69.84,1677486460.703125
73.01,1677486460.71875
73.61,1677486460.734375
72.26,1677486460.75
69.76,1677486460.765625
66.87,1677486460.78125
64.03,1677486460.796875
61.39,1677486460.8125
58.79,1677486460.828125
55.97,1677486460.84375
52.69,1677486460.859375
48.87,1677486460.875
44.5,1677486460.890625
39.62,1677486460.90625
34.19,1677486460.921875
28.07,1677486460.9375
21.09,1677486460.953125
13.2,1677486460.96875
4.51,1677486460.984375
-4.63,1677486461.0
-13.73,1677486461.015625
-22.32,1677486461.03125
-30.08,1677486461.046875
-36.88,1677486461.0625
-42.7,1677486461.078125
-47.57,1677486461.09375
-51.57,1677486461.109375
-54.95,1677486461.125
-58.32,1677486461.140625
-62.61,1677486461.15625
-68.94,1677486461.171875
-78.21,1677486461.1875
-90.66,1677486461.203125
-105.71,1677486461.21875
-121.99,1677486461.234375
-137.74,1677486461.25
-151.15,1677486461.265625
-160.66,1677486461.28125
-165.1,1677486461.296875
-163.62,1677486461.3125
-155.71,1677486461.328125
-141.38,1677486461.34375
-121.35,1677486461.359375
-97.08,1677486461.375
-70.66,1677486461.390625
-44.29,1677486461.40625
-19.75,1677486461.421875
1.96,1677486461.4375
20.73,1677486461.453125
36.99,1677486461.46875
51.19,1677486461.484375
63.46,1677486461.5
73.52,1677486461.515625
80.84,1677486461.53125
85.03,1677486461.546875
86.28,1677486461.5625
85.29,1677486461.578125
83.23,1677486461.59375
81.26,1677486461.609375
80.17,1677486461.625
80.27,1677486461.640625
81.39,1677486461.65625
82.99,1677486461.671875
84.42,1677486461.6875
85.07,1677486461.703125
84.41,1677486461.71875
82.13,1677486461.734375
78.16,1677486461.75
72.69,1677486461.765625
66.09,1677486461.78125
58.78,1677486461.796875
50.98,1677486461.8125
42.72,1677486461.828125
33.83,1677486461.84375
24.12,1677486461.859375
13.68,1677486461.875
2.9,1677486461.890625
-7.58,1677486461.90625
-17.14,1677486461.921875
-25.44,1677486461.9375
-32.54,1677486461.953125
-38.86,1677486461.96875
-45.09,1677486461.984375
-51.97,1677486462.0
-60.17,1677486462.015625
-70.04,1677486462.03125
-81.39,1677486462.046875
-93.21,1677486462.0625
-103.67,1677486462.078125
-110.35,1677486462.09375
-110.89,1677486462.109375
-103.87,1677486462.125
-89.33,1677486462.140625
-69.0,1677486462.15625
-45.75,1677486462.171875
-22.69,1677486462.1875
-2.25,1677486462.203125
14.35,1677486462.21875
27.11,1677486462.234375
36.75,1677486462.25
44.07,1677486462.265625
49.56,1677486462.28125
53.35,1677486462.296875
55.41,1677486462.3125
55.85,1677486462.328125
55.13,1677486462.34375
53.94,1677486462.359375
52.95,1677486462.375
52.55,1677486462.390625
52.71,1677486462.40625
53.1,1677486462.421875
53.31,1677486462.4375
53.0,1677486462.453125
52.09,1677486462.46875
50.57,1677486462.484375
48.38,1677486462.5
45.37,1677486462.515625
41.29,1677486462.53125
35.95,1677486462.546875
29.38,1677486462.5625
21.8,1677486462.578125
13.54,1677486462.59375
4.88,1677486462.609375
-4.1,1677486462.625
-13.44,1677486462.640625
-23.19,1677486462.65625
-33.36,1677486462.671875
-43.82,1677486462.6875
-54.37,1677486462.703125
-64.9,1677486462.71875
-75.46,1677486462.734375
-86.28,1677486462.75
-97.78,1677486462.765625
-110.42,1677486462.78125
-124.43,1677486462.796875
-139.55,1677486462.8125
-154.76,1677486462.828125
-168.23,1677486462.84375
-177.63,1677486462.859375
-180.65,1677486462.875
-175.69,1677486462.890625
-162.43,1677486462.90625
-142.0,1677486462.921875
-116.72,1677486462.9375
-89.5,1677486462.953125
-62.92,1677486462.96875
-38.61,1677486462.984375
-16.86,1677486463.0
3.11,1677486463.015625
22.44,1677486463.03125
41.87,1677486463.046875
61.17,1677486463.0625
79.18,1677486463.078125
94.4,1677486463.09375
105.86,1677486463.109375
113.67,1677486463.125
118.99,1677486463.140625
123.43,1677486463.15625
128.15,1677486463.171875
133.34,1677486463.1875
138.2,1677486463.203125
141.58,1677486463.21875
142.56,1677486463.234375
140.94,1677486463.25
137.24,1677486463.265625
132.37,1677486463.28125
127.35,1677486463.296875
123.18,1677486463.3125
120.76,1677486463.328125
120.78,1677486463.34375
123.27,1677486463.359375
127.17,1677486463.375
130.1,1677486463.390625
128.77,1677486463.40625
120.03,1677486463.421875
102.09,1677486463.4375
75.5,1677486463.453125
43.13,1677486463.46875
9.26,1677486463.484375
-21.88,1677486463.5
-47.37,1677486463.515625
-66.23,1677486463.53125
-79.25,1677486463.546875
-88.17,1677486463.5625
-94.81,1677486463.578125
-100.36,1677486463.59375
-105.11,1677486463.609375
-108.61,1677486463.625
-110.0,1677486463.640625
-108.35,1677486463.65625
-103.03,1677486463.671875
-93.9,1677486463.6875
-81.41,1677486463.703125
-66.5,1677486463.71875
-50.45,1677486463.734375
-34.62,1677486463.75
-20.12,1677486463.765625
-7.66,1677486463.78125
2.55,1677486463.796875
10.58,1677486463.8125
16.69,1677486463.828125
21.12,1677486463.84375
24.11,1677486463.859375
26.01,1677486463.875
27.29,1677486463.890625
28.58,1677486463.90625
30.41,1677486463.921875
33.05,1677486463.9375
36.39,1677486463.953125
40.06,1677486463.96875
43.56,1677486463.984375
46.55,1677486464.0
48.82,1677486464.015625
50.22,1677486464.03125
50.59,1677486464.046875
49.76,1677486464.0625
47.61,1677486464.078125
44.25,1677486464.09375
40.0,1677486464.109375
35.3,1677486464.125
30.49,1677486464.140625
25.66,1677486464.15625
20.64,1677486464.171875
15.14,1677486464.1875
8.98,1677486464.203125
2.15,1677486464.21875
-5.08,1677486464.234375
-12.35,1677486464.25
-19.31,1677486464.265625
-25.73,1677486464.28125
-31.59,1677486464.296875
-37.08,1677486464.3125
-42.65,1677486464.328125
-48.93,1677486464.34375
-56.58,1677486464.359375
-65.99,1677486464.375
-76.9,1677486464.390625
-88.12,1677486464.40625
-97.64,1677486464.421875
-103.1,1677486464.4375
-102.58,1677486464.453125
-95.26,1677486464.46875
-81.83,1677486464.484375
-64.23,1677486464.5
-44.95,1677486464.515625
-26.26,1677486464.53125
-9.58,1677486464.546875
4.58,1677486464.5625
16.42,1677486464.578125
26.34,1677486464.59375
34.6,1677486464.609375
41.19,1677486464.625
45.96,1677486464.640625
48.89,1677486464.65625
50.28,1677486464.671875
50.76,1677486464.6875
51.08,1677486464.703125
51.86,1677486464.71875
53.36,1677486464.734375
55.46,1677486464.75
57.77,1677486464.765625
59.94,1677486464.78125
61.74,1677486464.796875
63.22,1677486464.8125
64.55,1677486464.828125
65.89,1677486464.84375
67.22,1677486464.859375
68.3,1677486464.875
68.73,1677486464.890625
68.07,1677486464.90625
66.05,1677486464.921875
62.67,1677486464.9375
58.29,1677486464.953125
53.5,1677486464.96875
48.95,1677486464.984375
45.11,1677486465.0
42.06,1677486465.015625
39.43,1677486465.03125
36.57,1677486465.046875
32.73,1677486465.0625
27.38,1677486465.078125
20.3,1677486465.09375
11.78,1677486465.109375
2.57,1677486465.125
-6.11,1677486465.140625
-12.77,1677486465.15625
-15.88,1677486465.171875
-14.36,1677486465.1875
-7.96,1677486465.203125
2.53,1677486465.21875
15.48,1677486465.234375
28.82,1677486465.25
40.7,1677486465.265625
49.89,1677486465.28125
55.98,1677486465.296875
59.13,1677486465.3125
59.75,1677486465.328125
58.17,1677486465.34375
54.62,1677486465.359375
49.37,1677486465.375
42.87,1677486465.390625
35.83,1677486465.40625
29.13,1677486465.421875
23.48,1677486465.4375
19.23,1677486465.453125
16.19,1677486465.46875
13.71,1677486465.484375
11.0,1677486465.5
7.44,1677486465.515625
2.91,1677486465.53125
-2.16,1677486465.546875
-7.01,1677486465.5625
-10.97,1677486465.578125
-13.77,1677486465.59375
-15.68,1677486465.609375
-17.36,1677486465.625
-19.49,1677486465.640625
-22.46,1677486465.65625
-26.19,1677486465.671875
-30.3,1677486465.6875
-34.31,1677486465.703125
-37.91,1677486465.71875
-41.09,1677486465.734375
-43.95,1677486465.75
-46.66,1677486465.765625
-49.29,1677486465.78125
-51.93,1677486465.796875
-54.78,1677486465.8125
-58.19,1677486465.828125
-62.46,1677486465.84375
-67.54,1677486465.859375
-72.75,1677486465.875
-76.73,1677486465.890625
-77.77,1677486465.90625
-74.41,1677486465.921875
-65.99,1677486465.9375
-52.96,1677486465.953125
-36.76,1677486465.96875
-19.37,1677486465.984375
-2.73,1677486466.0
11.78,1677486466.015625
23.43,1677486466.03125
32.15,1677486466.046875
38.27,1677486466.0625
42.26,1677486466.078125
44.6,1677486466.09375
45.69,1677486466.109375
45.85,1677486466.125
45.35,1677486466.140625
44.45,1677486466.15625
43.41,1677486466.171875
42.47,1677486466.1875
41.74,1677486466.203125
41.21,1677486466.21875
40.73,1677486466.234375
40.08,1677486466.25
39.03,1677486466.265625
37.39,1677486466.28125
35.0,1677486466.296875
31.7,1677486466.3125
27.42,1677486466.328125
22.17,1677486466.34375
16.1,1677486466.359375
9.51,1677486466.375
2.72,1677486466.390625
-3.99,1677486466.40625
-10.48,1677486466.421875
-16.67,1677486466.4375
-22.48,1677486466.453125
-27.72,1677486466.46875
-32.17,1677486466.484375
-35.65,1677486466.5
-38.27,1677486466.515625
-40.47,1677486466.53125
-43.0,1677486466.546875
-46.68,1677486466.5625
-52.17,1677486466.578125
-59.72,1677486466.59375
-69.02,1677486466.609375
-79.14,1677486466.625
-88.62,1677486466.640625
-95.64,1677486466.65625
-98.45,1677486466.671875
-95.81,1677486466.6875
-87.48,1677486466.703125
-74.42,1677486466.71875
-58.5,1677486466.734375
-42.06,1677486466.75
-27.1,1677486466.765625
-14.85,1677486466.78125
-5.59,1677486466.796875
1.06,1677486466.8125
5.62,1677486466.828125
8.36,1677486466.84375
9.21,1677486466.859375
7.95,1677486466.875
4.48,1677486466.890625
-0.9,1677486466.90625
-7.48,1677486466.921875
-14.34,1677486466.9375
-20.61,1677486466.953125
-25.83,1677486466.96875
-30.08,1677486466.984375
-33.98,1677486467.0
-38.46,1677486467.015625
-44.34,1677486467.03125
-52.04,1677486467.046875
-61.25,1677486467.0625
-71.09,1677486467.078125
-80.36,1677486467.09375
-88.09,1677486467.109375
-93.88,1677486467.125
-98.0,1677486467.140625
-101.13,1677486467.15625
-103.92,1677486467.171875
-106.61,1677486467.1875
-108.88,1677486467.203125
-110.03,1677486467.21875
-109.35,1677486467.234375
-106.41,1677486467.25
-101.31,1677486467.265625
-94.7,1677486467.28125
-87.59,1677486467.296875
-81.16,1677486467.3125
-76.4,1677486467.328125
-73.93,1677486467.34375
-73.74,1677486467.359375
-75.14,1677486467.375
-76.76,1677486467.390625
-76.88,1677486467.40625
-73.8,1677486467.421875
-66.37,1677486467.4375
-54.25,1677486467.453125
-37.99,1677486467.46875
-18.91,1677486467.484375
1.35,1677486467.5
21.23,1677486467.515625
39.63,1677486467.53125
55.98,1677486467.546875
70.19,1677486467.5625
82.39,1677486467.578125
92.71,1677486467.59375
101.18,1677486467.609375
107.81,1677486467.625
112.71,1677486467.640625
116.26,1677486467.65625
119.0,1677486467.671875
121.47,1677486467.6875
123.94,1677486467.703125
126.21,1677486467.71875
127.68,1677486467.734375
127.52,1677486467.75
125.03,1677486467.765625
120.01,1677486467.78125
112.75,1677486467.796875
103.9,1677486467.8125
94.17,1677486467.828125
83.95,1677486467.84375
73.28,1677486467.859375
61.87,1677486467.875
49.4,1677486467.890625
35.81,1677486467.90625
21.49,1677486467.921875
7.22,1677486467.9375
-6.02,1677486467.953125
-17.43,1677486467.96875
-26.58,1677486467.984375
-33.55,1677486468.0
-38.86,1677486468.015625
-43.29,1677486468.03125
-47.68,1677486468.046875
-52.77,1677486468.0625
-59.09,1677486468.078125
-66.79,1677486468.09375
-75.36,1677486468.109375
-83.53,1677486468.125
-89.41,1677486468.140625
-90.95,1677486468.15625
-86.65,1677486468.171875
-76.2,1677486468.1875
-60.68,1677486468.203125
-42.32,1677486468.21875
-23.67,1677486468.234375
-6.84,1677486468.25
7.01,1677486468.265625
17.66,1677486468.28125
25.53,1677486468.296875
31.16,1677486468.3125
34.91,1677486468.328125
36.91,1677486468.34375
37.19,1677486468.359375
35.84,1677486468.375
33.09,1677486468.390625
29.37,1677486468.40625
25.15,1677486468.421875
20.9,1677486468.4375
17.02,1677486468.453125
13.8,1677486468.46875
11.39,1677486468.484375
9.82,1677486468.5
9.03,1677486468.515625
8.86,1677486468.53125
9.14,1677486468.546875
9.6,1677486468.5625
9.96,1677486468.578125
9.94,1677486468.59375
9.27,1677486468.609375
7.77,1677486468.625
5.31,1677486468.640625
1.84,1677486468.65625
-2.75,1677486468.671875
-8.55,1677486468.6875
-15.61,1677486468.703125
-23.9,1677486468.71875
-33.14,1677486468.734375
-42.89,1677486468.75
-52.51,1677486468.765625
-61.44,1677486468.78125
-69.29,1677486468.796875
-75.99,1677486468.8125
-81.86,1677486468.828125
-87.63,1677486468.84375
-94.21,1677486468.859375
-102.37,1677486468.875
-112.33,1677486468.890625
-123.28,1677486468.90625
-133.37,1677486468.921875
-139.95,1677486468.9375
-140.42,1677486468.953125
-133.02,1677486468.96875
-117.49,1677486468.984375
-95.15,1677486469.0
-68.56,1677486469.015625
-40.87,1677486469.03125
-15.11,1677486469.046875
6.28,1677486469.0625
21.84,1677486469.078125
31.35,1677486469.09375
35.86,1677486469.109375
37.6,1677486469.125
39.27,1677486469.140625
43.27,1677486469.15625
50.81,1677486469.171875
61.49,1677486469.1875
73.63,1677486469.203125
85.0,1677486469.21875
93.81,1677486469.234375
99.28,1677486469.25
101.72,1677486469.265625
102.11,1677486469.28125
101.5,1677486469.296875
100.59,1677486469.3125
99.67,1677486469.328125
98.64,1677486469.34375
97.25,1677486469.359375
95.16,1677486469.375
91.99,1677486469.390625
87.38,1677486469.40625
81.05,1677486469.421875
72.93,1677486469.4375
63.33,1677486469.453125
52.83,1677486469.46875
42.14,1677486469.484375
31.86,1677486469.5
22.27,1677486469.515625
13.23,1677486469.53125
4.38,1677486469.546875
-4.73,1677486469.5625
-14.37,1677486469.578125
-24.51,1677486469.59375
-34.82,1677486469.609375
-44.81,1677486469.625
-54.11,1677486469.640625
-62.6,1677486469.65625
-70.69,1677486469.671875
-79.19,1677486469.6875
-89.05,1677486469.703125
-100.81,1677486469.71875
-114.06,1677486469.734375
-127.11,1677486469.75
-137.27,1677486469.765625
-141.47,1677486469.78125
-137.34,1677486469.796875
-124.05,1677486469.8125
-102.7,1677486469.828125
-75.94,1677486469.84375
-47.18,1677486469.859375
-19.59,1677486469.875
4.72,1677486469.890625
24.82,1677486469.90625
40.79,1677486469.921875
53.18,1677486469.9375
62.6,1677486469.953125
69.46,1677486469.96875
74.02,1677486469.984375
76.57,1677486470.0
77.55,1677486470.015625
77.52,1677486470.03125
77.07,1677486470.046875
76.58,1677486470.0625
76.17,1677486470.078125
75.7,1677486470.09375
74.95,1677486470.109375
73.85,1677486470.125
72.49,1677486470.140625
71.05,1677486470.15625
69.55,1677486470.171875
67.76,1677486470.1875
65.2,1677486470.203125
61.36,1677486470.21875
56.02,1677486470.234375
49.42,1677486470.25
42.21,1677486470.265625
35.16,1677486470.28125
28.81,1677486470.296875
23.16,1677486470.3125
17.64,1677486470.328125
11.44,1677486470.34375
3.94,1677486470.359375
-4.93,1677486470.375
-14.57,1677486470.390625
-24.01,1677486470.40625
-32.34,1677486470.421875
-39.19,1677486470.4375
-44.89,1677486470.453125
-50.41,1677486470.46875
-57.0,1677486470.484375
-65.7,1677486470.5
-77.05,1677486470.515625
-90.69,1677486470.53125
-105.31,1677486470.546875
-118.7,1677486470.5625
-128.21,1677486470.578125
-131.41,1677486470.59375
-126.93,1677486470.609375
-114.93,1677486470.625
-97.15,1677486470.640625
-76.32,1677486470.65625
-55.26,1677486470.671875
-36.08,1677486470.6875
-19.87,1677486470.703125
-6.82,1677486470.71875
3.38,1677486470.734375
11.15,1677486470.75
16.74,1677486470.765625
20.27,1677486470.78125
21.79,1677486470.796875
21.44,1677486470.8125
19.73,1677486470.828125
17.65,1677486470.84375
16.68,1677486470.859375
18.51,1677486470.875
24.4,1677486470.890625
34.63,1677486470.90625
48.23,1677486470.921875
63.23,1677486470.9375
77.36,1677486470.953125
88.92,1677486470.96875
97.13,1677486470.984375
102.14,1677486471.0
104.52,1677486471.015625
104.67,1677486471.03125
102.66,1677486471.046875
98.31,1677486471.0625
91.73,1677486471.078125
83.78,1677486471.09375
76.23,1677486471.109375
71.4,1677486471.125
71.28,1677486471.140625
76.33,1677486471.15625
84.76,1677486471.171875
92.66,1677486471.1875
95.16,1677486471.203125
88.3,1677486471.21875
70.57,1677486471.234375
43.51,1677486471.25
10.91,1677486471.265625
-22.8,1677486471.28125
-54.18,1677486471.296875
-81.43,1677486471.3125
-103.98,1677486471.328125
-121.51,1677486471.34375
-133.15,1677486471.359375
-137.46,1677486471.375
-133.2,1677486471.390625
-120.31,1677486471.40625
-100.41,1677486471.421875
-76.53,1677486471.4375
-52.16,1677486471.453125
-30.17,1677486471.46875
-12.15,1677486471.484375
1.72,1677486471.5
12.16,1677486471.515625
20.08,1677486471.53125
25.98,1677486471.546875
29.75,1677486471.5625
30.94,1677486471.578125
29.16,1677486471.59375
24.65,1677486471.609375
18.42,1677486471.625
12.05,1677486471.640625
7.21,1677486471.65625
5.01,1677486471.671875
5.66,1677486471.6875
8.42,1677486471.703125
12.01,1677486471.71875
15.05,1677486471.734375
16.61,1677486471.75
16.44,1677486471.765625
14.85,1677486471.78125
12.49,1677486471.796875
9.99,1677486471.8125
7.66,1677486471.828125
5.43,1677486471.84375
2.91,1677486471.859375
-0.3,1677486471.875
-4.4,1677486471.890625
-9.22,1677486471.90625
-14.31,1677486471.921875
-19.17,1677486471.9375
-23.45,1677486471.953125
-27.13,1677486471.96875
-30.48,1677486471.984375
-33.95,1677486472.0
-38.08,1677486472.015625
-43.41,1677486472.03125
-50.45,1677486472.046875
-59.54,1677486472.0625
-70.52,1677486472.078125
-82.41,1677486472.09375
-93.22,1677486472.109375
-100.25,1677486472.125
-100.86,1677486472.140625
-93.42,1677486472.15625
-78.0,1677486472.171875
-56.45,1677486472.1875
-31.77,1677486472.203125
-7.07,1677486472.21875
15.36,1677486472.234375
34.49,1677486472.25
50.38,1677486472.265625
63.6,1677486472.28125
74.66,1677486472.296875
83.71,1677486472.3125
90.66,1677486472.328125
95.4,1677486472.34375
98.07,1677486472.359375
99.12,1677486472.375
99.21,1677486472.390625
99.04,1677486472.40625
99.15,1677486472.421875
99.77,1677486472.4375
100.81,1677486472.453125
101.93,1677486472.46875
102.68,1677486472.484375
102.64,1677486472.5
101.53,1677486472.515625
99.27,1677486472.53125
95.87,1677486472.546875
91.36,1677486472.5625
85.74,1677486472.578125
78.89,1677486472.59375
70.72,1677486472.609375
61.19,1677486472.625
50.48,1677486472.640625
38.95,1677486472.65625
27.15,1677486472.671875
15.65,1677486472.6875
4.91,1677486472.703125
-4.84,1677486472.71875
-13.59,1677486472.734375
-21.55,1677486472.75
-29.03,1677486472.765625
-36.41,1677486472.78125
-44.07,1677486472.796875
-52.44,1677486472.8125
-61.81,1677486472.828125
-72.03,1677486472.84375
-82.19,1677486472.859375
-90.51,1677486472.875
-94.62,1677486472.890625
-92.35,1677486472.90625
-82.62,1677486472.921875
-66.06,1677486472.9375
-44.86,1677486472.953125
-22.08,1677486472.96875
-0.53,1677486472.984375
18.07,1677486473.0
33.32,1677486473.015625
45.72,1677486473.03125
55.98,1677486473.046875
64.44,1677486473.0625
70.98,1677486473.078125
75.32,1677486473.09375
77.36,1677486473.109375
77.41,1677486473.125
76.09,1677486473.140625
74.05,1677486473.15625
71.72,1677486473.171875
69.24,1677486473.1875
66.56,1677486473.203125
63.57,1677486473.21875
60.17,1677486473.234375
56.28,1677486473.25
51.77,1677486473.265625
46.44,1677486473.28125
40.1,1677486473.296875
32.73,1677486473.3125
24.61,1677486473.328125
16.33,1677486473.34375
8.68,1677486473.359375
2.32,1677486473.375
-2.6,1677486473.390625
-6.51,1677486473.40625
-10.31,1677486473.421875
-14.98,1677486473.4375
-21.14,1677486473.453125
-28.82,1677486473.46875
-37.54,1677486473.484375
-46.73,1677486473.5
-56.08,1677486473.515625
-65.69,1677486473.53125
-76.0,1677486473.546875
-87.46,1677486473.5625
-100.18,1677486473.578125
-113.95,1677486473.59375
-128.27,1677486473.609375
-142.44,1677486473.625
-155.5,1677486473.640625
-166.18,1677486473.65625
-172.85,1677486473.671875
-173.94,1677486473.6875
-168.34,1677486473.703125
-156.01,1677486473.71875
-138.05,1677486473.734375
-116.47,1677486473.75
-93.55,1677486473.765625
-71.28,1677486473.78125
-51.03,1677486473.796875
-33.62,1677486473.8125
-19.66,1677486473.828125
-9.75,1677486473.84375
-4.42,1677486473.859375
-3.79,1677486473.875
-7.09,1677486473.890625
-12.52,1677486473.90625
-17.45,1677486473.921875
-19.27,1677486473.9375
-16.23,1677486473.953125
-8.19,1677486473.96875
3.41,1677486473.984375
16.15,1677486474.0
27.69,1677486474.015625
36.67,1677486474.03125
43.01,1677486474.046875
47.5,1677486474.0625
50.96,1677486474.078125
53.54,1677486474.09375
54.57,1677486474.109375
53.13,1677486474.125
48.71,1677486474.140625
41.75,1677486474.15625
33.45,1677486474.171875
25.16,1677486474.1875
17.66,1677486474.203125
10.8,1677486474.21875
3.72,1677486474.234375
-4.49,1677486474.25
-14.14,1677486474.265625
-24.74,1677486474.28125
-35.19,1677486474.296875
-44.41,1677486474.3125
-51.9,1677486474.328125
-58.03,1677486474.34375
-63.92,1677486474.359375
-70.93,1677486474.375
-80.16,1677486474.390625
-91.87,1677486474.40625
-105.18,1677486474.421875
-118.15,1677486474.4375
-128.06,1677486474.453125
-132.17,1677486474.46875
-128.52,1677486474.484375
-116.57,1677486474.5
-97.51,1677486474.515625
-73.9,1677486474.53125
-48.89,1677486474.546875
-25.24,1677486474.5625
-4.62,1677486474.578125
12.58,1677486474.59375
26.79,1677486474.609375
38.58,1677486474.625
48.14,1677486474.640625
55.16,1677486474.65625
59.15,1677486474.671875
59.97,1677486474.6875
58.3,1677486474.703125
55.48,1677486474.71875
53.17,1677486474.734375
52.6,1677486474.75
54.16,1677486474.765625
57.25,1677486474.78125
60.67,1677486474.796875
63.16,1677486474.8125
63.98,1677486474.828125
63.07,1677486474.84375
60.95,1677486474.859375
58.32,1677486474.875
55.66,1677486474.890625
52.96,1677486474.90625
49.87,1677486474.921875
45.91,1677486474.9375
40.81,1677486474.953125
34.78,1677486474.96875
28.43,1677486474.984375
22.6,1677486475.0
17.93,1677486475.015625
14.67,1677486475.03125
12.48,1677486475.046875
10.57,1677486475.0625
8.0,1677486475.078125
3.92,1677486475.09375
-2.27,1677486475.109375
-10.75,1677486475.125
-21.28,1677486475.140625
-33.05,1677486475.15625
-44.6,1677486475.171875
-53.82,1677486475.1875
-58.28,1677486475.203125
-55.9,1677486475.21875
-45.69,1677486475.234375
-28.26,1677486475.25
-5.74,1677486475.265625
18.87,1677486475.28125
42.63,1677486475.296875
63.62,1677486475.3125
81.12,1677486475.328125
95.43,1677486475.34375
107.13,1677486475.359375
116.55,1677486475.375
123.51,1677486475.390625
127.6,1677486475.40625
128.65,1677486475.421875
127.08,1677486475.4375
123.97,1677486475.453125
120.62,1677486475.46875
118.16,1677486475.484375
117.13,1677486475.5
117.43,1677486475.515625
118.55,1677486475.53125
119.84,1677486475.546875
120.71,1677486475.5625
120.51,1677486475.578125
118.39,1677486475.59375
113.19,1677486475.609375
103.67,1677486475.625
89.05,1677486475.640625
69.58,1677486475.65625
46.79,1677486475.671875
23.25,1677486475.6875
1.81,1677486475.703125
-15.32,1677486475.71875
-27.26,1677486475.734375
-34.54,1677486475.75
-38.69,1677486475.765625
-41.48,1677486475.78125
-44.23,1677486475.796875
-47.47,1677486475.8125
-51.07,1677486475.828125
-54.48,1677486475.84375
-57.15,1677486475.859375
-58.61,1677486475.875
-58.55,1677486475.890625
-57.03,1677486475.90625
-54.68,1677486475.921875
-52.91,1677486475.9375
-53.64,1677486475.953125
-58.68,1677486475.96875
-68.74,1677486475.984375
-82.74,1677486476.0
-97.92,1677486476.015625
-110.66,1677486476.03125
-117.88,1677486476.046875
-118.22,1677486476.0625
-112.32,1677486476.078125
-102.23,1677486476.09375
-90.29,1677486476.109375
-78.16,1677486476.125
-66.44,1677486476.140625
-55.1,1677486476.15625
-44.03,1677486476.171875
-33.47,1677486476.1875
-23.92,1677486476.203125
-15.75,1677486476.21875
-8.82,1677486476.234375
-2.45,1677486476.25
4.28,1677486476.265625
12.11,1677486476.28125
21.25,1677486476.296875
31.31,1677486476.3125
41.5,1677486476.328125
50.99,1677486476.34375
59.13,1677486476.359375
65.5,1677486476.375
69.9,1677486476.390625
72.19,1677486476.40625
72.27,1677486476.421875
70.12,1677486476.4375
65.81,1677486476.453125
59.62,1677486476.46875
52.03,1677486476.484375
43.62,1677486476.5
34.93,1677486476.515625
26.31,1677486476.53125
17.84,1677486476.546875
9.4,1677486476.5625
0.78,1677486476.578125
-8.11,1677486476.59375
-17.2,1677486476.609375
-26.21,1677486476.625
-34.87,1677486476.640625
-43.04,1677486476.65625
-50.93,1677486476.671875
-59.08,1677486476.6875
-68.25,1677486476.703125
-79.16,1677486476.71875
-92.15,1677486476.734375
-106.74,1677486476.75
-121.46,1677486476.765625
-133.87,1677486476.78125
-141.15,1677486476.796875
-140.86,1677486476.8125
-131.82,1677486476.828125
-114.52,1677486476.84375
-91.05,1677486476.859375
-64.39,1677486476.875
-37.46,1677486476.890625
-12.5,1677486476.90625
9.35,1677486476.921875
27.83,1677486476.9375
43.21,1677486476.953125
55.8,1677486476.96875
65.8,1677486476.984375
73.32,1677486477.0
78.48,1677486477.015625
81.66,1677486477.03125
83.44,1677486477.046875
84.54,1677486477.0625
85.58,1677486477.078125
86.86,1677486477.09375
88.33,1677486477.109375
89.61,1677486477.125
90.29,1677486477.140625
90.1,1677486477.15625
89.02,1677486477.171875
87.27,1677486477.1875
85.05,1677486477.203125
82.37,1677486477.21875
78.97,1677486477.234375
74.39,1677486477.25
68.26,1677486477.265625
60.56,1677486477.28125
51.79,1677486477.296875
42.81,1677486477.3125
34.53,1677486477.328125
27.59,1677486477.34375
22.03,1677486477.359375
17.29,1677486477.375
12.52,1677486477.390625
6.94,1677486477.40625
0.24,1677486477.421875
-7.35,1677486477.4375
-15.18,1677486477.453125
-22.52,1677486477.46875
-28.9,1677486477.484375
-34.32,1677486477.5
-39.27,1677486477.515625
-44.65,1677486477.53125
-51.49,1677486477.546875
-60.67,1677486477.5625
-72.54,1677486477.578125
-86.52,1677486477.59375
-100.98,1677486477.609375
-113.33,1677486477.625
-120.61,1677486477.640625
-120.37,1677486477.65625
-111.47,1677486477.671875
-94.6,1677486477.6875
-72.05,1677486477.703125
-47.03,1677486477.71875
-22.64,1677486477.734375
-1.04,1677486477.75
16.88,1677486477.765625
31.29,1677486477.78125
42.92,1677486477.796875
52.45,1677486477.8125
60.21,1677486477.828125
66.24,1677486477.84375
70.48,1677486477.859375
73.05,1677486477.875
74.32,1677486477.890625
74.85,1677486477.90625
75.13,1677486477.921875
75.44,1677486477.9375
75.74,1677486477.953125
75.71,1677486477.96875
75.05,1677486477.984375
73.58,1677486478.0
71.44,1677486478.015625
68.99,1677486478.03125
66.55,1677486478.046875
64.15,1677486478.0625
61.4,1677486478.078125
57.7,1677486478.09375
52.46,1677486478.109375
45.56,1677486478.125
37.47,1677486478.140625
29.04,1677486478.15625
21.17,1677486478.171875
14.31,1677486478.1875
8.37,1677486478.203125
2.72,1677486478.21875
-3.38,1677486478.234375
-10.37,1677486478.25
-18.13,1677486478.265625
-26.08,1677486478.28125
-33.45,1677486478.296875
-39.66,1677486478.3125
-44.68,1677486478.328125
-49.03,1677486478.34375
-53.63,1677486478.359375
-59.53,1677486478.375
-67.51,1677486478.390625
-77.82,1677486478.40625
-89.79,1677486478.421875
-101.83,1677486478.4375
-111.51,1677486478.453125
-116.15,1677486478.46875
-113.6,1677486478.484375
-103.02,1677486478.5
-85.31,1677486478.515625
-62.92,1677486478.53125
-39.07,1677486478.546875
-16.65,1677486478.5625
2.43,1677486478.578125
17.7,1677486478.59375
29.62,1677486478.609375
39.04,1677486478.625
46.6,1677486478.640625
52.48,1677486478.65625
56.56,1677486478.671875
58.7,1677486478.6875
59.08,1677486478.703125
58.18,1677486478.71875
56.71,1677486478.734375
55.36,1677486478.75
54.6,1677486478.765625
54.53,1677486478.78125
54.93,1677486478.796875
55.37,1677486478.8125
55.34,1677486478.828125
54.46,1677486478.84375
52.55,1677486478.859375
49.67,1677486478.875
46.06,1677486478.890625
41.94,1677486478.90625
37.43,1677486478.921875
32.51,1677486478.9375
27.08,1677486478.953125
21.03,1677486478.96875
14.34,1677486478.984375
7.11,1677486479.0
-0.46,1677486479.015625
-8.14,1677486479.03125
-15.68,1677486479.046875
-22.89,1677486479.0625
-29.69,1677486479.078125
-36.05,1677486479.09375
-42.07,1677486479.109375
-47.98,1677486479.125
-54.14,1677486479.140625
-61.04,1677486479.15625
-69.15,1677486479.171875
-78.56,1677486479.1875
-88.74,1677486479.203125
-98.22,1677486479.21875
-104.84,1677486479.234375
-106.25,1677486479.25
-100.77,1677486479.265625
-88.08,1677486479.28125
-69.48,1677486479.296875
-47.52,1677486479.3125
-25.18,1677486479.328125
-4.89,1677486479.34375
11.94,1677486479.359375
25.12,1677486479.375
35.19,1677486479.390625
42.87,1677486479.40625
48.68,1677486479.421875
52.75,1677486479.4375
55.11,1677486479.453125
55.89,1677486479.46875
55.51,1677486479.484375
54.6,1677486479.5
53.76,1677486479.515625
53.3,1677486479.53125
53.19,1677486479.546875
53.1,1677486479.5625
52.69,1677486479.578125
51.82,1677486479.59375
50.54,1677486479.609375
49.04,1677486479.625
47.41,1677486479.640625
45.51,1677486479.65625
43.03,1677486479.671875
39.68,1677486479.6875
35.36,1677486479.703125
30.26,1677486479.71875
24.73,1677486479.734375
19.17,1677486479.75
13.82,1677486479.765625
8.66,1677486479.78125
3.42,1677486479.796875
-2.22,1677486479.8125
-8.5,1677486479.828125
-15.44,1677486479.84375
-22.74,1677486479.859375
-29.89,1677486479.875
-36.42,1677486479.890625
-42.08,1677486479.90625
-47.06,1677486479.921875
-52.0,1677486479.9375
-57.83,1677486479.953125
-65.47,1677486479.96875
-75.43,1677486479.984375
-87.36,1677486480.0
-99.89,1677486480.015625
-110.64,1677486480.03125
-116.84,1677486480.046875
-116.09,1677486480.0625
-107.33,1677486480.078125
-91.25,1677486480.09375
-70.22,1677486480.109375
-47.43,1677486480.125
-25.82,1677486480.140625
-7.19,1677486480.15625
8.06,1677486480.171875
20.51,1677486480.1875
30.97,1677486480.203125
39.89,1677486480.21875
47.18,1677486480.234375
52.47,1677486480.25
55.55,1677486480.265625
56.7,1677486480.28125
56.62,1677486480.296875
56.14,1677486480.3125
55.86,1677486480.328125
55.99,1677486480.34375
56.3,1677486480.359375
56.43,1677486480.375
56.05,1677486480.390625
55.09,1677486480.40625
53.63,1677486480.421875
51.88,1677486480.4375
50.0,1677486480.453125
47.96,1677486480.46875
45.61,1677486480.484375
42.72,1677486480.5
39.22,1677486480.515625
35.28,1677486480.53125
31.3,1677486480.546875
27.73,1677486480.5625
24.84,1677486480.578125
22.56,1677486480.59375
20.43,1677486480.609375
17.83,1677486480.625
14.24,1677486480.640625
9.52,1677486480.65625
3.95,1677486480.671875
-1.88,1677486480.6875
-7.28,1677486480.703125
-11.78,1677486480.71875
-15.24,1677486480.734375
-17.9,1677486480.75
-20.21,1677486480.765625
-22.79,1677486480.78125
-26.23,1677486480.796875
-30.91,1677486480.8125
-36.83,1677486480.828125
-43.26,1677486480.84375
-48.78,1677486480.859375
-51.46,1677486480.875
-49.44,1677486480.890625
-41.63,1677486480.90625
-28.2,1677486480.921875
-10.71,1677486480.9375
8.48,1677486480.953125
26.9,1677486480.96875
42.84,1677486480.984375
55.64,1677486481.0
65.57,1677486481.015625
73.39,1677486481.03125
79.77,1677486481.046875
85.08,1677486481.0625
89.35,1677486481.078125
92.49,1677486481.09375
94.47,1677486481.109375
95.4,1677486481.125
95.37,1677486481.140625
94.42,1677486481.15625
92.46,1677486481.171875
89.35,1677486481.1875
85.07,1677486481.203125
79.81,1677486481.21875
73.95,1677486481.234375
67.97,1677486481.25
62.22,1677486481.265625
56.8,1677486481.28125
51.52,1677486481.296875
46.03,1677486481.3125
39.97,1677486481.328125
33.12,1677486481.34375
25.45,1677486481.359375
17.15,1677486481.375
8.53,1677486481.390625
-0.12,1677486481.40625
-8.63,1677486481.421875
-17.14,1677486481.4375
-26.0,1677486481.453125
-35.68,1677486481.46875
-46.5,1677486481.484375
-58.46,1677486481.5
-71.22,1677486481.515625
-84.26,1677486481.53125
-97.06,1677486481.546875
-109.4,1677486481.5625
-121.33,1677486481.578125
-133.13,1677486481.59375
-145.17,1677486481.609375
-157.77,1677486481.625
-171.05,1677486481.640625
-184.73,1677486481.65625
-197.88,1677486481.671875
-208.81,1677486481.6875
-215.3,1677486481.703125
-215.23,1677486481.71875
-207.33,1677486481.734375
-191.81,1677486481.75
-170.44,1677486481.765625
-145.86,1677486481.78125
-120.66,1677486481.796875
-96.58,1677486481.8125
-74.28,1677486481.828125
-53.72,1677486481.84375
-34.68,1677486481.859375
-17.21,1677486481.875
-1.65,1677486481.890625
11.71,1677486481.90625
22.91,1677486481.921875
32.25,1677486481.9375
40.09,1677486481.953125
46.47,1677486481.96875
51.14,1677486481.984375
53.79,1677486482.0
54.43,1677486482.015625
53.66,1677486482.03125
52.42,1677486482.046875
51.59,1677486482.0625
51.45,1677486482.078125
51.57,1677486482.09375
51.01,1677486482.109375
48.85,1677486482.125
44.6,1677486482.140625
38.37,1677486482.15625
30.74,1677486482.171875
22.44,1677486482.1875
14.16,1677486482.203125
6.32,1677486482.21875
-0.85,1677486482.234375
-7.33,1677486482.25
-13.33,1677486482.265625
-19.21,1677486482.28125
-25.34,1677486482.296875
-31.92,1677486482.3125
-38.81,1677486482.328125
-45.53,1677486482.34375
-51.51,1677486482.359375
-56.33,1677486482.375
-60.0,1677486482.390625
-62.92,1677486482.40625
-65.73,1677486482.421875
-69.09,1677486482.4375
-73.54,1677486482.453125
-79.5,1677486482.46875
-87.06,1677486482.484375
-95.85,1677486482.5
-104.76,1677486482.515625
-111.85,1677486482.53125
-114.7,1677486482.546875
-111.14,1677486482.5625
-100.1,1677486482.578125
-82.12,1677486482.59375
-59.27,1677486482.609375
-34.48,1677486482.625
-10.57,1677486482.640625
10.55,1677486482.65625
28.16,1677486482.671875
42.5,1677486482.6875
54.22,1677486482.703125
63.84,1677486482.71875
71.55,1677486482.734375
77.26,1677486482.75
80.85,1677486482.765625
82.44,1677486482.78125
82.46,1677486482.796875
81.56,1677486482.8125
80.4,1677486482.828125
79.47,1677486482.84375
78.96,1677486482.859375
78.75,1677486482.875
78.54,1677486482.890625
77.99,1677486482.90625
76.75,1677486482.921875
74.61,1677486482.9375
71.41,1677486482.953125
67.12,1677486482.96875
61.8,1677486482.984375
55.66,1677486483.0
49.01,1677486483.015625
42.23,1677486483.03125
35.61,1677486483.046875
29.29,1677486483.0625
23.17,1677486483.078125
16.98,1677486483.09375
10.44,1677486483.109375
3.44,1677486483.125
-3.86,1677486483.140625
-11.06,1677486483.15625
-17.71,1677486483.171875
-23.55,1677486483.1875
-28.69,1677486483.203125
-33.61,1677486483.21875
-39.03,1677486483.234375
-45.69,1677486483.25
-54.08,1677486483.265625
-64.18,1677486483.28125
-75.26,1677486483.296875
-85.78,1677486483.3125
-93.63,1677486483.328125
-96.57,1677486483.34375
-93.02,1677486483.359375
-82.59,1677486483.375
-66.38,1677486483.390625
-46.65,1677486483.40625
-26.08,1677486483.421875
-6.88,1677486483.4375
9.7,1677486483.453125
23.46,1677486483.46875
34.81,1677486483.484375
44.13,1677486483.5
51.55,1677486483.515625
56.89,1677486483.53125
60.02,1677486483.546875
61.18,1677486483.5625
60.99,1677486483.578125
60.32,1677486483.59375
59.88,1677486483.609375
59.98,1677486483.625
60.42,1677486483.640625
60.66,1677486483.65625
60.13,1677486483.671875
58.53,1677486483.6875
55.97,1677486483.703125
52.85,1677486483.71875
49.61,1677486483.734375
46.44,1677486483.75
43.13,1677486483.765625
39.14,1677486483.78125
33.87,1677486483.796875
26.93,1677486483.8125
18.48,1677486483.828125
9.15,1677486483.84375
-0.1,1677486483.859375
-8.37,1677486483.875
-15.2,1677486483.890625
-20.71,1677486483.90625
-25.5,1677486483.921875
-30.49,1677486483.9375
-36.56,1677486483.953125
-44.37,1677486483.96875
-54.13,1677486483.984375
-65.43,1677486484.0
-77.13,1677486484.015625
-87.4,1677486484.03125
-94.02,1677486484.046875
-94.96,1677486484.0625
-89.08,1677486484.078125
-76.5,1677486484.09375
-58.73,1677486484.109375
-38.19,1677486484.125
-17.46,1677486484.140625
1.39,1677486484.15625
17.29,1677486484.171875
30.08,1677486484.1875
40.17,1677486484.203125
48.08,1677486484.21875
54.07,1677486484.234375
58.18,1677486484.25
60.32,1677486484.265625
60.58,1677486484.28125
59.43,1677486484.296875
57.68,1677486484.3125
56.25,1677486484.328125
55.79,1677486484.34375
56.51,1677486484.359375
58.0,1677486484.375
59.52,1677486484.390625
60.31,1677486484.40625
59.93,1677486484.421875
58.32,1677486484.4375
55.81,1677486484.453125
52.83,1677486484.46875
49.73,1677486484.484375
46.66,1677486484.5
43.52,1677486484.515625
40.02,1677486484.53125
35.83,1677486484.546875
30.64,1677486484.5625
24.31,1677486484.578125
17.0,1677486484.59375
9.16,1677486484.609375
1.41,1677486484.625
-5.66,1677486484.640625
-11.75,1677486484.65625
-17.02,1677486484.671875
-22.04,1677486484.6875
-27.64,1677486484.703125
-34.6,1677486484.71875
-43.41,1677486484.734375
-54.0,1677486484.75
-65.62,1677486484.765625
-76.71,1677486484.78125
-85.09,1677486484.796875
-88.38,1677486484.8125
-84.7,1677486484.828125
-73.41,1677486484.84375
-55.43,1677486484.859375
-33.1,1677486484.875
-9.44,1677486484.890625
12.81,1677486484.90625
31.91,1677486484.921875
47.27,1677486484.9375
59.07,1677486484.953125
67.62,1677486484.96875
72.98,1677486484.984375
74.91,1677486485.0
73.24,1677486485.015625
68.26,1677486485.03125
60.8,1677486485.046875
52.13,1677486485.0625
43.5,1677486485.078125
35.88,1677486485.09375
29.83,1677486485.109375
25.53,1677486485.125
23.0,1677486485.140625
22.06,1677486485.15625
22.42,1677486485.171875
23.58,1677486485.1875
24.92,1677486485.203125
25.76,1677486485.21875
25.61,1677486485.234375
24.21,1677486485.25
21.61,1677486485.265625
18.13,1677486485.28125
14.21,1677486485.296875
10.35,1677486485.3125
6.91,1677486485.328125
4.02,1677486485.34375
1.43,1677486485.359375
-1.4,1677486485.375
-5.08,1677486485.390625
-9.99,1677486485.40625
-16.12,1677486485.421875
-23.06,1677486485.4375
-30.27,1677486485.453125
-37.45,1677486485.46875
-44.77,1677486485.484375
-52.81,1677486485.5
-62.34,1677486485.515625
-73.9,1677486485.53125
-87.45,1677486485.546875
-102.2,1677486485.5625
-116.61,1677486485.578125
-128.62,1677486485.59375
-135.99,1677486485.609375
-136.86,1677486485.625
-130.15,1677486485.640625
-116.06,1677486485.65625
-96.03,1677486485.671875
-72.45,1677486485.6875
-48.0,1677486485.703125
-25.02,1677486485.71875
-4.96,1677486485.734375
11.75,1677486485.75
25.39,1677486485.765625
36.59,1677486485.78125
45.85,1677486485.796875
53.36,1677486485.8125
59.01,1677486485.828125
62.57,1677486485.84375
63.92,1677486485.859375
63.22,1677486485.875
60.94,1677486485.890625
57.77,1677486485.90625
54.44,1677486485.921875
51.64,1677486485.9375
49.89,1677486485.953125
49.5,1677486485.96875
50.5,1677486485.984375
52.52,1677486486.0
54.67,1677486486.015625
55.56,1677486486.03125
53.52,1677486486.046875
47.17,1677486486.0625
35.98,1677486486.078125
20.75,1677486486.09375
3.55,1677486486.109375
-12.69,1677486486.125
-25.09,1677486486.140625
-31.63,1677486486.15625
-31.76,1677486486.171875
-26.57,1677486486.1875
-18.37,1677486486.203125
-10.09,1677486486.21875
-4.45,1677486486.234375
-3.34,1677486486.25
-7.47,1677486486.265625
-16.31,1677486486.28125
-28.46,1677486486.296875
-42.12,1677486486.3125
-55.75,1677486486.328125
-68.39,1677486486.34375
-79.87,1677486486.359375
-90.63,1677486486.375
-101.41,1677486486.390625
-112.93,1677486486.40625
-125.6,1677486486.421875
-139.22,1677486486.4375
-152.83,1677486486.453125
-164.66,1677486486.46875
-172.35,1677486486.484375
-173.54,1677486486.5
-166.64,1677486486.515625
-151.47,1677486486.53125
-129.46,1677486486.546875
-103.29,1677486486.5625
-76.01,1677486486.578125
-50.12,1677486486.59375
-27.01,1677486486.609375
-6.82,1677486486.625
11.02,1677486486.640625
27.17,1677486486.65625
41.94,1677486486.671875
55.11,1677486486.6875
66.25,1677486486.703125
75.06,1677486486.71875
81.67,1677486486.734375
86.63,1677486486.75
90.73,1677486486.765625
94.62,1677486486.78125
98.61,1677486486.796875
102.58,1677486486.8125
106.2,1677486486.828125
109.19,1677486486.84375
111.5,1677486486.859375
113.31,1677486486.875
114.82,1677486486.890625
116.05,1677486486.90625
116.68,1677486486.921875
116.18,1677486486.9375
114.02,1677486486.953125
109.95,1677486486.96875
104.19,1677486486.984375
97.38,1677486487.0
90.49,1677486487.015625
84.48,1677486487.03125
79.99,1677486487.046875
77.12,1677486487.0625
75.34,1677486487.078125
73.65,1677486487.09375
70.83,1677486487.109375
65.78,1677486487.125
57.79,1677486487.140625
46.68,1677486487.15625
32.68,1677486487.171875
16.33,1677486487.1875
-1.73,1677486487.203125
-20.89,1677486487.21875
-40.72,1677486487.234375
-60.98,1677486487.25
-81.62,1677486487.265625
-102.53,1677486487.28125
-123.28,1677486487.296875
-142.74,1677486487.3125
-159.05,1677486487.328125
-169.87,1677486487.34375
-173.1,1677486487.359375
-167.59,1677486487.375
-153.72,1677486487.390625
-133.34,1677486487.40625
-109.22,1677486487.421875
-84.28,1677486487.4375
-60.82,1677486487.453125
-40.2,1677486487.46875
-22.91,1677486487.484375
-8.83,1677486487.5
2.47,1677486487.515625
11.55,1677486487.53125
19.09,1677486487.546875
25.81,1677486487.5625
32.28,1677486487.578125
38.68,1677486487.59375
44.62,1677486487.609375
49.2,1677486487.625
51.32,1677486487.640625
50.12,1677486487.65625
45.44,1677486487.671875
37.96,1677486487.6875
29.02,1677486487.703125
20.1,1677486487.71875
12.33,1677486487.734375
6.1,1677486487.75
1.02,1677486487.765625
-3.69,1677486487.78125
-8.72,1677486487.796875
-14.3,1677486487.8125
-19.99,1677486487.828125
-24.99,1677486487.84375
-28.44,1677486487.859375
-29.78,1677486487.875
-28.85,1677486487.890625
-25.85,1677486487.90625
-21.12,1677486487.921875
-15.09,1677486487.9375
-8.25,1677486487.953125
-1.23,1677486487.96875
5.17,1677486487.984375
10.16,1677486488.0
13.1,1677486488.015625
13.65,1677486488.03125
11.79,1677486488.046875
7.67,1677486488.0625
1.62,1677486488.078125
-5.88,1677486488.09375
-13.98,1677486488.109375
-21.31,1677486488.125
-26.12,1677486488.140625
-26.67,1677486488.15625
-21.81,1677486488.171875
-11.5,1677486488.1875
3.13,1677486488.203125
20.18,1677486488.21875
37.62,1677486488.234375
53.88,1677486488.25
68.08,1677486488.265625
79.96,1677486488.28125
89.42,1677486488.296875
96.24,1677486488.3125
100.04,1677486488.328125
100.46,1677486488.34375
97.5,1677486488.359375
91.64,1677486488.375
83.83,1677486488.390625
75.23,1677486488.40625
66.87,1677486488.421875
59.43,1677486488.4375
53.17,1677486488.453125
48.0,1677486488.46875
43.6,1677486488.484375
39.59,1677486488.5
35.58,1677486488.515625
31.3,1677486488.53125
26.59,1677486488.546875
21.42,1677486488.5625
15.84,1677486488.578125
9.99,1677486488.59375
3.97,1677486488.609375
-2.12,1677486488.625
-8.29,1677486488.640625
-14.59,1677486488.65625
-21.07,1677486488.671875
-27.72,1677486488.6875
-34.41,1677486488.703125
-40.93,1677486488.71875
-47.0,1677486488.734375
-52.43,1677486488.75
-57.14,1677486488.765625
-61.24,1677486488.78125
-65.04,1677486488.796875
-69.03,1677486488.8125
-73.77,1677486488.828125
-79.79,1677486488.84375
-87.32,1677486488.859375
-95.96,1677486488.875
-104.43,1677486488.890625
-110.67,1677486488.90625
-112.21,1677486488.921875
-106.99,1677486488.9375
-94.16,1677486488.953125
-74.49,1677486488.96875
-50.21,1677486488.984375
-24.23,1677486489.0
0.81,1677486489.015625
23.27,1677486489.03125
42.71,1677486489.046875
59.51,1677486489.0625
74.25,1677486489.078125
87.2,1677486489.09375
98.22,1677486489.109375
106.9,1677486489.125
112.95,1677486489.140625
116.43,1677486489.15625
117.76,1677486489.171875
117.52,1677486489.1875
116.29,1677486489.203125
114.35,1677486489.21875
111.88,1677486489.234375
108.88,1677486489.25
105.4,1677486489.265625
101.56,1677486489.28125
97.47,1677486489.296875
93.19,1677486489.3125
88.54,1677486489.328125
83.2,1677486489.34375
76.81,1677486489.359375
69.18,1677486489.375
60.4,1677486489.390625
50.87,1677486489.40625
41.15,1677486489.421875
31.73,1677486489.4375
22.83,1677486489.453125
14.29,1677486489.46875
5.7,1677486489.484375
-3.35,1677486489.5
-13.06,1677486489.515625
-23.23,1677486489.53125
-33.4,1677486489.546875
-43.01,1677486489.5625
-51.8,1677486489.578125
-59.93,1677486489.59375
-67.95,1677486489.609375
-76.66,1677486489.625
-86.83,1677486489.640625
-98.93,1677486489.65625
-112.93,1677486489.671875
-128.09,1677486489.6875
-142.76,1677486489.703125
-154.58,1677486489.71875
-160.82,1677486489.734375
-159.28,1677486489.75
-149.1,1677486489.765625
-131.32,1677486489.78125
-108.74,1677486489.796875
-85.03,1677486489.8125
-63.49,1677486489.828125
-46.09,1677486489.84375
-33.16,1677486489.859375
-23.79,1677486489.875
-16.56,1677486489.890625
-10.33,1677486489.90625
-4.48,1677486489.921875
1.12,1677486489.9375
6.43,1677486489.953125
11.37,1677486489.96875
15.93,1677486489.984375
20.03,1677486490.0
23.39,1677486490.015625
25.59,1677486490.03125
26.23,1677486490.046875
25.11,1677486490.0625
22.45,1677486490.078125
18.84,1677486490.09375
15.17,1677486490.109375
12.48,1677486490.125
11.68,1677486490.140625
13.27,1677486490.15625
17.23,1677486490.171875
22.91,1677486490.1875
29.24,1677486490.203125
35.05,1677486490.21875
39.48,1677486490.234375
42.19,1677486490.25
43.4,1677486490.265625
43.65,1677486490.28125
43.4,1677486490.296875
42.83,1677486490.3125
41.66,1677486490.328125
39.51,1677486490.34375
36.1,1677486490.359375
31.63,1677486490.375
26.7,1677486490.390625
22.06,1677486490.40625
18.23,1677486490.421875
15.18,1677486490.4375
12.33,1677486490.453125
8.72,1677486490.46875
3.4,1677486490.484375
-4.21,1677486490.5
-13.95,1677486490.515625
-24.76,1677486490.53125
-34.73,1677486490.546875
-41.38,1677486490.5625
-42.24,1677486490.578125
-35.5,1677486490.59375
-20.62,1677486490.609375
1.42,1677486490.625
28.37,1677486490.640625
57.32,1677486490.65625
85.34,1677486490.671875
110.09,1677486490.6875
129.96,1677486490.703125
143.94,1677486490.71875
151.39,1677486490.734375
151.93,1677486490.75
145.62,1677486490.765625
133.26,1677486490.78125
116.47,1677486490.796875
97.63,1677486490.8125
79.22,1677486490.828125
63.18,1677486490.84375
50.22,1677486490.859375
39.79,1677486490.875
30.42,1677486490.890625
20.57,1677486490.90625
9.33,1677486490.921875
-3.13,1677486490.9375
-15.75,1677486490.953125
-27.09,1677486490.96875
-36.09,1677486490.984375
-42.44,1677486491.0
-46.65,1677486491.015625
-49.62,1677486491.03125
-52.21,1677486491.046875
-54.86,1677486491.0625
-57.45,1677486491.078125
-59.57,1677486491.09375
-60.76,1677486491.109375
-60.85,1677486491.125
-60.09,1677486491.140625
-59.11,1677486491.15625
-58.67,1677486491.171875
-59.46,1677486491.1875
-61.81,1677486491.203125
-65.63,1677486491.21875
-70.47,1677486491.234375
-75.73,1677486491.25
-80.85,1677486491.265625
-85.46,1677486491.28125
-89.42,1677486491.296875
-92.77,1677486491.3125
-95.75,1677486491.328125
-98.77,1677486491.34375
-102.43,1677486491.359375
-107.27,1677486491.375
-113.44,1677486491.390625
-120.2,1677486491.40625
-125.85,1677486491.421875
-128.01,1677486491.4375
-124.47,1677486491.453125
-114.05,1677486491.46875
-97.19,1677486491.484375
-75.79,1677486491.5
-52.53,1677486491.515625
-29.9,1677486491.53125
-9.43,1677486491.546875
8.44,1677486491.5625
23.96,1677486491.578125
37.48,1677486491.59375
49.03,1677486491.609375
58.25,1677486491.625
64.74,1677486491.640625
68.37,1677486491.65625
69.55,1677486491.671875
69.04,1677486491.6875
67.61,1677486491.703125
65.76,1677486491.71875
63.54,1677486491.734375
60.77,1677486491.75
57.31,1677486491.765625
53.37,1677486491.78125
49.4,1677486491.796875
45.95,1677486491.8125
43.3,1677486491.828125
41.23,1677486491.84375
39.03,1677486491.859375
35.8,1677486491.875
30.77,1677486491.890625
23.59,1677486491.90625
14.43,1677486491.921875
3.87,1677486491.9375
-7.34,1677486491.953125
-18.52,1677486491.96875
-29.3,1677486491.984375
-39.77,1677486492.0
-50.41,1677486492.015625
-61.88,1677486492.03125
-74.71,1677486492.046875
-88.85,1677486492.0625
-103.58,1677486492.078125
-117.46,1677486492.09375
-128.74,1677486492.109375
-135.91,1677486492.125
-138.24,1677486492.140625
-136.04,1677486492.15625
-130.73,1677486492.171875
-124.41,1677486492.1875
-119.21,1677486492.203125
-116.65,1677486492.21875
-116.98,1677486492.234375
-119.05,1677486492.25
-120.52,1677486492.265625
-118.48,1677486492.28125
-110.36,1677486492.296875
-94.69,1677486492.3125
-71.49,1677486492.328125
-42.15,1677486492.34375
-8.92,1677486492.359375
25.78,1677486492.375
59.95,1677486492.390625
92.24,1677486492.40625
121.84,1677486492.421875
148.19,1677486492.4375
170.73,1677486492.453125
188.78,1677486492.46875
201.81,1677486492.484375
209.65,1677486492.5
212.72,1677486492.515625
212.0,1677486492.53125
208.71,1677486492.546875
203.97,1677486492.5625
198.35,1677486492.578125
191.89,1677486492.59375
184.16,1677486492.609375
174.66,1677486492.625
163.15,1677486492.640625
149.85,1677486492.65625
135.32,1677486492.671875
120.34,1677486492.6875
105.6,1677486492.703125
91.6,1677486492.71875
78.51,1677486492.734375
66.28,1677486492.75
54.69,1677486492.765625
43.51,1677486492.78125
32.65,1677486492.796875
22.2,1677486492.8125
12.39,1677486492.828125
3.5,1677486492.84375
-4.41,1677486492.859375
-11.51,1677486492.875
-18.2,1677486492.890625
-25.01,1677486492.90625
-32.36,1677486492.921875
-40.54,1677486492.9375
-49.71,1677486492.953125
-59.93,1677486492.96875
-71.01,1677486492.984375
-82.34,1677486493.0
-92.61,1677486493.015625
-99.93,1677486493.03125
-102.26,1677486493.046875
-98.15,1677486493.0625
-87.41,1677486493.078125
-71.34,1677486493.09375
-52.33,1677486493.109375
-33.08,1677486493.125
-15.73,1677486493.140625
-1.39,1677486493.15625
9.82,1677486493.171875
18.28,1677486493.1875
24.43,1677486493.203125
28.47,1677486493.21875
30.43,1677486493.234375
30.42,1677486493.25
28.84,1677486493.265625
26.33,1677486493.28125
23.62,1677486493.296875
21.25,1677486493.3125
19.39,1677486493.328125
17.93,1677486493.34375
16.62,1677486493.359375
15.24,1677486493.375
13.77,1677486493.390625
12.26,1677486493.40625
10.75,1677486493.421875
9.13,1677486493.4375
7.02,1677486493.453125
3.99,1677486493.46875
-0.33,1677486493.484375
-6.0,1677486493.5
-12.69,1677486493.515625
-19.78,1677486493.53125
-26.6,1677486493.546875
-32.66,1677486493.5625
-37.87,1677486493.578125
-42.57,1677486493.59375
-47.46,1677486493.609375
-53.39,1677486493.625
-60.98,1677486493.640625
-70.38,1677486493.65625
-80.86,1677486493.671875
-90.83,1677486493.6875
-98.03,1677486493.703125
-100.13,1677486493.71875
-95.5,1677486493.734375
-83.84,1677486493.75
-66.42,1677486493.765625
-45.73,1677486493.78125
-24.68,1677486493.796875
-5.76,1677486493.8125
9.6,1677486493.828125
21.14,1677486493.84375
29.38,1677486493.859375
35.06,1677486493.875
38.63,1677486493.890625
40.19,1677486493.90625
39.63,1677486493.921875
37.06,1677486493.9375
33.01,1677486493.953125
28.39,1677486493.96875
24.25,1677486493.984375
21.32,1677486494.0
19.8,1677486494.015625
19.29,1677486494.03125
19.05,1677486494.046875
18.33,1677486494.0625
16.59,1677486494.078125
13.63,1677486494.09375
9.47,1677486494.109375
4.25,1677486494.125
-1.85,1677486494.140625
-8.58,1677486494.15625
-15.67,1677486494.171875
-22.76,1677486494.1875
-29.6,1677486494.203125
-36.14,1677486494.21875
-42.64,1677486494.234375
-49.67,1677486494.25
-57.91,1677486494.265625
-67.75,1677486494.28125
-78.95,1677486494.296875
-90.28,1677486494.3125
-99.64,1677486494.328125
-104.48,1677486494.34375
-102.61,1677486494.359375
-93.0,1677486494.375
-76.3,1677486494.390625
-54.68,1677486494.40625
-31.26,1677486494.421875
-9.03,1677486494.4375
9.94,1677486494.453125
24.89,1677486494.46875
36.16,1677486494.484375
44.64,1677486494.5
51.07,1677486494.515625
55.73,1677486494.53125
58.53,1677486494.546875
59.25,1677486494.5625
57.91,1677486494.578125
54.94,1677486494.59375
51.04,1677486494.609375
46.97,1677486494.625
43.24,1677486494.640625
40.01,1677486494.65625
37.1,1677486494.671875
34.18,1677486494.6875
30.9,1677486494.703125
27.01,1677486494.71875
22.34,1677486494.734375
16.77,1677486494.75
10.23,1677486494.765625
2.77,1677486494.78125
-5.41,1677486494.796875
-13.96,1677486494.8125
-22.43,1677486494.828125
-30.53,1677486494.84375
-38.23,1677486494.859375
-45.94,1677486494.875
-54.42,1677486494.890625
-64.61,1677486494.90625
-77.1,1677486494.921875
-91.77,1677486494.9375
-107.32,1677486494.953125
-121.3,1677486494.96875
-130.61,1677486494.984375
-132.4,1677486495.0
-125.08,1677486495.015625
-108.95,1677486495.03125
-86.15,1677486495.046875
-59.98,1677486495.0625
-33.81,1677486495.078125
-10.1,1677486495.09375
10.01,1677486495.109375
26.55,1677486495.125
40.12,1677486495.140625
51.26,1677486495.15625
60.16,1677486495.171875
66.7,1677486495.1875
70.81,1677486495.203125
72.78,1677486495.21875
73.35,1677486495.234375
73.55,1677486495.25
74.3,1677486495.265625
76.07,1677486495.28125
78.74,1677486495.296875
81.73,1677486495.3125
84.24,1677486495.328125
85.71,1677486495.34375
85.97,1677486495.359375
85.24,1677486495.375
83.98,1677486495.390625
82.47,1677486495.40625
80.61,1677486495.421875
77.85,1677486495.4375
73.45,1677486495.453125
66.82,1677486495.46875
58.02,1677486495.484375
47.97,1677486495.5
38.25,1677486495.515625
30.59,1677486495.53125
26.17,1677486495.546875
24.95,1677486495.5625
25.59,1677486495.578125
25.77,1677486495.59375
22.96,1677486495.609375
15.16,1677486495.625
1.48,1677486495.640625
-17.59,1677486495.65625
-40.19,1677486495.671875
-63.35,1677486495.6875
-83.49,1677486495.703125
-97.15,1677486495.71875
-101.76,1677486495.734375
-96.39,1677486495.75
-81.93,1677486495.765625
-60.9,1677486495.78125
-36.57,1677486495.796875
-12.06,1677486495.8125
10.43,1677486495.828125
29.85,1677486495.84375
46.03,1677486495.859375
59.22,1677486495.875
69.66,1677486495.890625
77.37,1677486495.90625
82.3,1677486495.921875
84.51,1677486495.9375
84.29,1677486495.953125
82.19,1677486495.96875
78.85,1677486495.984375
74.83,1677486496.0
70.51,1677486496.015625
66.05,1677486496.03125
61.51,1677486496.046875
57.03,1677486496.0625
52.8,1677486496.078125
49.03,1677486496.09375
45.76,1677486496.109375
42.85,1677486496.125
39.99,1677486496.140625
36.95,1677486496.15625
33.71,1677486496.171875
30.57,1677486496.1875
28.03,1677486496.203125
26.45,1677486496.21875
25.75,1677486496.234375
25.29,1677486496.25
24.03,1677486496.265625
20.85,1677486496.28125
14.95,1677486496.296875
6.14,1677486496.3125
-5.18,1677486496.328125
-18.25,1677486496.34375
-32.34,1677486496.359375
-47.11,1677486496.375
-62.66,1677486496.390625
-79.38,1677486496.40625
-97.63,1677486496.421875
-117.28,1677486496.4375
-137.53,1677486496.453125
-157.03,1677486496.46875
-174.16,1677486496.484375
-187.54,1677486496.5
-196.34,1677486496.515625
-200.54,1677486496.53125
-200.93,1677486496.546875
-199.02,1677486496.5625
-196.61,1677486496.578125
-195.28,1677486496.59375
-195.62,1677486496.609375
-196.71,1677486496.625
-196.15,1677486496.640625
-190.72,1677486496.65625
-177.61,1677486496.671875
-155.56,1677486496.6875
-125.51,1677486496.703125
-90.24,1677486496.71875
-53.32,1677486496.734375
-17.9,1677486496.75
14.18,1677486496.765625
42.43,1677486496.78125
67.17,1677486496.796875
88.83,1677486496.8125
107.48,1677486496.828125
122.85,1677486496.84375
134.56,1677486496.859375
142.52,1677486496.875
147.07,1677486496.890625
148.89,1677486496.90625
148.85,1677486496.921875
147.71,1677486496.9375
146.0,1677486496.953125
144.0,1677486496.96875
141.76,1677486496.984375
139.25,1677486497.0
136.47,1677486497.015625
133.45,1677486497.03125
130.3,1677486497.046875
127.05,1677486497.0625
123.62,1677486497.078125
119.77,1677486497.09375
115.21,1677486497.109375
109.77,1677486497.125
103.44,1677486497.140625
96.48,1677486497.15625
89.19,1677486497.171875
81.87,1677486497.1875
74.66,1677486497.203125
67.54,1677486497.21875
60.4,1677486497.234375
53.17,1677486497.25
45.83,1677486497.265625
38.41,1677486497.28125
30.96,1677486497.296875
23.48,1677486497.3125
15.94,1677486497.328125
8.25,1677486497.34375
0.35,1677486497.359375
-7.76,1677486497.375
-16.02,1677486497.390625
-24.3,1677486497.40625
-32.36,1677486497.421875
-40.01,1677486497.4375
-47.18,1677486497.453125
-54.09,1677486497.46875
-61.28,1677486497.484375
-69.58,1677486497.5
-79.69,1677486497.515625
-91.73,1677486497.53125
-104.87,1677486497.546875
-117.14,1677486497.5625
-125.88,1677486497.578125
-128.49,1677486497.59375
-123.34,1677486497.609375
-110.38,1677486497.625
-91.25,1677486497.640625
-68.66,1677486497.65625
-45.46,1677486497.671875
-23.83,1677486497.6875
-4.77,1677486497.703125
11.66,1677486497.71875
25.94,1677486497.734375
38.45,1677486497.75
49.28,1677486497.765625
58.16,1677486497.78125
64.91,1677486497.796875
69.57,1677486497.8125
72.58,1677486497.828125
74.54,1677486497.84375
75.96,1677486497.859375
77.11,1677486497.875
77.94,1677486497.890625
78.29,1677486497.90625
78.02,1677486497.921875
77.19,1677486497.9375
75.97,1677486497.953125
74.58,1677486497.96875
73.16,1677486497.984375
71.71,1677486498.0
70.14,1677486498.015625
68.29,1677486498.03125
65.98,1677486498.046875
63.07,1677486498.0625
59.45,1677486498.078125
55.08,1677486498.09375
50.01,1677486498.109375
44.51,1677486498.125
38.9,1677486498.140625
33.53,1677486498.15625
28.55,1677486498.171875
23.84,1677486498.1875
19.07,1677486498.203125
13.84,1677486498.21875
7.9,1677486498.234375
1.25,1677486498.25
-5.89,1677486498.265625
-13.18,1677486498.28125
-20.32,1677486498.296875
-27.16,1677486498.3125
-33.7,1677486498.328125
-40.12,1677486498.34375
-46.66,1677486498.359375
-53.72,1677486498.375
-61.72,1677486498.390625
-71.04,1677486498.40625
-81.7,1677486498.421875
-93.12,1677486498.4375
-103.94,1677486498.453125
-112.14,1677486498.46875
-115.54,1677486498.484375
-112.5,1677486498.5
-102.55,1677486498.515625
-86.66,1677486498.53125
-67.03,1677486498.546875
-46.36,1677486498.5625
-27.04,1677486498.578125
-10.54,1677486498.59375
2.75,1677486498.609375
13.24,1677486498.625
21.58,1677486498.640625
28.2,1677486498.65625
33.26,1677486498.671875
36.71,1677486498.6875
38.59,1677486498.703125
39.19,1677486498.71875
39.04,1677486498.734375
38.72,1677486498.75
38.61,1677486498.765625
38.77,1677486498.78125
38.95,1677486498.796875
38.82,1677486498.8125
38.18,1677486498.828125
37.05,1677486498.84375
35.73,1677486498.859375
34.53,1677486498.875
33.52,1677486498.890625
32.46,1677486498.90625
30.88,1677486498.921875
28.26,1677486498.9375
24.41,1677486498.953125
19.58,1677486498.96875
14.4,1677486498.984375
9.54,1677486499.0
5.41,1677486499.015625
1.91,1677486499.03125
-1.42,1677486499.046875
-5.22,1677486499.0625
-9.9,1677486499.078125
-15.49,1677486499.09375
-21.62,1677486499.109375
-27.7,1677486499.125
-33.22,1677486499.140625
-37.95,1677486499.15625
-41.95,1677486499.171875
-45.58,1677486499.1875
-49.33,1677486499.203125
-53.74,1677486499.21875
-59.3,1677486499.234375
-66.35,1677486499.25
-74.82,1677486499.265625
-83.99,1677486499.28125
-92.34,1677486499.296875
-97.76,1677486499.3125
-98.16,1677486499.328125
-92.32,1677486499.34375
-80.4,1677486499.359375
-64.09,1677486499.375
-45.94,1677486499.390625
-28.51,1677486499.40625
-13.5,1677486499.421875
-1.43,1677486499.4375
8.09,1677486499.453125
15.78,1677486499.46875
22.17,1677486499.484375
27.35,1677486499.5
31.11,1677486499.515625
33.31,1677486499.53125
34.07,1677486499.546875
33.84,1677486499.5625
33.18,1677486499.578125
32.62,1677486499.59375
32.41,1677486499.609375
32.5,1677486499.625
32.6,1677486499.640625
32.35,1677486499.65625
31.49,1677486499.671875
29.97,1677486499.6875
28.0,1677486499.703125
25.89,1677486499.71875
23.91,1677486499.734375
22.13,1677486499.75
20.39,1677486499.765625
18.3,1677486499.78125
15.52,1677486499.796875
11.82,1677486499.8125
7.28,1677486499.828125
2.25,1677486499.84375
-2.8,1677486499.859375
-7.39,1677486499.875
-11.3,1677486499.890625
-14.52,1677486499.90625
-17.34,1677486499.921875
-20.17,1677486499.9375
-23.44,1677486499.953125
-27.5,1677486499.96875
-32.55,1677486499.984375
-38.62,1677486500.0
-45.47,1677486500.015625
-52.47,1677486500.03125
-58.52,1677486500.046875
-62.17,1677486500.0625
-61.9,1677486500.078125
-56.62,1677486500.09375
-46.2,1677486500.109375
-31.56,1677486500.125
-14.55,1677486500.140625
2.66,1677486500.15625
18.26,1677486500.171875
31.24,1677486500.1875
41.52,1677486500.203125
49.59,1677486500.21875
56.07,1677486500.234375
61.37,1677486500.25
65.51,1677486500.265625
68.33,1677486500.28125
69.76,1677486500.296875
70.04,1677486500.3125
69.68,1677486500.328125
69.35,1677486500.34375
69.51,1677486500.359375
70.14,1677486500.375
70.69,1677486500.390625
70.29,1677486500.40625
68.09,1677486500.421875
63.68,1677486500.4375
57.21,1677486500.453125
49.29,1677486500.46875
40.63,1677486500.484375
31.67,1677486500.5
22.41,1677486500.515625
12.58,1677486500.53125
1.88,1677486500.546875
-9.61,1677486500.5625
-21.4,1677486500.578125
-32.64,1677486500.59375
-42.52,1677486500.609375
-50.5,1677486500.625
-56.54,1677486500.640625
-61.02,1677486500.65625
-64.55,1677486500.671875
-67.78,1677486500.6875
-71.26,1677486500.703125
-75.39,1677486500.71875
-80.52,1677486500.734375
-86.89,1677486500.75
-94.55,1677486500.765625
-103.05,1677486500.78125
-111.34,1677486500.796875
-117.72,1677486500.8125
-120.36,1677486500.828125
-117.9,1677486500.84375
-110.07,1677486500.859375
-97.86,1677486500.875
-83.29,1677486500.890625
-68.55,1677486500.90625
-55.25,1677486500.921875
-44.01,1677486500.9375
-34.58,1677486500.953125
-26.35,1677486500.96875
-18.97,1677486500.984375
-12.59,1677486501.0
-7.69,1677486501.015625
-4.76,1677486501.03125
-3.88,1677486501.046875
-4.65,1677486501.0625
-6.44,1677486501.078125
-8.73,1677486501.09375
-11.32,1677486501.109375
-14.41,1677486501.125
-18.38,1677486501.140625
-23.47,1677486501.15625
-29.6,1677486501.171875
-36.33,1677486501.1875
-43.02,1677486501.203125
-49.03,1677486501.21875
-53.77,1677486501.234375
-56.69,1677486501.25
-57.28,1677486501.265625
-55.09,1677486501.28125
-49.89,1677486501.296875
-41.85,1677486501.3125
-31.66,1677486501.328125
-20.43,1677486501.34375
-9.43,1677486501.359375
0.29,1677486501.375
8.13,1677486501.390625
13.94,1677486501.40625
17.84,1677486501.421875
19.92,1677486501.4375
20.09,1677486501.453125
18.1,1677486501.46875
13.69,1677486501.484375
6.79,1677486501.5
-2.48,1677486501.515625
-13.83,1677486501.53125
-26.93,1677486501.546875
-41.26,1677486501.5625
-55.92,1677486501.578125
-69.37,1677486501.59375
-79.5,1677486501.609375
-84.03,1677486501.625
-81.36,1677486501.640625
-71.2,1677486501.65625
-54.94,1677486501.671875
-35.22,1677486501.6875
-15.07,1677486501.703125
3.1,1677486501.71875
18.13,1677486501.734375
30.07,1677486501.75
39.71,1677486501.765625
47.78,1677486501.78125
54.54,1677486501.796875
59.78,1677486501.8125
63.16,1677486501.828125
64.55,1677486501.84375
64.25,1677486501.859375
62.86,1677486501.875
60.99,1677486501.890625
59.04,1677486501.90625
57.14,1677486501.921875
55.27,1677486501.9375
53.4,1677486501.953125
51.67,1677486501.96875
50.2,1677486501.984375
49.04,1677486502.0
47.96,1677486502.015625
46.51,1677486502.03125
44.15,1677486502.046875
40.55,1677486502.0625
35.72,1677486502.078125
30.03,1677486502.09375
23.98,1677486502.109375
17.96,1677486502.125
12.1,1677486502.140625
6.24,1677486502.15625
0.07,1677486502.171875
-6.58,1677486502.1875
-13.72,1677486502.203125
-21.05,1677486502.21875
-28.19,1677486502.234375
-34.79,1677486502.25
-40.72,1677486502.265625
-46.18,1677486502.28125
-51.6,1677486502.296875
-57.7,1677486502.3125
-65.19,1677486502.328125
-74.55,1677486502.34375
-85.69,1677486502.359375
-97.61,1677486502.375
-108.39,1677486502.390625
-115.54,1677486502.40625
-116.66,1677486502.421875
-110.26,1677486502.4375
-96.39,1677486502.453125
-76.57,1677486502.46875
-53.43,1677486502.484375
-29.81,1677486502.5
-8.0,1677486502.515625
10.7,1677486502.53125
25.95,1677486502.546875
38.05,1677486502.5625
47.49,1677486502.578125
54.69,1677486502.59375
59.91,1677486502.609375
63.35,1677486502.625
65.25,1677486502.640625
65.91,1677486502.65625
65.74,1677486502.671875
65.13,1677486502.6875
64.45,1677486502.703125
63.93,1677486502.71875
63.66,1677486502.734375
63.57,1677486502.75
63.49,1677486502.765625
63.14,1677486502.78125
62.26,1677486502.796875
60.62,1677486502.8125
58.04,1677486502.828125
54.47,1677486502.84375
49.98,1677486502.859375
44.78,1677486502.875
39.14,1677486502.890625
33.35,1677486502.90625
