PPG GREEN,time
2041660.0,1623756319.732
2043495.0,1623756319.772
2044607.0,1623756319.812
2045814.0,1623756319.852
2047323.0,1623756319.892
2048984.0,1623756319.932
2049819.0,1623756319.972
2051700.0,1623756320.012
2053002.0,1623756320.052
2053928.0,1623756320.092
2054491.0,1623756320.132
2055004.0,1623756320.172
2056818.0,1623756320.212
2056948.0,1623756320.252
2057136.0,1623756320.292
2057639.0,1623756320.332
2057222.0,1623756320.372
2058794.0,1623756320.412
2060039.0,1623756320.452
2060278.0,1623756320.492
2060859.0,1623756320.532
2061358.0,1623756320.572
2061404.0,1623756320.612
2062200.0,1623756320.652
2063053.0,1623756320.692
2063542.0,1623756320.732
2064287.0,1623756320.772
2065733.0,1623756320.812
2066536.0,1623756320.852
2067448.0,1623756320.892
2068150.0,1623756320.932
2068265.0,1623756320.972
2068216.0,1623756321.012
2068277.0,1623756321.052
2067639.0,1623756321.092
2068296.0,1623756321.132
2068865.0,1623756321.172
2069045.0,1623756321.212
2068492.0,1623756321.252
2052320.0,1623756321.292
2038570.0,1623756321.332
2029981.0,1623756321.372
2029485.0,1623756321.412
2032348.0,1623756321.452
2037501.0,1623756321.492
2044173.0,1623756321.532
2046794.0,1623756321.572
2046083.0,1623756321.612
2045434.0,1623756321.652
2046326.0,1623756321.692
2047053.0,1623756321.732
2047322.0,1623756321.772
2049389.0,1623756321.812
2048434.0,1623756321.852
2049630.0,1623756321.892
2052760.0,1623756321.932
2055509.0,1623756321.972
2056866.0,1623756322.012
2058411.0,1623756322.052
2061606.0,1623756322.092
2064839.0,1623756322.132
2067848.0,1623756322.172
2069057.0,1623756322.212
2072784.0,1623756322.252
2075202.0,1623756322.292
2078277.0,1623756322.332
2083917.0,1623756322.372
2083299.0,1623756322.412
2078023.0,1623756322.452
2077118.0,1623756322.492
2070826.0,1623756322.532
2064603.0,1623756322.572
2063482.0,1623756322.612
2068030.0,1623756322.652
2070162.0,1623756322.692
2070328.0,1623756322.732
2073375.0,1623756322.772
2076722.0,1623756322.812
2083152.0,1623756322.852
2088423.0,1623756322.892
2091514.0,1623756322.932
2095183.0,1623756322.972
2098068.0,1623756323.012
2101580.0,1623756323.052
2106399.0,1623756323.092
2110719.0,1623756323.132
2113045.0,1623756323.172
2115663.0,1623756323.212
2117206.0,1623756323.252
2117727.0,1623756323.292
2118333.0,1623756323.332
2120155.0,1623756323.372
2121289.0,1623756323.412
2121490.0,1623756323.452
2122186.0,1623756323.492
2123765.0,1623756323.532
2123528.0,1623756323.572
2121821.0,1623756323.612
2120716.0,1623756323.652
2120570.0,1623756323.692
2121118.0,1623756323.732
2123159.0,1623756323.772
2124189.0,1623756323.812
2125398.0,1623756323.852
2126841.0,1623756323.892
2127517.0,1623756323.932
2128228.0,1623756323.972
2129506.0,1623756324.012
2130213.0,1623756324.052
2130869.0,1623756324.092
2131686.0,1623756324.132
2132437.0,1623756324.172
2132138.0,1623756324.212
2131302.0,1623756324.252
2130334.0,1623756324.292
2129801.0,1623756324.332
2128895.0,1623756324.372
2128539.0,1623756324.412
2128387.0,1623756324.452
2127901.0,1623756324.492
2127374.0,1623756324.532
2126719.0,1623756324.572
2127033.0,1623756324.612
2127138.0,1623756324.652
2127743.0,1623756324.692
2129098.0,1623756324.732
2129410.0,1623756324.772
2128941.0,1623756324.812
2127555.0,1623756324.852
2126367.0,1623756324.892
2124628.0,1623756324.98
2123053.0,1623756325.019
2121914.0,1623756325.059
2122182.0,1623756325.1
2123499.0,1623756325.139
2124450.0,1623756325.18
2124400.0,1623756325.22
2124427.0,1623756325.259
2124706.0,1623756325.299
2124299.0,1623756325.341
2123606.0,1623756325.38
2123067.0,1623756325.42
2124007.0,1623756325.461
2124659.0,1623756325.5
2124617.0,1623756325.54
2124431.0,1623756325.582
2124282.0,1623756325.62
2123439.0,1623756325.66
2121890.0,1623756325.701
2121252.0,1623756325.74
2120708.0,1623756325.781
2120223.0,1623756325.822
2120722.0,1623756325.861
2120287.0,1623756325.901
2119831.0,1623756325.942
2118859.0,1623756325.982
2117594.0,1623756326.021
2117333.0,1623756326.062
2118258.0,1623756326.101
2118901.0,1623756326.141
2118412.0,1623756326.183
2118806.0,1623756326.221
2118746.0,1623756326.262
2119117.0,1623756326.303
2118603.0,1623756326.342
2116824.0,1623756326.383
2115697.0,1623756326.423
2114779.0,1623756326.462
2113274.0,1623756326.502
2112890.0,1623756326.543
2112618.0,1623756326.583
2112092.0,1623756326.622
2111869.0,1623756326.664
2111869.0,1623756326.703
2111469.0,1623756326.743
2111027.0,1623756326.785
2110381.0,1623756326.823
2110931.0,1623756326.863
2111468.0,1623756326.904
2111577.0,1623756326.943
2111582.0,1623756326.98
2111261.0,1623756327.018
2110507.0,1623756327.057
2109795.0,1623756327.098
2108405.0,1623756327.139
2108800.0,1623756327.179
2109865.0,1623756327.219
2108752.0,1623756327.26
2107581.0,1623756327.299
2104716.0,1623756327.339
2100540.0,1623756327.379
2099785.0,1623756327.418
2098737.0,1623756327.458
2098735.0,1623756327.499
2099649.0,1623756327.539
2096757.0,1623756327.7
2094811.0,1623756327.741
2098696.0,1623756327.621
2097986.0,1623756327.66
2099764.0,1623756327.58
2093325.0,1623756327.781
2090964.0,1623756327.82
2089052.0,1623756327.861
2088648.0,1623756327.9
2088325.0,1623756327.94
2087727.0,1623756327.982
2086449.0,1623756328.02
2085185.0,1623756328.06
2084048.0,1623756328.101
2083011.0,1623756328.141
2081781.0,1623756328.181
2080510.0,1623756328.222
2081009.0,1623756328.261
2082862.0,1623756328.297
2083178.0,1623756328.338
2083532.0,1623756328.379
2083546.0,1623756328.418
2080040.0,1623756328.459
2077846.0,1623756328.498
2077175.0,1623756328.539
2075716.0,1623756328.581
2074028.0,1623756328.619
2073686.0,1623756328.659
2072763.0,1623756328.701
2071563.0,1623756328.737
2070236.0,1623756328.77
2070541.0,1623756328.811
2071913.0,1623756328.85
2071367.0,1623756328.89
2071765.0,1623756328.931
2071963.0,1623756328.971
2072071.0,1623756329.01
2072101.0,1623756329.051
2070328.0,1623756329.091
2069274.0,1623756329.131
2069397.0,1623756329.172
2069219.0,1623756329.211
2068347.0,1623756329.251
2069432.0,1623756329.292
2068974.0,1623756329.331
2068444.0,1623756329.372
2068203.0,1623756329.412
2067283.0,1623756329.45
2067254.0,1623756329.49
2067493.0,1623756329.525
2067149.0,1623756329.562
2068076.0,1623756329.6
2068195.0,1623756329.641
2069133.0,1623756329.68
2069308.0,1623756329.72
2067907.0,1623756329.762
2067093.0,1623756329.801
2066110.0,1623756329.841
2064647.0,1623756329.883
2064223.0,1623756329.92
2063049.0,1623756329.961
2061305.0,1623756329.998
2059793.0,1623756330.037
2059651.0,1623756330.077
2059669.0,1623756330.119
2059446.0,1623756330.158
2059314.0,1623756330.198
2058982.0,1623756330.239
2060181.0,1623756330.278
2060408.0,1623756330.318
2059341.0,1623756330.36
2058558.0,1623756330.398
2058588.0,1623756330.438
2057472.0,1623756330.479
2055207.0,1623756330.518
2053988.0,1623756330.559
2052949.0,1623756330.599
2052111.0,1623756330.638
2052470.0,1623756330.68
2052213.0,1623756330.721
2049970.0,1623756330.761
2048725.0,1623756330.801
2050102.0,1623756330.842
2050752.0,1623756330.88
2051393.0,1623756330.921
2052529.0,1623756330.963
2051891.0,1623756331.002
2050707.0,1623756331.042
2050248.0,1623756331.083
2048926.0,1623756331.12
2045301.0,1623756331.161
2042822.0,1623756331.201
2041872.0,1623756331.236
2040783.0,1623756331.276
2040954.0,1623756331.317
2039831.0,1623756331.357
2038915.0,1623756331.396
2038664.0,1623756331.438
2039742.0,1623756331.477
2039490.0,1623756331.517
2038254.0,1623756331.559
2037751.0,1623756331.597
2036593.0,1623756331.637
2034608.0,1623756331.678
2033099.0,1623756331.717
2031783.0,1623756331.758
2029895.0,1623756331.798
2027838.0,1623756331.838
2026585.0,1623756331.878
2026551.0,1623756331.92
2026980.0,1623756331.96
2027415.0,1623756331.999
2027009.0,1623756332.041
2026999.0,1623756332.08
2026733.0,1623756332.121
2026066.0,1623756332.163
2025651.0,1623756332.201
2025841.0,1623756332.233
2025119.0,1623756332.275
2024939.0,1623756332.314
2023611.0,1623756332.354
2021942.0,1623756332.395
2021518.0,1623756332.434
2020588.0,1623756332.474
2019572.0,1623756332.515
2019127.0,1623756332.555
2018357.0,1623756332.594
2017795.0,1623756332.635
2016689.0,1623756332.675
2015680.0,1623756332.715
2015089.0,1623756332.756
2014430.0,1623756332.795
2013719.0,1623756332.835
2013163.0,1623756332.876
2012720.0,1623756332.915
2012025.0,1623756332.957
2010382.0,1623756332.995
2008800.0,1623756333.034
2007456.0,1623756333.072
2006533.0,1623756333.105
2005868.0,1623756333.144
2005226.0,1623756333.183
2004821.0,1623756333.222
2003905.0,1623756333.261
2003075.0,1623756333.301
2002737.0,1623756333.343
2002097.0,1623756333.381
2001492.0,1623756333.42
2001694.0,1623756333.461
2001303.0,1623756333.5
2001107.0,1623756333.54
2000403.0,1623756333.581
1999578.0,1623756333.62
1998168.0,1623756333.66
1996922.0,1623756333.701
1996205.0,1623756333.741
1995367.0,1623756333.78
1995421.0,1623756333.821
1995381.0,1623756333.86
1994629.0,1623756333.9
1994441.0,1623756333.942
1993714.0,1623756333.981
1993130.0,1623756334.021
1992421.0,1623756334.062
1992226.0,1623756334.101
1992375.0,1623756334.142
1991478.0,1623756334.182
1990904.0,1623756334.221
1989557.0,1623756334.262
1987481.0,1623756334.303
1986092.0,1623756334.343
1984033.0,1623756334.382
1983173.0,1623756334.424
1982174.0,1623756334.463
1981288.0,1623756334.503
1980703.0,1623756334.543
1979746.0,1623756334.581
1978868.0,1623756334.622
1978182.0,1623756334.663
1978182.0,1623756334.698
1977454.0,1623756334.739
1977094.0,1623756334.779
1976636.0,1623756334.818
1975895.0,1623756334.858
1975112.0,1623756334.9
1974250.0,1623756334.939
1972857.0,1623756334.979
1970845.0,1623756335.02
1969213.0,1623756335.059
1967456.0,1623756335.099
1966564.0,1623756335.141
1965612.0,1623756335.179
1964821.0,1623756335.219
1964318.0,1623756335.26
1963043.0,1623756335.3
1962898.0,1623756335.34
1962584.0,1623756335.381
1961901.0,1623756335.42
1961371.0,1623756335.461
1960815.0,1623756335.503
1960300.0,1623756335.543
1959904.0,1623756335.582
1959707.0,1623756335.623
1959242.0,1623756335.662
1958150.0,1623756335.702
1956902.0,1623756335.744
1955352.0,1623756335.783
1953978.0,1623756335.823
1952863.0,1623756335.864
1951798.0,1623756335.901
1951077.0,1623756335.938
1950515.0,1623756335.979
1950017.0,1623756336.018
1949242.0,1623756336.058
1949097.0,1623756336.099
1948652.0,1623756336.139
1948318.0,1623756336.178
1947975.0,1623756336.219
1948037.0,1623756336.258
1947724.0,1623756336.298
1947900.0,1623756336.34
1948034.0,1623756336.378
1947437.0,1623756336.419
1945741.0,1623756336.46
1942444.0,1623756336.499
1940931.0,1623756336.54
1939995.0,1623756336.58
1939624.0,1623756336.62
1939955.0,1623756336.658
1938384.0,1623756336.697
1936507.0,1623756336.732
1936637.0,1623756336.769
1937697.0,1623756336.806
1939343.0,1623756336.843
1942809.0,1623756336.884
1945061.0,1623756336.923
1948008.0,1623756336.962
1950710.0,1623756337.001
1952954.0,1623756337.04
1955070.0,1623756337.079
1958050.0,1623756337.118
1966234.0,1623756337.196
1962231.0,1623756337.157
1971516.0,1623756337.235
1984412.0,1623756337.274
2015595.0,1623756337.313
2007298.0,1623756337.43
2028500.0,1623756337.352
2001276.0,1623756337.508
2009080.0,1623756337.547
2020103.0,1623756337.586
2026886.0,1623756337.625
2029133.0,1623756337.664
2029639.0,1623756337.703
2027143.0,1623756337.742
2025597.0,1623756337.781
2028568.0,1623756337.82
2029538.0,1623756337.859
2027021.0,1623756337.898
2025581.0,1623756337.937
2023101.0,1623756337.976
2020716.0,1623756338.015
2020063.0,1623756338.054
2000705.0,1623756337.469
2018753.0,1623756337.391
2018801.0,1623756338.093
2018321.0,1623756338.132
2018845.0,1623756338.171
2020674.0,1623756338.21
2021378.0,1623756338.249
2020965.0,1623756338.288
2020039.0,1623756338.327
2019795.0,1623756338.366
2016485.0,1623756338.522
2014845.0,1623756338.561
2012678.0,1623756338.6
2011636.0,1623756338.639
2010535.0,1623756338.678
2010309.0,1623756338.717
2008938.0,1623756338.756
2009456.0,1623756338.795
2009307.0,1623756338.834
2009121.0,1623756338.873
2018646.0,1623756338.483
2009692.0,1623756338.912
2019767.0,1623756338.444
2011783.0,1623756338.99
2011445.0,1623756338.951
2020020.0,1623756338.405
2011674.0,1623756339.029
2012007.0,1623756339.068
2012463.0,1623756339.146
2012326.0,1623756339.185
2013029.0,1623756339.107
2010758.0,1623756339.224
2008572.0,1623756339.263
2008074.0,1623756339.302
2006442.0,1623756339.341
2006505.0,1623756339.38
2007900.0,1623756339.419
2007096.0,1623756339.458
2007746.0,1623756339.497
2008967.0,1623756339.536
2009546.0,1623756339.614
2008967.0,1623756339.575
2008559.0,1623756339.653
2009249.0,1623756339.692
2010338.0,1623756339.731
2013200.0,1623756339.809
2011340.0,1623756339.77
2014835.0,1623756339.848
2015195.0,1623756339.887
2014966.0,1623756339.926
2013968.0,1623756340.004
2014900.0,1623756339.965
2015175.0,1623756340.082
2015276.0,1623756340.121
2015322.0,1623756340.16
2014126.0,1623756340.043
2016095.0,1623756340.199
2015520.0,1623756340.238
2016567.0,1623756340.277
2017831.0,1623756340.316
2019366.0,1623756340.355
2020949.0,1623756340.394
2021637.0,1623756340.433
2022455.0,1623756340.472
2025101.0,1623756340.55
2023809.0,1623756340.511
2025111.0,1623756340.628
2025763.0,1623756340.589
2024488.0,1623756340.667
2023666.0,1623756340.706
2024073.0,1623756340.745
2024489.0,1623756340.784
2025099.0,1623756340.862
2025434.0,1623756340.823
2029350.0,1623756340.94
2027271.0,1623756340.901
2030211.0,1623756340.979
2030906.0,1623756341.018
2031880.0,1623756341.057
2033040.0,1623756341.096
2033680.0,1623756341.135
2035569.0,1623756341.174
2037771.0,1623756341.252
2036770.0,1623756341.213
2039549.0,1623756341.291
2038901.0,1623756341.33
2036973.0,1623756341.408
2037294.0,1623756341.486
2037676.0,1623756341.525
2037660.0,1623756341.564
2038158.0,1623756341.603
2036927.0,1623756341.447
2037501.0,1623756341.369
2038559.0,1623756341.642
2038674.0,1623756341.681
2040037.0,1623756341.72
2041232.0,1623756341.759
2041728.0,1623756341.798
2042528.0,1623756341.837
2043734.0,1623756341.876
2044430.0,1623756341.915
2044662.0,1623756341.954
2045685.0,1623756341.993
2045676.0,1623756342.032
2044453.0,1623756342.071
2043628.0,1623756342.11
2044385.0,1623756342.149
2044226.0,1623756342.188
2043839.0,1623756342.227
2044727.0,1623756342.266
2045151.0,1623756342.305
2045518.0,1623756342.344
2045585.0,1623756342.383
2045337.0,1623756342.422
2045983.0,1623756342.461
2046704.0,1623756342.5
2046520.0,1623756342.539
2046948.0,1623756342.578
2047671.0,1623756342.617
2048656.0,1623756342.656
2049636.0,1623756342.695
2049785.0,1623756342.734
2049098.0,1623756342.773
2047562.0,1623756342.812
2048023.0,1623756342.851
2047014.0,1623756342.89
2046701.0,1623756342.929
2047466.0,1623756342.968
2047881.0,1623756343.007
2047420.0,1623756343.046
2046965.0,1623756343.085
2047815.0,1623756343.124
2048014.0,1623756343.163
2047811.0,1623756343.202
2047772.0,1623756343.241
2046793.0,1623756343.281
2047646.0,1623756343.321
2048248.0,1623756343.361
2048999.0,1623756343.401
2050082.0,1623756343.441
2049356.0,1623756343.481
2049356.0,1623756343.521
2049409.0,1623756343.561
2049455.0,1623756343.601
2050136.0,1623756343.641
2050466.0,1623756343.681
2051120.0,1623756343.721
2051384.0,1623756343.761
2050771.0,1623756343.801
2050238.0,1623756343.841
2050673.0,1623756343.881
2051339.0,1623756343.921
2052093.0,1623756343.961
2053581.0,1623756344.001
2054088.0,1623756344.041
2054891.0,1623756344.081
2056105.0,1623756344.121
2055213.0,1623756344.161
2053403.0,1623756344.201
2049747.0,1623756344.241
2048074.0,1623756344.281
2048952.0,1623756344.321
2052114.0,1623756344.361
2052577.0,1623756344.401
2051239.0,1623756344.441
2049204.0,1623756344.481
2047906.0,1623756344.521
2047346.0,1623756344.561
2047528.0,1623756344.601
2047686.0,1623756344.641
2048158.0,1623756344.681
2046082.0,1623756344.721
2043182.0,1623756344.761
2040874.0,1623756344.801
2039030.0,1623756344.841
2037060.0,1623756344.881
2034546.0,1623756344.921
2030341.0,1623756344.961
2027520.0,1623756345.001
2026187.0,1623756345.041
2024837.0,1623756345.081
2022277.0,1623756345.121
2022288.0,1623756345.161
2023188.0,1623756345.201
2021560.0,1623756345.241
2021562.0,1623756345.281
2023655.0,1623756345.321
2027680.0,1623756345.361
2026338.0,1623756345.401
2024510.0,1623756345.441
2025977.0,1623756345.481
2025418.0,1623756345.521
2024308.0,1623756345.561
2023562.0,1623756345.601
2020860.0,1623756345.641
2018420.0,1623756345.681
2017874.0,1623756345.721
2017691.0,1623756345.761
2018502.0,1623756345.801
2018812.0,1623756345.841
2018560.0,1623756345.881
2018562.0,1623756345.921
2018623.0,1623756345.961
2018861.0,1623756346.001
2019127.0,1623756346.041
2016880.0,1623756346.081
2014580.0,1623756346.121
2012429.0,1623756346.161
2009690.0,1623756346.201
2007530.0,1623756346.241
2006336.0,1623756346.281
2005536.0,1623756346.321
2003927.0,1623756346.361
2002110.0,1623756346.401
2001191.0,1623756346.441
1999714.0,1623756346.481
1998306.0,1623756346.521
1997169.0,1623756346.561
1996160.0,1623756346.601
1995433.0,1623756346.641
1994044.0,1623756346.681
1992192.0,1623756346.721
1989745.0,1623756346.761
1987595.0,1623756346.801
1985090.0,1623756346.841
1983599.0,1623756346.881
1982677.0,1623756346.921
1980664.0,1623756346.961
1977184.0,1623756347.001
1976169.0,1623756347.041
1974763.0,1623756347.081
1974820.0,1623756347.121
1974014.0,1623756347.161
1971288.0,1623756347.201
1971288.0,1623756347.241
1970039.0,1623756347.281
1972989.0,1623756347.321
1977865.0,1623756347.361
1982652.0,1623756347.401
1987409.0,1623756347.441
1988687.0,1623756347.481
1988868.0,1623756347.521
1986652.0,1623756347.561
1984719.0,1623756347.601
1992447.0,1623756347.641
2017705.0,1623756347.681
2016675.0,1623756347.721
1997531.0,1623756347.761
1986278.0,1623756347.801
1987783.0,1623756347.841
1991632.0,1623756347.881
1995572.0,1623756347.921
1999834.0,1623756347.961
1999833.0,1623756348.001
1997725.0,1623756348.041
1994915.0,1623756348.081
1988386.0,1623756348.121
1977442.0,1623756348.161
1970836.0,1623756348.201
1968483.0,1623756348.241
1967380.0,1623756348.281
1967211.0,1623756348.321
1966437.0,1623756348.361
1966015.0,1623756348.401
1965051.0,1623756348.441
1965084.0,1623756348.481
1965220.0,1623756348.521
1965007.0,1623756348.561
1965249.0,1623756348.601
1965464.0,1623756348.641
1963884.0,1623756348.681
1964820.0,1623756348.721
1967033.0,1623756348.816
1968542.0,1623756348.855
1970080.0,1623756348.895
1971615.0,1623756348.936
1973419.0,1623756348.975
1975515.0,1623756349.016
1976414.0,1623756349.056
1978016.0,1623756349.095
1979946.0,1623756349.135
1982962.0,1623756349.176
1983443.0,1623756349.216
1982182.0,1623756349.256
1983939.0,1623756349.298
1985144.0,1623756349.337
1985425.0,1623756349.375
1985351.0,1623756349.417
1984444.0,1623756349.456
1982233.0,1623756349.496
1980619.0,1623756349.537
1980954.0,1623756349.576
1981367.0,1623756349.617
1980245.0,1623756349.658
1978527.0,1623756349.695
1977360.0,1623756349.735
1975471.0,1623756349.774
1974341.0,1623756349.814
1972862.0,1623756349.853
1972819.0,1623756349.894
1972700.0,1623756349.933
1973469.0,1623756349.973
1975980.0,1623756350.015
1976650.0,1623756350.053
1975432.0,1623756350.093
1976047.0,1623756350.135
1977154.0,1623756350.174
1977084.0,1623756350.214
1977397.0,1623756350.255
1977495.0,1623756350.294
1977428.0,1623756350.334
1977836.0,1623756350.375
1978036.0,1623756350.415
1977542.0,1623756350.455
1977789.0,1623756350.496
1977841.0,1623756350.536
1977430.0,1623756350.576
1977965.0,1623756350.618
1978184.0,1623756350.657
1977935.0,1623756350.697
1978499.0,1623756350.738
1979936.0,1623756350.777
1980872.0,1623756350.818
1981125.0,1623756350.859
1981896.0,1623756350.896
1982876.0,1623756350.936
1982357.0,1623756350.978
1983308.0,1623756351.017
1984172.0,1623756351.056
1983793.0,1623756351.098
1982621.0,1623756351.137
1982257.0,1623756351.178
1981204.0,1623756351.219
1980770.0,1623756351.258
1980506.0,1623756351.298
1980322.0,1623756351.339
1980505.0,1623756351.378
1980042.0,1623756351.419
1979903.0,1623756351.459
1979593.0,1623756351.498
1979619.0,1623756351.538
1979786.0,1623756351.579
1980055.0,1623756351.619
1980670.0,1623756351.659
1980867.0,1623756351.7
1980714.0,1623756351.739
1979935.0,1623756351.78
1978685.0,1623756351.82
1978308.0,1623756351.857
1977576.0,1623756351.897
1977064.0,1623756351.938
1977038.0,1623756351.977
1976882.0,1623756352.018
1976687.0,1623756352.059
1976892.0,1623756352.098
1976294.0,1623756352.138
1975979.0,1623756352.18
1976703.0,1623756352.217
1975364.0,1623756352.257
1972535.0,1623756352.297
1972635.0,1623756352.328
1977085.0,1623756352.368
1979126.0,1623756352.41
1976269.0,1623756352.448
1974948.0,1623756352.488
1975314.0,1623756352.529
1975650.0,1623756352.568
1975475.0,1623756352.609
1977935.0,1623756352.65
1978583.0,1623756352.689
1977551.0,1623756352.729
1977829.0,1623756352.77
1979414.0,1623756352.81
1980331.0,1623756352.849
1981900.0,1623756352.89
1983824.0,1623756352.929
1984894.0,1623756352.969
1987225.0,1623756353.011
1988877.0,1623756353.046
1990305.0,1623756353.086
1991518.0,1623756353.117
1991626.0,1623756353.157
1991352.0,1623756353.198
1990555.0,1623756353.238
1990852.0,1623756353.277
1990720.0,1623756353.318
1990571.0,1623756353.359
1991002.0,1623756353.399
1991218.0,1623756353.436
1990871.0,1623756353.478
1990580.0,1623756353.517
1990580.0,1623756353.554
1990581.0,1623756353.596
1991217.0,1623756353.634
1991161.0,1623756353.675
1990951.0,1623756353.716
1990454.0,1623756353.755
1990066.0,1623756353.796
1988550.0,1623756353.836
1987368.0,1623756353.875
1986221.0,1623756353.915
1985486.0,1623756353.956
1985070.0,1623756353.996
1984906.0,1623756354.035
1985052.0,1623756354.077
1984607.0,1623756354.116
1983979.0,1623756354.156
1983464.0,1623756354.197
1983885.0,1623756354.237
1983823.0,1623756354.277
1983961.0,1623756354.319
1983694.0,1623756354.357
1982304.0,1623756354.398
1979806.0,1623756354.438
1976923.0,1623756354.478
1974341.0,1623756354.518
1972706.0,1623756354.559
1970599.0,1623756354.599
1969209.0,1623756354.639
1968911.0,1623756354.68
1970367.0,1623756354.717
1971258.0,1623756354.757
1972983.0,1623756354.79
1973413.0,1623756354.829
1972987.0,1623756354.869
1973226.0,1623756354.91
1974766.0,1623756354.949
1978120.0,1623756354.99
1979134.0,1623756355.03
1978265.0,1623756355.069
1978612.0,1623756355.109
1977742.0,1623756355.151
1977362.0,1623756355.19
1975619.0,1623756355.23
1974870.0,1623756355.271
1975636.0,1623756355.31
1975345.0,1623756355.35
1974747.0,1623756355.392
1973176.0,1623756355.471
1974153.0,1623756355.43
1970953.0,1623756355.513
1973926.0,1623756355.58
1973282.0,1623756355.66
1976469.0,1623756355.621
1970845.0,1623756355.548
1968692.0,1623756355.7
1970737.0,1623756355.779
1967099.0,1623756355.742
1976948.0,1623756355.86
1976183.0,1623756355.819
1975677.0,1623756355.899
1976522.0,1623756355.94
1983992.0,1623756355.982
1968829.0,1623756356.02
1958613.0,1623756356.101
1957782.0,1623756356.06
1964910.0,1623756356.14
1970998.0,1623756356.181
1975003.0,1623756356.221
1978341.0,1623756356.26
1980919.0,1623756356.3
1981289.0,1623756356.341
1982425.0,1623756356.381
1983607.0,1623756356.42
1983885.0,1623756356.461
1984782.0,1623756356.501
1984499.0,1623756356.541
1985355.0,1623756356.582
1986587.0,1623756356.621
1987242.0,1623756356.661
1989001.0,1623756356.702
1990107.0,1623756356.741
1988660.0,1623756356.782
1987592.0,1623756356.823
1987966.0,1623756356.861
1987663.0,1623756356.899
1987339.0,1623756356.941
1987437.0,1623756356.98
1986644.0,1623756357.02
1986062.0,1623756357.061
1985743.0,1623756357.101
1984556.0,1623756357.141
1982958.0,1623756357.183
1981740.0,1623756357.221
1980226.0,1623756357.259
1978962.0,1623756357.301
1978604.0,1623756357.335
1977529.0,1623756357.376
1976098.0,1623756357.416
1974861.0,1623756357.455
1973890.0,1623756357.495
1973004.0,1623756357.537
1971708.0,1623756357.576
1970977.0,1623756357.616
1969327.0,1623756357.657
1968413.0,1623756357.696
1968880.0,1623756357.736
1971060.0,1623756357.778
1971308.0,1623756357.816
1969636.0,1623756357.856
1968602.0,1623756357.897
1967709.0,1623756357.936
1968639.0,1623756357.977
1967572.0,1623756358.016
1966659.0,1623756358.056
1966601.0,1623756358.096
1967014.0,1623756358.136
1967087.0,1623756358.173
1966878.0,1623756358.207
1966130.0,1623756358.249
1966197.0,1623756358.282
1966699.0,1623756358.319
1966156.0,1623756358.361
1965934.0,1623756358.4
1965385.0,1623756358.44
1965236.0,1623756358.481
1965261.0,1623756358.52
1965261.0,1623756358.552
1964560.0,1623756358.593
1963313.0,1623756358.632
1961064.0,1623756358.672
1958799.0,1623756358.713
1955763.0,1623756358.753
1954466.0,1623756358.792
1954203.0,1623756358.833
1955234.0,1623756358.872
1957031.0,1623756358.912
1956549.0,1623756358.954
1956659.0,1623756358.993
1956957.0,1623756359.033
1956702.0,1623756359.074
1958036.0,1623756359.113
1957968.0,1623756359.154
1957227.0,1623756359.194
1957562.0,1623756359.233
1956700.0,1623756359.274
1955064.0,1623756359.312
1954531.0,1623756359.345
1953437.0,1623756359.384
1952250.0,1623756359.424
1951649.0,1623756359.461
1951284.0,1623756359.501
1952039.0,1623756359.543
1952491.0,1623756359.582
1952430.0,1623756359.622
1952660.0,1623756359.663
1951766.0,1623756359.702
1952856.0,1623756359.743
1952307.0,1623756359.781
1951730.0,1623756359.818
1952010.0,1623756359.858
1952602.0,1623756359.899
1952886.0,1623756359.939
1952592.0,1623756359.978
1951723.0,1623756360.019
1950647.0,1623756360.058
1949812.0,1623756360.099
1949194.0,1623756360.14
1948956.0,1623756360.179
1948207.0,1623756360.219
1946946.0,1623756360.26
1946976.0,1623756360.299
1947204.0,1623756360.34
1946140.0,1623756360.38
1945812.0,1623756360.419
1945238.0,1623756360.459
1945429.0,1623756360.501
1945609.0,1623756360.541
1946151.0,1623756360.581
1946199.0,1623756360.622
1945647.0,1623756360.661
1944906.0,1623756360.702
1943930.0,1623756360.748
1943614.0,1623756360.786
1943012.0,1623756360.826
1942661.0,1623756360.867
1942331.0,1623756360.906
1940617.0,1623756360.947
1940710.0,1623756360.987
1942188.0,1623756361.026
1941935.0,1623756361.067
1943116.0,1623756361.108
1941979.0,1623756361.187
1943224.0,1623756361.147
1941898.0,1623756361.228
1941476.0,1623756361.267
1940841.0,1623756361.349
1939643.0,1623756361.387
1937909.0,1623756361.427
1936701.0,1623756361.468
1936141.0,1623756361.507
1935462.0,1623756361.548
1933911.0,1623756361.588
1940846.0,1623756361.307
1932917.0,1623756361.628
1931692.0,1623756361.668
1930313.0,1623756361.71
1930296.0,1623756361.75
1930620.0,1623756361.789
1929914.0,1623756361.831
1929847.0,1623756361.87
1928925.0,1623756361.91
1927200.0,1623756361.952
1925350.0,1623756361.991
1923497.0,1623756362.031
1920821.0,1623756362.07
1919000.0,1623756362.109
1916980.0,1623756362.15
1916239.0,1623756362.191
1915703.0,1623756362.229
1914765.0,1623756362.265
1914470.0,1623756362.306
1915904.0,1623756362.346
1917849.0,1623756362.385
1918115.0,1623756362.426
1919029.0,1623756362.465
1920206.0,1623756362.506
1919024.0,1623756362.547
1918195.0,1623756362.586
1917738.0,1623756362.626
1916242.0,1623756362.667
1914712.0,1623756362.706
1913478.0,1623756362.747
1911985.0,1623756362.787
1911619.0,1623756362.826
1911442.0,1623756362.867
1910653.0,1623756362.908
1911069.0,1623756362.948
1911044.0,1623756362.988
1910700.0,1623756363.03
1910800.0,1623756363.069
1909868.0,1623756363.109
1908334.0,1623756363.151
1907162.0,1623756363.19
1905326.0,1623756363.23
1903061.0,1623756363.271
1900373.0,1623756363.31
1897911.0,1623756363.351
1895594.0,1623756363.392
1893984.0,1623756363.431
1892350.0,1623756363.471
1891347.0,1623756363.508
1890158.0,1623756363.547
1889608.0,1623756363.587
1889062.0,1623756363.628
1888318.0,1623756363.667
1888236.0,1623756363.707
1886974.0,1623756363.749
1885318.0,1623756363.787
1883366.0,1623756363.827
1881488.0,1623756363.869
1880093.0,1623756363.908
1879383.0,1623756363.948
1878739.0,1623756363.989
1878081.0,1623756364.028
1876801.0,1623756364.068
1876274.0,1623756364.109
1875553.0,1623756364.149
1874534.0,1623756364.189
1873395.0,1623756364.23
1873052.0,1623756364.27
1873326.0,1623756364.31
1873287.0,1623756364.352
1873962.0,1623756364.391
1872601.0,1623756364.431
1870788.0,1623756364.472
1868217.0,1623756364.511
1866409.0,1623756364.552
1865400.0,1623756364.593
1864537.0,1623756364.632
1864223.0,1623756364.67
1863677.0,1623756364.703
1863283.0,1623756364.743
1862990.0,1623756364.783
1862605.0,1623756364.824
1862780.0,1623756364.863
1862378.0,1623756364.903
1862112.0,1623756364.945
1861642.0,1623756364.983
1861324.0,1623756365.023
1861448.0,1623756365.064
1861721.0,1623756365.103
1861849.0,1623756365.144
1860808.0,1623756365.185
1859581.0,1623756365.224
1858209.0,1623756365.264
1856824.0,1623756365.305
1855391.0,1623756365.345
1853897.0,1623756365.378
1853400.0,1623756365.414
1852780.0,1623756365.45
1852504.0,1623756365.49
1852201.0,1623756365.532
1851831.0,1623756365.571
1851786.0,1623756365.611
1852230.0,1623756365.652
1853068.0,1623756365.692
1853337.0,1623756365.733
1854118.0,1623756365.771
1854034.0,1623756365.81
1854281.0,1623756365.851
1854668.0,1623756365.892
1855600.0,1623756365.932
1856042.0,1623756365.971
1855730.0,1623756366.012
1855267.0,1623756366.051
1854553.0,1623756366.091
1853495.0,1623756366.133
1853062.0,1623756366.172
1853362.0,1623756366.212
1853062.0,1623756366.253
1853470.0,1623756366.292
1853575.0,1623756366.332
1853966.0,1623756366.373
1854475.0,1623756366.412
1855130.0,1623756366.452
1855391.0,1623756366.493
1856272.0,1623756366.533
1856901.0,1623756366.572
1857547.0,1623756366.613
1858257.0,1623756366.651
1859327.0,1623756366.691
1860096.0,1623756366.733
1860973.0,1623756366.772
1860558.0,1623756366.812
1860605.0,1623756366.853
1859822.0,1623756366.892
1859682.0,1623756366.933
1859682.0,1623756366.972
1860216.0,1623756367.011
1860105.0,1623756367.051
1860050.0,1623756367.093
1860080.0,1623756367.132
1860080.0,1623756367.166
1859961.0,1623756367.207
1859925.0,1623756367.246
1859958.0,1623756367.286
1859676.0,1623756367.328
1860395.0,1623756367.366
1860601.0,1623756367.406
1860894.0,1623756367.447
1860993.0,1623756367.487
1861902.0,1623756367.527
1863119.0,1623756367.568
1863128.0,1623756367.607
1862287.0,1623756367.647
1859014.0,1623756367.688
1857452.0,1623756367.728
1860067.0,1623756367.767
1865187.0,1623756367.808
1875219.0,1623756367.848
1886694.0,1623756367.887
1885547.0,1623756367.925
1873844.0,1623756367.958
1871262.0,1623756367.994
1875210.0,1623756368.033
1879359.0,1623756368.072
1881300.0,1623756368.113
1882943.0,1623756368.154
1883553.0,1623756368.193
1882900.0,1623756368.234
1880169.0,1623756368.275
1877817.0,1623756368.315
1877005.0,1623756368.354
1876895.0,1623756368.392
1876500.0,1623756368.431
1876372.0,1623756368.471
1876714.0,1623756368.513
1876224.0,1623756368.551
1875550.0,1623756368.591
1874644.0,1623756368.632
1873787.0,1623756368.671
1873750.0,1623756368.712
1873628.0,1623756368.753
1873907.0,1623756368.792
1874342.0,1623756368.832
1873633.0,1623756368.873
1871968.0,1623756368.912
1870750.0,1623756368.952
1870074.0,1623756368.993
1869497.0,1623756369.032
1869304.0,1623756369.072
1869418.0,1623756369.115
1869441.0,1623756369.153
1869102.0,1623756369.193
1869133.0,1623756369.235
1869303.0,1623756369.273
1869603.0,1623756369.314
1869787.0,1623756369.352
1870613.0,1623756369.392
1871131.0,1623756369.433
1871195.0,1623756369.474
1870362.0,1623756369.514
1869617.0,1623756369.553
1868921.0,1623756369.595
1868290.0,1623756369.628
1867507.0,1623756369.668
1867236.0,1623756369.71
1867274.0,1623756369.748
1867120.0,1623756369.788
1866795.0,1623756369.83
1866838.0,1623756369.869
1866303.0,1623756369.909
1866260.0,1623756369.95
1866300.0,1623756369.989
1866068.0,1623756370.029
1866349.0,1623756370.07
1865855.0,1623756370.11
1864910.0,1623756370.149
1863931.0,1623756370.19
1863129.0,1623756370.229
1862569.0,1623756370.269
1862118.0,1623756370.308
1862130.0,1623756370.342
1861849.0,1623756370.375
1861276.0,1623756370.414
1861092.0,1623756370.453
1861046.0,1623756370.494
1860739.0,1623756370.535
1860968.0,1623756370.574
1860726.0,1623756370.614
1860508.0,1623756370.655
1860760.0,1623756370.695
1860532.0,1623756370.733
1859444.0,1623756370.774
1858538.0,1623756370.813
1858538.0,1623756370.848
1857755.0,1623756370.89
1856706.0,1623756370.928
1856241.0,1623756370.968
1856416.0,1623756371.009
1856004.0,1623756371.048
1855426.0,1623756371.089
1854966.0,1623756371.13
1854854.0,1623756371.169
1854244.0,1623756371.209
1854754.0,1623756371.29
1854295.0,1623756371.25
1854805.0,1623756371.329
1854696.0,1623756371.37
1854337.0,1623756371.409
1853754.0,1623756371.449
1852415.0,1623756371.491
1851565.0,1623756371.53
1850105.0,1623756371.569
1849191.0,1623756371.61
1848559.0,1623756371.647
1847920.0,1623756371.684
1847710.0,1623756371.725
1847316.0,1623756371.756
1847407.0,1623756371.796
1846978.0,1623756371.834
1847321.0,1623756371.875
1847347.0,1623756371.915
1847735.0,1623756371.956
1847862.0,1623756371.995
1847661.0,1623756372.035
1846848.0,1623756372.076
1845933.0,1623756372.115
1845262.0,1623756372.155
1844414.0,1623756372.196
1843809.0,1623756372.235
1843439.0,1623756372.276
1843261.0,1623756372.316
1842987.0,1623756372.355
1842475.0,1623756372.395
1842386.0,1623756372.436
1842333.0,1623756372.476
1842345.0,1623756372.515
1842432.0,1623756372.557
1842514.0,1623756372.596
1842958.0,1623756372.636
1843263.0,1623756372.675
1843455.0,1623756372.714
1843470.0,1623756372.753
1842782.0,1623756372.792
1841997.0,1623756372.831
1841324.0,1623756372.87
1840898.0,1623756372.909
1840443.0,1623756372.948
1840493.0,1623756372.987
1840891.0,1623756373.026
1840982.0,1623756373.065
1840050.0,1623756373.104
1839632.0,1623756373.143
1839556.0,1623756373.182
1839640.0,1623756373.221
1839904.0,1623756373.26
1840651.0,1623756373.299
1840848.0,1623756373.338
1840858.0,1623756373.377
1840852.0,1623756373.416
1840979.0,1623756373.455
1840286.0,1623756373.494
1839014.0,1623756373.533
1837158.0,1623756373.572
1836064.0,1623756373.611
1835302.0,1623756373.65
1834643.0,1623756373.689
1834746.0,1623756373.728
1834597.0,1623756373.767
1834296.0,1623756373.806
1834268.0,1623756373.845
1833894.0,1623756373.884
1833462.0,1623756373.923
1833731.0,1623756373.962
1833858.0,1623756374.001
1834352.0,1623756374.04
1834357.0,1623756374.079
1834118.0,1623756374.118
1833884.0,1623756374.157
1833080.0,1623756374.196
1831912.0,1623756374.235
1831417.0,1623756374.274
1831150.0,1623756374.313
1831283.0,1623756374.352
1830896.0,1623756374.391
1830779.0,1623756374.43
1830378.0,1623756374.469
1830397.0,1623756374.508
1830509.0,1623756374.547
1830237.0,1623756374.586
1830371.0,1623756374.625
1830860.0,1623756374.664
1830906.0,1623756374.703
1831328.0,1623756374.742
1831873.0,1623756374.781
1831785.0,1623756374.82
1831214.0,1623756374.859
1830671.0,1623756374.898
1830235.0,1623756374.937
1829818.0,1623756374.976
1829803.0,1623756375.015
1829969.0,1623756375.054
1830143.0,1623756375.093
1830142.0,1623756375.132
1830414.0,1623756375.171
1830421.0,1623756375.21
1831116.0,1623756375.249
1831510.0,1623756375.288
1832281.0,1623756375.327
1832882.0,1623756375.366
1833560.0,1623756375.405
1834344.0,1623756375.444
1834800.0,1623756375.483
1834970.0,1623756375.522
1834490.0,1623756375.561
1834350.0,1623756375.6
1834191.0,1623756375.639
1834382.0,1623756375.678
1834203.0,1623756375.717
1834307.0,1623756375.756
1834552.0,1623756375.795
1834975.0,1623756375.834
1835337.0,1623756375.873
1835685.0,1623756375.912
1836678.0,1623756375.951
1837103.0,1623756375.99
1837678.0,1623756376.029
1838304.0,1623756376.068
1839191.0,1623756376.107
1839798.0,1623756376.146
1840184.0,1623756376.185
1840460.0,1623756376.224
1840265.0,1623756376.263
1839720.0,1623756376.302
1839486.0,1623756376.341
1839169.0,1623756376.38
1839442.0,1623756376.419
1839046.0,1623756376.458
1838714.0,1623756376.497
1838542.0,1623756376.536
1838293.0,1623756376.575
1838207.0,1623756376.614
1838187.0,1623756376.654
1838446.0,1623756376.694
1838883.0,1623756376.734
1839232.0,1623756376.774
1839521.0,1623756376.814
1839979.0,1623756376.854
1839574.0,1623756376.894
1839116.0,1623756376.934
1838609.0,1623756376.974
1838504.0,1623756377.014
1838354.0,1623756377.054
1838272.0,1623756377.094
1838637.0,1623756377.134
1838886.0,1623756377.174
1839028.0,1623756377.214
1839268.0,1623756377.254
1839718.0,1623756377.294
1840164.0,1623756377.334
1840699.0,1623756377.374
1841237.0,1623756377.414
1841834.0,1623756377.454
1842355.0,1623756377.494
1842868.0,1623756377.534
1842596.0,1623756377.574
1841812.0,1623756377.614
1841712.0,1623756377.654
1841538.0,1623756377.694
1841481.0,1623756377.734
1841942.0,1623756377.774
1842254.0,1623756377.814
1842270.0,1623756377.854
1842566.0,1623756377.894
1843026.0,1623756377.934
1843187.0,1623756377.974
1843785.0,1623756378.014
1844111.0,1623756378.054
1844948.0,1623756378.094
1845748.0,1623756378.134
1846309.0,1623756378.174
1846453.0,1623756378.214
1845973.0,1623756378.254
1845773.0,1623756378.294
1845523.0,1623756378.334
1845523.0,1623756378.374
1845353.0,1623756378.414
1845643.0,1623756378.454
1845904.0,1623756378.494
1845913.0,1623756378.534
1846290.0,1623756378.574
1846417.0,1623756378.614
1846806.0,1623756378.654
1847412.0,1623756378.694
1847650.0,1623756378.734
1848130.0,1623756378.774
1848930.0,1623756378.814
1849147.0,1623756378.854
1849782.0,1623756378.894
1849596.0,1623756378.974
1849779.0,1623756378.934
1849067.0,1623756379.014
1848263.0,1623756379.094
1848334.0,1623756379.054
1848032.0,1623756379.134
1847937.0,1623756379.174
1848186.0,1623756379.214
1848291.0,1623756379.254
1848463.0,1623756379.294
1848849.0,1623756379.374
1849008.0,1623756379.414
1848917.0,1623756379.334
1849599.0,1623756379.454
1849999.0,1623756379.494
1850502.0,1623756379.534
1850766.0,1623756379.574
1850579.0,1623756379.614
1850376.0,1623756379.654
1849709.0,1623756379.694
1849164.0,1623756379.734
1849078.0,1623756379.774
1849171.0,1623756379.814
1849096.0,1623756379.854
1849195.0,1623756379.894
1849048.0,1623756379.934
1849488.0,1623756379.974
1849656.0,1623756380.014
1849745.0,1623756380.054
1850374.0,1623756380.094
1850846.0,1623756380.134
1851161.0,1623756380.174
1851585.0,1623756380.214
1852099.0,1623756380.254
1852056.0,1623756380.294
1851417.0,1623756380.334
1850736.0,1623756380.374
1850134.0,1623756380.414
1849656.0,1623756380.454
1849551.0,1623756380.494
1849588.0,1623756380.534
1849356.0,1623756380.574
1849630.0,1623756380.614
1849534.0,1623756380.654
1849558.0,1623756380.694
1849964.0,1623756380.734
1850280.0,1623756380.774
1850627.0,1623756380.814
1851166.0,1623756380.854
1851986.0,1623756380.894
1852079.0,1623756380.934
1852422.0,1623756380.974
1851738.0,1623756381.014
1851005.0,1623756381.054
1850432.0,1623756381.094
1849835.0,1623756381.134
1849308.0,1623756381.174
1848970.0,1623756381.214
1849007.0,1623756381.254
1848786.0,1623756381.294
1848412.0,1623756381.334
1848536.0,1623756381.374
1848024.0,1623756381.414
1848096.0,1623756381.454
1848015.0,1623756381.494
1848109.0,1623756381.534
1848355.0,1623756381.614
1848491.0,1623756381.574
1848510.0,1623756381.654
1847781.0,1623756381.694
1847109.0,1623756381.734
1846180.0,1623756381.774
1845542.0,1623756381.814
1845708.0,1623756381.854
1845293.0,1623756381.894
1845236.0,1623756381.934
1844926.0,1623756381.974
1845003.0,1623756382.014
1845069.0,1623756382.054
1845157.0,1623756382.094
1845400.0,1623756382.134
1845607.0,1623756382.174
1846107.0,1623756382.214
1846524.0,1623756382.254
1846841.0,1623756382.294
1846673.0,1623756382.334
1846185.0,1623756382.374
1845301.0,1623756382.414
1844631.0,1623756382.454
1844249.0,1623756382.494
1844106.0,1623756382.534
1843842.0,1623756382.574
1843792.0,1623756382.614
1843432.0,1623756382.654
1843419.0,1623756382.694
1843379.0,1623756382.734
1843344.0,1623756382.774
1843410.0,1623756382.814
1843931.0,1623756382.854
1844323.0,1623756382.894
1844585.0,1623756382.934
1844604.0,1623756382.974
1844418.0,1623756383.014
1843959.0,1623756383.054
1842919.0,1623756383.094
1842108.0,1623756383.134
1841639.0,1623756383.174
1841633.0,1623756383.214
1841530.0,1623756383.254
1841353.0,1623756383.294
1841239.0,1623756383.334
1841121.0,1623756383.374
1841104.0,1623756383.414
1840962.0,1623756383.454
1841151.0,1623756383.494
1841147.0,1623756383.534
1841262.0,1623756383.574
1841333.0,1623756383.614
1841400.0,1623756383.654
1841339.0,1623756383.694
1840713.0,1623756383.734
1840102.0,1623756383.774
1838990.0,1623756383.814
1838119.0,1623756383.854
1837816.0,1623756383.894
1837600.0,1623756383.934
1837192.0,1623756383.974
1836848.0,1623756384.014
1836684.0,1623756384.054
1836543.0,1623756384.094
1836468.0,1623756384.134
1836773.0,1623756384.174
1836992.0,1623756384.214
1837284.0,1623756384.254
1837679.0,1623756384.294
1838059.0,1623756384.334
1838260.0,1623756384.374
1837618.0,1623756384.414
1837128.0,1623756384.454
1836071.0,1623756384.494
1836071.0,1623756384.534
1835360.0,1623756384.556
1834462.0,1623756384.595
1834148.0,1623756384.635
1833890.0,1623756384.676
1833961.0,1623756384.715
1833654.0,1623756384.756
1833714.0,1623756384.796
1833777.0,1623756384.835
1834376.0,1623756384.875
1834547.0,1623756384.916
1834716.0,1623756384.956
1835514.0,1623756384.995
1835847.0,1623756385.037
1836457.0,1623756385.076
1837140.0,1623756385.116
1836928.0,1623756385.157
1836734.0,1623756385.196
1835893.0,1623756385.232
1835022.0,1623756385.264
1834662.0,1623756385.303
1834666.0,1623756385.344
1834708.0,1623756385.385
1834682.0,1623756385.425
1834778.0,1623756385.504
1834894.0,1623756385.544
1835080.0,1623756385.583
1835266.0,1623756385.625
1836062.0,1623756385.741
1834621.0,1623756385.465
1836449.0,1623756385.779
1836145.0,1623756385.86
1835743.0,1623756385.899
1836740.0,1623756385.819
1835752.0,1623756385.664
1835086.0,1623756385.94
1835737.0,1623756385.704
1834736.0,1623756385.981
1834482.0,1623756386.02
1834923.0,1623756386.06
1834916.0,1623756386.101
1835050.0,1623756386.141
1834973.0,1623756386.18
1834897.0,1623756386.221
1835469.0,1623756386.261
1835600.0,1623756386.301
1835709.0,1623756386.343
1836123.0,1623756386.381
1836540.0,1623756386.421
1836682.0,1623756386.463
1836868.0,1623756386.502
1836211.0,1623756386.543
1835514.0,1623756386.584
1834719.0,1623756386.623
1833976.0,1623756386.664
1833605.0,1623756386.705
1833380.0,1623756386.745
1833433.0,1623756386.784
1833685.0,1623756386.826
1833214.0,1623756386.865
1833660.0,1623756386.905
1833639.0,1623756386.947
1834082.0,1623756386.983
1834462.0,1623756387.023
1834736.0,1623756387.064
1835525.0,1623756387.103
1835510.0,1623756387.144
1835933.0,1623756387.184
1835738.0,1623756387.263
1835269.0,1623756387.304
1835875.0,1623756387.223
1834662.0,1623756387.383
1834860.0,1623756387.344
1835114.0,1623756387.463
1834746.0,1623756387.424
1835514.0,1623756387.504
1835521.0,1623756387.545
1835588.0,1623756387.584
1836110.0,1623756387.624
1836499.0,1623756387.666
1837001.0,1623756387.705
1838465.0,1623756387.787
1839086.0,1623756387.826
1837920.0,1623756387.746
1839883.0,1623756387.866
1840469.0,1623756387.905
1840258.0,1623756387.945
1840140.0,1623756387.985
1839694.0,1623756388.026
1839233.0,1623756388.065
1839525.0,1623756388.105
1839422.0,1623756388.147
1839904.0,1623756388.185
1839927.0,1623756388.216
1840209.0,1623756388.257
1840452.0,1623756388.296
1840812.0,1623756388.337
1841136.0,1623756388.377
1841329.0,1623756388.416
1842298.0,1623756388.457
1842522.0,1623756388.498
1843167.0,1623756388.538
1843763.0,1623756388.577
1843974.0,1623756388.618
1843621.0,1623756388.657
1843539.0,1623756388.697
1843106.0,1623756388.739
1843376.0,1623756388.777
1843573.0,1623756388.817
1844184.0,1623756388.859
1844279.0,1623756388.898
1844855.0,1623756388.936
1845568.0,1623756388.971
1846159.0,1623756389.01
1847256.0,1623756389.046
1848103.0,1623756389.085
1848744.0,1623756389.125
1849725.0,1623756389.164
1850614.0,1623756389.206
1851541.0,1623756389.245
1852239.0,1623756389.285
1852450.0,1623756389.327
1852935.0,1623756389.366
1853156.0,1623756389.406
1853530.0,1623756389.447
1854297.0,1623756389.486
1855019.0,1623756389.527
1855747.0,1623756389.568
1856207.0,1623756389.607
1856973.0,1623756389.647
1857759.0,1623756389.688
1858686.0,1623756389.728
1859258.0,1623756389.767
1860383.0,1623756389.808
1861020.0,1623756389.847
1862017.0,1623756389.887
1862942.0,1623756389.929
1863017.0,1623756389.968
1863091.0,1623756390.008
1862888.0,1623756390.049
1862601.0,1623756390.088
1862547.0,1623756390.126
1862978.0,1623756390.167
1863223.0,1623756390.206
1863663.0,1623756390.246
1864060.0,1623756390.287
1864467.0,1623756390.325
1864814.0,1623756390.365
1865284.0,1623756390.406
1866020.0,1623756390.445
1866818.0,1623756390.486
1868008.0,1623756390.528
1869225.0,1623756390.566
1870100.0,1623756390.606
1870883.0,1623756390.646
1871208.0,1623756390.685
1871158.0,1623756390.726
1871145.0,1623756390.766
1871256.0,1623756390.806
1871841.0,1623756390.846
1872580.0,1623756390.887
1873418.0,1623756390.927
1873418.0,1623756390.961
1874159.0,1623756391.002
1873951.0,1623756391.041
1874417.0,1623756391.082
1874309.0,1623756391.123
1874798.0,1623756391.162
1875793.0,1623756391.202
1876532.0,1623756391.243
1877270.0,1623756391.282
1877579.0,1623756391.323
1877077.0,1623756391.363
1876320.0,1623756391.402
1875109.0,1623756391.442
1874383.0,1623756391.483
1874104.0,1623756391.523
1874007.0,1623756391.563
1873479.0,1623756391.604
1872308.0,1623756391.643
1871871.0,1623756391.675
1871683.0,1623756391.717
1871443.0,1623756391.749
1871090.0,1623756391.786
1871691.0,1623756391.828
1872605.0,1623756391.867
1874120.0,1623756391.908
1875997.0,1623756391.948
1876326.0,1623756391.987
1877536.0,1623756392.028
1876209.0,1623756392.069
1875262.0,1623756392.109
1875284.0,1623756392.146
1875138.0,1623756392.187
1874382.0,1623756392.224
1873870.0,1623756392.264
1873727.0,1623756392.306
1874013.0,1623756392.344
1874726.0,1623756392.384
1875402.0,1623756392.425
1876452.0,1623756392.464
1877401.0,1623756392.505
1878322.0,1623756392.545
1879485.0,1623756392.584
1879512.0,1623756392.625
1878911.0,1623756392.666
1878452.0,1623756392.705
1878049.0,1623756392.745
1877768.0,1623756392.786
1877822.0,1623756392.825
1878175.0,1623756392.865
1878513.0,1623756392.908
1878994.0,1623756392.946
1879597.0,1623756392.987
1879864.0,1623756393.028
1880062.0,1623756393.067
1879986.0,1623756393.108
1879987.0,1623756393.149
1880316.0,1623756393.188
1880649.0,1623756393.228
1880940.0,1623756393.269
1881552.0,1623756393.309
1881592.0,1623756393.349
1881636.0,1623756393.388
1881580.0,1623756393.419
1881682.0,1623756393.459
1882149.0,1623756393.501
1882132.0,1623756393.539
1882845.0,1623756393.579
1883604.0,1623756393.62
1885993.0,1623756393.659
1892617.0,1623756393.7
1894593.0,1623756393.741
1888952.0,1623756393.78
1888459.0,1623756393.82
1890956.0,1623756393.861
1894176.0,1623756393.901
1895627.0,1623756393.94
1895123.0,1623756393.981
1895032.0,1623756394.02
1893430.0,1623756394.06
1891798.0,1623756394.102
1890141.0,1623756394.138
1888688.0,1623756394.171
1888066.0,1623756394.212
1887428.0,1623756394.249
1887423.0,1623756394.287
1887434.0,1623756394.328
1887115.0,1623756394.367
1887250.0,1623756394.408
1887775.0,1623756394.449
1887643.0,1623756394.489
1887778.0,1623756394.528
1887908.0,1623756394.57
1887766.0,1623756394.607
1887576.0,1623756394.647
1888351.0,1623756394.689
1888490.0,1623756394.728
1888504.0,1623756394.768
1888449.0,1623756394.81
1888103.0,1623756394.846
1887697.0,1623756394.888
1887154.0,1623756394.929
1887154.0,1623756394.96
1886763.0,1623756395.0
1886979.0,1623756395.041
1887468.0,1623756395.081
1887672.0,1623756395.12
1887954.0,1623756395.161
1888005.0,1623756395.2
1888618.0,1623756395.24
1888803.0,1623756395.282
1889285.0,1623756395.321
1889925.0,1623756395.361
1890517.0,1623756395.402
1891151.0,1623756395.441
1891770.0,1623756395.482
1891945.0,1623756395.522
1891649.0,1623756395.561
1891535.0,1623756395.601
1891357.0,1623756395.642
1890877.0,1623756395.683
1891251.0,1623756395.719
1891628.0,1623756395.76
1891956.0,1623756395.794
1892604.0,1623756395.83
1892569.0,1623756395.87
1893120.0,1623756395.909
1893324.0,1623756395.949
1894088.0,1623756395.99
1895009.0,1623756396.029
1895842.0,1623756396.07
1896539.0,1623756396.111
1897103.0,1623756396.15
1897347.0,1623756396.182
1897395.0,1623756396.223
1897643.0,1623756396.263
1897484.0,1623756396.303
1896608.0,1623756396.344
1895668.0,1623756396.383
1894923.0,1623756396.423
1894934.0,1623756396.508
1894531.0,1623756396.546
1894146.0,1623756396.586
1893541.0,1623756396.627
1893053.0,1623756396.666
1892920.0,1623756396.707
1892573.0,1623756396.747
1892002.0,1623756396.786
1891450.0,1623756396.827
1890762.0,1623756396.868
1891017.0,1623756396.907
1892086.0,1623756396.946
1893468.0,1623756396.984
1893627.0,1623756397.023
1893709.0,1623756397.057
1894541.0,1623756397.131
1893771.0,1623756397.096
1894774.0,1623756397.213
1894454.0,1623756397.171
1894748.0,1623756397.252
1895443.0,1623756397.293
1895857.0,1623756397.334
1895920.0,1623756397.373
1896512.0,1623756397.413
1897212.0,1623756397.454
1897985.0,1623756397.494
1899287.0,1623756397.533
1899817.0,1623756397.574
1900761.0,1623756397.613
1901535.0,1623756397.653
1901792.0,1623756397.695
1901446.0,1623756397.734
1901608.0,1623756397.774
1901273.0,1623756397.815
1901879.0,1623756397.895
1902258.0,1623756397.935
1901361.0,1623756397.854
1902353.0,1623756397.974
1902871.0,1623756398.014
1903264.0,1623756398.055
1903857.0,1623756398.095
1904505.0,1623756398.134
1905204.0,1623756398.176
1906036.0,1623756398.214
1906984.0,1623756398.252
1907897.0,1623756398.294
1908417.0,1623756398.332
1908701.0,1623756398.373
1909274.0,1623756398.414
1909660.0,1623756398.453
1910670.0,1623756398.535
1911917.0,1623756398.572
1912101.0,1623756398.612
1909601.0,1623756398.494
1912487.0,1623756398.653
1913312.0,1623756398.693
1914086.0,1623756398.733
1914987.0,1623756398.775
1915478.0,1623756398.811
1915404.0,1623756398.851
1915891.0,1623756398.893
1916046.0,1623756398.931
1916045.0,1623756398.972
1916202.0,1623756399.013
1916139.0,1623756399.052
1915174.0,1623756399.092
1913971.0,1623756399.133
1913135.0,1623756399.172
1912163.0,1623756399.253
1911982.0,1623756399.212
1911372.0,1623756399.332
1910167.0,1623756399.412
1909544.0,1623756399.452
1909381.0,1623756399.494
1911767.0,1623756399.293
1909431.0,1623756399.533
1910927.0,1623756399.373
1909237.0,1623756399.573
1909369.0,1623756399.614
1909547.0,1623756399.653
1909871.0,1623756399.694
1909489.0,1623756399.735
1909008.0,1623756399.774
1908429.0,1623756399.854
1909021.0,1623756399.812
1908172.0,1623756399.894
1908142.0,1623756399.933
1908480.0,1623756399.974
1908388.0,1623756400.013
1908396.0,1623756400.054
1908130.0,1623756400.129
1908130.0,1623756400.096
1908506.0,1623756400.169
1908628.0,1623756400.21
1908603.0,1623756400.249
1909314.0,1623756400.29
1909961.0,1623756400.33
1910159.0,1623756400.37
1910558.0,1623756400.41
1909763.0,1623756400.451
1909221.0,1623756400.49
1908567.0,1623756400.53
1908099.0,1623756400.571
1908395.0,1623756400.61
1908635.0,1623756400.65
1909049.0,1623756400.692
1909424.0,1623756400.73
1909853.0,1623756400.77
1910397.0,1623756400.811
1910856.0,1623756400.851
1910917.0,1623756400.892
1912200.0,1623756400.933
1912779.0,1623756400.973
1913364.0,1623756401.013
1914172.0,1623756401.055
1914904.0,1623756401.094
1914865.0,1623756401.133
1914262.0,1623756401.174
1913795.0,1623756401.214
1913910.0,1623756401.254
1913726.0,1623756401.296
1913953.0,1623756401.332
1914316.0,1623756401.367
1914853.0,1623756401.408
1915494.0,1623756401.447
1915765.0,1623756401.488
1915977.0,1623756401.528
1915744.0,1623756401.567
1915651.0,1623756401.607
1915975.0,1623756401.648
1915986.0,1623756401.688
1915517.0,1623756401.727
1915051.0,1623756401.768
1914003.0,1623756401.807
1913062.0,1623756401.848
1911624.0,1623756401.889
1910751.0,1623756401.928
1910304.0,1623756401.968
1909950.0,1623756402.009
1909427.0,1623756402.048
1909107.0,1623756402.09
1908639.0,1623756402.131
1908586.0,1623756402.168
1908517.0,1623756402.203
1908822.0,1623756402.238
1909009.0,1623756402.275
1908927.0,1623756402.315
1909024.0,1623756402.356
1908848.0,1623756402.396
1909080.0,1623756402.436
1908504.0,1623756402.478
1907406.0,1623756402.516
1906713.0,1623756402.553
1905630.0,1623756402.592
1904326.0,1623756402.631
1903612.0,1623756402.672
1903202.0,1623756402.712
1902963.0,1623756402.751
1902782.0,1623756402.791
1902714.0,1623756402.833
1902290.0,1623756402.872
1901924.0,1623756402.912
1902116.0,1623756402.953
1901955.0,1623756402.992
1902186.0,1623756403.032
1902306.0,1623756403.074
1902145.0,1623756403.112
1901791.0,1623756403.152
1901580.0,1623756403.193
1901136.0,1623756403.232
1900146.0,1623756403.274
1899094.0,1623756403.315
1898329.0,1623756403.354
1897432.0,1623756403.395
1897139.0,1623756403.436
1896822.0,1623756403.476
1896484.0,1623756403.515
1895821.0,1623756403.557
1895205.0,1623756403.596
1895159.0,1623756403.636
1894595.0,1623756403.678
1894715.0,1623756403.714
1895152.0,1623756403.754
1895075.0,1623756403.795
1895163.0,1623756403.834
1895562.0,1623756403.875
1895902.0,1623756403.915
1896325.0,1623756403.954
1896763.0,1623756403.994
1897605.0,1623756404.035
1897681.0,1623756404.075
1898453.0,1623756404.114
1899199.0,1623756404.155
1899643.0,1623756404.194
1899847.0,1623756404.234
1899632.0,1623756404.276
1898751.0,1623756404.315
1898309.0,1623756404.355
1898131.0,1623756404.396
1897762.0,1623756404.436
1897927.0,1623756404.476
1897982.0,1623756404.517
1898409.0,1623756404.556
1898550.0,1623756404.596
1898589.0,1623756404.638
1898243.0,1623756404.678
1898062.0,1623756404.717
1897220.0,1623756404.759
1896345.0,1623756404.798
1895043.0,1623756404.835
1894048.0,1623756404.869
1893608.0,1623756404.908
1893368.0,1623756404.948
1892635.0,1623756404.989
1892086.0,1623756405.028
1891819.0,1623756405.069
1891111.0,1623756405.109
1890804.0,1623756405.148
1890849.0,1623756405.188
1890169.0,1623756405.229
1890487.0,1623756405.269
1890560.0,1623756405.309
1890187.0,1623756405.35
1889727.0,1623756405.389
1888950.0,1623756405.429
1888069.0,1623756405.471
1886730.0,1623756405.509
1886320.0,1623756405.543
1885552.0,1623756405.579
1885407.0,1623756405.615
1885167.0,1623756405.656
1884666.0,1623756405.697
1884591.0,1623756405.736
1884158.0,1623756405.776
1883873.0,1623756405.818
1884185.0,1623756405.858
1884213.0,1623756405.897
1884148.0,1623756405.938
1884313.0,1623756405.977
1884782.0,1623756406.017
1885126.0,1623756406.059
1884186.0,1623756406.098
1883359.0,1623756406.136
1883359.0,1623756406.174
1882905.0,1623756406.213
1881838.0,1623756406.254
1881591.0,1623756406.294
1881361.0,1623756406.333
1881228.0,1623756406.373
1881592.0,1623756406.414
1881213.0,1623756406.454
1881194.0,1623756406.493
1881413.0,1623756406.535
1881268.0,1623756406.574
1881383.0,1623756406.614
1881973.0,1623756406.656
1882699.0,1623756406.694
1883738.0,1623756406.734
1885617.0,1623756406.775
1886607.0,1623756406.814
1886858.0,1623756406.855
1886387.0,1623756406.896
1886378.0,1623756406.935
1886256.0,1623756406.976
1886748.0,1623756407.017
1887014.0,1623756407.057
1887579.0,1623756407.096
1887893.0,1623756407.138
1887607.0,1623756407.176
1887555.0,1623756407.216
1888547.0,1623756407.258
1888976.0,1623756407.297
1889175.0,1623756407.337
1889170.0,1623756407.379
1890021.0,1623756407.418
1891098.0,1623756407.459
1891716.0,1623756407.499
1891298.0,1623756407.536
1892855.0,1623756407.577
1893007.0,1623756407.618
1891777.0,1623756407.658
1892298.0,1623756407.69
1891455.0,1623756407.731
1889573.0,1623756407.77
1890252.0,1623756407.81
1891159.0,1623756407.852
1890771.0,1623756407.891
1891049.0,1623756407.931
1891174.0,1623756407.972
1890920.0,1623756408.011
1890941.0,1623756408.052
1891710.0,1623756408.092
1891569.0,1623756408.131
1890794.0,1623756408.171
1890635.0,1623756408.212
1890761.0,1623756408.252
1890245.0,1623756408.291
1889618.0,1623756408.332
1889289.0,1623756408.371
1889564.0,1623756408.404
1889742.0,1623756408.443
1890018.0,1623756408.482
1890230.0,1623756408.521
1890168.0,1623756408.56
1890485.0,1623756408.599
1890902.0,1623756408.638
1891516.0,1623756408.677
1891813.0,1623756408.716
1891789.0,1623756408.755
1891642.0,1623756408.794
1890782.0,1623756408.833
1890379.0,1623756408.872
1889709.0,1623756408.911
1888840.0,1623756408.95
1888639.0,1623756408.989
1888171.0,1623756409.028
1887998.0,1623756409.067
1888129.0,1623756409.106
1887894.0,1623756409.145
1888316.0,1623756409.184
1888604.0,1623756409.223
1888889.0,1623756409.262
1889234.0,1623756409.301
1889594.0,1623756409.34
1890090.0,1623756409.379
1890484.0,1623756409.418
1890802.0,1623756409.457
1890234.0,1623756409.535
1889842.0,1623756409.574
1890821.0,1623756409.496
1889316.0,1623756409.613
1889842.0,1623756409.652
1891194.0,1623756409.691
1892241.0,1623756409.73
1893133.0,1623756409.769
1893277.0,1623756409.808
1893350.0,1623756409.847
1892878.0,1623756409.886
1893009.0,1623756409.925
1893107.0,1623756409.964
1892926.0,1623756410.003
1893087.0,1623756410.042
1893381.0,1623756410.081
1897136.0,1623756410.12
1901054.0,1623756410.159
1906586.0,1623756410.198
1903337.0,1623756410.237
1894269.0,1623756410.276
1891416.0,1623756410.315
1892214.0,1623756410.354
1894765.0,1623756410.393
1893839.0,1623756410.432
1891596.0,1623756410.471
1888491.0,1623756410.51
1885950.0,1623756410.549
1884215.0,1623756410.588
1883969.0,1623756410.666
1883765.0,1623756410.627
1883706.0,1623756410.705
1884072.0,1623756410.744
1884278.0,1623756410.783
1884251.0,1623756410.822
1884964.0,1623756410.861
1885158.0,1623756410.9
1884450.0,1623756410.939
1884486.0,1623756410.978
1884109.0,1623756411.017
1883711.0,1623756411.056
1883669.0,1623756411.095
1884176.0,1623756411.212
1883986.0,1623756411.251
1883898.0,1623756411.173
1883808.0,1623756411.134
1884414.0,1623756411.29
1884785.0,1623756411.329
1884738.0,1623756411.368
1884874.0,1623756411.407
1884973.0,1623756411.446
1885691.0,1623756411.485
1886748.0,1623756411.524
1886735.0,1623756411.563
1886149.0,1623756411.602
1885444.0,1623756411.641
1885076.0,1623756411.68
1884695.0,1623756411.719
1884811.0,1623756411.758
1885699.0,1623756411.797
1885512.0,1623756411.837
1885510.0,1623756411.877
1885497.0,1623756411.917
1885704.0,1623756411.957
1886658.0,1623756411.997
1887335.0,1623756412.037
1887631.0,1623756412.077
1888175.0,1623756412.117
1889211.0,1623756412.157
1890094.0,1623756412.197
1892543.0,1623756412.237
1893743.0,1623756412.277
1894203.0,1623756412.317
1894244.0,1623756412.357
1894169.0,1623756412.397
1894708.0,1623756412.437
1895549.0,1623756412.477
1894935.0,1623756412.517
1895047.0,1623756412.557
1895072.0,1623756412.597
1894970.0,1623756412.637
1894970.0,1623756412.677
1895250.0,1623756412.717
1895683.0,1623756412.757
1896790.0,1623756412.797
1896509.0,1623756412.837
1896182.0,1623756412.877
1895612.0,1623756412.917
1895088.0,1623756412.957
1894662.0,1623756412.997
1894459.0,1623756413.037
1894193.0,1623756413.077
1893835.0,1623756413.117
1894005.0,1623756413.157
1893968.0,1623756413.197
1894005.0,1623756413.237
1893908.0,1623756413.277
1894358.0,1623756413.317
1895182.0,1623756413.357
1895379.0,1623756413.397
1895725.0,1623756413.437
1895611.0,1623756413.477
1895433.0,1623756413.517
1894955.0,1623756413.557
1894060.0,1623756413.597
1893964.0,1623756413.637
1894049.0,1623756413.677
1893987.0,1623756413.717
1893297.0,1623756413.757
1893223.0,1623756413.797
1893264.0,1623756413.837
1893340.0,1623756413.877
1893572.0,1623756413.917
1894101.0,1623756413.957
1894415.0,1623756413.997
1894760.0,1623756414.037
1895422.0,1623756414.077
1895957.0,1623756414.117
1895818.0,1623756414.157
1895667.0,1623756414.197
1895463.0,1623756414.237
1894729.0,1623756414.277
1894423.0,1623756414.317
1894346.0,1623756414.357
1894549.0,1623756414.397
1895260.0,1623756414.437
1895144.0,1623756414.477
1895356.0,1623756414.517
1895216.0,1623756414.557
1895532.0,1623756414.597
1895482.0,1623756414.637
1895780.0,1623756414.677
1896615.0,1623756414.717
1897544.0,1623756414.757
1898558.0,1623756414.797
1899334.0,1623756414.837
1899398.0,1623756414.877
1899440.0,1623756414.917
1899461.0,1623756414.957
1899197.0,1623756414.997
1899207.0,1623756415.037
1899273.0,1623756415.077
1899502.0,1623756415.117
1899383.0,1623756415.157
1899454.0,1623756415.197
1899410.0,1623756415.237
1899775.0,1623756415.277
1900072.0,1623756415.317
1900218.0,1623756415.357
1900388.0,1623756415.397
1900978.0,1623756415.437
1901117.0,1623756415.477
1901071.0,1623756415.517
1900704.0,1623756415.557
1900495.0,1623756415.597
1899833.0,1623756415.637
1899759.0,1623756415.677
1899741.0,1623756415.717
1899593.0,1623756415.757
1899683.0,1623756415.797
1899693.0,1623756415.837
1899201.0,1623756415.877
1899015.0,1623756415.917
1899061.0,1623756415.957
1899110.0,1623756415.997
1899495.0,1623756416.037
1900430.0,1623756416.077
1900640.0,1623756416.117
1900831.0,1623756416.157
1900774.0,1623756416.197
1900772.0,1623756416.237
1900550.0,1623756416.277
1899834.0,1623756416.317
1899590.0,1623756416.357
1899455.0,1623756416.397
1899776.0,1623756416.437
1899889.0,1623756416.477
1899752.0,1623756416.517
1900058.0,1623756416.557
1899985.0,1623756416.597
1900561.0,1623756416.637
1900670.0,1623756416.677
1901286.0,1623756416.717
1901881.0,1623756416.757
1902255.0,1623756416.797
1902946.0,1623756416.837
1903008.0,1623756416.877
1902155.0,1623756416.917
1902230.0,1623756416.957
1901802.0,1623756416.997
1902617.0,1623756417.037
1902797.0,1623756417.077
1903143.0,1623756417.117
1903283.0,1623756417.157
1904247.0,1623756417.197
1904680.0,1623756417.237
1905133.0,1623756417.277
1904967.0,1623756417.317
1905315.0,1623756417.357
1905576.0,1623756417.397
1905974.0,1623756417.437
1905814.0,1623756417.477
1905769.0,1623756417.517
1905291.0,1623756417.557
1904256.0,1623756417.597
1903773.0,1623756417.637
1903022.0,1623756417.677
1902870.0,1623756417.717
1902991.0,1623756417.757
1902257.0,1623756417.797
1901909.0,1623756417.837
1901790.0,1623756417.877
1901402.0,1623756417.917
1901417.0,1623756417.957
1901213.0,1623756417.997
1901385.0,1623756418.037
1901916.0,1623756418.077
1901843.0,1623756418.117
1901805.0,1623756418.157
1901600.0,1623756418.197
1900475.0,1623756418.237
1899558.0,1623756418.277
1897973.0,1623756418.317
1896830.0,1623756418.357
1896753.0,1623756418.397
1896168.0,1623756418.437
1895924.0,1623756418.477
1896074.0,1623756418.517
1895521.0,1623756418.557
1895604.0,1623756418.597
1895282.0,1623756418.637
1895139.0,1623756418.677
1895402.0,1623756418.717
1895570.0,1623756418.757
1896018.0,1623756418.797
1895747.0,1623756418.837
1895466.0,1623756418.877
1894606.0,1623756418.917
1893611.0,1623756418.957
1892701.0,1623756418.997
1891902.0,1623756419.037
1891526.0,1623756419.077
1891185.0,1623756419.117
1890475.0,1623756419.157
1890645.0,1623756419.197
1890641.0,1623756419.237
1891068.0,1623756419.277
1891259.0,1623756419.317
1892110.0,1623756419.357
1892502.0,1623756419.397
1892936.0,1623756419.437
1893663.0,1623756419.477
1894529.0,1623756419.517
1894040.0,1623756419.557
1893708.0,1623756419.597
1893692.0,1623756419.637
1894051.0,1623756419.677
1894458.0,1623756419.717
1895284.0,1623756419.757
1895641.0,1623756419.797
1896296.0,1623756419.837
1897002.0,1623756419.877
1897109.0,1623756419.917
1898045.0,1623756419.957
1898649.0,1623756419.997
1899387.0,1623756420.037
1899939.0,1623756420.077
1901056.0,1623756420.117
1902342.0,1623756420.157
1903639.0,1623756420.197
1903701.0,1623756420.237
1903297.0,1623756420.277
1902888.0,1623756420.317
1904324.0,1623756420.359
1908382.0,1623756420.398
1915907.0,1623756420.438
1913970.0,1623756420.479
1908765.0,1623756420.518
1912742.0,1623756420.559
1918010.0,1623756420.599
1921091.0,1623756420.638
1920894.0,1623756420.678
1919931.0,1623756420.719
1918516.0,1623756420.759
1916872.0,1623756420.798
1915708.0,1623756420.839
1914255.0,1623756420.878
1913031.0,1623756420.918
1912206.0,1623756420.96
1911050.0,1623756420.999
1910595.0,1623756421.039
1909517.0,1623756421.119
1910086.0,1623756421.08
1908783.0,1623756421.16
1908259.0,1623756421.2
1907745.0,1623756421.279
1907713.0,1623756421.239
1907743.0,1623756421.32
1907773.0,1623756421.36
1907431.0,1623756421.399
1907547.0,1623756421.44
1907560.0,1623756421.48
1907287.0,1623756421.561
1907370.0,1623756421.6
1905800.0,1623756421.681
1904543.0,1623756421.72
1903743.0,1623756421.761
1903247.0,1623756421.801
1906585.0,1623756421.64
1901805.0,1623756421.88
1901313.0,1623756421.921
1900404.0,1623756421.961
1907403.0,1623756421.52
1899880.0,1623756422.0
1899523.0,1623756422.041
1899707.0,1623756422.121
1899781.0,1623756422.162
1899669.0,1623756422.08
1902287.0,1623756421.84
1899775.0,1623756422.201
1900079.0,1623756422.241
1900509.0,1623756422.282
1900450.0,1623756422.321
1900206.0,1623756422.362
1900356.0,1623756422.402
1900049.0,1623756422.441
1899907.0,1623756422.481
1899501.0,1623756422.522
1899164.0,1623756422.562
1898949.0,1623756422.601
1899072.0,1623756422.642
1899235.0,1623756422.682
1899253.0,1623756422.763
1899257.0,1623756422.722
1899297.0,1623756422.842
1899261.0,1623756422.802
1899354.0,1623756422.883
1899796.0,1623756422.922
1900056.0,1623756422.963
1900309.0,1623756423.003
1900075.0,1623756423.042
1899031.0,1623756423.123
1897530.0,1623756423.203
1896759.0,1623756423.244
1899891.0,1623756423.082
1898187.0,1623756423.163
1896341.0,1623756423.323
1896683.0,1623756423.403
1896566.0,1623756423.443
1896420.0,1623756423.365
1896684.0,1623756423.283
1896266.0,1623756423.484
1896380.0,1623756423.523
1896631.0,1623756423.605
1896530.0,1623756423.564
1897502.0,1623756423.684
1896961.0,1623756423.644
1897515.0,1623756423.725
1898037.0,1623756423.764
1898269.0,1623756423.804
1897607.0,1623756423.845
1897310.0,1623756423.884
1896349.0,1623756423.924
1895597.0,1623756423.966
1894302.0,1623756424.044
1894961.0,1623756424.004
1893470.0,1623756424.085
1893293.0,1623756424.124
1892643.0,1623756424.165
1892179.0,1623756424.206
1892212.0,1623756424.245
1891991.0,1623756424.285
1891950.0,1623756424.326
1892486.0,1623756424.366
1892656.0,1623756424.405
1893028.0,1623756424.446
1893696.0,1623756424.485
1893421.0,1623756424.525
1893401.0,1623756424.567
1892736.0,1623756424.606
1892204.0,1623756424.646
1891955.0,1623756424.687
1891935.0,1623756424.726
1892194.0,1623756424.767
1892477.0,1623756424.807
1893049.0,1623756424.846
1893863.0,1623756424.886
1896021.0,1623756424.927
1897912.0,1623756424.967
1899227.0,1623756425.006
1900072.0,1623756425.048
1900701.0,1623756425.087
1901380.0,1623756425.127
1902290.0,1623756425.168
1903581.0,1623756425.207
1902936.0,1623756425.247
1902373.0,1623756425.288
1903268.0,1623756425.327
1901595.0,1623756425.368
1901482.0,1623756425.408
1901967.0,1623756425.447
1902077.0,1623756425.487
1901967.0,1623756425.529
1901241.0,1623756425.568
1900944.0,1623756425.608
1901499.0,1623756425.649
1902393.0,1623756425.688
1903849.0,1623756425.728
1910316.0,1623756425.77
1921984.0,1623756425.808
1920179.0,1623756425.848
1914823.0,1623756425.889
1916994.0,1623756425.928
1920836.0,1623756425.969
1926706.0,1623756426.01
1926930.0,1623756426.049
1925704.0,1623756426.089
1925366.0,1623756426.13
1922923.0,1623756426.17
1921530.0,1623756426.209
1919001.0,1623756426.25
1917793.0,1623756426.289
1918012.0,1623756426.329
1917093.0,1623756426.371
1915678.0,1623756426.41
1915392.0,1623756426.45
1914964.0,1623756426.491
1914418.0,1623756426.53
1913835.0,1623756426.571
1914050.0,1623756426.611
1913509.0,1623756426.65
1912452.0,1623756426.69
1912103.0,1623756426.731
1911002.0,1623756426.771
1910230.0,1623756426.811
1909550.0,1623756426.852
1909500.0,1623756426.891
1909180.0,1623756426.931
1908428.0,1623756426.973
1907985.0,1623756427.011
1907624.0,1623756427.051
1907557.0,1623756427.092
1907654.0,1623756427.131
1907725.0,1623756427.172
1907490.0,1623756427.213
1907632.0,1623756427.252
1907614.0,1623756427.292
1907581.0,1623756427.333
1907180.0,1623756427.373
1906588.0,1623756427.412
1905990.0,1623756427.453
1905453.0,1623756427.492
1905127.0,1623756427.532
1905562.0,1623756427.574
1905312.0,1623756427.613
1905321.0,1623756427.653
1905048.0,1623756427.694
1905025.0,1623756427.733
1905024.0,1623756427.774
1905691.0,1623756427.814
1906205.0,1623756427.853
1905921.0,1623756427.893
1906596.0,1623756427.934
1907139.0,1623756427.974
1907161.0,1623756428.014
1907143.0,1623756428.055
1906987.0,1623756428.094
1906642.0,1623756428.134
1905405.0,1623756428.176
1904374.0,1623756428.214
1903862.0,1623756428.254
1903363.0,1623756428.295
1902547.0,1623756428.334
1902363.0,1623756428.375
1901802.0,1623756428.416
1901482.0,1623756428.455
1901223.0,1623756428.495
1900883.0,1623756428.536
1901057.0,1623756428.576
1900815.0,1623756428.615
1900900.0,1623756428.656
1901081.0,1623756428.695
1901119.0,1623756428.735
1900978.0,1623756428.777
1900312.0,1623756428.816
1899490.0,1623756428.856
1898708.0,1623756428.897
1898124.0,1623756428.936
1897396.0,1623756428.977
1897289.0,1623756429.017
1896984.0,1623756429.056
1896486.0,1623756429.096
1896698.0,1623756429.138
1896311.0,1623756429.177
1896409.0,1623756429.217
1896435.0,1623756429.258
1896524.0,1623756429.297
1896570.0,1623756429.337
1896764.0,1623756429.379
1897218.0,1623756429.417
1897292.0,1623756429.457
1897226.0,1623756429.499
1896561.0,1623756429.538
1895917.0,1623756429.578
1894976.0,1623756429.619
1894602.0,1623756429.658
1894284.0,1623756429.698
1893914.0,1623756429.739
1893873.0,1623756429.779
1893757.0,1623756429.818
1893627.0,1623756429.859
1893667.0,1623756429.898
1894018.0,1623756429.938
1894238.0,1623756429.98
1894576.0,1623756430.018
1895363.0,1623756430.058
1896156.0,1623756430.1
1897305.0,1623756430.139
1898494.0,1623756430.179
1899086.0,1623756430.22
1898280.0,1623756430.259
1898701.0,1623756430.299
1898253.0,1623756430.34
1899099.0,1623756430.38
1900059.0,1623756430.419
1903638.0,1623756430.46
1913327.0,1623756430.499
1922076.0,1623756430.539
1915396.0,1623756430.581
1909717.0,1623756430.62
1911006.0,1623756430.66
1913006.0,1623756430.701
1913214.0,1623756430.74
1910168.0,1623756430.781
1907119.0,1623756430.821
1904324.0,1623756430.86
1902179.0,1623756430.9
1898771.0,1623756430.941
1896985.0,1623756430.981
1895417.0,1623756431.021
1894516.0,1623756431.062
1893450.0,1623756431.101
1892866.0,1623756431.141
1891704.0,1623756431.183
1891303.0,1623756431.221
1890795.0,1623756431.261
1890184.0,1623756431.302
1889708.0,1623756431.341
1888814.0,1623756431.382
1888782.0,1623756431.423
1888767.0,1623756431.462
1889332.0,1623756431.502
1889778.0,1623756431.543
1889870.0,1623756431.583
1889336.0,1623756431.622
1888616.0,1623756431.663
1887565.0,1623756431.702
1887167.0,1623756431.742
1887209.0,1623756431.784
1887041.0,1623756431.823
1887013.0,1623756431.863
1886983.0,1623756431.904
1886708.0,1623756431.943
1887233.0,1623756431.984
1887174.0,1623756432.024
1887606.0,1623756432.063
1887748.0,1623756432.103
1887891.0,1623756432.144
1888450.0,1623756432.184
1889404.0,1623756432.223
1889301.0,1623756432.264
1889206.0,1623756432.303
1890015.0,1623756432.343
1890078.0,1623756432.384
1890067.0,1623756432.422
1889761.0,1623756432.462
1889434.0,1623756432.504
1889907.0,1623756432.543
1889441.0,1623756432.583
1890084.0,1623756432.624
1890225.0,1623756432.663
1890375.0,1623756432.703
1890682.0,1623756432.744
1890893.0,1623756432.784
1891266.0,1623756432.823
1891018.0,1623756432.864
1891494.0,1623756432.903
1891108.0,1623756432.985
1890472.0,1623756433.023
1889733.0,1623756433.063
1888787.0,1623756433.105
1888165.0,1623756433.144
1887766.0,1623756433.184
1891716.0,1623756432.943
1887632.0,1623756433.225
1887469.0,1623756433.264
1887367.0,1623756433.304
1887134.0,1623756433.345
1887563.0,1623756433.665
1887797.0,1623756433.706
1887641.0,1623756433.745
1886849.0,1623756433.586
1887315.0,1623756433.786
1887139.0,1623756433.625
1886319.0,1623756433.826
1887183.0,1623756433.544
1887252.0,1623756433.465
1886894.0,1623756433.424
1885553.0,1623756433.865
1887038.0,1623756433.504
1886777.0,1623756433.385
1884609.0,1623756433.905
1884089.0,1623756433.986
1884108.0,1623756434.025
1883986.0,1623756434.067
1884208.0,1623756434.106
1884263.0,1623756434.146
1884687.0,1623756434.226
1884240.0,1623756434.187
1884147.0,1623756433.946
1884470.0,1623756434.266
1884633.0,1623756434.307
1884685.0,1623756434.346
1884994.0,1623756434.387
1885643.0,1623756434.427
1886051.0,1623756434.466
1886198.0,1623756434.506
1886210.0,1623756434.547
1886103.0,1623756434.587
1885907.0,1623756434.627
1885807.0,1623756434.668
1885441.0,1623756434.707
1885372.0,1623756434.747
1885418.0,1623756434.789
1885634.0,1623756434.827
1885835.0,1623756434.867
1886090.0,1623756434.908
1886416.0,1623756434.947
1886925.0,1623756434.988
1887448.0,1623756435.067
1888579.0,1623756435.149
1887973.0,1623756435.107
1887301.0,1623756435.028
1889850.0,1623756435.269
1889676.0,1623756435.348
1889823.0,1623756435.308
1889813.0,1623756435.228
1889096.0,1623756435.188
1889104.0,1623756435.39
1888894.0,1623756435.428
1889128.0,1623756435.468
1889141.0,1623756435.509
1888966.0,1623756435.548
1888976.0,1623756435.589
1889139.0,1623756435.63
1889286.0,1623756435.669
1889492.0,1623756435.709
1889869.0,1623756435.75
1889973.0,1623756435.79
1890069.0,1623756435.829
1890353.0,1623756435.87
1890744.0,1623756435.909
1891340.0,1623756435.949
1891473.0,1623756435.991
1891058.0,1623756436.029
1890975.0,1623756436.07
1890757.0,1623756436.111
1890790.0,1623756436.15
1891172.0,1623756436.19
1891686.0,1623756436.231
1891149.0,1623756436.27
1891193.0,1623756436.31
1891511.0,1623756436.351
1891987.0,1623756436.391
1892334.0,1623756436.43
1892571.0,1623756436.471
1893178.0,1623756436.51
1893429.0,1623756436.55
1893868.0,1623756436.592
1894387.0,1623756436.631
1894003.0,1623756436.671
1894086.0,1623756436.712
1893407.0,1623756436.751
1892928.0,1623756436.792
1892884.0,1623756436.832
1893262.0,1623756436.871
1893392.0,1623756436.911
1893484.0,1623756436.952
1893889.0,1623756436.992
1893755.0,1623756437.031
1894241.0,1623756437.072
1894728.0,1623756437.112
1895373.0,1623756437.152
1895694.0,1623756437.193
1896383.0,1623756437.232
1896652.0,1623756437.272
1896950.0,1623756437.313
1896815.0,1623756437.352
1896584.0,1623756437.393
1896690.0,1623756437.433
1896459.0,1623756437.472
1896698.0,1623756437.512
1896984.0,1623756437.553
1897068.0,1623756437.593
1897326.0,1623756437.633
1897585.0,1623756437.674
1898453.0,1623756437.713
1898946.0,1623756437.753
1899429.0,1623756437.795
1900128.0,1623756437.833
1900686.0,1623756437.873
1901309.0,1623756437.914
1901368.0,1623756437.953
1901423.0,1623756437.994
1901323.0,1623756438.035
1901061.0,1623756438.074
1900220.0,1623756438.114
1899539.0,1623756438.155
1898915.0,1623756438.195
1898697.0,1623756438.234
1898366.0,1623756438.275
1898339.0,1623756438.314
1897973.0,1623756438.354
1898079.0,1623756438.396
1898385.0,1623756438.434
1898314.0,1623756438.474
1898821.0,1623756438.516
1898949.0,1623756438.555
1898983.0,1623756438.595
1898613.0,1623756438.636
1898075.0,1623756438.675
1897537.0,1623756438.715
1897274.0,1623756438.756
1897126.0,1623756438.796
1897050.0,1623756438.835
1897264.0,1623756438.876
1897158.0,1623756438.915
1897337.0,1623756438.956
1897482.0,1623756438.997
1897862.0,1623756439.036
1898268.0,1623756439.076
1898649.0,1623756439.117
1899105.0,1623756439.156
1899551.0,1623756439.197
1899712.0,1623756439.237
1899905.0,1623756439.276
1899277.0,1623756439.316
1899008.0,1623756439.357
1898707.0,1623756439.397
1898660.0,1623756439.437
1898260.0,1623756439.478
1898611.0,1623756439.517
1898441.0,1623756439.557
1898595.0,1623756439.599
1898772.0,1623756439.637
1898865.0,1623756439.677
1899309.0,1623756439.718
1899851.0,1623756439.757
1900074.0,1623756439.798
1900699.0,1623756439.839
1901582.0,1623756439.878
1901407.0,1623756439.918
1901186.0,1623756439.959
1901088.0,1623756439.999
1901515.0,1623756440.038
1902589.0,1623756440.079
1903149.0,1623756440.118
1903842.0,1623756440.158
1904312.0,1623756440.2
1904738.0,1623756440.239
1904589.0,1623756440.279
1905405.0,1623756440.32
1905856.0,1623756440.359
1905684.0,1623756440.4
1905954.0,1623756440.44
1906309.0,1623756440.479
1906958.0,1623756440.519
1906632.0,1623756440.56
1906136.0,1623756440.6
1905531.0,1623756440.64
1904648.0,1623756440.681
1904375.0,1623756440.72
1904102.0,1623756440.76
1904389.0,1623756440.802
1904114.0,1623756440.84
1903567.0,1623756440.88
1903413.0,1623756440.921
1903048.0,1623756440.96
1903022.0,1623756441.001
1902862.0,1623756441.042
1902651.0,1623756441.081
1902688.0,1623756441.121
1902679.0,1623756441.162
1902554.0,1623756441.202
1901402.0,1623756441.241
1900746.0,1623756441.282
1900023.0,1623756441.321
1899435.0,1623756441.361
1898909.0,1623756441.403
1899275.0,1623756441.442
1899259.0,1623756441.482
1898964.0,1623756441.523
1899222.0,1623756441.562
1899246.0,1623756441.603
1899150.0,1623756441.643
1899437.0,1623756441.682
1899226.0,1623756441.722
1899949.0,1623756441.764
1900420.0,1623756441.803
1900251.0,1623756441.843
1899553.0,1623756441.884
1899122.0,1623756441.923
1898953.0,1623756441.963
1898253.0,1623756442.005
1898630.0,1623756442.043
1898309.0,1623756442.083
1898311.0,1623756442.125
1898012.0,1623756442.164
1897964.0,1623756442.204
1898439.0,1623756442.245
1898693.0,1623756442.284
1898835.0,1623756442.324
1899642.0,1623756442.365
1900761.0,1623756442.405
1901201.0,1623756442.444
1901286.0,1623756442.485
1901233.0,1623756442.525
1901904.0,1623756442.565
1901760.0,1623756442.606
1901877.0,1623756442.645
1902157.0,1623756442.685
1902334.0,1623756442.726
1902573.0,1623756442.806
1902259.0,1623756442.765
1902271.0,1623756442.846
1902271.0,1623756442.886
1902011.0,1623756442.926
1902225.0,1623756442.967
1901691.0,1623756443.007
1901996.0,1623756443.046
1902250.0,1623756443.087
1902139.0,1623756443.126
1901042.0,1623756443.166
1900285.0,1623756443.208
1898167.0,1623756443.287
1899389.0,1623756443.247
1897853.0,1623756443.328
1897430.0,1623756443.408
1896590.0,1623756443.448
1897651.0,1623756443.367
1896515.0,1623756443.487
1896550.0,1623756443.527
1896127.0,1623756443.569
1896043.0,1623756443.648
1896326.0,1623756443.608
1896209.0,1623756443.689
1896280.0,1623756443.728
1896725.0,1623756443.768
1896826.0,1623756443.848
1896561.0,1623756443.81
1896130.0,1623756443.888
1895658.0,1623756443.929
1894998.0,1623756443.968
1894433.0,1623756444.009
1894483.0,1623756444.05
1894585.0,1623756444.089
1894308.0,1623756444.129
1894146.0,1623756444.17
1894502.0,1623756444.209
1894805.0,1623756444.249
1895522.0,1623756444.29
1896322.0,1623756444.329
1896495.0,1623756444.369
1897243.0,1623756444.457
1897812.0,1623756444.495
1898554.0,1623756444.535
1899030.0,1623756444.576
1898700.0,1623756444.615
1898814.0,1623756444.656
1898547.0,1623756444.697
1898655.0,1623756444.736
1899052.0,1623756444.776
1899322.0,1623756444.817
1899922.0,1623756444.857
1899975.0,1623756444.896
1900344.0,1623756444.937
1899921.0,1623756444.976
1900601.0,1623756445.016
1901193.0,1623756445.058
1902449.0,1623756445.096
1904248.0,1623756445.136
1905572.0,1623756445.178
1906299.0,1623756445.217
1907157.0,1623756445.257
1907149.0,1623756445.298
1906502.0,1623756445.337
1906117.0,1623756445.377
1905820.0,1623756445.418
1907883.0,1623756445.458
1915056.0,1623756445.497
1917282.0,1623756445.538
1912935.0,1623756445.577
1910883.0,1623756445.617
1911556.0,1623756445.659
1913145.0,1623756445.697
1915224.0,1623756445.738
1915756.0,1623756445.779
1914515.0,1623756445.818
1913872.0,1623756445.858
1913621.0,1623756445.899
1912756.0,1623756445.938
1911463.0,1623756445.978
1910793.0,1623756446.019
1909820.0,1623756446.059
1909250.0,1623756446.098
1908767.0,1623756446.139
1908573.0,1623756446.178
1908745.0,1623756446.218
1908654.0,1623756446.26
1908327.0,1623756446.299
1908811.0,1623756446.339
1908615.0,1623756446.38
1908815.0,1623756446.419
1908776.0,1623756446.46
1908546.0,1623756446.5
1908447.0,1623756446.539
1907718.0,1623756446.579
1906880.0,1623756446.62
1906026.0,1623756446.66
1905394.0,1623756446.7
1905608.0,1623756446.741
1905600.0,1623756446.78
1905342.0,1623756446.82
1904939.0,1623756446.862
1905042.0,1623756446.9
1905319.0,1623756446.94
1905117.0,1623756446.981
1905600.0,1623756447.02
1905783.0,1623756447.061
1906134.0,1623756447.18
1905826.0,1623756447.222
1905546.0,1623756447.261
1905325.0,1623756447.301
1905723.0,1623756447.342
1906211.0,1623756447.381
1907156.0,1623756447.421
1908156.0,1623756447.463
1909172.0,1623756447.501
1909835.0,1623756447.541
1906067.0,1623756447.101
1905971.0,1623756447.14
1910439.0,1623756447.582
1910900.0,1623756447.621
1911380.0,1623756447.662
1911993.0,1623756447.702
1912726.0,1623756447.742
1912622.0,1623756447.782
1912315.0,1623756447.823
1912005.0,1623756447.862
1911837.0,1623756447.903
1911461.0,1623756447.941
1911632.0,1623756447.978
1912077.0,1623756448.018
1912057.0,1623756448.057
1911956.0,1623756448.095
1912213.0,1623756448.135
1912733.0,1623756448.176
1912719.0,1623756448.215
1913006.0,1623756448.256
1913422.0,1623756448.297
1914213.0,1623756448.336
1914596.0,1623756448.376
1914199.0,1623756448.417
1913569.0,1623756448.457
1912843.0,1623756448.496
1912318.0,1623756448.537
1911691.0,1623756448.576
1911407.0,1623756448.616
1911625.0,1623756448.658
1911518.0,1623756448.696
1911411.0,1623756448.738
1911209.0,1623756448.779
1911375.0,1623756448.818
1911463.0,1623756448.859
1912065.0,1623756448.9
1912474.0,1623756448.939
1912841.0,1623756448.979
1912834.0,1623756449.021
1912638.0,1623756449.06
1912482.0,1623756449.1
1911676.0,1623756449.142
1911310.0,1623756449.181
1910992.0,1623756449.221
1910611.0,1623756449.26
1910347.0,1623756449.295
1910434.0,1623756449.335
1910256.0,1623756449.376
1910439.0,1623756449.416
1910480.0,1623756449.456
1910869.0,1623756449.497
1911075.0,1623756449.536
1911263.0,1623756449.576
1911623.0,1623756449.617
1911700.0,1623756449.657
1911195.0,1623756449.696
1911007.0,1623756449.738
1910908.0,1623756449.777
1911028.0,1623756449.817
1911091.0,1623756449.859
1911727.0,1623756449.897
1912179.0,1623756449.937
1912628.0,1623756449.979
1912763.0,1623756450.018
1912594.0,1623756450.059
1913373.0,1623756450.1
1913476.0,1623756450.139
1914264.0,1623756450.18
1914338.0,1623756450.221
1914583.0,1623756450.261
1915090.0,1623756450.301
1914912.0,1623756450.342
1915048.0,1623756450.381
1914271.0,1623756450.421
1913416.0,1623756450.461
1912913.0,1623756450.5
1912473.0,1623756450.54
1912432.0,1623756450.581
1912761.0,1623756450.62
1914232.0,1623756450.66
1914475.0,1623756450.701
1914619.0,1623756450.74
1917376.0,1623756450.78
1924190.0,1623756450.821
1933759.0,1623756450.861
1940602.0,1623756450.9
1941295.0,1623756450.941
1943242.0,1623756450.98
1947849.0,1623756451.02
1956391.0,1623756451.062
1958075.0,1623756451.101
1951728.0,1623756451.141
1944921.0,1623756451.182
1941004.0,1623756451.221
1939029.0,1623756451.261
1938874.0,1623756451.303
1937618.0,1623756451.34
1935984.0,1623756451.38
1934627.0,1623756451.422
1933524.0,1623756451.461
1932744.0,1623756451.501
1932609.0,1623756451.543
1932586.0,1623756451.582
1932100.0,1623756451.622
1931803.0,1623756451.664
1931731.0,1623756451.7
1932113.0,1623756451.74
1932408.0,1623756451.782
1932907.0,1623756451.82
1933099.0,1623756451.851
1932734.0,1623756451.892
1931720.0,1623756451.931
1931400.0,1623756451.971
1930445.0,1623756452.012
1930163.0,1623756452.052
1929270.0,1623756452.091
1929196.0,1623756452.132
1928627.0,1623756452.171
1928499.0,1623756452.211
1928605.0,1623756452.253
1928154.0,1623756452.291
1928247.0,1623756452.332
1928446.0,1623756452.373
1928514.0,1623756452.412
1928611.0,1623756452.453
1928620.0,1623756452.493
1929046.0,1623756452.527
1929576.0,1623756452.568
1930361.0,1623756452.603
1929645.0,1623756452.64
1929309.0,1623756452.68
1930032.0,1623756452.76
1929578.0,1623756452.721
1930513.0,1623756452.801
1931484.0,1623756452.843
1932549.0,1623756452.881
1933016.0,1623756452.921
1934103.0,1623756452.963
1934647.0,1623756453.002
1935484.0,1623756453.043
1936286.0,1623756453.08
1936894.0,1623756453.119
1937257.0,1623756453.159
1938745.0,1623756453.2
1938979.0,1623756453.24
1938414.0,1623756453.279
1938543.0,1623756453.321
1938443.0,1623756453.36
1937714.0,1623756453.4
1937084.0,1623756453.441
1936231.0,1623756453.48
1936562.0,1623756453.52
1936407.0,1623756453.561
1936298.0,1623756453.6
1936125.0,1623756453.641
1936218.0,1623756453.681
1936516.0,1623756453.72
1936803.0,1623756453.76
1937202.0,1623756453.801
1937381.0,1623756453.841
1937665.0,1623756453.881
1938403.0,1623756453.922
1938935.0,1623756453.961
1938873.0,1623756454.002
1938735.0,1623756454.044
1938605.0,1623756454.082
1938682.0,1623756454.122
1938464.0,1623756454.161
1938289.0,1623756454.201
1938984.0,1623756454.242
1939325.0,1623756454.282
1939511.0,1623756454.313
1939928.0,1623756454.353
1940402.0,1623756454.394
1941180.0,1623756454.434
1941636.0,1623756454.473
1942184.0,1623756454.514
1942744.0,1623756454.553
1943499.0,1623756454.594
1943790.0,1623756454.635
1943971.0,1623756454.674
1943596.0,1623756454.714
1943500.0,1623756454.755
1943477.0,1623756454.794
1943742.0,1623756454.835
1943979.0,1623756454.875
1944667.0,1623756454.914
1944846.0,1623756454.954
1946120.0,1623756454.987
1947354.0,1623756455.024
1948094.0,1623756455.062
1948427.0,1623756455.103
1948820.0,1623756455.142
1949489.0,1623756455.183
1949922.0,1623756455.225
1951165.0,1623756455.263
1953238.0,1623756455.304
1957557.0,1623756455.345
1965199.0,1623756455.382
1965176.0,1623756455.423
1956503.0,1623756455.464
1952526.0,1623756455.503
1952840.0,1623756455.543
1953837.0,1623756455.584
1953418.0,1623756455.62
1953382.0,1623756455.66
1953505.0,1623756455.701
1952927.0,1623756455.74
1951861.0,1623756455.78
1951209.0,1623756455.822
1950729.0,1623756455.86
1950320.0,1623756455.9
1949389.0,1623756455.941
1948366.0,1623756455.98
1947238.0,1623756456.021
1946533.0,1623756456.062
1945881.0,1623756456.101
1945501.0,1623756456.141
1945180.0,1623756456.182
1944954.0,1623756456.221
1945056.0,1623756456.261
1945038.0,1623756456.302
1945013.0,1623756456.342
1945399.0,1623756456.382
1946128.0,1623756456.421
1946399.0,1623756456.46
1946712.0,1623756456.499
1946195.0,1623756456.538
1945805.0,1623756456.577
1945511.0,1623756456.616
1945172.0,1623756456.655
1945535.0,1623756456.694
1945402.0,1623756456.733
1945545.0,1623756456.772
1945577.0,1623756456.811
1945699.0,1623756456.85
1946014.0,1623756456.889
1946099.0,1623756456.928
1946478.0,1623756456.967
1946523.0,1623756457.006
1947013.0,1623756457.045
1946970.0,1623756457.084
1946641.0,1623756457.123
1946288.0,1623756457.162
1945174.0,1623756457.201
1944936.0,1623756457.24
1944666.0,1623756457.279
1945115.0,1623756457.318
1945054.0,1623756457.357
1945315.0,1623756457.396
1945185.0,1623756457.435
1945702.0,1623756457.513
1945164.0,1623756457.552
1945468.0,1623756457.591
1945868.0,1623756457.63
1946016.0,1623756457.669
1945986.0,1623756457.708
1945662.0,1623756457.747
1944635.0,1623756457.786
1943311.0,1623756457.825
1943105.0,1623756457.864
1942358.0,1623756457.903
1945360.0,1623756457.474
1942033.0,1623756457.942
1941809.0,1623756457.981
1941208.0,1623756458.02
1941366.0,1623756458.059
1940582.0,1623756458.098
1940784.0,1623756458.137
1939983.0,1623756458.215
1940210.0,1623756458.176
1940490.0,1623756458.254
1940633.0,1623756458.293
1940608.0,1623756458.371
1940689.0,1623756458.332
1939314.0,1623756458.449
1938109.0,1623756458.488
1940013.0,1623756458.41
1937175.0,1623756458.527
1936159.0,1623756458.566
1935972.0,1623756458.605
1935442.0,1623756458.644
1935044.0,1623756458.683
1934828.0,1623756458.722
1934671.0,1623756458.761
1934262.0,1623756458.8
1934342.0,1623756458.839
1934747.0,1623756458.878
1934636.0,1623756458.917
1934546.0,1623756458.956
1934765.0,1623756458.995
1934933.0,1623756459.073
1934304.0,1623756459.112
1933604.0,1623756459.151
1934883.0,1623756459.034
1932204.0,1623756459.229
1931850.0,1623756459.346
1931906.0,1623756459.307
1932715.0,1623756459.19
1931971.0,1623756459.268
1931534.0,1623756459.385
1931313.0,1623756459.424
1931819.0,1623756459.463
1932273.0,1623756459.502
1933049.0,1623756459.541
1933922.0,1623756459.58
1935519.0,1623756459.619
1936196.0,1623756459.658
1936131.0,1623756459.697
1936437.0,1623756459.736
1935898.0,1623756459.775
1935228.0,1623756459.814
1934948.0,1623756459.853
1934515.0,1623756459.892
1934378.0,1623756459.931
1934781.0,1623756459.97
1934619.0,1623756460.009
1934445.0,1623756460.048
1934917.0,1623756460.087
1934664.0,1623756460.126
1934965.0,1623756460.165
1935184.0,1623756460.204
1935265.0,1623756460.244
1935473.0,1623756460.284
1935795.0,1623756460.324
1936272.0,1623756460.364
1936154.0,1623756460.404
1935798.0,1623756460.444
1935798.0,1623756460.484
1934957.0,1623756460.524
1934016.0,1623756460.564
1933595.0,1623756460.604
1933324.0,1623756460.644
1933253.0,1623756460.684
1933267.0,1623756460.724
1933138.0,1623756460.764
1933162.0,1623756460.804
1933430.0,1623756460.844
1933522.0,1623756460.884
1934041.0,1623756460.924
1934435.0,1623756460.964
1934709.0,1623756461.004
1935461.0,1623756461.044
1935916.0,1623756461.084
1936180.0,1623756461.124
1936271.0,1623756461.164
1935761.0,1623756461.204
1935243.0,1623756461.244
1934901.0,1623756461.284
1934387.0,1623756461.324
1934350.0,1623756461.364
1934548.0,1623756461.404
1934629.0,1623756461.444
1934759.0,1623756461.484
1934768.0,1623756461.524
1935102.0,1623756461.564
1935579.0,1623756461.604
1935840.0,1623756461.644
1936376.0,1623756461.684
1936709.0,1623756461.724
1937605.0,1623756461.764
1938329.0,1623756461.804
1939177.0,1623756461.844
1939126.0,1623756461.884
1939231.0,1623756461.924
1939648.0,1623756461.964
1940159.0,1623756462.004
1940420.0,1623756462.044
1940712.0,1623756462.084
1941069.0,1623756462.124
1941260.0,1623756462.164
1941417.0,1623756462.204
1941471.0,1623756462.244
1941585.0,1623756462.284
1941606.0,1623756462.324
1941580.0,1623756462.364
1941974.0,1623756462.404
1942267.0,1623756462.444
1942538.0,1623756462.484
1942479.0,1623756462.524
1941681.0,1623756462.564
1941254.0,1623756462.604
1941143.0,1623756462.644
1941038.0,1623756462.684
1941189.0,1623756462.724
1941122.0,1623756462.764
1941422.0,1623756462.804
1941050.0,1623756462.844
1941081.0,1623756462.884
1941262.0,1623756462.924
1941794.0,1623756462.964
1941974.0,1623756463.004
1942390.0,1623756463.044
1942667.0,1623756463.084
1943238.0,1623756463.124
1943336.0,1623756463.164
1943067.0,1623756463.204
1942459.0,1623756463.244
1942458.0,1623756463.284
1942324.0,1623756463.324
1942620.0,1623756463.364
1942534.0,1623756463.404
1942804.0,1623756463.444
1942852.0,1623756463.524
1942967.0,1623756463.484
1943370.0,1623756463.604
1943209.0,1623756463.564
1943994.0,1623756463.644
1944376.0,1623756463.684
1944809.0,1623756463.724
1945482.0,1623756463.804
1945283.0,1623756463.764
1944992.0,1623756463.844
1944256.0,1623756463.884
1943802.0,1623756463.924
1943675.0,1623756463.964
1943815.0,1623756464.004
1943861.0,1623756464.044
1943725.0,1623756464.084
1943796.0,1623756464.124
1944238.0,1623756464.164
1944179.0,1623756464.204
1944408.0,1623756464.244
1944501.0,1623756464.284
1946295.0,1623756464.324
1947862.0,1623756464.364
1947212.0,1623756464.404
1946719.0,1623756464.444
1945389.0,1623756464.484
1944744.0,1623756464.524
1944071.0,1623756464.564
1944574.0,1623756464.604
1945080.0,1623756464.644
1948285.0,1623756464.684
1954073.0,1623756464.724
1953267.0,1623756464.764
1945873.0,1623756464.804
1944628.0,1623756464.844
1945968.0,1623756464.884
1947551.0,1623756464.924
1947846.0,1623756464.964
1947650.0,1623756465.004
1947014.0,1623756465.044
1946222.0,1623756465.084
1945659.0,1623756465.124
1943794.0,1623756465.164
1941864.0,1623756465.204
1940426.0,1623756465.244
1939602.0,1623756465.284
1939105.0,1623756465.324
1938052.0,1623756465.364
1937423.0,1623756465.404
1937034.0,1623756465.444
1936024.0,1623756465.484
1935861.0,1623756465.524
1935270.0,1623756465.564
1935179.0,1623756465.604
1934813.0,1623756465.644
1934254.0,1623756465.684
1933182.0,1623756465.724
1932417.0,1623756465.764
1931252.0,1623756465.804
1930379.0,1623756465.844
1929385.0,1623756465.884
1928997.0,1623756465.924
1928591.0,1623756465.964
1928182.0,1623756466.004
1927497.0,1623756466.044
1927031.0,1623756466.084
1926795.0,1623756466.124
1927174.0,1623756466.164
1927137.0,1623756466.204
1927450.0,1623756466.244
1927563.0,1623756466.284
1927055.0,1623756466.324
1926365.0,1623756466.364
1925547.0,1623756466.404
1924742.0,1623756466.444
1924474.0,1623756466.484
1924811.0,1623756466.524
1925411.0,1623756466.564
1926148.0,1623756466.604
1926533.0,1623756466.644
1926291.0,1623756466.684
1926688.0,1623756466.724
1926487.0,1623756466.764
1926647.0,1623756466.804
1926509.0,1623756466.844
1926812.0,1623756466.884
1927125.0,1623756466.924
1926619.0,1623756466.964
1925580.0,1623756467.004
1924556.0,1623756467.044
1923787.0,1623756467.084
1923354.0,1623756467.124
1922556.0,1623756467.164
1922034.0,1623756467.204
1921391.0,1623756467.244
1921622.0,1623756467.284
1921343.0,1623756467.324
1921179.0,1623756467.364
1920980.0,1623756467.404
1921073.0,1623756467.444
1920613.0,1623756467.484
1921020.0,1623756467.524
1920909.0,1623756467.564
1920825.0,1623756467.604
1920674.0,1623756467.644
1919503.0,1623756467.684
1918777.0,1623756467.724
1918157.0,1623756467.764
1917348.0,1623756467.804
1916797.0,1623756467.844
1916405.0,1623756467.884
1915827.0,1623756467.924
1915623.0,1623756467.964
1915558.0,1623756468.004
1915520.0,1623756468.044
1915286.0,1623756468.084
1915461.0,1623756468.124
1915380.0,1623756468.164
1915582.0,1623756468.204
1915728.0,1623756468.244
1915321.0,1623756468.284
1914296.0,1623756468.326
1913486.0,1623756468.364
1912395.0,1623756468.404
1911940.0,1623756468.445
1911802.0,1623756468.484
1911266.0,1623756468.525
1910974.0,1623756468.565
1911074.0,1623756468.604
1910950.0,1623756468.644
1911357.0,1623756468.685
1911195.0,1623756468.725
1913087.0,1623756468.765
1914296.0,1623756468.806
1914411.0,1623756468.845
1913390.0,1623756468.885
1912690.0,1623756468.927
1909396.0,1623756469.085
1909970.0,1623756469.046
1909357.0,1623756469.126
1908731.0,1623756469.166
1908035.0,1623756469.206
1908117.0,1623756469.246
1907316.0,1623756469.287
1906646.0,1623756469.326
1906589.0,1623756469.366
1906559.0,1623756469.407
1910720.0,1623756469.005
1911407.0,1623756468.965
1906632.0,1623756469.446
1906990.0,1623756469.486
1906879.0,1623756469.528
1906794.0,1623756469.566
1906850.0,1623756469.606
1906379.0,1623756469.647
1905438.0,1623756469.687
1903781.0,1623756469.807
1904803.0,1623756469.727
1904202.0,1623756469.768
1903096.0,1623756469.847
1903088.0,1623756469.928
1903284.0,1623756469.967
1903115.0,1623756470.008
1903423.0,1623756470.047
1903351.0,1623756470.08
1903351.0,1623756470.114
1903976.0,1623756470.153
1904236.0,1623756470.193
1904843.0,1623756470.234
1905607.0,1623756470.273
1905344.0,1623756470.314
1904851.0,1623756470.354
1904187.0,1623756470.393
1903715.0,1623756470.434
1903233.0,1623756470.475
1902760.0,1623756470.514
1902714.0,1623756470.554
1902518.0,1623756470.595
1902517.0,1623756470.634
1903312.0,1623756469.888
1902616.0,1623756470.674
1902767.0,1623756470.716
1902979.0,1623756470.754
1902869.0,1623756470.794
1903323.0,1623756470.831
1903697.0,1623756470.87
1904022.0,1623756470.904
1904423.0,1623756470.943
1904212.0,1623756470.982
1903533.0,1623756471.023
1902620.0,1623756471.064
1901781.0,1623756471.104
1901317.0,1623756471.144
1900906.0,1623756471.185
1901148.0,1623756471.224
1900925.0,1623756471.262
1901209.0,1623756471.304
1901029.0,1623756471.343
1901209.0,1623756471.383
1901397.0,1623756471.424
1902622.0,1623756471.463
1903066.0,1623756471.504
1904117.0,1623756471.544
1905273.0,1623756471.583
1907105.0,1623756471.623
1907711.0,1623756471.664
1907633.0,1623756471.704
1907699.0,1623756471.743
1907835.0,1623756471.784
1906975.0,1623756471.824
1906953.0,1623756471.864
1908169.0,1623756471.905
1909438.0,1623756471.944
1913277.0,1623756471.984
1913719.0,1623756472.025
1910103.0,1623756472.063
1906395.0,1623756472.103
1907131.0,1623756472.144
1908252.0,1623756472.184
1909636.0,1623756472.224
1908841.0,1623756472.265
1908213.0,1623756472.305
1907534.0,1623756472.345
1906500.0,1623756472.384
1906018.0,1623756472.423
1905527.0,1623756472.463
1905483.0,1623756472.505
1905218.0,1623756472.544
1905073.0,1623756472.577
1904809.0,1623756472.618
1905107.0,1623756472.657
1905313.0,1623756472.698
1905673.0,1623756472.739
1905560.0,1623756472.778
1905787.0,1623756472.818
1906183.0,1623756472.859
1906405.0,1623756472.899
1906873.0,1623756472.938
1906492.0,1623756472.979
1905407.0,1623756473.018
1904866.0,1623756473.058
1904029.0,1623756473.1
1903657.0,1623756473.138
1903572.0,1623756473.179
1903445.0,1623756473.22
1903435.0,1623756473.259
1903331.0,1623756473.301
1903292.0,1623756473.342
1903308.0,1623756473.381
1903485.0,1623756473.421
1903781.0,1623756473.463
1904107.0,1623756473.542
1904117.0,1623756473.503
1903769.0,1623756473.623
1903226.0,1623756473.663
1901771.0,1623756473.705
1902739.0,1623756473.744
1905157.0,1623756473.783
1905668.0,1623756473.821
1904735.0,1623756473.86
1903691.0,1623756473.9
1903007.0,1623756473.941
1904253.0,1623756473.584
1906636.0,1623756473.98
1910348.0,1623756474.02
1912648.0,1623756474.061
1907620.0,1623756474.101
1903550.0,1623756474.14
1904928.0,1623756474.181
1907071.0,1623756474.22
1906069.0,1623756474.302
1907154.0,1623756474.261
1905674.0,1623756474.341
1905768.0,1623756474.381
1905886.0,1623756474.422
1906341.0,1623756474.461
1907365.0,1623756474.503
1907476.0,1623756474.544
1907469.0,1623756474.583
1907632.0,1623756474.623
1907750.0,1623756474.665
1908011.0,1623756474.705
1908033.0,1623756474.744
1908075.0,1623756474.786
1908280.0,1623756474.825
1908366.0,1623756474.865
1908908.0,1623756474.907
1909046.0,1623756474.945
1908279.0,1623756474.986
1908277.0,1623756475.026
1907103.0,1623756475.058
1906592.0,1623756475.099
1906188.0,1623756475.139
1906373.0,1623756475.178
1906048.0,1623756475.218
1906159.0,1623756475.26
1906145.0,1623756475.299
1906537.0,1623756475.339
1906605.0,1623756475.38
1907172.0,1623756475.419
1906676.0,1623756475.459
1907382.0,1623756475.501
1907781.0,1623756475.539
1908317.0,1623756475.579
1907742.0,1623756475.62
1907293.0,1623756475.659
1906846.0,1623756475.7
1906067.0,1623756475.735
1906507.0,1623756475.764
1908171.0,1623756475.804
1909866.0,1623756475.845
1910418.0,1623756475.885
1909532.0,1623756475.925
1909741.0,1623756475.966
1910396.0,1623756476.005
1911172.0,1623756476.044
1911690.0,1623756476.086
1912083.0,1623756476.124
1912486.0,1623756476.164
1913248.0,1623756476.206
1913784.0,1623756476.245
1913927.0,1623756476.286
1913947.0,1623756476.326
1913824.0,1623756476.365
1913443.0,1623756476.405
1913918.0,1623756476.446
1913908.0,1623756476.486
1914190.0,1623756476.526
1914016.0,1623756476.567
1914060.0,1623756476.606
1914250.0,1623756476.646
1914544.0,1623756476.688
1914940.0,1623756476.726
1915252.0,1623756476.766
1916621.0,1623756476.807
1916938.0,1623756476.846
1917829.0,1623756476.887
1918063.0,1623756476.927
1918480.0,1623756476.964
1918423.0,1623756477.004
1917825.0,1623756477.046
1917375.0,1623756477.085
1917279.0,1623756477.125
1917353.0,1623756477.166
1917611.0,1623756477.206
1917878.0,1623756477.246
1918073.0,1623756477.286
1918422.0,1623756477.324
1918376.0,1623756477.365
1918705.0,1623756477.406
1919053.0,1623756477.445
1919532.0,1623756477.486
1920027.0,1623756477.527
1920732.0,1623756477.566
1920732.0,1623756477.601
1921140.0,1623756477.642
1922002.0,1623756477.682
1921922.0,1623756477.721
1921475.0,1623756477.802
1921556.0,1623756477.763
1921252.0,1623756477.842
1921245.0,1623756477.884
1921607.0,1623756477.922
1921683.0,1623756477.962
1922029.0,1623756478.003
1922200.0,1623756478.042
1922683.0,1623756478.083
1923194.0,1623756478.124
1923450.0,1623756478.163
1924171.0,1623756478.203
1925100.0,1623756478.244
1926198.0,1623756478.283
1927172.0,1623756478.323
1927930.0,1623756478.366
1927863.0,1623756478.405
1927682.0,1623756478.445
1926972.0,1623756478.486
1926301.0,1623756478.525
1926409.0,1623756478.565
1926049.0,1623756478.606
1926343.0,1623756478.646
1926201.0,1623756478.687
1926444.0,1623756478.727
1926633.0,1623756478.766
1926756.0,1623756478.807
1926716.0,1623756478.846
1927562.0,1623756478.886
1928017.0,1623756478.927
1928964.0,1623756478.968
1929803.0,1623756479.007
1929120.0,1623756479.047
1928645.0,1623756479.089
1928547.0,1623756479.127
1927992.0,1623756479.167
1928117.0,1623756479.208
1928642.0,1623756479.247
1928873.0,1623756479.288
1929126.0,1623756479.328
1929200.0,1623756479.367
1929371.0,1623756479.407
1929407.0,1623756479.448
1930016.0,1623756479.488
1930661.0,1623756479.528
1931326.0,1623756479.569
1931640.0,1623756479.608
1932412.0,1623756479.645
1933150.0,1623756479.687
1933144.0,1623756479.726
1932952.0,1623756479.766
1932628.0,1623756479.807
1932145.0,1623756479.847
1931620.0,1623756479.888
1931743.0,1623756479.928
1932029.0,1623756479.967
1931829.0,1623756480.005
1932036.0,1623756480.047
1932193.0,1623756480.082
1932570.0,1623756480.121
1932734.0,1623756480.162
1932985.0,1623756480.201
1932970.0,1623756480.241
1933561.0,1623756480.28
1934150.0,1623756480.319
1934294.0,1623756480.358
1934186.0,1623756480.397
1934144.0,1623756480.436
1934121.0,1623756480.475
1933836.0,1623756480.514
1933934.0,1623756480.553
1933985.0,1623756480.592
1934220.0,1623756480.632
1934238.0,1623756480.672
1934763.0,1623756480.712
1935312.0,1623756480.752
1935549.0,1623756480.792
1936057.0,1623756480.832
1936847.0,1623756480.872
1937616.0,1623756480.912
1937692.0,1623756480.952
1937371.0,1623756480.992
1937053.0,1623756481.032
1937374.0,1623756481.072
1937214.0,1623756481.112
1936751.0,1623756481.152
1937026.0,1623756481.192
1936739.0,1623756481.232
1937157.0,1623756481.272
1936593.0,1623756481.312
1936121.0,1623756481.352
1936351.0,1623756481.392
1936420.0,1623756481.432
1936880.0,1623756481.472
1936725.0,1623756481.512
1937250.0,1623756481.552
1936869.0,1623756481.592
1936894.0,1623756481.632
1936801.0,1623756481.672
1936756.0,1623756481.712
1937153.0,1623756481.752
1937647.0,1623756481.792
1937507.0,1623756481.832
1937685.0,1623756481.872
1937708.0,1623756481.912
1937802.0,1623756481.952
1938273.0,1623756481.992
1938755.0,1623756482.032
1939152.0,1623756482.072
1939943.0,1623756482.112
1940113.0,1623756482.152
1939735.0,1623756482.192
1939344.0,1623756482.232
1939079.0,1623756482.272
1938582.0,1623756482.312
1938636.0,1623756482.352
1938740.0,1623756482.392
1938740.0,1623756482.432
1938978.0,1623756482.472
1939420.0,1623756482.512
1938947.0,1623756482.552
1939466.0,1623756482.592
1939891.0,1623756482.632
1940309.0,1623756482.672
1940829.0,1623756482.712
1941166.0,1623756482.752
1941532.0,1623756482.792
1941085.0,1623756482.832
1940009.0,1623756482.912
1939528.0,1623756482.992
1940708.0,1623756482.872
1939204.0,1623756483.032
1939096.0,1623756483.072
1939385.0,1623756483.112
1939229.0,1623756483.152
1939528.0,1623756482.952
1939321.0,1623756483.232
1939709.0,1623756483.272
1938948.0,1623756483.192
1939931.0,1623756483.312
1940150.0,1623756483.352
1940516.0,1623756483.392
1940563.0,1623756483.432
1940199.0,1623756483.472
1939577.0,1623756483.512
1938843.0,1623756483.552
1938105.0,1623756483.592
1937273.0,1623756483.632
1936966.0,1623756483.672
1937141.0,1623756483.712
1937288.0,1623756483.752
1937000.0,1623756483.792
1937002.0,1623756483.832
1936864.0,1623756483.872
1937156.0,1623756483.912
1937780.0,1623756483.952
1937840.0,1623756483.992
1938013.0,1623756484.032
1938597.0,1623756484.072
1938647.0,1623756484.112
1938920.0,1623756484.152
1938198.0,1623756484.192
1937842.0,1623756484.232
1936759.0,1623756484.272
1936526.0,1623756484.312
1936692.0,1623756484.352
1936224.0,1623756484.392
1936138.0,1623756484.432
1936164.0,1623756484.472
1936238.0,1623756484.512
1936040.0,1623756484.552
1936311.0,1623756484.592
1936778.0,1623756484.632
1936802.0,1623756484.672
1936912.0,1623756484.712
1937675.0,1623756484.752
1937952.0,1623756484.792
1938154.0,1623756484.832
1937780.0,1623756484.872
1937201.0,1623756484.912
1936957.0,1623756484.952
1936561.0,1623756484.992
1936487.0,1623756485.032
1936352.0,1623756485.072
1936615.0,1623756485.112
1936572.0,1623756485.152
1936942.0,1623756485.192
1936930.0,1623756485.232
1937298.0,1623756485.272
1937557.0,1623756485.312
1937861.0,1623756485.352
1938449.0,1623756485.392
1938862.0,1623756485.432
1939226.0,1623756485.472
1939359.0,1623756485.512
1938803.0,1623756485.552
1938252.0,1623756485.592
1937956.0,1623756485.632
1937592.0,1623756485.672
1937720.0,1623756485.712
1937726.0,1623756485.752
1937412.0,1623756485.792
1937688.0,1623756485.832
1937936.0,1623756485.872
1937767.0,1623756485.912
1938220.0,1623756485.952
1938546.0,1623756485.992
1938927.0,1623756486.032
1939300.0,1623756486.072
1939875.0,1623756486.112
1939991.0,1623756486.152
1940380.0,1623756486.192
1940448.0,1623756486.232
1939897.0,1623756486.272
1939476.0,1623756486.312
1939087.0,1623756486.352
1938979.0,1623756486.392
1939027.0,1623756486.432
1939255.0,1623756486.472
1939407.0,1623756486.512
1939405.0,1623756486.552
1939695.0,1623756486.592
1940116.0,1623756486.632
1940262.0,1623756486.672
1941065.0,1623756486.712
1941409.0,1623756486.752
1941891.0,1623756486.792
1942350.0,1623756486.832
1942287.0,1623756486.872
1942046.0,1623756486.912
1941467.0,1623756486.952
1940953.0,1623756486.992
1940625.0,1623756487.032
1940868.0,1623756487.072
1941169.0,1623756487.112
1941477.0,1623756487.152
1941907.0,1623756487.192
1941524.0,1623756487.232
1941187.0,1623756487.272
1944248.0,1623756487.312
1944550.0,1623756487.352
1944666.0,1623756487.392
1943756.0,1623756487.432
1944020.0,1623756487.472
1942910.0,1623756487.512
1942428.0,1623756487.552
1941965.0,1623756487.592
1941059.0,1623756487.632
1940894.0,1623756487.672
1941411.0,1623756487.712
1941558.0,1623756487.752
1943138.0,1623756487.792
1947855.0,1623756487.832
1949569.0,1623756487.872
1947421.0,1623756487.912
1941680.0,1623756487.952
1940959.0,1623756487.992
1942016.0,1623756488.032
1943730.0,1623756488.072
1943882.0,1623756488.112
1943740.0,1623756488.152
1943640.0,1623756488.192
1943370.0,1623756488.232
1943513.0,1623756488.272
1943992.0,1623756488.312
1944376.0,1623756488.352
1944167.0,1623756488.392
1943703.0,1623756488.432
1943358.0,1623756488.472
1943295.0,1623756488.512
1943473.0,1623756488.552
1943643.0,1623756488.592
1943249.0,1623756488.632
1943573.0,1623756488.672
1943748.0,1623756488.712
1944028.0,1623756488.752
1943693.0,1623756488.792
1943090.0,1623756488.832
1942344.0,1623756488.872
1941708.0,1623756488.912
1940905.0,1623756488.952
1940942.0,1623756488.992
1940525.0,1623756489.032
1940354.0,1623756489.072
1940396.0,1623756489.112
1940019.0,1623756489.152
1939944.0,1623756489.192
1940421.0,1623756489.232
1940259.0,1623756489.272
1940527.0,1623756489.312
1940604.0,1623756489.352
1940859.0,1623756489.392
1940017.0,1623756489.432
1939405.0,1623756489.472
1938693.0,1623756489.512
1938059.0,1623756489.552
1937493.0,1623756489.592
1937183.0,1623756489.632
1936749.0,1623756489.672
1937932.0,1623756489.712
1938532.0,1623756489.752
1938769.0,1623756489.792
1938627.0,1623756489.832
1938565.0,1623756489.872
1939108.0,1623756489.912
1939793.0,1623756489.952
1940080.0,1623756489.992
1940151.0,1623756490.032
1939209.0,1623756490.072
1938798.0,1623756490.112
1937735.0,1623756490.152
1936849.0,1623756490.192
1936760.0,1623756490.232
1936428.0,1623756490.272
1935990.0,1623756490.312
1935759.0,1623756490.352
1935750.0,1623756490.392
1935608.0,1623756490.432
1935938.0,1623756490.472
1935956.0,1623756490.512
1936128.0,1623756490.552
1936492.0,1623756490.592
1936853.0,1623756490.632
1936297.0,1623756490.672
1935657.0,1623756490.712
1934791.0,1623756490.752
1933483.0,1623756490.792
1932689.0,1623756490.832
1932694.0,1623756490.872
1932877.0,1623756490.912
1932638.0,1623756490.952
1932556.0,1623756490.992
1932112.0,1623756491.032
1932289.0,1623756491.072
1932104.0,1623756491.112
1932254.0,1623756491.152
1932120.0,1623756491.192
1932583.0,1623756491.232
1932269.0,1623756491.272
1931706.0,1623756491.312
1930974.0,1623756491.352
1929966.0,1623756491.392
1929204.0,1623756491.432
1928357.0,1623756491.472
1927930.0,1623756491.512
1927759.0,1623756491.552
1927449.0,1623756491.592
1927170.0,1623756491.632
1927036.0,1623756491.672
1926804.0,1623756491.712
1926897.0,1623756491.752
1927162.0,1623756491.792
1927126.0,1623756491.832
1927305.0,1623756491.872
1927774.0,1623756491.912
1927674.0,1623756491.952
1927201.0,1623756491.992
1926726.0,1623756492.032
1925528.0,1623756492.072
1924835.0,1623756492.112
1924301.0,1623756492.152
1924321.0,1623756492.192
1924338.0,1623756492.232
1924184.0,1623756492.271
1923615.0,1623756492.31
1923625.0,1623756492.349
1924296.0,1623756492.388
1925698.0,1623756492.427
1927177.0,1623756492.466
1927069.0,1623756492.505
1926779.0,1623756492.544
1926657.0,1623756492.583
1925778.0,1623756492.622
1925120.0,1623756492.661
1924289.0,1623756492.7
1924917.0,1623756492.739
1926473.0,1623756492.778
1934146.0,1623756492.817
1938724.0,1623756492.856
1935029.0,1623756492.895
1925670.0,1623756492.934
1925227.0,1623756492.973
1927418.0,1623756493.012
1929481.0,1623756493.051
1929226.0,1623756493.09
1929041.0,1623756493.129
1929071.0,1623756493.168
1929677.0,1623756493.207
1930559.0,1623756493.246
1930859.0,1623756493.285
1931021.0,1623756493.324
1930640.0,1623756493.363
1930160.0,1623756493.402
1930538.0,1623756493.441
1930503.0,1623756493.48
1930368.0,1623756493.519
1930307.0,1623756493.597
1930332.0,1623756493.636
1930502.0,1623756493.675
1930465.0,1623756493.714
1930758.0,1623756493.753
1931279.0,1623756493.792
1931484.0,1623756493.87
1931365.0,1623756493.831
1930808.0,1623756493.909
1930189.0,1623756493.948
1930307.0,1623756493.558
1929806.0,1623756493.987
1929511.0,1623756494.065
1929135.0,1623756494.026
1929405.0,1623756494.104
1929413.0,1623756494.143
1929240.0,1623756494.182
1929108.0,1623756494.221
1929171.0,1623756494.26
1928996.0,1623756494.299
1928470.0,1623756494.338
1928348.0,1623756494.377
1928125.0,1623756494.416
1927686.0,1623756494.455
1927151.0,1623756494.494
1925423.0,1623756494.572
1924467.0,1623756494.611
1924306.0,1623756494.65
1924273.0,1623756494.689
1924724.0,1623756494.728
1924974.0,1623756494.767
1926430.0,1623756494.533
1924587.0,1623756494.806
1924788.0,1623756494.845
1925469.0,1623756494.884
1927279.0,1623756494.962
1928769.0,1623756495.04
1928225.0,1623756495.079
1927627.0,1623756495.118
1927290.0,1623756495.157
1926951.0,1623756495.196
1927164.0,1623756495.235
1928091.0,1623756495.001
1927466.0,1623756495.274
1926046.0,1623756494.923
1927647.0,1623756495.313
1927592.0,1623756495.352
1928055.0,1623756495.391
1928073.0,1623756495.43
1928581.0,1623756495.469
1929059.0,1623756495.508
1929545.0,1623756495.547
1930227.0,1623756495.586
1930800.0,1623756495.625
1931027.0,1623756495.664
1930557.0,1623756495.703
1930384.0,1623756495.742
1930538.0,1623756495.781
1931107.0,1623756495.82
1931009.0,1623756495.859
1931641.0,1623756495.898
1931845.0,1623756495.937
1932161.0,1623756495.976
1932509.0,1623756496.015
1932941.0,1623756496.054
1933373.0,1623756496.093
1933976.0,1623756496.132
1934749.0,1623756496.171
1935170.0,1623756496.21
1935754.0,1623756496.249
1935705.0,1623756496.288
1935336.0,1623756496.327
1934951.0,1623756496.366
1934902.0,1623756496.405
1934714.0,1623756496.444
1934605.0,1623756496.483
1935055.0,1623756496.522
1935359.0,1623756496.561
1935408.0,1623756496.6
1935582.0,1623756496.639
1935978.0,1623756496.678
1936515.0,1623756496.717
1936778.0,1623756496.756
1937591.0,1623756496.795
1938327.0,1623756496.834
1939013.0,1623756496.873
1939134.0,1623756496.912
1938765.0,1623756496.951
1938678.0,1623756496.99
1938018.0,1623756497.029
1938073.0,1623756497.068
1938807.0,1623756497.107
1938778.0,1623756497.146
1939497.0,1623756497.185
1939594.0,1623756497.224
1941879.0,1623756497.263
1942561.0,1623756497.302
1943335.0,1623756497.341
1943694.0,1623756497.38
1943895.0,1623756497.419
1944309.0,1623756497.458
1944234.0,1623756497.497
1943235.0,1623756497.537
1942757.0,1623756497.577
1941571.0,1623756497.617
1944032.0,1623756497.657
1949127.0,1623756497.697
1958395.0,1623756497.737
1963241.0,1623756497.777
1962128.0,1623756497.817
1952868.0,1623756497.857
1946346.0,1623756497.897
1947079.0,1623756497.937
1948425.0,1623756497.977
1949736.0,1623756498.017
1950618.0,1623756498.057
1950166.0,1623756498.097
1950705.0,1623756498.137
1951052.0,1623756498.177
1950335.0,1623756498.217
1951050.0,1623756498.257
1951496.0,1623756498.297
1951313.0,1623756498.337
1951228.0,1623756498.377
1951420.0,1623756498.417
1951420.0,1623756498.457
1951407.0,1623756498.497
1951815.0,1623756498.537
1951720.0,1623756498.577
1951879.0,1623756498.617
1951961.0,1623756498.657
1951561.0,1623756498.697
1951202.0,1623756498.737
1950556.0,1623756498.777
1950431.0,1623756498.817
1950435.0,1623756498.857
1951006.0,1623756498.897
1951010.0,1623756498.937
1951292.0,1623756498.977
1951328.0,1623756499.017
1951469.0,1623756499.057
1952484.0,1623756499.097
1952541.0,1623756499.137
1953115.0,1623756499.177
1953025.0,1623756499.217
1952083.0,1623756499.257
1951463.0,1623756499.297
1950821.0,1623756499.337
1950104.0,1623756499.377
1949828.0,1623756499.417
1949662.0,1623756499.457
1949083.0,1623756499.497
1948563.0,1623756499.537
1947912.0,1623756499.577
1947807.0,1623756499.617
1946873.0,1623756499.657
1948990.0,1623756499.697
1950093.0,1623756499.737
1950019.0,1623756499.777
1948976.0,1623756499.817
1947385.0,1623756499.857
1946174.0,1623756499.897
1945227.0,1623756499.937
1944037.0,1623756499.977
1944124.0,1623756500.017
1943625.0,1623756500.057
1943296.0,1623756500.097
1942477.0,1623756500.137
1943098.0,1623756500.177
1942411.0,1623756500.217
1942390.0,1623756500.257
1942845.0,1623756500.297
1942535.0,1623756500.337
1942330.0,1623756500.377
1941675.0,1623756500.417
1940848.0,1623756500.457
1939927.0,1623756500.497
1939118.0,1623756500.537
1938466.0,1623756500.577
1938082.0,1623756500.617
1937501.0,1623756500.657
1936997.0,1623756500.697
1936231.0,1623756500.737
1936308.0,1623756500.777
1936346.0,1623756500.817
1936215.0,1623756500.857
1937312.0,1623756500.897
1937664.0,1623756500.937
1937689.0,1623756500.977
1937447.0,1623756501.017
1937089.0,1623756501.057
1937295.0,1623756501.097
1936837.0,1623756501.137
1936347.0,1623756501.177
1936156.0,1623756501.217
1935704.0,1623756501.257
1934838.0,1623756501.297
1934536.0,1623756501.337
1934039.0,1623756501.377
1933761.0,1623756501.417
1933404.0,1623756501.457
1933391.0,1623756501.497
1933555.0,1623756501.537
1933977.0,1623756501.577
1933916.0,1623756501.617
1933224.0,1623756501.657
1932698.0,1623756501.697
1932181.0,1623756501.737
1931126.0,1623756501.777
1930748.0,1623756501.817
1930618.0,1623756501.857
1930615.0,1623756501.897
1930095.0,1623756501.937
1929933.0,1623756501.977
1930150.0,1623756502.017
1929966.0,1623756502.057
1930143.0,1623756502.097
1929820.0,1623756502.137
1930212.0,1623756502.177
1930067.0,1623756502.217
1929857.0,1623756502.257
1929841.0,1623756502.297
1928936.0,1623756502.337
1928071.0,1623756502.377
1926767.0,1623756502.417
1926059.0,1623756502.457
1925061.0,1623756502.497
1924671.0,1623756502.537
1924071.0,1623756502.577
1923994.0,1623756502.617
1923626.0,1623756502.657
1923195.0,1623756502.697
1922883.0,1623756502.737
1922567.0,1623756502.777
1922280.0,1623756502.817
1922451.0,1623756502.857
1922012.0,1623756502.897
1923617.0,1623756502.937
1925241.0,1623756502.977
1925702.0,1623756503.017
1925001.0,1623756503.057
1924249.0,1623756503.097
1923728.0,1623756503.137
1924722.0,1623756503.177
1926358.0,1623756503.217
1928789.0,1623756503.257
1932124.0,1623756503.297
1934307.0,1623756503.337
1930997.0,1623756503.377
1925736.0,1623756503.417
1923454.0,1623756503.457
1924592.0,1623756503.497
1925321.0,1623756503.537
1926324.0,1623756503.577
1926703.0,1623756503.617
1927306.0,1623756503.657
1928518.0,1623756503.697
1928518.0,1623756503.737
1928613.0,1623756503.777
1928538.0,1623756503.817
1928033.0,1623756503.857
1927457.0,1623756503.897
1927347.0,1623756503.937
1927533.0,1623756503.977
1927461.0,1623756504.017
1927457.0,1623756504.057
1927153.0,1623756504.097
